 LCModel (Version 6.3-1L) Copyright: S.W. Provencher.          Ref.: Magn. Reson. Med. 30:672-679 (1993).                
 Slice#1 Row#4 Col#10  PD_05_press_1_raw_act
 36 lines in following concentration table = NCONC+1
    Conc.  %SD /Cr+PCr  Metabolite                                         
  472.444  44%   0.423 Ala                                                 
    0.000 999%   0.000 Asp                                                 
  531.448  47%   0.476 Cr                                                  
  584.968  43%   0.524 PCr                                                 
   27.864 643% 2.5E-02 GABA                                                
    0.000 999%   0.000 Glc                                                 
  229.051 207%   0.205 Gln                                                 
   63.640 874% 5.7E-02 Glu                                                 
  516.019   4%   0.462 GPC                                                 
    0.000 999%   0.000 PCh                                                 
  664.939  15%   0.596 GSH                                                 
 2.00E+03  14%   1.790 Ins                                                 
    0.000 999%   0.000 Lac                                                 
 2.16E+03   4%   1.939 NAA                                                 
    0.000 999%   0.000 NAAG                                                
  186.803  15%   0.167 Scyllo                                              
    0.000 999%   0.000 Tau                                                 
  243.234  47%   0.218 -CrCH2                                              
  516.019   4%   0.462 GPC+PCh                                             
 2.16E+03   4%   1.939 NAA+NAAG                                            
 1.12E+03   5%   1.000 Cr+PCr                                              
  292.691 319%   0.262 Glu+Gln                                             
    0.000 999%   0.000 Lip13a                                              
    0.000 999%   0.000 Lip13b                                              
 8.18E-03 999% 7.3E-06 Lip09                                               
 1.45E+03   9%   1.295 MM09                                                
 1.69E-02 999% 1.5E-05 Lip20                                               
 2.45E+03  13%   2.195 MM20                                                
    0.000 999%   0.000 MM12                                                
  690.912  25%   0.619 MM14                                                
 1.07E+03  19%   0.959 MM17                                                
    0.000 999%   0.000 Lip13a+Lip13b                                       
  690.912  25%   0.619 MM14+Lip13a+Lip13b+MM12                             
 1.45E+03   9%   1.295 MM09+Lip09                                          
 2.45E+03  13%   2.195 MM20+Lip20                                          
   6 lines in following misc. output table
  FWHM = 0.092 ppm    S/N =  10                                            
  Data shift = 0.038 ppm                                                   
  Ph: -38 deg     -13.4 deg/ppm                                            
  alphaB,S = 2.3E+00,   1.6E+02                                            
   14 spline knots.   Ns = 6(2)                                            
  ( 7) 5 infls.   ( 3) 1 extrs.                                            
  498 points on ppm-axis = NY
      4.000000     3.992357     3.984714     3.977070     3.969427     3.961784     3.954141     3.946497     3.938854     3.931211
      3.923568     3.915925     3.908281     3.900638     3.892995     3.885352     3.877708     3.870065     3.862422     3.854779
      3.847136     3.839492     3.831849     3.824206     3.816563     3.808919     3.801276     3.793633     3.785990     3.778347
      3.770703     3.763060     3.755417     3.747774     3.740130     3.732487     3.724844     3.717201     3.709558     3.701914
      3.694271     3.686628     3.678985     3.671341     3.663698     3.656055     3.648412     3.640769     3.633125     3.625482
      3.617839     3.610196     3.602552     3.594909     3.587266     3.579623     3.571980     3.564336     3.556693     3.549050
      3.541407     3.533763     3.526120     3.518477     3.510834     3.503191     3.495547     3.487904     3.480261     3.472618
      3.464974     3.457331     3.449688     3.442045     3.434402     3.426758     3.419115     3.411472     3.403829     3.396185
      3.388542     3.380899     3.373256     3.365613     3.357969     3.350326     3.342683     3.335040     3.327396     3.319753
      3.312110     3.304467     3.296824     3.289180     3.281537     3.273894     3.266251     3.258607     3.250964     3.243321
      3.235678     3.228034     3.220391     3.212748     3.205105     3.197462     3.189818     3.182175     3.174532     3.166889
      3.159245     3.151602     3.143959     3.136316     3.128673     3.121029     3.113386     3.105743     3.098100     3.090456
      3.082813     3.075170     3.067527     3.059884     3.052240     3.044597     3.036954     3.029311     3.021667     3.014024
      3.006381     2.998738     2.991095     2.983451     2.975808     2.968165     2.960522     2.952878     2.945235     2.937592
      2.929949     2.922306     2.914662     2.907019     2.899376     2.891733     2.884089     2.876446     2.868803     2.861160
      2.853517     2.845873     2.838230     2.830587     2.822944     2.815300     2.807657     2.800014     2.792371     2.784728
      2.777084     2.769441     2.761798     2.754155     2.746511     2.738868     2.731225     2.723582     2.715939     2.708295
      2.700652     2.693009     2.685366     2.677722     2.670079     2.662436     2.654793     2.647150     2.639506     2.631863
      2.624220     2.616577     2.608933     2.601290     2.593647     2.586004     2.578361     2.570717     2.563074     2.555431
      2.547788     2.540144     2.532501     2.524858     2.517215     2.509572     2.501928     2.494285     2.486642     2.478999
      2.471355     2.463712     2.456069     2.448426     2.440783     2.433139     2.425496     2.417853     2.410210     2.402566
      2.394923     2.387280     2.379637     2.371994     2.364350     2.356707     2.349064     2.341421     2.333777     2.326134
      2.318491     2.310848     2.303205     2.295561     2.287918     2.280275     2.272632     2.264988     2.257345     2.249702
      2.242059     2.234416     2.226772     2.219129     2.211486     2.203843     2.196199     2.188556     2.180913     2.173270
      2.165627     2.157983     2.150340     2.142697     2.135054     2.127410     2.119767     2.112124     2.104481     2.096838
      2.089194     2.081551     2.073908     2.066265     2.058621     2.050978     2.043335     2.035692     2.028049     2.020405
      2.012762     2.005119     1.997476     1.989833     1.982190     1.974546     1.966903     1.959260     1.951617     1.943974
      1.936331     1.928688     1.921045     1.913402     1.905759     1.898115     1.890472     1.882829     1.875186     1.867543
      1.859900     1.852257     1.844614     1.836971     1.829327     1.821684     1.814041     1.806398     1.798755     1.791112
      1.783469     1.775826     1.768183     1.760540     1.752896     1.745253     1.737610     1.729967     1.722324     1.714681
      1.707038     1.699395     1.691752     1.684108     1.676465     1.668822     1.661179     1.653536     1.645893     1.638250
      1.630607     1.622964     1.615321     1.607677     1.600034     1.592391     1.584748     1.577105     1.569462     1.561819
      1.554176     1.546533     1.538890     1.531246     1.523603     1.515960     1.508317     1.500674     1.493031     1.485388
      1.477745     1.470102     1.462458     1.454815     1.447172     1.439529     1.431886     1.424243     1.416600     1.408957
      1.401314     1.393671     1.386027     1.378384     1.370741     1.363098     1.355455     1.347812     1.340169     1.332526
      1.324883     1.317240     1.309596     1.301953     1.294310     1.286667     1.279024     1.271381     1.263738     1.256095
      1.248452     1.240808     1.233165     1.225522     1.217879     1.210236     1.202593     1.194950     1.187307     1.179664
      1.172021     1.164377     1.156734     1.149091     1.141448     1.133805     1.126162     1.118519     1.110876     1.103233
      1.095590     1.087946     1.080303     1.072660     1.065017     1.057374     1.049731     1.042088     1.034445     1.026802
      1.019158     1.011515     1.003872     0.996229     0.988586     0.980943     0.973300     0.965657     0.958014     0.950371
      0.942727     0.935084     0.927441     0.919798     0.912155     0.904512     0.896869     0.889226     0.881583     0.873940
      0.866296     0.858653     0.851010     0.843367     0.835724     0.828081     0.820438     0.812795     0.805152     0.797508
      0.789865     0.782222     0.774579     0.766936     0.759293     0.751650     0.744007     0.736364     0.728721     0.721077
      0.713434     0.705791     0.698148     0.690505     0.682862     0.675219     0.667576     0.659933     0.652290     0.644646
      0.637003     0.629360     0.621717     0.614074     0.606431     0.598788     0.591145     0.583502     0.575858     0.568215
      0.560572     0.552929     0.545286     0.537643     0.530000     0.522357     0.514714     0.507071     0.499427     0.491784
      0.484141     0.476498     0.468855     0.461212     0.453569     0.445925     0.438282     0.430639     0.422996     0.415353
      0.407710     0.400067     0.392424     0.384780     0.377137     0.369494     0.361851     0.354208     0.346565     0.338922
      0.331278     0.323635     0.315992     0.308349     0.300706     0.293063     0.285420     0.277777     0.270133     0.262490
      0.254847     0.247204     0.239561     0.231918     0.224275     0.216631     0.208988     0.201345
 NY phased data points follow
   3.71586E+00  1.99231E+00  4.67998E+00  7.58119E+00  9.21583E+00  8.77365E+00  1.23290E+01  9.70729E+00  8.58285E+00  1.28355E+01
   1.33140E+01  1.23740E+01  1.14107E+01  1.01895E+01  7.06308E+00  7.47994E+00  7.25707E+00  5.40696E+00  8.80860E+00  4.24563E+00
   5.09194E+00  4.02066E+00  4.97554E+00  5.34863E+00  8.67345E+00  6.76213E+00  5.78025E+00  6.26521E+00  6.53171E+00  6.89186E+00
   8.48412E+00  8.23484E+00  4.23135E+00  8.68760E+00  6.17911E+00  9.71047E+00  9.55392E+00  1.20853E+01  8.30936E+00  6.76874E+00
   8.13891E+00  9.48186E+00  7.63065E+00  1.05483E+01  9.44070E+00  1.07002E+01  9.86143E+00  8.51092E+00  9.68305E+00  7.13521E+00
   7.29481E+00  6.30911E+00  4.74090E+00  3.89903E+00  1.80271E+00  5.88942E+00  5.76301E+00  6.27293E+00  4.54745E+00  4.14297E+00
   2.29784E+00  4.27794E+00  2.34328E+00  1.56101E+00  3.32581E+00  1.13274E+00  3.53702E+00 -2.14637E-01 -2.10175E-02  6.22074E-01
  -6.66510E-01  4.58004E+00  3.40713E+00  1.70051E+00  8.82772E-01  2.18488E+00  4.24811E+00  2.98561E+00  3.78051E+00  2.73312E+00
   8.02960E-01  1.37315E+00  1.16368E+00  3.25908E+00  3.46721E+00  3.82014E+00  3.72104E+00  2.73000E+00  3.28621E+00  7.15753E+00
   7.13986E+00  6.65646E+00  9.94581E+00  1.26044E+01  1.53928E+01  1.32179E+01  1.46650E+01  1.31244E+01  2.00852E+01  2.28578E+01
   2.80793E+01  2.71577E+01  2.68221E+01  2.59905E+01  2.20336E+01  2.20903E+01  1.37497E+01  1.33382E+01  1.13408E+01  9.02229E+00
   1.01047E+01  8.08306E+00  3.83046E+00  4.73693E+00  7.98600E+00  7.14870E+00  7.01683E+00  4.38624E+00  6.38219E+00  7.29527E+00
   1.29739E+01  1.01875E+01  1.46537E+01  1.58043E+01  1.95374E+01  2.17740E+01  2.56324E+01  2.61972E+01  1.99448E+01  2.07220E+01
   1.74828E+01  1.52764E+01  1.30019E+01  1.36186E+01  1.03890E+01  7.28907E+00  5.41887E+00  5.53624E+00  7.56127E+00  6.37859E+00
   4.79748E+00  2.81715E+00  2.51554E-01 -1.40629E-01  6.30896E-01  6.57431E+00  4.02917E+00  1.99482E+00  3.07376E+00  1.54810E+00
   1.40879E+00  1.13806E+00  1.36091E+00  1.11580E+00  3.56850E+00  2.98748E+00  1.84582E+00  2.78000E+00  4.78973E+00 -8.62278E-01
  -1.31715E-01  1.27516E+00  2.90810E+00  1.58705E+00 -5.51907E-01  1.93198E+00  2.74306E-01 -5.09807E+00 -5.08655E+00 -5.45135E+00
  -4.06136E+00 -4.45549E+00 -8.49239E+00 -6.00726E+00 -5.82797E+00 -6.23566E+00 -7.07576E+00 -1.04001E+01 -9.88507E+00 -7.50103E+00
  -8.18373E+00 -8.80313E+00 -4.51953E+00 -5.80938E+00 -2.01753E+00 -4.17690E+00 -4.56602E+00 -2.55030E+00 -2.15312E+00 -5.69316E-01
  -2.48817E-02 -3.64524E+00 -3.37285E+00 -1.40531E+00 -2.00257E+00 -3.18639E+00 -3.20542E+00 -1.46646E+00  1.28917E-01 -2.19546E+00
   1.18007E+00 -1.86061E-01  1.46061E+00 -2.97770E+00  4.36263E+00 -2.75317E-01  2.49636E+00  2.56281E+00  2.22695E+00 -6.95717E-01
   2.76313E+00  1.01996E+00  1.60701E+00  3.88510E+00  2.78419E+00  2.09707E+00  4.91132E+00  4.62378E+00  4.96410E+00  2.73314E+00
  -1.98898E+00  3.84890E+00  8.79336E-01  6.59664E-01  6.48450E-01  4.65590E+00  8.11403E-01  4.44184E+00  2.07135E+00  3.57758E+00
   2.70662E+00  3.03066E+00  3.60192E+00  3.52204E+00  6.92367E+00  2.96906E+00  3.48154E+00  7.20058E+00  1.68324E+00  3.52194E+00
   4.49756E+00  1.92206E+00  5.23055E+00  6.36683E+00  4.04035E+00  7.43142E+00  6.81560E+00  7.25593E+00  1.17652E+01  1.41570E+01
   1.61945E+01  1.80383E+01  2.48873E+01  3.07578E+01  3.16310E+01  3.23884E+01  3.45273E+01  3.93201E+01  4.51948E+01  4.99023E+01
   5.01269E+01  4.93875E+01  4.33798E+01  4.04581E+01  3.71882E+01  2.98482E+01  2.57707E+01  1.80766E+01  1.61732E+01  1.48240E+01
   1.23586E+01  8.44930E+00  8.74651E+00  8.24928E+00  3.77484E+00  1.27121E+00  4.49474E+00  3.19841E+00  3.08220E+00  9.73005E-01
   2.25025E+00  4.96624E+00  2.17039E+00  1.73882E+00  2.46331E+00  4.15595E+00  4.11094E+00  4.28755E+00  7.38220E+00  3.34955E+00
   4.51627E+00  6.31018E+00  3.12918E+00  4.04519E+00  5.02897E+00  4.84515E+00  4.94471E+00  5.15403E+00  4.45026E+00  5.44658E+00
   4.80650E+00  4.78580E+00  5.83849E+00  1.76007E+00  5.42300E+00  5.39084E+00  4.47558E+00  7.82941E+00  5.34426E+00  6.21776E+00
   6.31081E+00  6.27666E+00  7.84894E+00  5.65332E+00  1.82571E+00  5.40460E+00  7.48091E+00  7.78095E+00  4.79883E+00  4.73580E+00
   3.92363E+00  5.59898E+00  4.84543E+00  5.71395E+00  1.49255E+00  5.93357E+00  4.31945E+00  1.17827E+00  4.53156E+00  6.74947E+00
   2.92902E+00  5.45184E+00  4.86122E+00  2.31577E-02  6.70043E-01  2.91525E+00  5.16331E+00  5.39728E+00  6.01128E+00  5.52235E+00
   4.51447E+00  4.85286E+00  2.57239E+00  5.85139E+00  5.05612E+00  5.19437E+00  1.52098E+00  4.08000E+00  2.41155E+00  4.44399E+00
   2.15215E+00  6.12243E+00  3.80976E+00 -1.14859E+00  1.04490E+00 -2.94417E-01 -2.56571E+00 -1.97861E+00 -3.45346E+00 -3.94412E+00
  -3.07346E+00 -5.92794E+00 -1.56064E+00 -1.31538E+00 -4.01777E+00 -5.74739E-01 -7.10757E+00 -4.27098E+00 -5.92974E+00 -4.30194E+00
  -4.89702E+00 -5.21948E+00 -1.95835E+00 -2.27937E+00 -1.36163E+00  1.85779E-01  2.44048E-01  3.72861E+00 -4.94573E+00  2.82701E+00
  -2.65784E+00 -4.48947E-01  3.32881E+00  2.53805E-01  4.99210E+00  2.15190E+00  1.42753E+00  3.86779E-01  3.87815E+00  6.44393E+00
   4.95898E+00  4.39430E+00  6.30043E+00  7.07634E+00  3.97764E+00  7.43969E+00  9.19640E+00  8.41792E+00  6.36559E+00  9.96808E+00
   1.14327E+01  7.81774E+00  1.13316E+01  1.19723E+01  1.15792E+01  9.55255E+00  1.17607E+01  1.33080E+01  1.04062E+01  1.33830E+01
   1.42425E+01  1.01155E+01  1.15102E+01  8.34912E+00  8.38041E+00  9.22842E+00  9.98761E+00  6.72167E+00  1.07886E+01  6.91606E+00
   8.05011E+00  7.37013E+00  5.92952E+00  6.36987E+00  4.64785E+00  4.09075E+00  7.39721E+00  3.62450E+00  5.71262E+00  2.05349E+00
   3.99453E+00  3.28030E+00 -1.02082E+00  4.53196E+00  4.99742E-01  4.69411E+00  3.88354E-02  2.52133E+00  1.67584E+00  7.93604E-01
   1.97705E+00  2.29568E+00  3.41262E+00  6.78393E-02 -1.99545E+00  2.43023E+00  4.96452E-01 -5.90647E-01  9.34502E-01  1.51516E+00
   3.01098E-01  2.89835E-01  3.42240E+00 -1.16357E+00  1.90924E+00  1.59800E+00  2.20914E+00  1.77637E+00  2.85437E+00  2.43650E+00
   4.43482E+00  2.30018E+00  3.02139E+00 -9.51456E-01  5.83719E+00 -2.29489E+00  2.25535E+00  4.22793E+00  2.52203E+00  4.48899E-01
   2.93004E+00  2.13325E+00  2.64699E+00  3.96518E+00  3.58663E+00  4.28559E+00  1.53061E+00  4.41691E-01  2.19760E+00  3.83482E+00
   2.32376E+00  3.08976E+00  2.74516E+00  3.42218E+00  1.27766E+00  3.18975E+00  2.21988E+00  4.61556E+00  6.04846E+00  1.86383E+00
   2.88883E+00  1.41764E+00 -5.92165E-01  3.49246E+00  1.18817E+00  8.60585E-01  2.68735E+00  1.45490E+00
 NY points of the fit to the data follow
   5.07073E+00  5.67642E+00  6.20718E+00  6.97029E+00  7.88380E+00  8.70446E+00  9.62198E+00  1.04123E+01  1.12045E+01  1.15547E+01
   1.19450E+01  1.15136E+01  1.14450E+01  1.02113E+01  9.68105E+00  8.05984E+00  7.28835E+00  5.83440E+00  5.59612E+00  4.99687E+00
   4.87076E+00  4.99708E+00  4.79090E+00  5.40253E+00  5.23382E+00  6.26262E+00  6.12709E+00  7.89992E+00  7.67184E+00  9.68879E+00
   8.77591E+00  1.04317E+01  8.73941E+00  9.77955E+00  8.14117E+00  8.97693E+00  7.73618E+00  8.25950E+00  7.44482E+00  7.85032E+00
   7.40398E+00  7.87655E+00  7.67806E+00  8.29726E+00  8.12662E+00  8.57263E+00  8.50507E+00  8.69546E+00  8.09841E+00  7.82767E+00
   6.85720E+00  6.35127E+00  5.35510E+00  4.99232E+00  4.29510E+00  4.25319E+00  3.76637E+00  4.04402E+00  3.56192E+00  3.94074E+00
   3.14018E+00  3.36933E+00  2.57440E+00  2.95384E+00  2.30534E+00  2.74202E+00  2.21431E+00  2.76564E+00  2.33255E+00  2.90254E+00
   2.48935E+00  2.89270E+00  2.45305E+00  2.54278E+00  2.18196E+00  2.58934E+00  2.25742E+00  2.83096E+00  2.40370E+00  3.10886E+00
   2.55149E+00  3.37673E+00  2.72825E+00  3.81838E+00  3.08140E+00  4.16529E+00  3.25198E+00  3.92642E+00  3.05119E+00  3.67515E+00
   5.13428E+00  5.95568E+00  8.51055E+00  9.23617E+00  1.24079E+01  1.29483E+01  1.63211E+01  1.68593E+01  2.08863E+01  2.13964E+01
   2.52908E+01  2.50253E+01  2.65785E+01  2.53177E+01  2.38903E+01  2.16929E+01  1.85885E+01  1.61856E+01  1.28782E+01  1.08661E+01
   8.29045E+00  6.90060E+00  5.23476E+00  4.46413E+00  4.11172E+00  4.60493E+00  4.66306E+00  5.98380E+00  7.59446E+00  9.46372E+00
   1.12440E+01  1.33005E+01  1.54482E+01  1.77266E+01  1.97182E+01  2.15560E+01  2.22759E+01  2.25521E+01  2.16829E+01  2.03347E+01
   1.86218E+01  1.64004E+01  1.45456E+01  1.21411E+01  1.05617E+01  8.46104E+00  7.40032E+00  5.78863E+00  5.27735E+00  3.96924E+00
   3.67249E+00  2.48773E+00  2.72350E+00  2.19215E+00  2.39599E+00  1.91632E+00  1.90859E+00  1.47427E+00  1.30537E+00  8.84864E-01
   7.77229E-01  3.71966E-01  3.01016E-01 -2.62452E-02 -1.74490E-01 -4.57911E-01 -6.40903E-01 -9.07785E-01 -1.06226E+00 -1.33244E+00
  -1.46471E+00 -1.63870E+00 -1.80646E+00 -1.90313E+00 -2.27926E+00 -2.35648E+00 -2.77957E+00 -2.89894E+00 -3.30234E+00 -3.56244E+00
  -3.84844E+00 -4.19679E+00 -4.35246E+00 -4.74880E+00 -4.80780E+00 -5.23563E+00 -5.06554E+00 -5.53531E+00 -5.10256E+00 -5.48274E+00
  -4.77335E+00 -4.92669E+00 -4.20302E+00 -4.19952E+00 -3.49370E+00 -3.32243E+00 -2.76177E+00 -2.34502E+00 -1.82197E+00 -1.22128E+00
  -8.81871E-01 -2.77159E-01 -2.37089E-01  2.24051E-01  2.61133E-02  3.47124E-01  4.51643E-02  2.47688E-01  1.11039E-01  3.35113E-01
   5.00806E-01  5.70677E-01  8.69766E-01  6.28885E-01  9.48544E-01  4.36297E-01  6.69123E-01  4.70252E-02  2.67577E-01 -3.59437E-01
  -4.29519E-02 -5.82158E-01 -2.76629E-02 -3.85089E-01  1.81884E-01  2.15822E-02  5.65744E-01  5.44982E-01  9.53406E-01  1.01017E+00
   1.23783E+00  1.32652E+00  1.47350E+00  1.60236E+00  1.71330E+00  1.95007E+00  2.11969E+00  2.38042E+00  2.44757E+00  2.62851E+00
   2.65970E+00  2.80764E+00  2.90585E+00  3.08857E+00  3.41678E+00  3.60671E+00  4.04452E+00  4.10196E+00  4.46677E+00  4.38098E+00
   4.67904E+00  4.56199E+00  4.95314E+00  4.97607E+00  5.56588E+00  5.80247E+00  6.59716E+00  7.57823E+00  1.13341E+01  1.34190E+01
   1.78928E+01  2.03646E+01  2.48696E+01  2.75077E+01  3.17160E+01  3.44904E+01  3.90251E+01  4.18772E+01  4.55569E+01  4.74612E+01
   4.71661E+01  4.70856E+01  4.24992E+01  4.06634E+01  3.40791E+01  3.14814E+01  2.51586E+01  2.26999E+01  1.78934E+01  1.59852E+01
   1.27257E+01  1.12977E+01  8.80653E+00  7.52439E+00  5.00661E+00  4.11271E+00  3.70028E+00  3.41233E+00  3.17924E+00  2.99496E+00
   2.84533E+00  2.73522E+00  2.65787E+00  2.62125E+00  2.61666E+00  2.65163E+00  2.71661E+00  2.82091E+00  2.95122E+00  3.11879E+00
   3.30627E+00  3.52546E+00  3.75680E+00  4.01130E+00  4.26563E+00  4.53101E+00  4.78304E+00  5.03095E+00  5.25258E+00  5.45536E+00
   5.62030E+00  5.75526E+00  5.84508E+00  5.89852E+00  5.90519E+00  5.87656E+00  5.80631E+00  5.70860E+00  5.58150E+00  5.44213E+00
   5.29220E+00  5.15273E+00  5.03135E+00  4.96270E+00  4.99622E+00  5.17412E+00  5.10344E+00  5.29447E+00  5.09289E+00  5.26590E+00
   4.90936E+00  5.00050E+00  4.46932E+00  4.78675E+00  4.23400E+00  4.56003E+00  3.87132E+00  3.97921E+00  3.33433E+00  3.27309E+00
   2.90893E+00  2.98380E+00  3.09448E+00  3.41237E+00  3.96899E+00  4.26470E+00  4.90477E+00  4.91044E+00  5.29902E+00  4.97833E+00
   5.05595E+00  4.54538E+00  4.51164E+00  4.09892E+00  3.89713E+00  3.49291E+00  3.25133E+00  2.88159E+00  2.62830E+00  2.21530E+00
   1.88862E+00  1.63863E+00  1.42717E+00  1.25231E+00  1.09936E+00  9.73696E-01  8.63430E-01  7.75330E-01  6.98307E-01  6.39711E-01
   5.88856E-01  5.53443E-01  5.23102E-01  5.05903E-01  4.91834E-01  4.89321E-01  4.88627E-01  4.98442E-01  5.09285E-01  5.30158E-01
   5.51869E-01  5.83691E-01  6.16641E-01  6.60240E-01  7.05786E-01  7.63157E-01  8.24008E-01  8.98589E-01  9.78929E-01  1.07575E+00
   1.18161E+00  1.30784E+00  1.44761E+00  1.61283E+00  1.79721E+00  2.01320E+00  2.25493E+00  2.53510E+00  2.84777E+00  3.20519E+00
   3.60053E+00  4.04472E+00  4.52900E+00  5.06177E+00  5.63109E+00  6.24165E+00  6.87740E+00  7.53876E+00  8.20535E+00  8.87351E+00
   9.51933E+00  1.01365E+01  1.06997E+01  1.12025E+01  1.16210E+01  1.19519E+01  1.21755E+01  1.22943E+01  1.22954E+01  1.21888E+01
   1.19690E+01  1.16532E+01  1.12426E+01  1.07598E+01  1.02102E+01  9.61911E+00  8.99300E+00  8.35672E+00  7.71506E+00  7.09005E+00
   6.48287E+00  5.91143E+00  5.37253E+00  4.87976E+00  4.42590E+00  4.02104E+00  3.65493E+00  3.33521E+00  3.04982E+00  2.80512E+00
   2.58827E+00  2.40535E+00  2.24352E+00  2.10907E+00  1.98956E+00  1.89183E+00  1.80399E+00  1.73352E+00  1.66909E+00  1.61868E+00
   1.57143E+00  1.53578E+00  1.50123E+00  1.47656E+00  1.45155E+00  1.43516E+00  1.41736E+00  1.40731E+00  1.39509E+00  1.39002E+00
   1.38223E+00  1.38109E+00  1.37680E+00  1.37881E+00  1.37740E+00  1.38203E+00  1.38298E+00  1.38975E+00  1.39264E+00  1.40121E+00
   1.40576E+00  1.41587E+00  1.42182E+00  1.43321E+00  1.44035E+00  1.45286E+00  1.46105E+00  1.47454E+00  1.48362E+00  1.49793E+00
   1.50780E+00  1.52286E+00  1.53344E+00  1.54916E+00  1.56033E+00  1.57662E+00  1.58834E+00  1.60518E+00  1.61740E+00  1.63470E+00
   1.64735E+00  1.66507E+00  1.67814E+00  1.69628E+00  1.70973E+00  1.72822E+00  1.74200E+00  1.76084E+00  1.77498E+00  1.79417E+00
   1.80863E+00  1.82813E+00  1.84291E+00  1.86276E+00  1.87790E+00  1.89811E+00  1.91362E+00  1.93423E+00
 NY background values follow
    -2.549E+00   -2.544E+00   -2.540E+00   -2.535E+00   -2.531E+00   -2.526E+00   -2.522E+00   -2.517E+00   -2.513E+00   -2.508E+00
    -2.504E+00   -2.499E+00   -2.495E+00   -2.490E+00   -2.486E+00   -2.481E+00   -2.477E+00   -2.473E+00   -2.468E+00   -2.464E+00
    -2.459E+00   -2.455E+00   -2.450E+00   -2.446E+00   -2.441E+00   -2.437E+00   -2.432E+00   -2.428E+00   -2.424E+00   -2.419E+00
    -2.415E+00   -2.410E+00   -2.406E+00   -2.401E+00   -2.397E+00   -2.393E+00   -2.388E+00   -2.384E+00   -2.379E+00   -2.375E+00
    -2.370E+00   -2.366E+00   -2.362E+00   -2.357E+00   -2.353E+00   -2.349E+00   -2.344E+00   -2.340E+00   -2.336E+00   -2.331E+00
    -2.327E+00   -2.323E+00   -2.318E+00   -2.314E+00   -2.310E+00   -2.305E+00   -2.301E+00   -2.297E+00   -2.292E+00   -2.288E+00
    -2.284E+00   -2.280E+00   -2.275E+00   -2.271E+00   -2.267E+00   -2.263E+00   -2.258E+00   -2.254E+00   -2.250E+00   -2.246E+00
    -2.242E+00   -2.237E+00   -2.233E+00   -2.229E+00   -2.225E+00   -2.221E+00   -2.217E+00   -2.212E+00   -2.208E+00   -2.204E+00
    -2.200E+00   -2.196E+00   -2.192E+00   -2.188E+00   -2.184E+00   -2.180E+00   -2.175E+00   -2.171E+00   -2.167E+00   -2.163E+00
    -2.159E+00   -2.155E+00   -2.151E+00   -2.147E+00   -2.143E+00   -2.139E+00   -2.135E+00   -2.131E+00   -2.127E+00   -2.123E+00
    -2.119E+00   -2.116E+00   -2.112E+00   -2.108E+00   -2.104E+00   -2.100E+00   -2.096E+00   -2.092E+00   -2.088E+00   -2.084E+00
    -2.081E+00   -2.077E+00   -2.073E+00   -2.069E+00   -2.065E+00   -2.062E+00   -2.058E+00   -2.054E+00   -2.051E+00   -2.047E+00
    -2.043E+00   -2.039E+00   -2.036E+00   -2.032E+00   -2.029E+00   -2.025E+00   -2.021E+00   -2.018E+00   -2.014E+00   -2.011E+00
    -2.007E+00   -2.004E+00   -2.000E+00   -1.997E+00   -1.993E+00   -1.990E+00   -1.986E+00   -1.983E+00   -1.980E+00   -1.976E+00
    -1.973E+00   -1.970E+00   -1.966E+00   -1.963E+00   -1.960E+00   -1.956E+00   -1.953E+00   -1.950E+00   -1.947E+00   -1.943E+00
    -1.940E+00   -1.937E+00   -1.934E+00   -1.931E+00   -1.927E+00   -1.924E+00   -1.921E+00   -1.918E+00   -1.915E+00   -1.912E+00
    -1.909E+00   -1.905E+00   -1.902E+00   -1.899E+00   -1.896E+00   -1.893E+00   -1.890E+00   -1.887E+00   -1.883E+00   -1.880E+00
    -1.877E+00   -1.874E+00   -1.871E+00   -1.868E+00   -1.865E+00   -1.861E+00   -1.858E+00   -1.855E+00   -1.852E+00   -1.849E+00
    -1.846E+00   -1.842E+00   -1.839E+00   -1.836E+00   -1.833E+00   -1.829E+00   -1.826E+00   -1.823E+00   -1.820E+00   -1.816E+00
    -1.813E+00   -1.810E+00   -1.807E+00   -1.803E+00   -1.800E+00   -1.797E+00   -1.793E+00   -1.790E+00   -1.786E+00   -1.783E+00
    -1.780E+00   -1.776E+00   -1.773E+00   -1.769E+00   -1.766E+00   -1.762E+00   -1.759E+00   -1.755E+00   -1.752E+00   -1.748E+00
    -1.745E+00   -1.741E+00   -1.738E+00   -1.734E+00   -1.731E+00   -1.727E+00   -1.723E+00   -1.720E+00   -1.716E+00   -1.712E+00
    -1.709E+00   -1.705E+00   -1.701E+00   -1.697E+00   -1.694E+00   -1.690E+00   -1.686E+00   -1.682E+00   -1.678E+00   -1.674E+00
    -1.670E+00   -1.667E+00   -1.663E+00   -1.659E+00   -1.655E+00   -1.651E+00   -1.647E+00   -1.642E+00   -1.638E+00   -1.634E+00
    -1.630E+00   -1.626E+00   -1.622E+00   -1.617E+00   -1.613E+00   -1.609E+00   -1.605E+00   -1.600E+00   -1.596E+00   -1.591E+00
    -1.587E+00   -1.582E+00   -1.578E+00   -1.573E+00   -1.568E+00   -1.564E+00   -1.559E+00   -1.554E+00   -1.549E+00   -1.544E+00
    -1.540E+00   -1.535E+00   -1.530E+00   -1.524E+00   -1.519E+00   -1.514E+00   -1.509E+00   -1.504E+00   -1.498E+00   -1.493E+00
    -1.488E+00   -1.482E+00   -1.477E+00   -1.471E+00   -1.465E+00   -1.460E+00   -1.454E+00   -1.448E+00   -1.442E+00   -1.436E+00
    -1.430E+00   -1.424E+00   -1.418E+00   -1.412E+00   -1.405E+00   -1.399E+00   -1.393E+00   -1.386E+00   -1.380E+00   -1.373E+00
    -1.367E+00   -1.360E+00   -1.353E+00   -1.346E+00   -1.339E+00   -1.332E+00   -1.325E+00   -1.318E+00   -1.311E+00   -1.304E+00
    -1.296E+00   -1.289E+00   -1.281E+00   -1.274E+00   -1.266E+00   -1.258E+00   -1.251E+00   -1.243E+00   -1.235E+00   -1.227E+00
    -1.219E+00   -1.210E+00   -1.202E+00   -1.194E+00   -1.185E+00   -1.177E+00   -1.168E+00   -1.160E+00   -1.151E+00   -1.142E+00
    -1.133E+00   -1.124E+00   -1.115E+00   -1.106E+00   -1.096E+00   -1.087E+00   -1.078E+00   -1.068E+00   -1.058E+00   -1.049E+00
    -1.039E+00   -1.029E+00   -1.019E+00   -1.009E+00   -9.985E-01   -9.882E-01   -9.778E-01   -9.672E-01   -9.566E-01   -9.458E-01
    -9.350E-01   -9.240E-01   -9.130E-01   -9.018E-01   -8.905E-01   -8.791E-01   -8.676E-01   -8.560E-01   -8.442E-01   -8.324E-01
    -8.204E-01   -8.083E-01   -7.961E-01   -7.838E-01   -7.714E-01   -7.588E-01   -7.461E-01   -7.333E-01   -7.204E-01   -7.073E-01
    -6.941E-01   -6.808E-01   -6.674E-01   -6.538E-01   -6.401E-01   -6.263E-01   -6.124E-01   -5.983E-01   -5.841E-01   -5.698E-01
    -5.554E-01   -5.408E-01   -5.262E-01   -5.114E-01   -4.965E-01   -4.815E-01   -4.664E-01   -4.511E-01   -4.358E-01   -4.203E-01
    -4.048E-01   -3.891E-01   -3.733E-01   -3.575E-01   -3.415E-01   -3.254E-01   -3.092E-01   -2.930E-01   -2.766E-01   -2.601E-01
    -2.435E-01   -2.269E-01   -2.101E-01   -1.933E-01   -1.764E-01   -1.593E-01   -1.422E-01   -1.250E-01   -1.077E-01   -9.037E-02
    -7.292E-02   -5.539E-02   -3.778E-02   -2.008E-02   -2.315E-03    1.553E-02    3.346E-02    5.145E-02    6.952E-02    8.767E-02
     1.059E-01    1.242E-01    1.425E-01    1.609E-01    1.794E-01    1.980E-01    2.166E-01    2.353E-01    2.540E-01    2.728E-01
     2.916E-01    3.106E-01    3.295E-01    3.486E-01    3.676E-01    3.868E-01    4.060E-01    4.252E-01    4.445E-01    4.638E-01
     4.832E-01    5.026E-01    5.221E-01    5.416E-01    5.612E-01    5.808E-01    6.004E-01    6.201E-01    6.398E-01    6.596E-01
     6.794E-01    6.992E-01    7.190E-01    7.389E-01    7.589E-01    7.788E-01    7.988E-01    8.188E-01    8.388E-01    8.589E-01
     8.789E-01    8.990E-01    9.192E-01    9.393E-01    9.595E-01    9.797E-01    9.999E-01    1.020E+00    1.040E+00    1.061E+00
     1.081E+00    1.101E+00    1.121E+00    1.142E+00    1.162E+00    1.182E+00    1.203E+00    1.223E+00    1.243E+00    1.264E+00
     1.284E+00    1.305E+00    1.325E+00    1.345E+00    1.366E+00    1.386E+00    1.407E+00    1.427E+00    1.448E+00    1.468E+00
     1.489E+00    1.509E+00    1.530E+00    1.550E+00    1.570E+00    1.591E+00    1.611E+00    1.632E+00    1.652E+00    1.673E+00
     1.693E+00    1.714E+00    1.734E+00    1.755E+00    1.775E+00    1.796E+00    1.816E+00    1.837E+00
 Ala      Conc. = 4.72E+02
