 LCModel (Version 6.3-1L) Copyright: S.W. Provencher.          Ref.: Magn. Reson. Med. 30:672-679 (1993).                
 Slice#3 Row#14 Col#7  PD_05_press_1_raw_act
 36 lines in following concentration table = NCONC+1
    Conc.  %SD /Cr+PCr  Metabolite                                         
   35.522  50%   3.482 Ala                                                 
    4.310 131%   0.423 Asp                                                 
   10.200  87%   1.000 Cr                                                  
    0.000 999%   0.000 PCr                                                 
    2.526 133%   0.248 GABA                                                
    3.146 108%   0.308 Glc                                                 
    0.000 999%   0.000 Gln                                                 
    0.000 999%   0.000 Glu                                                 
    0.000 999%   0.000 GPC                                                 
    8.948  43%   0.877 PCh                                                 
   36.567  40%   3.585 GSH                                                 
  123.258  40%  12.084 Ins                                                 
    0.000 999%   0.000 Lac                                                 
   37.537  32%   3.680 NAA                                                 
   12.604  89%   1.236 NAAG                                                
    1.557  72%   0.153 Scyllo                                              
    6.053  93%   0.593 Tau                                                 
    6.079 111%   0.596 -CrCH2                                              
    8.948  43%   0.877 GPC+PCh                                             
   50.141  28%   4.916 NAA+NAAG                                            
   10.200  87%   1.000 Cr+PCr                                              
    0.000 999%   0.000 Glu+Gln                                             
  247.785  34%  24.292 Lip13a                                              
    0.000 999%   0.000 Lip13b                                              
   65.525  38%   6.424 Lip09                                               
    0.000 999%   0.000 MM09                                                
   36.622  42%   3.590 Lip20                                               
    0.000 999%   0.000 MM20                                                
    0.000 999%   0.000 MM12                                                
    4.313 553%   0.423 MM14                                                
    0.000 999%   0.000 MM17                                                
  247.785  34%  24.292 Lip13a+Lip13b                                       
  252.098  34%  24.715 MM14+Lip13a+Lip13b+MM12                             
   65.525  38%   6.424 MM09+Lip09                                          
   36.622  42%   3.590 MM20+Lip20                                          
   6 lines in following misc. output table
  FWHM = 0.046 ppm    S/N =   1                                            
  Data shift = 0.008 ppm                                                   
  Ph: -30 deg      -9.2 deg/ppm                                            
  alphaB,S = 5.7E-01,   5.0E+00                                            
   14 spline knots.   Ns = 5(1)                                            
  ( 7) 6 infls.   ( 7) 2 extrs.                                            
  498 points on ppm-axis = NY
      4.000000     3.992357     3.984714     3.977070     3.969427     3.961784     3.954141     3.946497     3.938854     3.931211
      3.923568     3.915925     3.908281     3.900638     3.892995     3.885352     3.877708     3.870065     3.862422     3.854779
      3.847136     3.839492     3.831849     3.824206     3.816563     3.808919     3.801276     3.793633     3.785990     3.778347
      3.770703     3.763060     3.755417     3.747774     3.740130     3.732487     3.724844     3.717201     3.709558     3.701914
      3.694271     3.686628     3.678985     3.671341     3.663698     3.656055     3.648412     3.640769     3.633125     3.625482
      3.617839     3.610196     3.602552     3.594909     3.587266     3.579623     3.571980     3.564336     3.556693     3.549050
      3.541407     3.533763     3.526120     3.518477     3.510834     3.503191     3.495547     3.487904     3.480261     3.472618
      3.464974     3.457331     3.449688     3.442045     3.434402     3.426758     3.419115     3.411472     3.403829     3.396185
      3.388542     3.380899     3.373256     3.365613     3.357969     3.350326     3.342683     3.335040     3.327396     3.319753
      3.312110     3.304467     3.296824     3.289180     3.281537     3.273894     3.266251     3.258607     3.250964     3.243321
      3.235678     3.228034     3.220391     3.212748     3.205105     3.197462     3.189818     3.182175     3.174532     3.166889
      3.159245     3.151602     3.143959     3.136316     3.128673     3.121029     3.113386     3.105743     3.098100     3.090456
      3.082813     3.075170     3.067527     3.059884     3.052240     3.044597     3.036954     3.029311     3.021667     3.014024
      3.006381     2.998738     2.991095     2.983451     2.975808     2.968165     2.960522     2.952878     2.945235     2.937592
      2.929949     2.922306     2.914662     2.907019     2.899376     2.891733     2.884089     2.876446     2.868803     2.861160
      2.853517     2.845873     2.838230     2.830587     2.822944     2.815300     2.807657     2.800014     2.792371     2.784728
      2.777084     2.769441     2.761798     2.754155     2.746511     2.738868     2.731225     2.723582     2.715939     2.708295
      2.700652     2.693009     2.685366     2.677722     2.670079     2.662436     2.654793     2.647150     2.639506     2.631863
      2.624220     2.616577     2.608933     2.601290     2.593647     2.586004     2.578361     2.570717     2.563074     2.555431
      2.547788     2.540144     2.532501     2.524858     2.517215     2.509572     2.501928     2.494285     2.486642     2.478999
      2.471355     2.463712     2.456069     2.448426     2.440783     2.433139     2.425496     2.417853     2.410210     2.402566
      2.394923     2.387280     2.379637     2.371994     2.364350     2.356707     2.349064     2.341421     2.333777     2.326134
      2.318491     2.310848     2.303205     2.295561     2.287918     2.280275     2.272632     2.264988     2.257345     2.249702
      2.242059     2.234416     2.226772     2.219129     2.211486     2.203843     2.196199     2.188556     2.180913     2.173270
      2.165627     2.157983     2.150340     2.142697     2.135054     2.127410     2.119767     2.112124     2.104481     2.096838
      2.089194     2.081551     2.073908     2.066265     2.058621     2.050978     2.043335     2.035692     2.028049     2.020405
      2.012762     2.005119     1.997476     1.989833     1.982190     1.974546     1.966903     1.959260     1.951617     1.943974
      1.936331     1.928688     1.921045     1.913402     1.905759     1.898115     1.890472     1.882829     1.875186     1.867543
      1.859900     1.852257     1.844614     1.836971     1.829327     1.821684     1.814041     1.806398     1.798755     1.791112
      1.783469     1.775826     1.768183     1.760540     1.752896     1.745253     1.737610     1.729967     1.722324     1.714681
      1.707038     1.699395     1.691752     1.684108     1.676465     1.668822     1.661179     1.653536     1.645893     1.638250
      1.630607     1.622964     1.615321     1.607677     1.600034     1.592391     1.584748     1.577105     1.569462     1.561819
      1.554176     1.546533     1.538890     1.531246     1.523603     1.515960     1.508317     1.500674     1.493031     1.485388
      1.477745     1.470102     1.462458     1.454815     1.447172     1.439529     1.431886     1.424243     1.416600     1.408957
      1.401314     1.393671     1.386027     1.378384     1.370741     1.363098     1.355455     1.347812     1.340169     1.332526
      1.324883     1.317240     1.309596     1.301953     1.294310     1.286667     1.279024     1.271381     1.263738     1.256095
      1.248452     1.240808     1.233165     1.225522     1.217879     1.210236     1.202593     1.194950     1.187307     1.179664
      1.172021     1.164377     1.156734     1.149091     1.141448     1.133805     1.126162     1.118519     1.110876     1.103233
      1.095590     1.087946     1.080303     1.072660     1.065017     1.057374     1.049731     1.042088     1.034445     1.026802
      1.019158     1.011515     1.003872     0.996229     0.988586     0.980943     0.973300     0.965657     0.958014     0.950371
      0.942727     0.935084     0.927441     0.919798     0.912155     0.904512     0.896869     0.889226     0.881583     0.873940
      0.866296     0.858653     0.851010     0.843367     0.835724     0.828081     0.820438     0.812795     0.805152     0.797508
      0.789865     0.782222     0.774579     0.766936     0.759293     0.751650     0.744007     0.736364     0.728721     0.721077
      0.713434     0.705791     0.698148     0.690505     0.682862     0.675219     0.667576     0.659933     0.652290     0.644646
      0.637003     0.629360     0.621717     0.614074     0.606431     0.598788     0.591145     0.583502     0.575858     0.568215
      0.560572     0.552929     0.545286     0.537643     0.530000     0.522357     0.514714     0.507071     0.499427     0.491784
      0.484141     0.476498     0.468855     0.461212     0.453569     0.445925     0.438282     0.430639     0.422996     0.415353
      0.407710     0.400067     0.392424     0.384780     0.377137     0.369494     0.361851     0.354208     0.346565     0.338922
      0.331278     0.323635     0.315992     0.308349     0.300706     0.293063     0.285420     0.277777     0.270133     0.262490
      0.254847     0.247204     0.239561     0.231918     0.224275     0.216631     0.208988     0.201345
 NY phased data points follow
  -1.98985E+01 -1.91292E+01 -1.83176E+01 -1.89555E+01 -1.71740E+01 -1.73249E+01 -1.77725E+01 -1.59679E+01 -1.65527E+01 -1.55976E+01
  -1.54701E+01 -1.78572E+01 -1.72902E+01 -1.56242E+01 -1.61094E+01 -1.65681E+01 -1.65448E+01 -1.63244E+01 -1.68055E+01 -1.56644E+01
  -1.46811E+01 -1.51345E+01 -1.42785E+01 -1.46284E+01 -1.49239E+01 -1.53007E+01 -1.32558E+01 -1.33307E+01 -1.20717E+01 -1.26642E+01
  -1.25424E+01 -1.38967E+01 -1.24485E+01 -1.37299E+01 -1.48135E+01 -1.33632E+01 -1.22713E+01 -1.18891E+01 -1.07362E+01 -1.27483E+01
  -1.25948E+01 -1.27316E+01 -1.20219E+01 -1.17328E+01 -1.23240E+01 -1.32405E+01 -1.09558E+01 -1.19775E+01 -9.64648E+00 -1.10315E+01
  -9.48582E+00 -1.14616E+01 -1.22424E+01 -1.12689E+01 -1.18367E+01 -9.63766E+00 -1.01826E+01 -1.12649E+01 -8.75808E+00 -9.29766E+00
  -1.21937E+01 -1.06888E+01 -1.03409E+01 -1.10289E+01 -8.89548E+00 -1.08694E+01 -8.26187E+00 -1.08017E+01 -9.51823E+00 -8.82298E+00
  -1.02350E+01 -8.74768E+00 -9.95627E+00 -9.38978E+00 -8.26029E+00 -8.76871E+00 -8.37274E+00 -9.14469E+00 -9.95997E+00 -9.68389E+00
  -9.15553E+00 -9.12126E+00 -8.33251E+00 -8.51594E+00 -7.74138E+00 -7.95424E+00 -7.69300E+00 -9.36440E+00 -9.28903E+00 -9.73895E+00
  -8.88253E+00 -7.57040E+00 -6.00129E+00 -8.53027E+00 -8.61927E+00 -8.44718E+00 -9.99025E+00 -9.56535E+00 -7.59003E+00 -8.10981E+00
  -6.76123E+00 -9.16011E+00 -6.73261E+00 -6.79571E+00 -6.95840E+00 -8.25870E+00 -7.65763E+00 -7.73801E+00 -8.35230E+00 -9.39411E+00
  -8.08549E+00 -8.49018E+00 -7.55454E+00 -8.69259E+00 -7.01011E+00 -8.59320E+00 -7.78570E+00 -7.61517E+00 -7.45391E+00 -7.13286E+00
  -7.49934E+00 -6.13993E+00 -7.05196E+00 -4.78625E+00 -6.66680E+00 -6.21754E+00 -6.73664E+00 -6.36278E+00 -6.35974E+00 -7.79726E+00
  -6.65514E+00 -8.09035E+00 -6.45673E+00 -4.78755E+00 -8.16726E+00 -5.75277E+00 -6.21829E+00 -7.97413E+00 -5.08679E+00 -6.23049E+00
  -4.44753E+00 -4.44982E+00 -6.45084E+00 -6.47094E+00 -6.77754E+00 -6.03832E+00 -7.19059E+00 -4.95751E+00 -6.10342E+00 -5.01180E+00
  -6.37919E+00 -6.50969E+00 -6.04847E+00 -5.28716E+00 -5.33066E+00 -4.54945E+00 -6.08770E+00 -6.56756E+00 -5.76913E+00 -5.68930E+00
  -6.11753E+00 -6.60057E+00 -5.80273E+00 -6.12916E+00 -7.06984E+00 -5.18487E+00 -4.62049E+00 -6.06830E+00 -5.19730E+00 -4.47621E+00
  -5.48042E+00 -4.82481E+00 -6.12309E+00 -4.85574E+00 -5.11850E+00 -4.52634E+00 -5.57996E+00 -4.81910E+00 -5.56521E+00 -5.54110E+00
  -5.45910E+00 -5.58273E+00 -7.30422E+00 -5.01571E+00 -4.54990E+00 -4.48899E+00 -5.32428E+00 -4.04135E+00 -5.91558E+00 -5.42221E+00
  -4.60599E+00 -4.38343E+00 -5.01640E+00 -5.67529E+00 -6.17268E+00 -5.24500E+00 -4.89045E+00 -5.15713E+00 -4.59136E+00 -4.49675E+00
  -6.72204E+00 -5.01203E+00 -5.12447E+00 -4.40077E+00 -6.04621E+00 -6.02303E+00 -4.84621E+00 -4.86795E+00 -5.37865E+00 -3.74115E+00
  -4.24605E+00 -3.64099E+00 -4.25558E+00 -4.88630E+00 -5.18201E+00 -4.57825E+00 -4.93808E+00 -5.24774E+00 -4.29789E+00 -6.13090E+00
  -4.54150E+00 -3.96394E+00 -4.38298E+00 -5.86127E+00 -6.18100E+00 -4.25773E+00 -5.38634E+00 -4.67875E+00 -4.87032E+00 -6.58838E+00
  -4.78521E+00 -4.14999E+00 -4.07935E+00 -4.27333E+00 -5.02132E+00 -5.35164E+00 -3.59246E+00 -4.29098E+00 -3.84547E+00 -5.22850E+00
  -4.36658E+00 -5.48700E+00 -3.81245E+00 -3.88495E+00 -5.11432E+00 -5.22126E+00 -4.19953E+00 -4.76015E+00 -4.22819E+00 -5.24690E+00
  -5.25030E+00 -3.25696E+00 -4.02831E+00 -2.60499E+00 -2.10691E+00 -5.21218E+00 -1.61649E+00 -2.71081E+00 -3.15893E+00 -1.94235E+00
  -2.08594E+00 -5.46261E+00 -3.32683E+00 -4.28287E+00 -5.56496E+00 -5.25549E+00 -4.08995E+00 -3.83857E+00 -3.70663E+00 -3.59387E+00
  -5.05564E+00 -5.06252E+00 -3.97329E+00 -5.06422E+00 -3.70515E+00 -3.78041E+00 -2.96543E+00 -4.19224E+00 -3.81515E+00 -4.47203E+00
  -3.73713E+00 -4.28311E+00 -4.13449E+00 -5.47499E+00 -4.90577E+00 -3.65977E+00 -3.55125E+00 -4.09439E+00 -4.58141E+00 -4.29676E+00
  -4.39844E+00 -3.26250E+00 -3.51717E+00 -3.81212E+00 -4.96335E+00 -4.70058E+00 -3.47761E+00 -4.52593E+00 -3.84658E+00 -5.34865E+00
  -4.07678E+00 -3.96225E+00 -4.82488E+00 -5.01302E+00 -3.18995E+00 -3.87416E+00 -4.44382E+00 -3.99029E+00 -2.64494E+00 -3.80096E+00
  -3.29909E+00 -2.80787E+00 -4.04218E+00 -3.97663E+00 -3.60608E+00 -4.17059E+00 -4.30192E+00 -2.62849E+00 -2.73370E+00 -3.39549E+00
  -5.22294E+00 -2.32230E+00 -2.92681E+00 -4.14477E+00 -2.96909E+00 -4.46994E+00 -5.45616E+00 -4.92918E+00 -4.05713E+00 -3.40605E+00
  -3.15631E+00 -2.79021E+00 -2.03381E+00 -3.04249E+00 -1.79177E+00 -2.40889E+00 -2.80903E+00  2.60493E-01 -2.02755E+00 -2.69231E+00
  -1.03308E+00 -1.69817E+00 -1.97128E+00 -2.41526E+00 -2.14842E+00 -1.93310E+00 -3.56462E+00 -1.34894E+00 -1.97836E+00 -3.22088E+00
  -1.23249E+00 -1.42812E+00 -2.12108E+00 -2.02781E+00 -2.35376E+00 -2.84256E+00 -3.37161E+00 -3.02832E+00 -2.01235E+00 -2.48370E+00
  -1.66113E+00 -2.41770E+00 -2.37889E+00 -1.37847E+00 -3.35792E+00 -3.06254E+00 -2.36356E+00 -2.52206E+00 -2.83200E+00 -2.27702E+00
  -2.21148E+00 -2.83484E+00 -2.10972E+00 -2.64580E+00 -1.69303E+00 -3.19271E+00 -2.97936E+00 -3.34180E+00 -2.43023E+00 -1.69715E+00
  -3.06360E+00 -1.33899E+00 -5.91860E-01 -2.06337E+00 -1.70510E+00 -1.40366E+00 -2.46239E+00 -2.45477E+00 -2.73946E+00 -1.60922E-02
  -1.65891E+00 -2.47274E+00 -3.40356E+00 -3.29153E+00 -2.24488E+00 -2.97268E+00 -2.92345E+00 -2.53314E+00 -2.05837E+00 -1.51284E+00
  -2.33149E+00 -2.41276E+00 -3.65908E+00 -2.13239E+00 -1.81350E+00 -3.01032E+00 -3.27392E+00 -2.70941E-01 -3.46132E+00 -2.73680E+00
  -1.36962E+00 -1.64846E+00 -2.90872E+00 -2.18153E+00 -2.06522E+00 -1.05815E+00  1.28955E-01 -2.04423E+00 -3.07329E+00 -1.21625E+00
  -2.62693E+00 -3.89790E+00 -1.72164E+00 -1.39873E+00 -1.36887E+00 -1.91725E+00 -1.42212E+00 -1.92234E+00 -2.13101E+00 -4.22639E+00
  -2.63502E+00 -3.62139E+00 -2.08605E+00 -1.98564E+00 -1.27657E+00 -1.30083E+00 -2.70349E+00 -2.72245E+00 -2.79224E+00 -6.23871E-01
  -2.39532E+00 -2.29859E+00 -2.65260E+00 -2.19039E+00 -1.92673E+00 -1.26953E+00 -3.23817E-01 -2.44698E-01 -1.81730E+00 -1.37663E+00
  -2.95703E+00 -1.92248E+00 -3.10197E+00 -2.11972E+00 -1.42477E+00 -1.56999E+00 -1.71415E+00 -5.46730E-01 -1.18701E+00 -3.35133E+00
  -1.41468E+00 -1.79959E+00 -1.00258E+00 -1.65236E+00 -2.24566E+00 -1.84833E+00 -1.36454E+00 -3.15990E+00 -2.17632E+00 -1.44579E+00
  -2.37753E+00 -1.06315E+00 -9.09408E-01 -2.55937E+00 -1.97556E+00 -3.09091E+00 -9.62228E-01 -1.81622E+00 -1.43111E+00 -1.73006E+00
  -1.66063E+00 -5.20017E-01 -2.69669E+00 -1.66871E+00 -2.30890E+00 -2.43468E+00 -1.08966E+00 -1.82983E+00 -1.85609E+00 -1.45526E+00
  -1.70599E+00 -2.46864E+00 -7.32526E-01 -1.08948E+00 -8.57312E-01 -1.92636E+00 -1.16117E+00 -4.48023E-01
 NY points of the fit to the data follow
  -1.70612E+01 -1.69944E+01 -1.68564E+01 -1.67472E+01 -1.66911E+01 -1.66048E+01 -1.64230E+01 -1.62547E+01 -1.61182E+01 -1.59216E+01
  -1.57557E+01 -1.56919E+01 -1.56070E+01 -1.55114E+01 -1.55309E+01 -1.55619E+01 -1.54474E+01 -1.52461E+01 -1.50612E+01 -1.49229E+01
  -1.47920E+01 -1.46927E+01 -1.46417E+01 -1.45822E+01 -1.44025E+01 -1.39280E+01 -1.35063E+01 -1.32724E+01 -1.29105E+01 -1.26758E+01
  -1.28455E+01 -1.30057E+01 -1.30322E+01 -1.33418E+01 -1.36173E+01 -1.34287E+01 -1.31681E+01 -1.30992E+01 -1.31265E+01 -1.31091E+01
  -1.30288E+01 -1.29655E+01 -1.27465E+01 -1.21715E+01 -1.15716E+01 -1.12568E+01 -1.10827E+01 -1.10585E+01 -1.13055E+01 -1.16212E+01
  -1.18717E+01 -1.21876E+01 -1.24095E+01 -1.22519E+01 -1.18161E+01 -1.13723E+01 -1.10844E+01 -1.08828E+01 -1.06912E+01 -1.05902E+01
  -1.06135E+01 -1.06647E+01 -1.07139E+01 -1.07949E+01 -1.08352E+01 -1.07648E+01 -1.06100E+01 -1.03615E+01 -1.01095E+01 -9.94813E+00
  -9.82947E+00 -9.73584E+00 -9.71891E+00 -9.73018E+00 -9.69195E+00 -9.67319E+00 -9.70010E+00 -9.66024E+00 -9.56924E+00 -9.49479E+00
  -9.41418E+00 -9.30353E+00 -9.24992E+00 -9.27737E+00 -9.31538E+00 -9.35864E+00 -9.41548E+00 -9.40762E+00 -9.30964E+00 -9.18622E+00
  -9.02238E+00 -8.77977E+00 -8.53066E+00 -8.39847E+00 -8.38186E+00 -8.39888E+00 -8.41478E+00 -8.40286E+00 -8.21464E+00 -7.78190E+00
  -7.50944E+00 -7.33707E+00 -7.06287E+00 -7.02863E+00 -7.28711E+00 -7.45728E+00 -7.63051E+00 -8.03628E+00 -8.21939E+00 -7.98829E+00
  -7.77096E+00 -7.67048E+00 -7.60731E+00 -7.54858E+00 -7.49932E+00 -7.46335E+00 -7.42666E+00 -7.38533E+00 -7.34546E+00 -7.29045E+00
  -7.20526E+00 -7.07816E+00 -6.85864E+00 -6.66782E+00 -6.55983E+00 -6.44783E+00 -6.39630E+00 -6.45567E+00 -6.46433E+00 -6.43410E+00
  -6.57788E+00 -6.72759E+00 -6.70971E+00 -6.74223E+00 -6.82162E+00 -6.80487E+00 -6.75000E+00 -6.66584E+00 -6.47330E+00 -6.23325E+00
  -6.07442E+00 -6.01205E+00 -6.03469E+00 -6.10015E+00 -6.15434E+00 -6.20227E+00 -6.20744E+00 -6.15730E+00 -6.11540E+00 -6.09959E+00
  -6.08763E+00 -6.05940E+00 -6.03000E+00 -5.99994E+00 -5.95087E+00 -5.90466E+00 -5.88617E+00 -5.86998E+00 -5.84266E+00 -5.82968E+00
  -5.81641E+00 -5.79011E+00 -5.76534E+00 -5.73433E+00 -5.69726E+00 -5.67748E+00 -5.66856E+00 -5.65661E+00 -5.64948E+00 -5.63183E+00
  -5.60236E+00 -5.59378E+00 -5.59432E+00 -5.57749E+00 -5.56393E+00 -5.55743E+00 -5.54319E+00 -5.52569E+00 -5.50423E+00 -5.46564E+00
  -5.44436E+00 -5.45110E+00 -5.45444E+00 -5.43429E+00 -5.37123E+00 -5.25933E+00 -5.13404E+00 -5.02183E+00 -4.93149E+00 -4.87713E+00
  -4.87613E+00 -4.94444E+00 -5.09337E+00 -5.26633E+00 -5.34649E+00 -5.35230E+00 -5.31529E+00 -5.18145E+00 -5.00732E+00 -4.90299E+00
  -4.83771E+00 -4.75287E+00 -4.74061E+00 -4.82572E+00 -4.88494E+00 -4.88493E+00 -4.87450E+00 -4.88682E+00 -4.90641E+00 -4.90556E+00
  -4.89501E+00 -4.88912E+00 -4.87881E+00 -4.85345E+00 -4.82300E+00 -4.79288E+00 -4.75332E+00 -4.71265E+00 -4.68832E+00 -4.67424E+00
  -4.65993E+00 -4.64339E+00 -4.62777E+00 -4.61801E+00 -4.61484E+00 -4.62477E+00 -4.67298E+00 -4.73206E+00 -4.74239E+00 -4.72758E+00
  -4.69129E+00 -4.58268E+00 -4.42787E+00 -4.31388E+00 -4.27133E+00 -4.26499E+00 -4.34127E+00 -4.52961E+00 -4.71362E+00 -4.79733E+00
  -4.80148E+00 -4.74859E+00 -4.59796E+00 -4.37990E+00 -4.21179E+00 -4.14237E+00 -4.13568E+00 -4.14149E+00 -4.16911E+00 -4.22079E+00
  -4.18306E+00 -3.96617E+00 -3.77021E+00 -3.64945E+00 -3.42574E+00 -2.98198E+00 -2.58088E+00 -2.52244E+00 -2.50829E+00 -2.61570E+00
  -3.12351E+00 -3.60915E+00 -3.81840E+00 -4.24550E+00 -4.87264E+00 -4.93833E+00 -4.57230E+00 -4.37474E+00 -4.32843E+00 -4.30870E+00
  -4.28934E+00 -4.27196E+00 -4.25844E+00 -4.24563E+00 -4.23564E+00 -4.23114E+00 -4.22639E+00 -4.21696E+00 -4.20444E+00 -4.19079E+00
  -4.17443E+00 -4.15446E+00 -4.13631E+00 -4.12238E+00 -4.10809E+00 -4.09289E+00 -4.08018E+00 -4.06641E+00 -4.04957E+00 -4.03297E+00
  -4.01560E+00 -3.99661E+00 -3.97933E+00 -3.96326E+00 -3.94725E+00 -3.93267E+00 -3.91885E+00 -3.90334E+00 -3.88545E+00 -3.86589E+00
  -3.84623E+00 -3.82645E+00 -3.80534E+00 -3.78418E+00 -3.76417E+00 -3.74390E+00 -3.72267E+00 -3.70064E+00 -3.67775E+00 -3.65395E+00
  -3.62907E+00 -3.60297E+00 -3.57546E+00 -3.54615E+00 -3.51452E+00 -3.47990E+00 -3.44124E+00 -3.39675E+00 -3.34341E+00 -3.27520E+00
  -3.17732E+00 -3.02090E+00 -2.91218E+00 -3.02731E+00 -3.17876E+00 -3.31875E+00 -3.61514E+00 -3.89934E+00 -3.99963E+00 -4.03414E+00
  -3.85051E+00 -3.38299E+00 -2.88828E+00 -2.50263E+00 -2.28283E+00 -2.28774E+00 -2.29057E+00 -2.27759E+00 -2.49956E+00 -2.74757E+00
  -2.73017E+00 -2.61712E+00 -2.53546E+00 -2.47528E+00 -2.42168E+00 -2.37139E+00 -2.32397E+00 -2.27977E+00 -2.23933E+00 -2.20328E+00
  -2.17223E+00 -2.14672E+00 -2.12720E+00 -2.11398E+00 -2.10721E+00 -2.10688E+00 -2.11281E+00 -2.12469E+00 -2.14204E+00 -2.16427E+00
  -2.19066E+00 -2.22043E+00 -2.25273E+00 -2.28672E+00 -2.32156E+00 -2.35644E+00 -2.39061E+00 -2.42340E+00 -2.45424E+00 -2.48266E+00
  -2.50827E+00 -2.53081E+00 -2.55007E+00 -2.56597E+00 -2.57847E+00 -2.58762E+00 -2.59349E+00 -2.59620E+00 -2.59588E+00 -2.59270E+00
  -2.58682E+00 -2.57840E+00 -2.56760E+00 -2.55457E+00 -2.53946E+00 -2.52241E+00 -2.50357E+00 -2.48307E+00 -2.46105E+00 -2.43768E+00
  -2.41311E+00 -2.38755E+00 -2.36120E+00 -2.33432E+00 -2.30715E+00 -2.28000E+00 -2.25320E+00 -2.22707E+00 -2.20197E+00 -2.17824E+00
  -2.15621E+00 -2.13621E+00 -2.11852E+00 -2.10335E+00 -2.09089E+00 -2.08122E+00 -2.07438E+00 -2.07033E+00 -2.06893E+00 -2.06998E+00
  -2.07323E+00 -2.07836E+00 -2.08502E+00 -2.09284E+00 -2.10144E+00 -2.11044E+00 -2.11947E+00 -2.12822E+00 -2.13640E+00 -2.14376E+00
  -2.15011E+00 -2.15531E+00 -2.15924E+00 -2.16186E+00 -2.16316E+00 -2.16315E+00 -2.16186E+00 -2.15938E+00 -2.15577E+00 -2.15112E+00
  -2.14554E+00 -2.13911E+00 -2.13192E+00 -2.12407E+00 -2.11562E+00 -2.10668E+00 -2.09730E+00 -2.08754E+00 -2.07745E+00 -2.06710E+00
  -2.05651E+00 -2.04573E+00 -2.03478E+00 -2.02370E+00 -2.01250E+00 -2.00121E+00 -1.98984E+00 -1.97841E+00 -1.96693E+00 -1.95542E+00
  -1.94387E+00 -1.93230E+00 -1.92072E+00 -1.90913E+00 -1.89753E+00 -1.88594E+00 -1.87434E+00 -1.86275E+00 -1.85117E+00 -1.83960E+00
  -1.82803E+00 -1.81648E+00 -1.80494E+00 -1.79341E+00 -1.78190E+00 -1.77040E+00 -1.75891E+00 -1.74743E+00 -1.73597E+00 -1.72452E+00
  -1.71309E+00 -1.70167E+00 -1.69026E+00 -1.67886E+00 -1.66747E+00 -1.65609E+00 -1.64472E+00 -1.63336E+00 -1.62200E+00 -1.61065E+00
  -1.59930E+00 -1.58797E+00 -1.57663E+00 -1.56529E+00 -1.55395E+00 -1.54262E+00 -1.53128E+00 -1.51994E+00 -1.50858E+00 -1.49722E+00
  -1.48585E+00 -1.47447E+00 -1.46308E+00 -1.45167E+00 -1.44024E+00 -1.42878E+00 -1.41730E+00 -1.40579E+00
 NY background values follow
    -1.710E+01   -1.700E+01   -1.689E+01   -1.679E+01   -1.669E+01   -1.658E+01   -1.648E+01   -1.637E+01   -1.627E+01   -1.616E+01
    -1.606E+01   -1.595E+01   -1.585E+01   -1.575E+01   -1.564E+01   -1.554E+01   -1.543E+01   -1.533E+01   -1.523E+01   -1.512E+01
    -1.502E+01   -1.492E+01   -1.481E+01   -1.471E+01   -1.461E+01   -1.451E+01   -1.441E+01   -1.430E+01   -1.420E+01   -1.410E+01
    -1.400E+01   -1.390E+01   -1.380E+01   -1.370E+01   -1.360E+01   -1.350E+01   -1.340E+01   -1.331E+01   -1.321E+01   -1.311E+01
    -1.301E+01   -1.292E+01   -1.282E+01   -1.273E+01   -1.263E+01   -1.254E+01   -1.244E+01   -1.235E+01   -1.226E+01   -1.217E+01
    -1.207E+01   -1.198E+01   -1.189E+01   -1.180E+01   -1.171E+01   -1.163E+01   -1.154E+01   -1.145E+01   -1.136E+01   -1.128E+01
    -1.119E+01   -1.111E+01   -1.102E+01   -1.094E+01   -1.085E+01   -1.077E+01   -1.069E+01   -1.061E+01   -1.053E+01   -1.045E+01
    -1.037E+01   -1.029E+01   -1.021E+01   -1.013E+01   -1.006E+01   -9.981E+00   -9.905E+00   -9.830E+00   -9.756E+00   -9.682E+00
    -9.609E+00   -9.537E+00   -9.466E+00   -9.395E+00   -9.325E+00   -9.255E+00   -9.186E+00   -9.118E+00   -9.051E+00   -8.984E+00
    -8.918E+00   -8.853E+00   -8.788E+00   -8.724E+00   -8.661E+00   -8.598E+00   -8.537E+00   -8.476E+00   -8.415E+00   -8.355E+00
    -8.296E+00   -8.238E+00   -8.180E+00   -8.123E+00   -8.067E+00   -8.011E+00   -7.956E+00   -7.901E+00   -7.847E+00   -7.794E+00
    -7.742E+00   -7.690E+00   -7.638E+00   -7.588E+00   -7.538E+00   -7.488E+00   -7.439E+00   -7.391E+00   -7.344E+00   -7.297E+00
    -7.250E+00   -7.204E+00   -7.159E+00   -7.114E+00   -7.070E+00   -7.027E+00   -6.984E+00   -6.941E+00   -6.900E+00   -6.858E+00
    -6.818E+00   -6.777E+00   -6.738E+00   -6.699E+00   -6.660E+00   -6.622E+00   -6.585E+00   -6.548E+00   -6.511E+00   -6.475E+00
    -6.440E+00   -6.405E+00   -6.370E+00   -6.336E+00   -6.303E+00   -6.270E+00   -6.238E+00   -6.206E+00   -6.174E+00   -6.143E+00
    -6.113E+00   -6.082E+00   -6.053E+00   -6.024E+00   -5.995E+00   -5.967E+00   -5.939E+00   -5.911E+00   -5.884E+00   -5.858E+00
    -5.832E+00   -5.806E+00   -5.781E+00   -5.756E+00   -5.731E+00   -5.707E+00   -5.684E+00   -5.660E+00   -5.637E+00   -5.615E+00
    -5.593E+00   -5.571E+00   -5.550E+00   -5.529E+00   -5.508E+00   -5.488E+00   -5.468E+00   -5.448E+00   -5.429E+00   -5.410E+00
    -5.392E+00   -5.374E+00   -5.356E+00   -5.338E+00   -5.321E+00   -5.304E+00   -5.287E+00   -5.271E+00   -5.255E+00   -5.239E+00
    -5.224E+00   -5.209E+00   -5.194E+00   -5.179E+00   -5.165E+00   -5.150E+00   -5.136E+00   -5.123E+00   -5.109E+00   -5.096E+00
    -5.083E+00   -5.070E+00   -5.057E+00   -5.045E+00   -5.032E+00   -5.020E+00   -5.008E+00   -4.996E+00   -4.984E+00   -4.973E+00
    -4.961E+00   -4.950E+00   -4.939E+00   -4.928E+00   -4.917E+00   -4.906E+00   -4.895E+00   -4.885E+00   -4.874E+00   -4.864E+00
    -4.853E+00   -4.843E+00   -4.833E+00   -4.822E+00   -4.812E+00   -4.802E+00   -4.792E+00   -4.782E+00   -4.772E+00   -4.762E+00
    -4.752E+00   -4.742E+00   -4.732E+00   -4.722E+00   -4.712E+00   -4.702E+00   -4.692E+00   -4.682E+00   -4.672E+00   -4.662E+00
    -4.652E+00   -4.642E+00   -4.632E+00   -4.622E+00   -4.612E+00   -4.602E+00   -4.592E+00   -4.581E+00   -4.571E+00   -4.561E+00
    -4.551E+00   -4.541E+00   -4.531E+00   -4.520E+00   -4.510E+00   -4.500E+00   -4.489E+00   -4.479E+00   -4.469E+00   -4.458E+00
    -4.447E+00   -4.437E+00   -4.426E+00   -4.416E+00   -4.405E+00   -4.394E+00   -4.383E+00   -4.372E+00   -4.361E+00   -4.350E+00
    -4.339E+00   -4.328E+00   -4.316E+00   -4.305E+00   -4.293E+00   -4.282E+00   -4.270E+00   -4.259E+00   -4.247E+00   -4.235E+00
    -4.223E+00   -4.211E+00   -4.199E+00   -4.187E+00   -4.175E+00   -4.163E+00   -4.150E+00   -4.138E+00   -4.125E+00   -4.113E+00
    -4.100E+00   -4.087E+00   -4.074E+00   -4.062E+00   -4.049E+00   -4.036E+00   -4.022E+00   -4.009E+00   -3.996E+00   -3.983E+00
    -3.969E+00   -3.956E+00   -3.942E+00   -3.928E+00   -3.915E+00   -3.901E+00   -3.887E+00   -3.873E+00   -3.859E+00   -3.845E+00
    -3.830E+00   -3.816E+00   -3.802E+00   -3.787E+00   -3.773E+00   -3.758E+00   -3.743E+00   -3.729E+00   -3.714E+00   -3.699E+00
    -3.684E+00   -3.669E+00   -3.654E+00   -3.638E+00   -3.623E+00   -3.608E+00   -3.592E+00   -3.577E+00   -3.562E+00   -3.546E+00
    -3.530E+00   -3.515E+00   -3.499E+00   -3.484E+00   -3.468E+00   -3.452E+00   -3.436E+00   -3.421E+00   -3.405E+00   -3.389E+00
    -3.373E+00   -3.357E+00   -3.341E+00   -3.326E+00   -3.310E+00   -3.294E+00   -3.278E+00   -3.262E+00   -3.246E+00   -3.230E+00
    -3.215E+00   -3.199E+00   -3.183E+00   -3.167E+00   -3.152E+00   -3.136E+00   -3.120E+00   -3.104E+00   -3.089E+00   -3.073E+00
    -3.058E+00   -3.042E+00   -3.027E+00   -3.011E+00   -2.996E+00   -2.981E+00   -2.966E+00   -2.950E+00   -2.935E+00   -2.920E+00
    -2.905E+00   -2.890E+00   -2.875E+00   -2.860E+00   -2.845E+00   -2.831E+00   -2.816E+00   -2.801E+00   -2.787E+00   -2.772E+00
    -2.757E+00   -2.743E+00   -2.728E+00   -2.714E+00   -2.700E+00   -2.685E+00   -2.671E+00   -2.657E+00   -2.643E+00   -2.628E+00
    -2.614E+00   -2.600E+00   -2.586E+00   -2.572E+00   -2.559E+00   -2.545E+00   -2.531E+00   -2.517E+00   -2.504E+00   -2.490E+00
    -2.476E+00   -2.463E+00   -2.449E+00   -2.436E+00   -2.422E+00   -2.409E+00   -2.396E+00   -2.382E+00   -2.369E+00   -2.356E+00
    -2.343E+00   -2.330E+00   -2.317E+00   -2.304E+00   -2.291E+00   -2.278E+00   -2.265E+00   -2.252E+00   -2.240E+00   -2.227E+00
    -2.214E+00   -2.202E+00   -2.189E+00   -2.176E+00   -2.164E+00   -2.152E+00   -2.139E+00   -2.127E+00   -2.114E+00   -2.102E+00
    -2.090E+00   -2.078E+00   -2.065E+00   -2.053E+00   -2.041E+00   -2.029E+00   -2.017E+00   -2.005E+00   -1.993E+00   -1.981E+00
    -1.970E+00   -1.958E+00   -1.946E+00   -1.934E+00   -1.922E+00   -1.911E+00   -1.899E+00   -1.888E+00   -1.876E+00   -1.864E+00
    -1.853E+00   -1.842E+00   -1.830E+00   -1.819E+00   -1.807E+00   -1.796E+00   -1.785E+00   -1.773E+00   -1.762E+00   -1.751E+00
    -1.740E+00   -1.729E+00   -1.717E+00   -1.706E+00   -1.695E+00   -1.684E+00   -1.673E+00   -1.662E+00   -1.651E+00   -1.640E+00
    -1.629E+00   -1.618E+00   -1.607E+00   -1.596E+00   -1.585E+00   -1.575E+00   -1.564E+00   -1.553E+00   -1.542E+00   -1.531E+00
    -1.520E+00   -1.510E+00   -1.499E+00   -1.488E+00   -1.477E+00   -1.466E+00   -1.455E+00   -1.445E+00   -1.434E+00   -1.423E+00
    -1.412E+00   -1.402E+00   -1.391E+00   -1.380E+00   -1.369E+00   -1.358E+00   -1.348E+00   -1.337E+00
 Ala      Conc. = 3.55E+01
