 LCModel (Version 6.3-1L) Copyright: S.W. Provencher.          Ref.: Magn. Reson. Med. 30:672-679 (1993).                
 Slice#3 Row#11 Col#12  PD_05_press_1_raw_act
 36 lines in following concentration table = NCONC+1
    Conc.  %SD /Cr+PCr  Metabolite                                         
    0.000 999%   0.000 Ala                                                 
   10.728 112%   0.280 Asp                                                 
    0.000 999%   0.000 Cr                                                  
   38.341  45%   1.000 PCr                                                 
    6.221 116%   0.162 GABA                                                
    7.104 102%   0.185 Glc                                                 
  234.516  60%   6.117 Gln                                                 
  136.747  96%   3.567 Glu                                                 
   14.631  43%   0.382 GPC                                                 
    0.000 999%   0.000 PCh                                                 
    0.000 999%   0.000 GSH                                                 
  125.343  58%   3.269 Ins                                                 
  273.039  34%   7.121 Lac                                                 
  141.539  27%   3.692 NAA                                                 
    0.000 999%   0.000 NAAG                                                
    3.375  70% 8.8E-02 Scyllo                                              
   13.349  90%   0.348 Tau                                                 
    8.028 125%   0.209 -CrCH2                                              
   14.631  43%   0.382 GPC+PCh                                             
  141.539  27%   3.692 NAA+NAAG                                            
   38.341  45%   1.000 Cr+PCr                                              
  371.263  65%   9.683 Glu+Gln                                             
 1.80E+04   5% 470.214 Lip13a                                              
    0.000 999%   0.000 Lip13b                                              
    0.000 999%   0.000-Lip09                                               
  205.912  33%   5.371 MM09                                                
    0.000 999%   0.000 Lip20                                               
  257.531  41%   6.717 MM20                                                
   62.205  39%   1.622 MM12                                                
  385.910  18%  10.065+MM14                                                
  173.704  25%   4.531 MM17                                                
 1.80E+04   5% 470.214 Lip13a+Lip13b                                       
 1.85E+04   5% 481.902 MM14+Lip13a+Lip13b+MM12                             
  205.912  33%   5.371 MM09+Lip09                                          
  257.531  41%   6.717 MM20+Lip20                                          
   6 lines in following misc. output table
  FWHM = 0.076 ppm    S/N =  17                                            
  Data shift =-0.069 ppm                                                   
  Ph:-135 deg     -67.0 deg/ppm                                            
  alphaB,S = 1.3E+00,   2.6E+01                                            
   12 spline knots.   Ns = 9(2)                                            
  (11) 6 infls.   (12) 4 extrs.                                            
  498 points on ppm-axis = NY
      4.000000     3.992357     3.984714     3.977070     3.969427     3.961784     3.954141     3.946497     3.938854     3.931211
      3.923568     3.915925     3.908281     3.900638     3.892995     3.885352     3.877708     3.870065     3.862422     3.854779
      3.847136     3.839492     3.831849     3.824206     3.816563     3.808919     3.801276     3.793633     3.785990     3.778347
      3.770703     3.763060     3.755417     3.747774     3.740130     3.732487     3.724844     3.717201     3.709558     3.701914
      3.694271     3.686628     3.678985     3.671341     3.663698     3.656055     3.648412     3.640769     3.633125     3.625482
      3.617839     3.610196     3.602552     3.594909     3.587266     3.579623     3.571980     3.564336     3.556693     3.549050
      3.541407     3.533763     3.526120     3.518477     3.510834     3.503191     3.495547     3.487904     3.480261     3.472618
      3.464974     3.457331     3.449688     3.442045     3.434402     3.426758     3.419115     3.411472     3.403829     3.396185
      3.388542     3.380899     3.373256     3.365613     3.357969     3.350326     3.342683     3.335040     3.327396     3.319753
      3.312110     3.304467     3.296824     3.289180     3.281537     3.273894     3.266251     3.258607     3.250964     3.243321
      3.235678     3.228034     3.220391     3.212748     3.205105     3.197462     3.189818     3.182175     3.174532     3.166889
      3.159245     3.151602     3.143959     3.136316     3.128673     3.121029     3.113386     3.105743     3.098100     3.090456
      3.082813     3.075170     3.067527     3.059884     3.052240     3.044597     3.036954     3.029311     3.021667     3.014024
      3.006381     2.998738     2.991095     2.983451     2.975808     2.968165     2.960522     2.952878     2.945235     2.937592
      2.929949     2.922306     2.914662     2.907019     2.899376     2.891733     2.884089     2.876446     2.868803     2.861160
      2.853517     2.845873     2.838230     2.830587     2.822944     2.815300     2.807657     2.800014     2.792371     2.784728
      2.777084     2.769441     2.761798     2.754155     2.746511     2.738868     2.731225     2.723582     2.715939     2.708295
      2.700652     2.693009     2.685366     2.677722     2.670079     2.662436     2.654793     2.647150     2.639506     2.631863
      2.624220     2.616577     2.608933     2.601290     2.593647     2.586004     2.578361     2.570717     2.563074     2.555431
      2.547788     2.540144     2.532501     2.524858     2.517215     2.509572     2.501928     2.494285     2.486642     2.478999
      2.471355     2.463712     2.456069     2.448426     2.440783     2.433139     2.425496     2.417853     2.410210     2.402566
      2.394923     2.387280     2.379637     2.371994     2.364350     2.356707     2.349064     2.341421     2.333777     2.326134
      2.318491     2.310848     2.303205     2.295561     2.287918     2.280275     2.272632     2.264988     2.257345     2.249702
      2.242059     2.234416     2.226772     2.219129     2.211486     2.203843     2.196199     2.188556     2.180913     2.173270
      2.165627     2.157983     2.150340     2.142697     2.135054     2.127410     2.119767     2.112124     2.104481     2.096838
      2.089194     2.081551     2.073908     2.066265     2.058621     2.050978     2.043335     2.035692     2.028049     2.020405
      2.012762     2.005119     1.997476     1.989833     1.982190     1.974546     1.966903     1.959260     1.951617     1.943974
      1.936331     1.928688     1.921045     1.913402     1.905759     1.898115     1.890472     1.882829     1.875186     1.867543
      1.859900     1.852257     1.844614     1.836971     1.829327     1.821684     1.814041     1.806398     1.798755     1.791112
      1.783469     1.775826     1.768183     1.760540     1.752896     1.745253     1.737610     1.729967     1.722324     1.714681
      1.707038     1.699395     1.691752     1.684108     1.676465     1.668822     1.661179     1.653536     1.645893     1.638250
      1.630607     1.622964     1.615321     1.607677     1.600034     1.592391     1.584748     1.577105     1.569462     1.561819
      1.554176     1.546533     1.538890     1.531246     1.523603     1.515960     1.508317     1.500674     1.493031     1.485388
      1.477745     1.470102     1.462458     1.454815     1.447172     1.439529     1.431886     1.424243     1.416600     1.408957
      1.401314     1.393671     1.386027     1.378384     1.370741     1.363098     1.355455     1.347812     1.340169     1.332526
      1.324883     1.317240     1.309596     1.301953     1.294310     1.286667     1.279024     1.271381     1.263738     1.256095
      1.248452     1.240808     1.233165     1.225522     1.217879     1.210236     1.202593     1.194950     1.187307     1.179664
      1.172021     1.164377     1.156734     1.149091     1.141448     1.133805     1.126162     1.118519     1.110876     1.103233
      1.095590     1.087946     1.080303     1.072660     1.065017     1.057374     1.049731     1.042088     1.034445     1.026802
      1.019158     1.011515     1.003872     0.996229     0.988586     0.980943     0.973300     0.965657     0.958014     0.950371
      0.942727     0.935084     0.927441     0.919798     0.912155     0.904512     0.896869     0.889226     0.881583     0.873940
      0.866296     0.858653     0.851010     0.843367     0.835724     0.828081     0.820438     0.812795     0.805152     0.797508
      0.789865     0.782222     0.774579     0.766936     0.759293     0.751650     0.744007     0.736364     0.728721     0.721077
      0.713434     0.705791     0.698148     0.690505     0.682862     0.675219     0.667576     0.659933     0.652290     0.644646
      0.637003     0.629360     0.621717     0.614074     0.606431     0.598788     0.591145     0.583502     0.575858     0.568215
      0.560572     0.552929     0.545286     0.537643     0.530000     0.522357     0.514714     0.507071     0.499427     0.491784
      0.484141     0.476498     0.468855     0.461212     0.453569     0.445925     0.438282     0.430639     0.422996     0.415353
      0.407710     0.400067     0.392424     0.384780     0.377137     0.369494     0.361851     0.354208     0.346565     0.338922
      0.331278     0.323635     0.315992     0.308349     0.300706     0.293063     0.285420     0.277777     0.270133     0.262490
      0.254847     0.247204     0.239561     0.231918     0.224275     0.216631     0.208988     0.201345
 NY phased data points follow
   1.43680E+00  1.66971E+00  1.68822E+00  1.80764E+00  1.08766E+00  1.63729E+00  2.58719E+00  1.35528E+00  1.38454E+00  1.67531E+00
   2.41503E+00  1.32941E+00  1.45506E+00  1.18995E+00  2.19273E+00  1.79098E+00  1.76287E+00  4.46377E+00  2.25485E+00  2.00041E+00
   1.63119E+00  2.08307E+00  2.26384E+00  4.10360E+00  2.26148E+00  3.51480E+00  2.16804E+00  2.82786E+00  3.49051E+00  4.00175E+00
   8.76439E-01  3.30846E+00  3.71044E+00  3.07898E+00  3.46931E+00  3.63792E+00  2.88485E+00  3.74272E+00  4.85075E+00  4.21136E+00
   2.80081E+00  3.84326E+00  3.05470E+00  3.36538E+00  3.81006E+00  5.58814E+00  4.64363E+00  3.75095E+00  4.77433E+00  4.64186E+00
   5.27034E+00  4.48001E+00  5.51548E+00  3.70420E+00  5.46823E+00  4.49711E+00  5.21879E+00  5.58960E+00  5.30898E+00  5.62409E+00
   6.06180E+00  6.40997E+00  6.63942E+00  5.09304E+00  4.92371E+00  4.12058E+00  5.23773E+00  4.68589E+00  5.76763E+00  6.17940E+00
   4.33175E+00  5.92293E+00  8.07259E+00  5.66785E+00  5.00871E+00  6.06083E+00  6.33218E+00  5.62472E+00  6.57482E+00  6.21892E+00
   6.85546E+00  6.70492E+00  5.55707E+00  7.13117E+00  6.57407E+00  6.80669E+00  6.35824E+00  7.09617E+00  4.95054E+00  7.04072E+00
   7.81643E+00  7.08851E+00  8.22235E+00  7.40694E+00  6.18095E+00  7.62819E+00  8.12310E+00  7.68489E+00  6.51060E+00  5.65693E+00
   6.82323E+00  7.37128E+00  7.34503E+00  8.12611E+00  8.10165E+00  8.08010E+00  8.06331E+00  8.92052E+00  8.31954E+00  8.52293E+00
   8.95714E+00  9.30047E+00  9.28517E+00  1.04809E+01  6.71167E+00  7.80825E+00  8.50174E+00  7.33193E+00  6.64800E+00  7.75887E+00
   7.05683E+00  8.85736E+00  7.78454E+00  8.89405E+00  8.95989E+00  7.26011E+00  9.92857E+00  7.95415E+00  8.27353E+00  8.80231E+00
   8.87203E+00  8.53184E+00  9.87498E+00  8.56868E+00  1.05725E+01  1.06308E+01  8.62660E+00  1.04306E+01  1.00188E+01  1.03635E+01
   8.52500E+00  7.90455E+00  7.49402E+00  7.46433E+00  8.46719E+00  8.58836E+00  8.76979E+00  8.33370E+00  8.64996E+00  9.40438E+00
   8.32713E+00  7.84045E+00  8.57080E+00  8.68270E+00  9.21390E+00  8.53003E+00  9.57042E+00  9.25206E+00  8.29557E+00  9.34369E+00
   7.56973E+00  9.32983E+00  8.78927E+00  8.62613E+00  8.97606E+00  8.85685E+00  1.01326E+01  9.57431E+00  1.02321E+01  8.70869E+00
   9.75220E+00  1.03477E+01  7.40792E+00  8.77751E+00  8.30694E+00  8.20669E+00  7.76352E+00  8.28617E+00  8.64363E+00  8.70248E+00
   8.34667E+00  8.78516E+00  9.32285E+00  9.24667E+00  8.96243E+00  9.01506E+00  8.76258E+00  1.05554E+01  9.53438E+00  9.15065E+00
   9.42497E+00  8.82059E+00  1.02249E+01  1.05968E+01  9.49677E+00  7.83210E+00  9.72937E+00  9.27768E+00  9.90181E+00  7.95756E+00
   1.02374E+01  1.01232E+01  9.54977E+00  9.68502E+00  1.02746E+01  1.15130E+01  9.38688E+00  9.74788E+00  9.92841E+00  1.04523E+01
   9.85804E+00  9.58902E+00  1.05278E+01  9.69851E+00  1.14243E+01  1.16723E+01  1.10905E+01  1.19254E+01  1.01265E+01  1.09227E+01
   1.03315E+01  1.07377E+01  1.16557E+01  1.05872E+01  1.19017E+01  1.11623E+01  1.12610E+01  1.21776E+01  1.31927E+01  1.19735E+01
   1.31996E+01  1.07882E+01  1.19661E+01  1.17634E+01  1.32214E+01  1.34621E+01  1.36122E+01  1.26638E+01  1.19929E+01  1.22720E+01
   1.35593E+01  1.31073E+01  1.29090E+01  1.33272E+01  1.27387E+01  1.35623E+01  1.25826E+01  1.25277E+01  1.37549E+01  1.30680E+01
   1.25936E+01  1.30403E+01  1.28316E+01  1.37702E+01  1.39223E+01  1.30434E+01  1.34637E+01  1.33544E+01  1.37463E+01  1.31379E+01
   1.43595E+01  1.41806E+01  1.65552E+01  1.50370E+01  1.63421E+01  1.63136E+01  1.56706E+01  1.83529E+01  1.94697E+01  1.93481E+01
   1.99456E+01  1.96953E+01  2.03722E+01  2.08011E+01  1.97992E+01  2.02436E+01  1.67001E+01  1.60855E+01  1.74809E+01  1.76875E+01
   1.75359E+01  1.67225E+01  1.74909E+01  1.81863E+01  1.68282E+01  1.71087E+01  1.83616E+01  1.86136E+01  1.87229E+01  1.60791E+01
   1.77635E+01  1.75304E+01  1.90264E+01  1.99595E+01  1.92923E+01  1.95933E+01  1.88795E+01  1.76998E+01  1.96857E+01  1.93077E+01
   1.80325E+01  1.89538E+01  1.95054E+01  2.08034E+01  2.09281E+01  2.08819E+01  2.23066E+01  2.35199E+01  2.30756E+01  2.43907E+01
   2.24732E+01  2.49690E+01  2.49392E+01  2.52959E+01  2.55712E+01  2.55819E+01  2.76348E+01  2.67003E+01  2.75649E+01  2.92077E+01
   2.98647E+01  2.84709E+01  2.87911E+01  3.00251E+01  3.18454E+01  3.18338E+01  3.08016E+01  3.11322E+01  3.18486E+01  3.30951E+01
   3.34375E+01  3.27152E+01  3.52104E+01  3.67772E+01  3.52653E+01  3.58392E+01  3.60813E+01  3.58225E+01  3.68359E+01  3.81866E+01
   3.81861E+01  3.99682E+01  3.96798E+01  4.03413E+01  4.00157E+01  4.10567E+01  4.22949E+01  4.33987E+01  4.41026E+01  4.58551E+01
   4.47205E+01  4.49483E+01  4.49078E+01  4.50207E+01  4.57185E+01  4.78307E+01  4.75279E+01  4.90482E+01  4.86142E+01  4.87469E+01
   4.87177E+01  4.83784E+01  4.83089E+01  4.90618E+01  5.09657E+01  5.02325E+01  5.08143E+01  5.13911E+01  5.04979E+01  5.22956E+01
   5.12722E+01  5.17793E+01  5.09001E+01  5.13500E+01  4.94903E+01  4.87689E+01  4.87351E+01  4.87978E+01  4.84557E+01  4.75495E+01
   4.54502E+01  4.25176E+01  4.17753E+01  4.15351E+01  4.08850E+01  4.09010E+01  3.92281E+01  3.77203E+01  3.74627E+01  3.55912E+01
   3.64113E+01  3.36896E+01  3.41763E+01  3.28751E+01  3.28937E+01  3.26155E+01  3.20874E+01  3.25010E+01  2.93689E+01  3.03563E+01
   2.81797E+01  2.86079E+01  2.91737E+01  2.70631E+01  2.87301E+01  2.78360E+01  2.63911E+01  2.69388E+01  2.69583E+01  2.62187E+01
   2.51788E+01  2.51990E+01  2.44816E+01  2.31562E+01  2.52207E+01  2.29069E+01  2.22280E+01  2.16630E+01  2.39603E+01  2.30912E+01
   2.15514E+01  2.05102E+01  2.18405E+01  2.16765E+01  1.95537E+01  2.11456E+01  1.99199E+01  1.90669E+01  2.01423E+01  1.94355E+01
   1.92447E+01  1.94770E+01  1.98559E+01  1.93316E+01  1.97168E+01  1.66126E+01  1.79419E+01  1.71495E+01  1.79045E+01  1.79462E+01
   1.80203E+01  1.79122E+01  1.80832E+01  1.76419E+01  1.71604E+01  1.81119E+01  1.53807E+01  1.66758E+01  1.66781E+01  1.59400E+01
   1.56349E+01  1.58826E+01  1.59084E+01  1.51603E+01  1.53063E+01  1.59182E+01  1.50107E+01  1.42496E+01  1.23370E+01  1.48187E+01
   1.64611E+01  1.40101E+01  1.38844E+01  1.32070E+01  1.38816E+01  1.25124E+01  1.33029E+01  1.26096E+01  1.26896E+01  1.16094E+01
   1.09360E+01  1.22836E+01  1.16370E+01  1.24332E+01  1.18521E+01  1.25630E+01  1.26968E+01  1.15321E+01  1.12347E+01  1.10522E+01
   1.05162E+01  8.98532E+00  1.03732E+01  1.07189E+01  9.92217E+00  1.00994E+01  1.03228E+01  1.07710E+01  1.03541E+01  1.06503E+01
   1.02229E+01  8.89547E+00  1.05155E+01  9.49364E+00  8.81285E+00  1.09975E+01  9.50576E+00  8.00362E+00
 NY points of the fit to the data follow
   8.05667E-01  1.25664E+00  1.27632E+00  1.65693E+00  1.67104E+00  1.91827E+00  1.82136E+00  1.91232E+00  1.83568E+00  1.95139E+00
   1.87704E+00  1.96121E+00  1.88165E+00  2.00775E+00  2.00383E+00  2.20258E+00  2.28568E+00  2.57273E+00  2.63026E+00  2.85192E+00
   2.76487E+00  2.90429E+00  2.76996E+00  2.90413E+00  2.84009E+00  2.95442E+00  2.91336E+00  2.94516E+00  2.84206E+00  2.81978E+00
   2.84880E+00  2.97085E+00  3.17559E+00  3.33963E+00  3.48945E+00  3.50058E+00  3.46668E+00  3.42024E+00  3.43201E+00  3.50814E+00
   3.72518E+00  3.87703E+00  4.08982E+00  4.20130E+00  4.28788E+00  4.35880E+00  4.37498E+00  4.51236E+00  4.51494E+00  4.63709E+00
   4.66054E+00  4.76761E+00  4.77526E+00  4.91202E+00  5.05722E+00  5.23353E+00  5.39302E+00  5.50936E+00  5.59130E+00  5.61096E+00
   5.61201E+00  5.58375E+00  5.55013E+00  5.47573E+00  5.44557E+00  5.41472E+00  5.43122E+00  5.45971E+00  5.51585E+00  5.62501E+00
   5.74880E+00  5.83967E+00  5.94032E+00  5.97906E+00  6.05188E+00  6.08063E+00  6.13760E+00  6.19260E+00  6.26272E+00  6.32255E+00
   6.39881E+00  6.46255E+00  6.54717E+00  6.60595E+00  6.65564E+00  6.64252E+00  6.72352E+00  6.68674E+00  6.74129E+00  6.67767E+00
   6.69386E+00  6.60111E+00  6.65621E+00  6.57121E+00  6.71561E+00  6.64061E+00  6.76664E+00  6.68520E+00  6.79497E+00  6.72863E+00
   6.89209E+00  6.93383E+00  7.16056E+00  7.35906E+00  7.52046E+00  7.76804E+00  7.77854E+00  8.00470E+00  7.96675E+00  8.22053E+00
   8.22695E+00  8.58113E+00  8.45504E+00  8.76608E+00  8.49425E+00  8.67690E+00  8.35548E+00  8.40262E+00  8.15706E+00  8.12251E+00
   7.99999E+00  7.95157E+00  7.87067E+00  7.80182E+00  7.92628E+00  7.99081E+00  8.19385E+00  8.34351E+00  8.48697E+00  8.65251E+00
   8.68963E+00  8.83939E+00  8.88667E+00  9.07954E+00  9.16073E+00  9.40199E+00  9.36257E+00  9.56085E+00  9.39616E+00  9.51571E+00
   9.25088E+00  9.27480E+00  8.99406E+00  8.96366E+00  8.78592E+00  8.74799E+00  8.60985E+00  8.56275E+00  8.56897E+00  8.58494E+00
   8.59979E+00  8.62259E+00  8.63720E+00  8.65424E+00  8.67549E+00  8.69336E+00  8.72061E+00  8.74580E+00  8.77493E+00  8.78884E+00
   8.80191E+00  8.80205E+00  8.82452E+00  8.84042E+00  8.87432E+00  8.90356E+00  8.92146E+00  8.94335E+00  8.94577E+00  8.95959E+00
   8.96161E+00  8.98030E+00  8.98597E+00  9.01659E+00  9.00846E+00  9.05054E+00  9.03840E+00  9.07787E+00  9.07424E+00  9.08847E+00
   9.10207E+00  9.10235E+00  9.12653E+00  9.10068E+00  9.12126E+00  9.09679E+00  9.16187E+00  9.13895E+00  9.22965E+00  9.22033E+00
   9.32827E+00  9.35373E+00  9.49949E+00  9.48979E+00  9.53782E+00  9.55167E+00  9.58716E+00  9.64759E+00  9.70412E+00  9.79874E+00
   9.88762E+00  1.00163E+01  1.00640E+01  1.02415E+01  1.02820E+01  1.04652E+01  1.04616E+01  1.05827E+01  1.05158E+01  1.05937E+01
   1.05024E+01  1.06572E+01  1.06297E+01  1.08486E+01  1.09136E+01  1.10021E+01  1.09798E+01  1.09038E+01  1.07706E+01  1.06432E+01
   1.05845E+01  1.05084E+01  1.06511E+01  1.07354E+01  1.12202E+01  1.13874E+01  1.19168E+01  1.19895E+01  1.22684E+01  1.22165E+01
   1.23440E+01  1.22653E+01  1.22531E+01  1.23328E+01  1.23488E+01  1.25115E+01  1.25141E+01  1.28106E+01  1.28881E+01  1.32352E+01
   1.33097E+01  1.35520E+01  1.33983E+01  1.33871E+01  1.32967E+01  1.32619E+01  1.32934E+01  1.33059E+01  1.32809E+01  1.32135E+01
   1.33079E+01  1.31323E+01  1.34736E+01  1.32544E+01  1.35352E+01  1.32699E+01  1.35361E+01  1.33393E+01  1.38216E+01  1.40021E+01
   1.48552E+01  1.53688E+01  1.60948E+01  1.67105E+01  1.69931E+01  1.74709E+01  1.77806E+01  1.83280E+01  1.87706E+01  1.94239E+01
   1.94524E+01  1.99455E+01  1.95230E+01  1.97890E+01  1.89967E+01  1.90167E+01  1.81267E+01  1.80161E+01  1.74575E+01  1.73663E+01
   1.69049E+01  1.68397E+01  1.68961E+01  1.70034E+01  1.71120E+01  1.72472E+01  1.73805E+01  1.75174E+01  1.76585E+01  1.77993E+01
   1.79467E+01  1.80951E+01  1.82542E+01  1.84144E+01  1.85878E+01  1.87706E+01  1.89676E+01  1.91763E+01  1.94001E+01  1.96383E+01
   1.98929E+01  2.01651E+01  2.04535E+01  2.07630E+01  2.10907E+01  2.14405E+01  2.18085E+01  2.21983E+01  2.26054E+01  2.30308E+01
   2.34705E+01  2.39247E+01  2.43893E+01  2.48633E+01  2.53438E+01  2.58295E+01  2.63181E+01  2.68087E+01  2.72998E+01  2.77906E+01
   2.82800E+01  2.87675E+01  2.92516E+01  2.97317E+01  3.02058E+01  3.06722E+01  3.11266E+01  3.15619E+01  3.19552E+01  3.22894E+01
   3.28103E+01  3.33152E+01  3.38208E+01  3.43019E+01  3.47639E+01  3.51824E+01  3.57576E+01  3.61044E+01  3.67656E+01  3.73858E+01
   3.81032E+01  3.87836E+01  3.95710E+01  4.01498E+01  4.10515E+01  4.18062E+01  4.27455E+01  4.37743E+01  4.44956E+01  4.52442E+01
   4.56927E+01  4.60431E+01  4.64616E+01  4.70650E+01  4.74695E+01  4.85411E+01  4.86725E+01  4.94445E+01  4.92970E+01  4.95034E+01
   4.91239E+01  4.92033E+01  4.89532E+01  4.95309E+01  4.96617E+01  5.05229E+01  5.06382E+01  5.12360E+01  5.13546E+01  5.16842E+01
   5.13990E+01  5.09975E+01  5.03992E+01  4.97545E+01  4.90217E+01  4.80280E+01  4.71697E+01  4.63648E+01  4.55709E+01  4.47762E+01
   4.39770E+01  4.31739E+01  4.23684E+01  4.15634E+01  4.07615E+01  3.99660E+01  3.91795E+01  3.84052E+01  3.76449E+01  3.69014E+01
   3.61761E+01  3.54710E+01  3.47868E+01  3.41250E+01  3.34855E+01  3.28690E+01  3.22749E+01  3.17031E+01  3.11524E+01  3.06223E+01
   3.01110E+01  2.96174E+01  2.91397E+01  2.86765E+01  2.82258E+01  2.77863E+01  2.73561E+01  2.69342E+01  2.65191E+01  2.61103E+01
   2.57066E+01  2.53081E+01  2.49141E+01  2.45252E+01  2.41412E+01  2.37631E+01  2.33909E+01  2.30256E+01  2.26676E+01  2.23179E+01
   2.19767E+01  2.16449E+01  2.13224E+01  2.10100E+01  2.07073E+01  2.04149E+01  2.01323E+01  1.98596E+01  1.95961E+01  1.93420E+01
   1.90963E+01  1.88592E+01  1.86295E+01  1.84075E+01  1.81921E+01  1.79832E+01  1.77801E+01  1.75827E+01  1.73902E+01  1.72026E+01
   1.70191E+01  1.68399E+01  1.66642E+01  1.64922E+01  1.63232E+01  1.61574E+01  1.59941E+01  1.58337E+01  1.56756E+01  1.55200E+01
   1.53664E+01  1.52150E+01  1.50653E+01  1.49177E+01  1.47716E+01  1.46274E+01  1.44845E+01  1.43433E+01  1.42032E+01  1.40648E+01
   1.39273E+01  1.37914E+01  1.36563E+01  1.35226E+01  1.33897E+01  1.32581E+01  1.31272E+01  1.29975E+01  1.28685E+01  1.27406E+01
   1.26133E+01  1.24871E+01  1.23614E+01  1.22368E+01  1.21127E+01  1.19895E+01  1.18669E+01  1.17452E+01  1.16239E+01  1.15036E+01
   1.13837E+01  1.12647E+01  1.11461E+01  1.10284E+01  1.09111E+01  1.07946E+01  1.06786E+01  1.05634E+01  1.04486E+01  1.03347E+01
   1.02211E+01  1.01084E+01  9.99606E+00  9.88460E+00  9.77351E+00  9.66329E+00  9.55344E+00  9.44445E+00
 NY background values follow
     3.976E-01    4.655E-01    5.335E-01    6.015E-01    6.697E-01    7.379E-01    8.062E-01    8.745E-01    9.429E-01    1.011E+00
     1.080E+00    1.148E+00    1.217E+00    1.286E+00    1.354E+00    1.423E+00    1.491E+00    1.560E+00    1.629E+00    1.697E+00
     1.766E+00    1.834E+00    1.903E+00    1.971E+00    2.039E+00    2.108E+00    2.176E+00    2.244E+00    2.312E+00    2.380E+00
     2.448E+00    2.516E+00    2.584E+00    2.651E+00    2.719E+00    2.786E+00    2.853E+00    2.920E+00    2.987E+00    3.054E+00
     3.120E+00    3.187E+00    3.253E+00    3.319E+00    3.385E+00    3.451E+00    3.516E+00    3.581E+00    3.646E+00    3.711E+00
     3.776E+00    3.840E+00    3.904E+00    3.968E+00    4.031E+00    4.095E+00    4.158E+00    4.221E+00    4.283E+00    4.345E+00
     4.407E+00    4.469E+00    4.530E+00    4.591E+00    4.652E+00    4.712E+00    4.772E+00    4.831E+00    4.890E+00    4.949E+00
     5.007E+00    5.065E+00    5.123E+00    5.180E+00    5.237E+00    5.293E+00    5.349E+00    5.404E+00    5.459E+00    5.513E+00
     5.567E+00    5.621E+00    5.674E+00    5.726E+00    5.778E+00    5.830E+00    5.880E+00    5.931E+00    5.981E+00    6.030E+00
     6.079E+00    6.127E+00    6.174E+00    6.221E+00    6.268E+00    6.313E+00    6.358E+00    6.403E+00    6.447E+00    6.490E+00
     6.532E+00    6.574E+00    6.616E+00    6.656E+00    6.696E+00    6.735E+00    6.774E+00    6.811E+00    6.848E+00    6.885E+00
     6.920E+00    6.955E+00    6.989E+00    7.022E+00    7.055E+00    7.087E+00    7.118E+00    7.149E+00    7.179E+00    7.208E+00
     7.237E+00    7.265E+00    7.292E+00    7.319E+00    7.346E+00    7.372E+00    7.397E+00    7.422E+00    7.447E+00    7.471E+00
     7.494E+00    7.517E+00    7.540E+00    7.562E+00    7.584E+00    7.606E+00    7.627E+00    7.648E+00    7.668E+00    7.688E+00
     7.708E+00    7.728E+00    7.748E+00    7.767E+00    7.786E+00    7.805E+00    7.823E+00    7.842E+00    7.860E+00    7.879E+00
     7.897E+00    7.915E+00    7.933E+00    7.950E+00    7.968E+00    7.986E+00    8.004E+00    8.022E+00    8.039E+00    8.057E+00
     8.075E+00    8.093E+00    8.111E+00    8.129E+00    8.147E+00    8.166E+00    8.184E+00    8.203E+00    8.222E+00    8.241E+00
     8.260E+00    8.279E+00    8.299E+00    8.319E+00    8.339E+00    8.359E+00    8.380E+00    8.401E+00    8.422E+00    8.443E+00
     8.465E+00    8.486E+00    8.509E+00    8.531E+00    8.554E+00    8.577E+00    8.600E+00    8.624E+00    8.648E+00    8.672E+00
     8.697E+00    8.722E+00    8.748E+00    8.774E+00    8.800E+00    8.827E+00    8.854E+00    8.881E+00    8.909E+00    8.937E+00
     8.966E+00    8.995E+00    9.025E+00    9.055E+00    9.086E+00    9.117E+00    9.148E+00    9.180E+00    9.213E+00    9.246E+00
     9.280E+00    9.314E+00    9.349E+00    9.384E+00    9.420E+00    9.456E+00    9.493E+00    9.530E+00    9.568E+00    9.607E+00
     9.646E+00    9.686E+00    9.727E+00    9.768E+00    9.810E+00    9.852E+00    9.895E+00    9.938E+00    9.982E+00    1.003E+01
     1.007E+01    1.012E+01    1.016E+01    1.021E+01    1.026E+01    1.030E+01    1.035E+01    1.040E+01    1.045E+01    1.050E+01
     1.055E+01    1.060E+01    1.065E+01    1.070E+01    1.075E+01    1.080E+01    1.085E+01    1.090E+01    1.095E+01    1.100E+01
     1.106E+01    1.111E+01    1.116E+01    1.121E+01    1.127E+01    1.132E+01    1.137E+01    1.143E+01    1.148E+01    1.153E+01
     1.159E+01    1.164E+01    1.169E+01    1.175E+01    1.180E+01    1.185E+01    1.191E+01    1.196E+01    1.202E+01    1.207E+01
     1.212E+01    1.218E+01    1.223E+01    1.228E+01    1.234E+01    1.239E+01    1.244E+01    1.250E+01    1.255E+01    1.260E+01
     1.265E+01    1.270E+01    1.276E+01    1.281E+01    1.286E+01    1.291E+01    1.296E+01    1.301E+01    1.306E+01    1.311E+01
     1.316E+01    1.321E+01    1.326E+01    1.331E+01    1.335E+01    1.340E+01    1.345E+01    1.349E+01    1.354E+01    1.359E+01
     1.363E+01    1.368E+01    1.372E+01    1.376E+01    1.380E+01    1.385E+01    1.389E+01    1.393E+01    1.397E+01    1.401E+01
     1.405E+01    1.409E+01    1.412E+01    1.416E+01    1.419E+01    1.423E+01    1.426E+01    1.430E+01    1.433E+01    1.436E+01
     1.439E+01    1.442E+01    1.445E+01    1.448E+01    1.451E+01    1.454E+01    1.456E+01    1.459E+01    1.461E+01    1.463E+01
     1.465E+01    1.467E+01    1.469E+01    1.471E+01    1.473E+01    1.475E+01    1.476E+01    1.478E+01    1.479E+01    1.480E+01
     1.482E+01    1.483E+01    1.484E+01    1.485E+01    1.485E+01    1.486E+01    1.487E+01    1.487E+01    1.488E+01    1.488E+01
     1.488E+01    1.488E+01    1.489E+01    1.489E+01    1.489E+01    1.488E+01    1.488E+01    1.488E+01    1.487E+01    1.487E+01
     1.486E+01    1.486E+01    1.485E+01    1.484E+01    1.483E+01    1.483E+01    1.482E+01    1.481E+01    1.479E+01    1.478E+01
     1.477E+01    1.476E+01    1.474E+01    1.473E+01    1.471E+01    1.470E+01    1.468E+01    1.466E+01    1.465E+01    1.463E+01
     1.461E+01    1.459E+01    1.457E+01    1.455E+01    1.453E+01    1.451E+01    1.449E+01    1.446E+01    1.444E+01    1.442E+01
     1.439E+01    1.437E+01    1.434E+01    1.432E+01    1.429E+01    1.426E+01    1.424E+01    1.421E+01    1.418E+01    1.415E+01
     1.412E+01    1.409E+01    1.406E+01    1.403E+01    1.400E+01    1.397E+01    1.393E+01    1.390E+01    1.386E+01    1.383E+01
     1.379E+01    1.376E+01    1.372E+01    1.368E+01    1.364E+01    1.360E+01    1.356E+01    1.352E+01    1.348E+01    1.343E+01
     1.339E+01    1.335E+01    1.330E+01    1.326E+01    1.321E+01    1.316E+01    1.311E+01    1.307E+01    1.302E+01    1.296E+01
     1.291E+01    1.286E+01    1.281E+01    1.275E+01    1.270E+01    1.264E+01    1.258E+01    1.253E+01    1.247E+01    1.241E+01
     1.235E+01    1.229E+01    1.222E+01    1.216E+01    1.210E+01    1.203E+01    1.196E+01    1.190E+01    1.183E+01    1.176E+01
     1.169E+01    1.162E+01    1.155E+01    1.148E+01    1.141E+01    1.133E+01    1.126E+01    1.118E+01    1.111E+01    1.103E+01
     1.095E+01    1.088E+01    1.080E+01    1.072E+01    1.064E+01    1.056E+01    1.048E+01    1.040E+01    1.032E+01    1.024E+01
     1.016E+01    1.008E+01    9.993E+00    9.910E+00    9.826E+00    9.743E+00    9.659E+00    9.575E+00    9.490E+00    9.405E+00
     9.320E+00    9.235E+00    9.150E+00    9.064E+00    8.979E+00    8.893E+00    8.807E+00    8.721E+00    8.635E+00    8.549E+00
     8.463E+00    8.377E+00    8.291E+00    8.205E+00    8.119E+00    8.033E+00    7.947E+00    7.861E+00
 Asp      Conc. = 1.07E+01
