 LCModel (Version 6.3-1L) Copyright: S.W. Provencher.          Ref.: Magn. Reson. Med. 30:672-679 (1993).                
 Slice#2 Row#7 Col#9  PD_05_press_1_raw_act
 36 lines in following concentration table = NCONC+1
    Conc.  %SD /Cr+PCr  Metabolite                                         
  112.864  85% 8.1E-02 Ala                                                 
    0.000 999%   0.000 Asp                                                 
  289.497  68%   0.209 Cr                                                  
 1.10E+03  19%   0.791 PCr                                                 
   52.471 289% 3.8E-02 GABA                                                
  246.303  63%   0.178 Glc                                                 
  716.651  27%   0.517 Gln                                                 
 1.56E+03  16%   1.130 Glu                                                 
  672.357   4%   0.485 GPC                                                 
    0.000 999%   0.000 PCh                                                 
  408.175  17%   0.295 GSH                                                 
 1.91E+03  13%   1.377 Ins                                                 
  159.957  69%   0.116 Lac                                                 
 2.43E+03   3%   1.755 NAA                                                 
    0.000 999%   0.000 NAAG                                                
  223.556  13%   0.161 Scyllo                                              
  574.334  37%   0.415 Tau                                                 
  161.728  67%   0.117 -CrCH2                                              
  672.357   4%   0.485 GPC+PCh                                             
 2.43E+03   3%   1.755 NAA+NAAG                                            
 1.38E+03   4%   1.000 Cr+PCr                                              
 2.28E+03  14%   1.647 Glu+Gln                                             
    0.000 999%   0.000 Lip13a                                              
  208.056  53%   0.150 Lip13b                                              
   50.636  86% 3.7E-02 Lip09                                               
 1.31E+03  16%   0.948 MM09                                                
   30.737  90% 2.2E-02 Lip20                                               
 2.56E+03  14%   1.845 MM20                                                
  331.217  44%   0.239 MM12                                                
 1.22E+03  26%   0.879 MM14                                                
  462.333  50%   0.334 MM17                                                
  208.056  53%   0.150 Lip13a+Lip13b                                       
 1.76E+03  21%   1.268 MM14+Lip13a+Lip13b+MM12                             
 1.36E+03  16%   0.984 MM09+Lip09                                          
 2.59E+03  14%   1.867 MM20+Lip20                                          
   6 lines in following misc. output table
  FWHM = 0.046 ppm    S/N =  14                                            
  Data shift =-0.015 ppm                                                   
  Ph: -79 deg     -20.9 deg/ppm                                            
  alphaB,S = 8.7E-01,   2.6E+01                                            
   14 spline knots.   Ns = 6(1)                                            
  ( 7) 4 infls.   ( 5) 3 extrs.                                            
  498 points on ppm-axis = NY
      4.000000     3.992357     3.984714     3.977070     3.969427     3.961784     3.954141     3.946497     3.938854     3.931211
      3.923568     3.915925     3.908281     3.900638     3.892995     3.885352     3.877708     3.870065     3.862422     3.854779
      3.847136     3.839492     3.831849     3.824206     3.816563     3.808919     3.801276     3.793633     3.785990     3.778347
      3.770703     3.763060     3.755417     3.747774     3.740130     3.732487     3.724844     3.717201     3.709558     3.701914
      3.694271     3.686628     3.678985     3.671341     3.663698     3.656055     3.648412     3.640769     3.633125     3.625482
      3.617839     3.610196     3.602552     3.594909     3.587266     3.579623     3.571980     3.564336     3.556693     3.549050
      3.541407     3.533763     3.526120     3.518477     3.510834     3.503191     3.495547     3.487904     3.480261     3.472618
      3.464974     3.457331     3.449688     3.442045     3.434402     3.426758     3.419115     3.411472     3.403829     3.396185
      3.388542     3.380899     3.373256     3.365613     3.357969     3.350326     3.342683     3.335040     3.327396     3.319753
      3.312110     3.304467     3.296824     3.289180     3.281537     3.273894     3.266251     3.258607     3.250964     3.243321
      3.235678     3.228034     3.220391     3.212748     3.205105     3.197462     3.189818     3.182175     3.174532     3.166889
      3.159245     3.151602     3.143959     3.136316     3.128673     3.121029     3.113386     3.105743     3.098100     3.090456
      3.082813     3.075170     3.067527     3.059884     3.052240     3.044597     3.036954     3.029311     3.021667     3.014024
      3.006381     2.998738     2.991095     2.983451     2.975808     2.968165     2.960522     2.952878     2.945235     2.937592
      2.929949     2.922306     2.914662     2.907019     2.899376     2.891733     2.884089     2.876446     2.868803     2.861160
      2.853517     2.845873     2.838230     2.830587     2.822944     2.815300     2.807657     2.800014     2.792371     2.784728
      2.777084     2.769441     2.761798     2.754155     2.746511     2.738868     2.731225     2.723582     2.715939     2.708295
      2.700652     2.693009     2.685366     2.677722     2.670079     2.662436     2.654793     2.647150     2.639506     2.631863
      2.624220     2.616577     2.608933     2.601290     2.593647     2.586004     2.578361     2.570717     2.563074     2.555431
      2.547788     2.540144     2.532501     2.524858     2.517215     2.509572     2.501928     2.494285     2.486642     2.478999
      2.471355     2.463712     2.456069     2.448426     2.440783     2.433139     2.425496     2.417853     2.410210     2.402566
      2.394923     2.387280     2.379637     2.371994     2.364350     2.356707     2.349064     2.341421     2.333777     2.326134
      2.318491     2.310848     2.303205     2.295561     2.287918     2.280275     2.272632     2.264988     2.257345     2.249702
      2.242059     2.234416     2.226772     2.219129     2.211486     2.203843     2.196199     2.188556     2.180913     2.173270
      2.165627     2.157983     2.150340     2.142697     2.135054     2.127410     2.119767     2.112124     2.104481     2.096838
      2.089194     2.081551     2.073908     2.066265     2.058621     2.050978     2.043335     2.035692     2.028049     2.020405
      2.012762     2.005119     1.997476     1.989833     1.982190     1.974546     1.966903     1.959260     1.951617     1.943974
      1.936331     1.928688     1.921045     1.913402     1.905759     1.898115     1.890472     1.882829     1.875186     1.867543
      1.859900     1.852257     1.844614     1.836971     1.829327     1.821684     1.814041     1.806398     1.798755     1.791112
      1.783469     1.775826     1.768183     1.760540     1.752896     1.745253     1.737610     1.729967     1.722324     1.714681
      1.707038     1.699395     1.691752     1.684108     1.676465     1.668822     1.661179     1.653536     1.645893     1.638250
      1.630607     1.622964     1.615321     1.607677     1.600034     1.592391     1.584748     1.577105     1.569462     1.561819
      1.554176     1.546533     1.538890     1.531246     1.523603     1.515960     1.508317     1.500674     1.493031     1.485388
      1.477745     1.470102     1.462458     1.454815     1.447172     1.439529     1.431886     1.424243     1.416600     1.408957
      1.401314     1.393671     1.386027     1.378384     1.370741     1.363098     1.355455     1.347812     1.340169     1.332526
      1.324883     1.317240     1.309596     1.301953     1.294310     1.286667     1.279024     1.271381     1.263738     1.256095
      1.248452     1.240808     1.233165     1.225522     1.217879     1.210236     1.202593     1.194950     1.187307     1.179664
      1.172021     1.164377     1.156734     1.149091     1.141448     1.133805     1.126162     1.118519     1.110876     1.103233
      1.095590     1.087946     1.080303     1.072660     1.065017     1.057374     1.049731     1.042088     1.034445     1.026802
      1.019158     1.011515     1.003872     0.996229     0.988586     0.980943     0.973300     0.965657     0.958014     0.950371
      0.942727     0.935084     0.927441     0.919798     0.912155     0.904512     0.896869     0.889226     0.881583     0.873940
      0.866296     0.858653     0.851010     0.843367     0.835724     0.828081     0.820438     0.812795     0.805152     0.797508
      0.789865     0.782222     0.774579     0.766936     0.759293     0.751650     0.744007     0.736364     0.728721     0.721077
      0.713434     0.705791     0.698148     0.690505     0.682862     0.675219     0.667576     0.659933     0.652290     0.644646
      0.637003     0.629360     0.621717     0.614074     0.606431     0.598788     0.591145     0.583502     0.575858     0.568215
      0.560572     0.552929     0.545286     0.537643     0.530000     0.522357     0.514714     0.507071     0.499427     0.491784
      0.484141     0.476498     0.468855     0.461212     0.453569     0.445925     0.438282     0.430639     0.422996     0.415353
      0.407710     0.400067     0.392424     0.384780     0.377137     0.369494     0.361851     0.354208     0.346565     0.338922
      0.331278     0.323635     0.315992     0.308349     0.300706     0.293063     0.285420     0.277777     0.270133     0.262490
      0.254847     0.247204     0.239561     0.231918     0.224275     0.216631     0.208988     0.201345
 NY phased data points follow
  -1.02046E+02 -1.05658E+02 -1.03558E+02 -1.00222E+02 -9.38048E+01 -8.82041E+01 -8.38024E+01 -7.51627E+01 -6.52070E+01 -6.14878E+01
  -6.09234E+01 -6.25150E+01 -6.35317E+01 -6.65237E+01 -7.63010E+01 -7.84112E+01 -8.20688E+01 -8.05497E+01 -8.18137E+01 -8.21471E+01
  -8.56828E+01 -8.46421E+01 -8.38376E+01 -8.22259E+01 -8.08679E+01 -8.08360E+01 -7.45515E+01 -7.79086E+01 -7.37119E+01 -6.73158E+01
  -6.97561E+01 -6.58863E+01 -6.49296E+01 -7.03779E+01 -6.61912E+01 -6.88442E+01 -6.76285E+01 -6.99638E+01 -7.24562E+01 -6.81086E+01
  -6.70950E+01 -6.57900E+01 -6.53173E+01 -6.18923E+01 -5.71484E+01 -5.63599E+01 -5.49535E+01 -5.14746E+01 -5.21221E+01 -5.62078E+01
  -5.53278E+01 -5.81233E+01 -5.93811E+01 -5.78214E+01 -5.70819E+01 -5.72354E+01 -5.38215E+01 -5.27730E+01 -5.56002E+01 -4.97577E+01
  -5.74924E+01 -6.18819E+01 -6.19119E+01 -6.32282E+01 -5.92634E+01 -6.20823E+01 -5.89035E+01 -5.94154E+01 -6.09818E+01 -6.16442E+01
  -5.57487E+01 -5.17210E+01 -5.46513E+01 -5.04865E+01 -5.33094E+01 -5.16540E+01 -4.76768E+01 -4.69301E+01 -4.64262E+01 -4.87428E+01
  -4.95267E+01 -4.93666E+01 -4.68384E+01 -4.61892E+01 -4.56185E+01 -4.79123E+01 -4.35226E+01 -4.20659E+01 -3.81643E+01 -3.74574E+01
  -3.41922E+01 -3.44353E+01 -3.90479E+01 -3.88175E+01 -4.16258E+01 -4.13781E+01 -4.10672E+01 -3.31575E+01 -2.65270E+01 -2.12334E+01
  -5.79135E-01  7.56022E+00  1.79345E+01  1.91929E+01  1.37724E+01  5.51016E+00 -7.59000E+00 -1.36830E+01 -2.26933E+01 -2.72309E+01
  -2.80181E+01 -2.90145E+01 -3.03165E+01 -3.88227E+01 -3.79806E+01 -3.39027E+01 -3.47849E+01 -3.57621E+01 -4.02025E+01 -3.72807E+01
  -3.73532E+01 -3.39521E+01 -3.06961E+01 -2.36266E+01 -1.64360E+01 -1.13593E+00  8.92999E+00  1.71401E+01  1.49084E+01  4.01875E+00
  -3.09969E-01 -8.40049E+00 -1.74576E+01 -2.34912E+01 -2.32927E+01 -2.69786E+01 -3.31286E+01 -3.40377E+01 -3.49640E+01 -3.28843E+01
  -3.29988E+01 -3.09958E+01 -3.56102E+01 -3.38550E+01 -3.68795E+01 -3.19440E+01 -2.73222E+01 -2.85211E+01 -2.58799E+01 -2.98534E+01
  -2.90263E+01 -3.06025E+01 -2.88385E+01 -2.77511E+01 -2.63046E+01 -2.89489E+01 -2.94976E+01 -2.68867E+01 -2.58797E+01 -3.23158E+01
  -2.66838E+01 -3.06788E+01 -3.39562E+01 -3.11701E+01 -2.98893E+01 -2.60878E+01 -2.56723E+01 -2.61143E+01 -2.62979E+01 -2.89415E+01
  -2.70893E+01 -3.18774E+01 -3.00507E+01 -3.11883E+01 -3.04126E+01 -3.07863E+01 -3.19250E+01 -2.54895E+01 -2.59679E+01 -2.80801E+01
  -2.77907E+01 -2.87205E+01 -3.30076E+01 -3.08745E+01 -3.01636E+01 -3.08812E+01 -2.95708E+01 -2.29580E+01 -2.32151E+01 -1.67895E+01
  -1.75909E+01 -1.28260E+01 -8.71476E+00 -1.25544E+01 -1.03603E+01 -1.21349E+01 -1.26339E+01 -1.51839E+01 -1.49679E+01 -1.42087E+01
  -1.56697E+01 -1.20321E+01 -1.21094E+01 -8.95314E+00 -9.49864E+00 -9.89442E+00 -1.09131E+01 -1.24816E+01 -2.22388E+01 -2.03027E+01
  -2.35539E+01 -2.13142E+01 -1.82933E+01 -1.30156E+01 -6.64493E+00  2.18095E+00  3.10754E+00 -3.73497E+00 -3.21580E+00 -5.06135E+00
  -1.46963E+01 -1.48949E+01 -1.06848E+01 -1.07039E+01 -1.06054E+01 -1.01681E+01 -8.81442E+00 -1.59146E+00 -4.08672E+00 -6.70730E+00
  -3.81769E+00 -4.90859E+00 -4.05300E+00 -1.83826E+00 -9.64256E-01  2.09079E+00 -1.45637E+00  2.38352E-01 -6.89279E-01  5.93413E-02
  -4.04423E+00 -6.48227E+00 -1.09927E+01 -8.11187E+00 -5.63085E+00  2.88238E+00  3.20674E+00  8.80034E+00  8.22068E+00  7.20683E+00
   3.16721E+00  5.28218E+00  1.95510E+00  8.86514E+00  4.16318E+00  1.10257E+01  1.25557E+01  2.89717E+01  4.20732E+01  6.63053E+01
   8.15778E+01  9.27276E+01  8.42737E+01  6.97464E+01  4.96360E+01  3.66649E+01  2.79889E+01  2.19600E+01  2.23195E+01  1.16687E+01
   9.60725E+00  3.00501E+00  4.53683E-01 -1.53180E+00 -3.67571E+00 -6.77369E-01 -2.61299E+00 -3.89994E+00 -1.26063E+00 -1.57634E+00
   3.38722E+00  2.21306E+00 -4.61990E-01  3.55307E-01  2.67455E+00  3.17161E+00 -3.35443E+00 -2.68290E-01 -2.57597E+00 -4.09104E-01
   8.50716E-02  2.76615E+00  1.48665E+00 -2.56063E+00 -3.15150E+00  1.45541E+00  3.29898E+00 -1.06107E-01  1.79837E+00 -2.11789E+00
  -4.50406E-02 -4.88450E-01 -3.86093E-01  7.46452E-01  3.78516E+00  2.02802E+00 -2.83850E+00  1.82702E+00  5.06026E+00  3.47336E+00
  -1.78470E+00  3.93940E+00  6.74334E+00  2.92083E+00  5.16754E+00  6.25725E+00  4.02479E+00  3.31641E+00 -1.79945E+00  2.82717E+00
   6.29249E+00  5.44482E+00  8.02415E+00  8.50663E+00  5.04242E+00  1.26613E+00  1.36280E+00  2.47563E+00  4.77539E+00  2.61020E+00
   1.43110E+00  4.31236E+00  5.01566E+00  6.62640E+00  1.02338E+01  3.83144E+00  9.39009E+00  8.17677E+00  8.41168E+00  6.06200E+00
   8.16821E+00  5.44867E+00  9.82662E+00  6.16903E+00  1.21115E+01  9.78840E+00  6.83285E+00  1.00463E+01  4.27707E+00  5.64112E+00
   5.19470E+00  8.40195E+00  4.15945E+00  6.02099E+00  1.04077E+01  9.00731E+00  7.55238E+00  7.29990E+00  9.36516E+00  4.44746E+00
   7.25480E+00  6.54598E+00  7.24988E+00  6.07060E+00  2.09879E+00  4.90351E+00  4.36548E+00  1.90392E+00  8.70917E+00  4.75907E+00
   2.63522E+00  8.37844E+00  4.73825E+00  6.40476E+00  5.15983E+00  1.37187E+00  5.08843E+00  3.92795E+00  4.68896E+00 -1.76658E+00
   2.17100E+00 -1.44101E+00  1.28837E+00  3.40045E+00  3.22245E+00  3.22386E+00  5.70288E+00  1.19594E+00  2.02365E+00  9.16618E+00
  -7.06227E-01  4.11643E+00  3.08648E+00  7.52931E+00  8.24820E+00  8.71559E+00  1.01748E+01  7.93012E+00  1.09086E+01  1.18691E+01
   1.38183E+01  7.31247E+00  1.33136E+01  1.19000E+01  1.31986E+01  1.22704E+01  1.24113E+01  1.57266E+01  1.34301E+01  1.26427E+01
   1.70521E+01  1.44453E+01  1.55243E+01  1.35180E+01  1.53224E+01  1.74350E+01  1.48756E+01  1.54728E+01  1.31665E+01  1.33173E+01
   1.49471E+01  1.02751E+01  1.17638E+01  1.62088E+01  1.02217E+01  9.76179E+00  9.06977E+00  9.41308E+00  1.28460E+01  1.08304E+01
   1.02687E+01  8.68795E+00  1.06732E+01  1.05031E+01  1.15515E+01  1.10300E+01  6.99305E+00  8.80648E+00  7.90391E+00  1.18609E+01
   1.01306E+01  6.79720E+00  1.11704E+01  1.23192E+01  7.00516E+00  1.51090E+01  9.19804E+00  1.29087E+01  7.60111E+00  7.54034E+00
   6.37442E+00  1.33994E+01  1.15002E+01  9.85932E+00  9.70058E+00  8.89782E+00  9.20753E+00  8.30524E+00  8.97438E+00  9.29464E+00
   9.78013E+00  1.12164E+01  1.06366E+01  1.01755E+01  9.53415E+00  9.43791E+00  8.70260E+00  9.04697E+00  9.11139E+00  6.70714E+00
   9.49994E+00  1.02757E+01  8.63139E+00  8.55097E+00  1.23514E+01  8.87677E+00  1.09756E+01  1.39846E+01  7.33164E+00  1.07561E+01
   1.01498E+01  1.00275E+01  7.51383E+00  1.35030E+01  9.38665E+00  9.55012E+00  1.45353E+01  1.16096E+01  1.34758E+01  1.35462E+01
   1.01235E+01  1.16939E+01  1.39786E+01  1.27189E+01  1.24832E+01  1.30638E+01  8.46993E+00  1.28077E+01
 NY points of the fit to the data follow
  -9.65897E+01 -9.59469E+01 -9.52782E+01 -9.39902E+01 -9.13016E+01 -8.76642E+01 -8.24436E+01 -7.53148E+01 -6.78789E+01 -6.21314E+01
  -5.99440E+01 -6.16288E+01 -6.56024E+01 -7.03004E+01 -7.44200E+01 -7.65232E+01 -7.72823E+01 -8.02890E+01 -8.18987E+01 -8.24764E+01
  -8.22715E+01 -8.17736E+01 -8.13496E+01 -8.10728E+01 -8.05820E+01 -7.98430E+01 -7.85315E+01 -7.61238E+01 -7.29298E+01 -6.95612E+01
  -6.68149E+01 -6.51202E+01 -6.45812E+01 -6.48695E+01 -6.61842E+01 -6.76848E+01 -6.87203E+01 -7.09021E+01 -7.24254E+01 -7.26372E+01
  -7.16149E+01 -6.96224E+01 -6.71487E+01 -6.36103E+01 -5.94430E+01 -5.56197E+01 -5.31391E+01 -5.29116E+01 -5.47987E+01 -5.76466E+01
  -6.06490E+01 -6.26604E+01 -6.30209E+01 -6.29729E+01 -6.34160E+01 -6.30915E+01 -6.15256E+01 -5.96445E+01 -5.79590E+01 -5.69244E+01
  -5.67006E+01 -5.71072E+01 -5.79483E+01 -5.86220E+01 -5.84657E+01 -5.76719E+01 -5.67910E+01 -5.57695E+01 -5.49375E+01 -5.39808E+01
  -5.29461E+01 -5.20234E+01 -5.10439E+01 -5.00134E+01 -4.92907E+01 -4.87826E+01 -4.88908E+01 -4.94009E+01 -5.01864E+01 -5.08330E+01
  -5.10635E+01 -5.04946E+01 -4.92766E+01 -4.84429E+01 -4.71426E+01 -4.46916E+01 -4.17876E+01 -3.92825E+01 -3.79359E+01 -3.81739E+01
  -3.93805E+01 -4.09698E+01 -4.25609E+01 -4.31725E+01 -4.30031E+01 -4.37949E+01 -4.27365E+01 -3.80034E+01 -3.07338E+01 -1.98729E+01
  -5.03343E+00  1.00107E+01  2.01929E+01  2.17576E+01  1.52422E+01  4.57554E+00 -7.15760E+00 -1.68121E+01 -2.17897E+01 -2.46206E+01
  -3.20187E+01 -3.68060E+01 -3.81292E+01 -3.86060E+01 -3.86246E+01 -3.86270E+01 -3.85681E+01 -3.84021E+01 -3.81522E+01 -3.77519E+01
  -3.69565E+01 -3.46943E+01 -3.03998E+01 -2.42436E+01 -1.43596E+01 -1.67904E+00  9.41208E+00  1.52968E+01  1.39619E+01  6.99192E+00
  -1.78645E+00 -1.01053E+01 -1.62308E+01 -1.87025E+01 -2.25300E+01 -2.98083E+01 -3.24455E+01 -3.28844E+01 -3.24209E+01 -3.13780E+01
  -3.03794E+01 -2.98266E+01 -2.94079E+01 -2.91951E+01 -2.91845E+01 -2.91332E+01 -2.90955E+01 -2.90926E+01 -2.90513E+01 -2.91594E+01
  -2.91692E+01 -2.91143E+01 -2.90155E+01 -2.88505E+01 -2.86005E+01 -2.83086E+01 -2.81047E+01 -2.79625E+01 -2.79704E+01 -2.82039E+01
  -2.84758E+01 -2.85953E+01 -2.82780E+01 -2.75239E+01 -2.67290E+01 -2.62093E+01 -2.61297E+01 -2.65030E+01 -2.70411E+01 -2.71741E+01
  -2.72106E+01 -2.72710E+01 -2.74076E+01 -2.79115E+01 -2.83181E+01 -2.84722E+01 -2.83261E+01 -2.77993E+01 -2.70657E+01 -2.65175E+01
  -2.62521E+01 -2.61355E+01 -2.60911E+01 -2.59422E+01 -2.54378E+01 -2.48233E+01 -2.42087E+01 -2.30933E+01 -2.14477E+01 -1.92451E+01
  -1.74328E+01 -1.65631E+01 -1.63920E+01 -1.68266E+01 -1.74509E+01 -1.74989E+01 -1.73158E+01 -1.69431E+01 -1.60995E+01 -1.48865E+01
  -1.34956E+01 -1.19557E+01 -1.06182E+01 -9.60440E+00 -9.36997E+00 -1.01855E+01 -1.19515E+01 -1.43258E+01 -1.66948E+01 -1.81907E+01
  -1.81929E+01 -1.68394E+01 -1.49665E+01 -1.20703E+01 -8.59123E+00 -5.51582E+00 -4.01904E+00 -4.12934E+00 -6.27655E+00 -9.80931E+00
  -1.36016E+01 -1.62608E+01 -1.71894E+01 -1.62768E+01 -1.46356E+01 -1.15778E+01 -8.46188E+00 -6.13870E+00 -5.00862E+00 -4.85855E+00
  -4.55280E+00 -4.02981E+00 -3.92512E+00 -3.78860E+00 -2.99812E+00 -1.86790E+00 -6.84968E-01  1.08930E-01  3.10095E-01  6.83896E-02
  -8.55939E-01 -2.21764E+00 -3.03168E+00 -2.63896E+00 -1.73572E+00 -6.37739E-01  7.24320E-01  1.84536E+00  2.45677E+00  2.76961E+00
   3.09164E+00  3.69836E+00  4.35761E+00  5.02875E+00  6.49856E+00  1.07345E+01  1.76240E+01  2.80612E+01  4.53551E+01  6.64007E+01
   8.33837E+01  9.01164E+01  8.42813E+01  6.99850E+01  5.32140E+01  3.78408E+01  2.78904E+01  2.44764E+01  1.60706E+01  5.73477E+00
   2.61953E+00  1.57906E+00  9.76575E-01  8.51566E-01  9.17229E-01  8.89357E-01  8.03521E-01  6.54534E-01  4.07257E-01  1.41989E-01
  -6.10854E-02 -2.56183E-01 -4.36839E-01 -5.46931E-01 -5.93996E-01 -5.92821E-01 -5.71437E-01 -5.54621E-01 -5.04186E-01 -4.27349E-01
  -3.51149E-01 -2.60375E-01 -1.54687E-01 -3.69393E-02  9.63524E-02  2.45838E-01  4.11972E-01  5.86704E-01  7.67167E-01  9.53525E-01
   1.14081E+00  1.32786E+00  1.51032E+00  1.68467E+00  1.84786E+00  1.99764E+00  2.13271E+00  2.25265E+00  2.35800E+00  2.45107E+00
   2.53470E+00  2.60966E+00  2.68003E+00  2.74994E+00  2.82374E+00  2.90637E+00  3.00311E+00  3.11971E+00  3.26257E+00  3.44143E+00
   3.67578E+00  3.98744E+00  4.33376E+00  4.72213E+00  5.11882E+00  5.35487E+00  5.32356E+00  5.03525E+00  4.60737E+00  4.27315E+00
   4.12953E+00  4.20984E+00  4.62939E+00  5.31408E+00  5.95607E+00  6.68620E+00  7.31833E+00  7.65960E+00  7.77940E+00  7.76414E+00
   7.75889E+00  7.96714E+00  8.09715E+00  8.12387E+00  8.26845E+00  8.29508E+00  7.98527E+00  7.31696E+00  6.43188E+00  5.67411E+00
   5.22375E+00  5.15113E+00  5.60851E+00  6.47980E+00  7.24297E+00  7.89409E+00  8.41132E+00  8.47815E+00  8.18087E+00  7.65744E+00
   7.11875E+00  6.78682E+00  6.27723E+00  5.68974E+00  5.27713E+00  4.97975E+00  4.76258E+00  4.60656E+00  4.49661E+00  4.42052E+00
   4.36865E+00  4.33428E+00  4.31275E+00  4.30130E+00  4.29827E+00  4.30332E+00  4.31678E+00  4.33969E+00  4.37300E+00  4.41790E+00
   4.47539E+00  4.54697E+00  4.63413E+00  4.73869E+00  4.86216E+00  5.00633E+00  5.17293E+00  5.36422E+00  5.58241E+00  5.82990E+00
   6.10867E+00  6.42076E+00  6.76783E+00  7.15148E+00  7.57243E+00  8.03068E+00  8.52477E+00  9.05232E+00  9.60938E+00  1.01908E+01
   1.07896E+01  1.13971E+01  1.20031E+01  1.25966E+01  1.31656E+01  1.36978E+01  1.41811E+01  1.46038E+01  1.49556E+01  1.52281E+01
   1.54152E+01  1.55135E+01  1.55220E+01  1.54428E+01  1.52806E+01  1.50428E+01  1.47388E+01  1.43796E+01  1.39768E+01  1.35429E+01
   1.30898E+01  1.26295E+01  1.21724E+01  1.17279E+01  1.13034E+01  1.09050E+01  1.05370E+01  1.02027E+01  9.90337E+00  9.63937E+00
   9.40977E+00  9.21326E+00  9.04781E+00  8.91129E+00  8.80096E+00  8.71425E+00  8.64836E+00  8.60104E+00  8.56998E+00  8.55326E+00
   8.54880E+00  8.55498E+00  8.57017E+00  8.59335E+00  8.62335E+00  8.65937E+00  8.70032E+00  8.74558E+00  8.79445E+00  8.84665E+00
   8.90165E+00  8.95913E+00  9.01853E+00  9.07967E+00  9.14227E+00  9.20639E+00  9.27171E+00  9.33815E+00  9.40535E+00  9.47339E+00
   9.54212E+00  9.61168E+00  9.68178E+00  9.75245E+00  9.82343E+00  9.89489E+00  9.96672E+00  1.00391E+01  1.01117E+01  1.01846E+01
   1.02576E+01  1.03310E+01  1.04046E+01  1.04787E+01  1.05528E+01  1.06271E+01  1.07016E+01  1.07764E+01  1.08514E+01  1.09267E+01
   1.10020E+01  1.10776E+01  1.11533E+01  1.12293E+01  1.13056E+01  1.13822E+01  1.14588E+01  1.15357E+01  1.16128E+01  1.16904E+01
   1.17681E+01  1.18462E+01  1.19244E+01  1.20030E+01  1.20819E+01  1.21613E+01  1.22410E+01  1.23211E+01
 NY background values follow
    -1.011E+02   -1.005E+02   -9.988E+01   -9.926E+01   -9.864E+01   -9.803E+01   -9.741E+01   -9.679E+01   -9.618E+01   -9.556E+01
    -9.495E+01   -9.433E+01   -9.372E+01   -9.310E+01   -9.249E+01   -9.188E+01   -9.127E+01   -9.066E+01   -9.005E+01   -8.944E+01
    -8.883E+01   -8.822E+01   -8.761E+01   -8.701E+01   -8.640E+01   -8.580E+01   -8.520E+01   -8.460E+01   -8.400E+01   -8.341E+01
    -8.281E+01   -8.222E+01   -8.162E+01   -8.103E+01   -8.045E+01   -7.986E+01   -7.927E+01   -7.869E+01   -7.811E+01   -7.753E+01
    -7.696E+01   -7.638E+01   -7.581E+01   -7.524E+01   -7.467E+01   -7.411E+01   -7.355E+01   -7.299E+01   -7.243E+01   -7.188E+01
    -7.133E+01   -7.078E+01   -7.023E+01   -6.969E+01   -6.915E+01   -6.861E+01   -6.807E+01   -6.754E+01   -6.701E+01   -6.649E+01
    -6.596E+01   -6.544E+01   -6.492E+01   -6.441E+01   -6.390E+01   -6.339E+01   -6.288E+01   -6.238E+01   -6.188E+01   -6.138E+01
    -6.089E+01   -6.039E+01   -5.991E+01   -5.942E+01   -5.894E+01   -5.846E+01   -5.799E+01   -5.752E+01   -5.705E+01   -5.658E+01
    -5.612E+01   -5.566E+01   -5.521E+01   -5.475E+01   -5.430E+01   -5.386E+01   -5.342E+01   -5.298E+01   -5.254E+01   -5.211E+01
    -5.168E+01   -5.126E+01   -5.084E+01   -5.042E+01   -5.001E+01   -4.960E+01   -4.919E+01   -4.878E+01   -4.838E+01   -4.798E+01
    -4.759E+01   -4.720E+01   -4.681E+01   -4.642E+01   -4.604E+01   -4.566E+01   -4.528E+01   -4.491E+01   -4.454E+01   -4.417E+01
    -4.380E+01   -4.344E+01   -4.308E+01   -4.272E+01   -4.236E+01   -4.201E+01   -4.166E+01   -4.131E+01   -4.096E+01   -4.062E+01
    -4.028E+01   -3.994E+01   -3.960E+01   -3.926E+01   -3.893E+01   -3.860E+01   -3.827E+01   -3.794E+01   -3.761E+01   -3.729E+01
    -3.696E+01   -3.664E+01   -3.632E+01   -3.600E+01   -3.569E+01   -3.537E+01   -3.506E+01   -3.475E+01   -3.443E+01   -3.412E+01
    -3.382E+01   -3.351E+01   -3.320E+01   -3.290E+01   -3.260E+01   -3.229E+01   -3.199E+01   -3.169E+01   -3.140E+01   -3.110E+01
    -3.080E+01   -3.051E+01   -3.022E+01   -2.992E+01   -2.963E+01   -2.934E+01   -2.906E+01   -2.877E+01   -2.848E+01   -2.820E+01
    -2.791E+01   -2.763E+01   -2.734E+01   -2.706E+01   -2.678E+01   -2.650E+01   -2.622E+01   -2.595E+01   -2.567E+01   -2.539E+01
    -2.512E+01   -2.485E+01   -2.457E+01   -2.430E+01   -2.403E+01   -2.376E+01   -2.349E+01   -2.322E+01   -2.295E+01   -2.268E+01
    -2.242E+01   -2.215E+01   -2.189E+01   -2.162E+01   -2.136E+01   -2.109E+01   -2.083E+01   -2.057E+01   -2.031E+01   -2.005E+01
    -1.979E+01   -1.954E+01   -1.928E+01   -1.902E+01   -1.877E+01   -1.852E+01   -1.827E+01   -1.802E+01   -1.777E+01   -1.752E+01
    -1.728E+01   -1.703E+01   -1.679E+01   -1.655E+01   -1.631E+01   -1.607E+01   -1.584E+01   -1.560E+01   -1.537E+01   -1.514E+01
    -1.491E+01   -1.468E+01   -1.446E+01   -1.424E+01   -1.402E+01   -1.380E+01   -1.358E+01   -1.336E+01   -1.315E+01   -1.294E+01
    -1.273E+01   -1.253E+01   -1.233E+01   -1.212E+01   -1.193E+01   -1.173E+01   -1.154E+01   -1.134E+01   -1.116E+01   -1.097E+01
    -1.079E+01   -1.061E+01   -1.043E+01   -1.025E+01   -1.008E+01   -9.904E+00   -9.735E+00   -9.568E+00   -9.403E+00   -9.240E+00
    -9.080E+00   -8.922E+00   -8.766E+00   -8.612E+00   -8.460E+00   -8.310E+00   -8.162E+00   -8.016E+00   -7.873E+00   -7.731E+00
    -7.591E+00   -7.453E+00   -7.317E+00   -7.183E+00   -7.051E+00   -6.920E+00   -6.792E+00   -6.665E+00   -6.539E+00   -6.416E+00
    -6.294E+00   -6.174E+00   -6.056E+00   -5.939E+00   -5.823E+00   -5.710E+00   -5.598E+00   -5.487E+00   -5.378E+00   -5.270E+00
    -5.164E+00   -5.059E+00   -4.955E+00   -4.853E+00   -4.752E+00   -4.653E+00   -4.555E+00   -4.458E+00   -4.362E+00   -4.268E+00
    -4.175E+00   -4.083E+00   -3.992E+00   -3.903E+00   -3.814E+00   -3.727E+00   -3.641E+00   -3.557E+00   -3.473E+00   -3.390E+00
    -3.309E+00   -3.228E+00   -3.149E+00   -3.070E+00   -2.993E+00   -2.917E+00   -2.841E+00   -2.767E+00   -2.693E+00   -2.621E+00
    -2.549E+00   -2.479E+00   -2.409E+00   -2.340E+00   -2.272E+00   -2.204E+00   -2.138E+00   -2.072E+00   -2.007E+00   -1.943E+00
    -1.880E+00   -1.817E+00   -1.755E+00   -1.694E+00   -1.634E+00   -1.574E+00   -1.515E+00   -1.456E+00   -1.398E+00   -1.341E+00
    -1.284E+00   -1.228E+00   -1.172E+00   -1.116E+00   -1.062E+00   -1.007E+00   -9.531E-01   -8.994E-01   -8.460E-01   -7.930E-01
    -7.402E-01   -6.876E-01   -6.353E-01   -5.832E-01   -5.312E-01   -4.794E-01   -4.277E-01   -3.761E-01   -3.245E-01   -2.730E-01
    -2.214E-01   -1.698E-01   -1.182E-01   -6.648E-02   -1.464E-02    3.733E-02    8.947E-02    1.418E-01    1.944E-01    2.472E-01
     3.003E-01    3.537E-01    4.074E-01    4.615E-01    5.160E-01    5.709E-01    6.263E-01    6.821E-01    7.385E-01    7.954E-01
     8.528E-01    9.108E-01    9.694E-01    1.029E+00    1.089E+00    1.149E+00    1.210E+00    1.272E+00    1.334E+00    1.397E+00
     1.461E+00    1.525E+00    1.590E+00    1.656E+00    1.722E+00    1.788E+00    1.856E+00    1.924E+00    1.992E+00    2.061E+00
     2.131E+00    2.202E+00    2.273E+00    2.344E+00    2.417E+00    2.489E+00    2.563E+00    2.637E+00    2.712E+00    2.787E+00
     2.863E+00    2.939E+00    3.017E+00    3.094E+00    3.173E+00    3.252E+00    3.331E+00    3.411E+00    3.492E+00    3.573E+00
     3.655E+00    3.738E+00    3.821E+00    3.905E+00    3.989E+00    4.074E+00    4.159E+00    4.246E+00    4.332E+00    4.420E+00
     4.507E+00    4.596E+00    4.685E+00    4.774E+00    4.864E+00    4.954E+00    5.044E+00    5.135E+00    5.226E+00    5.318E+00
     5.410E+00    5.502E+00    5.595E+00    5.687E+00    5.780E+00    5.873E+00    5.966E+00    6.060E+00    6.153E+00    6.247E+00
     6.340E+00    6.434E+00    6.528E+00    6.622E+00    6.715E+00    6.809E+00    6.902E+00    6.996E+00    7.089E+00    7.182E+00
     7.275E+00    7.368E+00    7.461E+00    7.553E+00    7.645E+00    7.737E+00    7.828E+00    7.920E+00    8.010E+00    8.101E+00
     8.191E+00    8.281E+00    8.370E+00    8.458E+00    8.547E+00    8.634E+00    8.722E+00    8.809E+00    8.895E+00    8.981E+00
     9.067E+00    9.153E+00    9.238E+00    9.323E+00    9.407E+00    9.491E+00    9.575E+00    9.659E+00    9.743E+00    9.826E+00
     9.909E+00    9.992E+00    1.007E+01    1.016E+01    1.024E+01    1.032E+01    1.040E+01    1.049E+01    1.057E+01    1.065E+01
     1.073E+01    1.081E+01    1.089E+01    1.098E+01    1.106E+01    1.114E+01    1.122E+01    1.130E+01    1.138E+01    1.147E+01
     1.155E+01    1.163E+01    1.171E+01    1.179E+01    1.188E+01    1.196E+01    1.204E+01    1.212E+01
 Ala      Conc. = 1.13E+02
