 LCModel (Version 6.3-1L) Copyright: S.W. Provencher.          Ref.: Magn. Reson. Med. 30:672-679 (1993).                
 Slice#1 Row#4 Col#4  PD_05_press_1_raw_act
 36 lines in following concentration table = NCONC+1
    Conc.  %SD /Cr+PCr  Metabolite                                         
  148.354  74%   0.235 Ala                                                 
    0.000 999%   0.000 Asp                                                 
    0.000 999%   0.000 Cr                                                  
  632.253   7%   1.000 PCr                                                 
   54.198 164% 8.6E-02 GABA                                                
   84.868  99%   0.134 Glc                                                 
  668.741  38%   1.058 Gln                                                 
  909.678  32%   1.439 Glu                                                 
  264.870   6%   0.419 GPC                                                 
    0.000 999%   0.000 PCh                                                 
  179.449  35%   0.284 GSH                                                 
  893.917  24%   1.414 Ins                                                 
    0.000 999%   0.000 Lac                                                 
 1.36E+03   4%   2.158 NAA                                                 
    0.000 999%   0.000 NAAG                                                
  100.960  19%   0.160 Scyllo                                              
  311.351  40%   0.492 Tau                                                 
  401.595  20%   0.635 -CrCH2                                              
  264.870   6%   0.419 GPC+PCh                                             
 1.36E+03   4%   2.158 NAA+NAAG                                            
  632.253   7%   1.000 Cr+PCr                                              
 1.58E+03  29%   2.496 Glu+Gln                                             
  470.989  43%   0.745 Lip13a                                              
    0.000 999%   0.000 Lip13b                                              
   38.011 267% 6.0E-02 Lip09                                               
  682.385  19%   1.079 MM09                                                
   98.419  72%   0.156 Lip20                                               
 1.35E+03  16%   2.138 MM20                                                
  217.831  34%   0.345 MM12                                                
  511.523  32%   0.809 MM14                                                
  306.037  38%   0.484 MM17                                                
  470.989  43%   0.745 Lip13a+Lip13b                                       
 1.20E+03  19%   1.899 MM14+Lip13a+Lip13b+MM12                             
  720.395  15%   1.139 MM09+Lip09                                          
 1.45E+03  15%   2.293 MM20+Lip20                                          
   6 lines in following misc. output table
  FWHM = 0.076 ppm    S/N =   8                                            
  Data shift = 0.015 ppm                                                   
  Ph: -70 deg     -18.8 deg/ppm                                            
  alphaB,S = 9.4E-01,   3.2E+02                                            
   14 spline knots.   Ns = 9(1)                                            
  (13) 2 infls.   ( 7) 1 extrs.                                            
  498 points on ppm-axis = NY
      4.000000     3.992357     3.984714     3.977070     3.969427     3.961784     3.954141     3.946497     3.938854     3.931211
      3.923568     3.915925     3.908281     3.900638     3.892995     3.885352     3.877708     3.870065     3.862422     3.854779
      3.847136     3.839492     3.831849     3.824206     3.816563     3.808919     3.801276     3.793633     3.785990     3.778347
      3.770703     3.763060     3.755417     3.747774     3.740130     3.732487     3.724844     3.717201     3.709558     3.701914
      3.694271     3.686628     3.678985     3.671341     3.663698     3.656055     3.648412     3.640769     3.633125     3.625482
      3.617839     3.610196     3.602552     3.594909     3.587266     3.579623     3.571980     3.564336     3.556693     3.549050
      3.541407     3.533763     3.526120     3.518477     3.510834     3.503191     3.495547     3.487904     3.480261     3.472618
      3.464974     3.457331     3.449688     3.442045     3.434402     3.426758     3.419115     3.411472     3.403829     3.396185
      3.388542     3.380899     3.373256     3.365613     3.357969     3.350326     3.342683     3.335040     3.327396     3.319753
      3.312110     3.304467     3.296824     3.289180     3.281537     3.273894     3.266251     3.258607     3.250964     3.243321
      3.235678     3.228034     3.220391     3.212748     3.205105     3.197462     3.189818     3.182175     3.174532     3.166889
      3.159245     3.151602     3.143959     3.136316     3.128673     3.121029     3.113386     3.105743     3.098100     3.090456
      3.082813     3.075170     3.067527     3.059884     3.052240     3.044597     3.036954     3.029311     3.021667     3.014024
      3.006381     2.998738     2.991095     2.983451     2.975808     2.968165     2.960522     2.952878     2.945235     2.937592
      2.929949     2.922306     2.914662     2.907019     2.899376     2.891733     2.884089     2.876446     2.868803     2.861160
      2.853517     2.845873     2.838230     2.830587     2.822944     2.815300     2.807657     2.800014     2.792371     2.784728
      2.777084     2.769441     2.761798     2.754155     2.746511     2.738868     2.731225     2.723582     2.715939     2.708295
      2.700652     2.693009     2.685366     2.677722     2.670079     2.662436     2.654793     2.647150     2.639506     2.631863
      2.624220     2.616577     2.608933     2.601290     2.593647     2.586004     2.578361     2.570717     2.563074     2.555431
      2.547788     2.540144     2.532501     2.524858     2.517215     2.509572     2.501928     2.494285     2.486642     2.478999
      2.471355     2.463712     2.456069     2.448426     2.440783     2.433139     2.425496     2.417853     2.410210     2.402566
      2.394923     2.387280     2.379637     2.371994     2.364350     2.356707     2.349064     2.341421     2.333777     2.326134
      2.318491     2.310848     2.303205     2.295561     2.287918     2.280275     2.272632     2.264988     2.257345     2.249702
      2.242059     2.234416     2.226772     2.219129     2.211486     2.203843     2.196199     2.188556     2.180913     2.173270
      2.165627     2.157983     2.150340     2.142697     2.135054     2.127410     2.119767     2.112124     2.104481     2.096838
      2.089194     2.081551     2.073908     2.066265     2.058621     2.050978     2.043335     2.035692     2.028049     2.020405
      2.012762     2.005119     1.997476     1.989833     1.982190     1.974546     1.966903     1.959260     1.951617     1.943974
      1.936331     1.928688     1.921045     1.913402     1.905759     1.898115     1.890472     1.882829     1.875186     1.867543
      1.859900     1.852257     1.844614     1.836971     1.829327     1.821684     1.814041     1.806398     1.798755     1.791112
      1.783469     1.775826     1.768183     1.760540     1.752896     1.745253     1.737610     1.729967     1.722324     1.714681
      1.707038     1.699395     1.691752     1.684108     1.676465     1.668822     1.661179     1.653536     1.645893     1.638250
      1.630607     1.622964     1.615321     1.607677     1.600034     1.592391     1.584748     1.577105     1.569462     1.561819
      1.554176     1.546533     1.538890     1.531246     1.523603     1.515960     1.508317     1.500674     1.493031     1.485388
      1.477745     1.470102     1.462458     1.454815     1.447172     1.439529     1.431886     1.424243     1.416600     1.408957
      1.401314     1.393671     1.386027     1.378384     1.370741     1.363098     1.355455     1.347812     1.340169     1.332526
      1.324883     1.317240     1.309596     1.301953     1.294310     1.286667     1.279024     1.271381     1.263738     1.256095
      1.248452     1.240808     1.233165     1.225522     1.217879     1.210236     1.202593     1.194950     1.187307     1.179664
      1.172021     1.164377     1.156734     1.149091     1.141448     1.133805     1.126162     1.118519     1.110876     1.103233
      1.095590     1.087946     1.080303     1.072660     1.065017     1.057374     1.049731     1.042088     1.034445     1.026802
      1.019158     1.011515     1.003872     0.996229     0.988586     0.980943     0.973300     0.965657     0.958014     0.950371
      0.942727     0.935084     0.927441     0.919798     0.912155     0.904512     0.896869     0.889226     0.881583     0.873940
      0.866296     0.858653     0.851010     0.843367     0.835724     0.828081     0.820438     0.812795     0.805152     0.797508
      0.789865     0.782222     0.774579     0.766936     0.759293     0.751650     0.744007     0.736364     0.728721     0.721077
      0.713434     0.705791     0.698148     0.690505     0.682862     0.675219     0.667576     0.659933     0.652290     0.644646
      0.637003     0.629360     0.621717     0.614074     0.606431     0.598788     0.591145     0.583502     0.575858     0.568215
      0.560572     0.552929     0.545286     0.537643     0.530000     0.522357     0.514714     0.507071     0.499427     0.491784
      0.484141     0.476498     0.468855     0.461212     0.453569     0.445925     0.438282     0.430639     0.422996     0.415353
      0.407710     0.400067     0.392424     0.384780     0.377137     0.369494     0.361851     0.354208     0.346565     0.338922
      0.331278     0.323635     0.315992     0.308349     0.300706     0.293063     0.285420     0.277777     0.270133     0.262490
      0.254847     0.247204     0.239561     0.231918     0.224275     0.216631     0.208988     0.201345
 NY phased data points follow
  -4.82453E+01 -4.69299E+01 -4.57383E+01 -4.41423E+01 -3.96778E+01 -3.90460E+01 -3.98737E+01 -3.50642E+01 -3.26501E+01 -3.42162E+01
  -3.09615E+01 -3.62118E+01 -3.40853E+01 -3.59340E+01 -3.68296E+01 -3.70420E+01 -3.56551E+01 -3.61689E+01 -3.57460E+01 -3.68489E+01
  -3.25259E+01 -3.94044E+01 -3.16323E+01 -3.59163E+01 -3.18224E+01 -3.32513E+01 -3.56253E+01 -3.22195E+01 -3.34433E+01 -3.22972E+01
  -3.16794E+01 -3.23013E+01 -3.03300E+01 -3.06898E+01 -3.06918E+01 -2.94740E+01 -3.17831E+01 -2.61343E+01 -3.26718E+01 -2.98922E+01
  -3.29212E+01 -2.70934E+01 -3.05095E+01 -2.62709E+01 -2.41423E+01 -2.57560E+01 -2.54139E+01 -2.50268E+01 -2.33617E+01 -2.40694E+01
  -2.79994E+01 -2.80979E+01 -2.84144E+01 -3.01245E+01 -2.60482E+01 -2.69750E+01 -2.72020E+01 -2.58717E+01 -2.43360E+01 -2.54146E+01
  -2.64606E+01 -2.42580E+01 -3.01106E+01 -2.45755E+01 -2.93904E+01 -3.13446E+01 -2.53269E+01 -2.49147E+01 -2.60659E+01 -2.46622E+01
  -2.53327E+01 -2.41373E+01 -2.24393E+01 -2.25061E+01 -2.57415E+01 -2.70657E+01 -2.17317E+01 -2.71806E+01 -1.94161E+01 -2.24949E+01
  -1.97080E+01 -1.90592E+01 -1.99949E+01 -2.23038E+01 -2.09834E+01 -2.01689E+01 -1.99957E+01 -1.98993E+01 -1.99049E+01 -2.11992E+01
  -2.12725E+01 -1.65619E+01 -1.90840E+01 -1.86423E+01 -1.95893E+01 -1.67442E+01 -2.22800E+01 -1.44914E+01 -9.12189E+00 -7.57223E+00
  -6.99021E-01 -4.93554E+00 -1.79759E-01 -4.58213E+00 -5.42242E+00 -4.10809E+00 -1.06405E+01 -1.13567E+01 -1.04375E+01 -1.58283E+01
  -1.49145E+01 -1.34577E+01 -2.04628E+01 -1.48112E+01 -1.45326E+01 -1.64921E+01 -1.52823E+01 -1.89755E+01 -1.87454E+01 -1.49949E+01
  -1.66781E+01 -1.71163E+01 -1.33769E+01 -6.60408E+00 -4.52891E+00 -2.13395E+00 -1.95376E+00 -2.18680E+00 -5.47889E-01 -1.98584E+00
  -4.99253E+00 -4.31387E+00 -7.41711E+00 -1.13283E+01 -1.00562E+01 -1.48101E+01 -1.30573E+01 -1.33905E+01 -1.32630E+01 -1.57511E+01
  -1.29935E+01 -1.33869E+01 -1.80387E+01 -1.38890E+01 -1.41126E+01 -1.51607E+01 -1.54676E+01 -1.34546E+01 -8.13533E+00 -1.41946E+01
  -1.35931E+01 -1.62418E+01 -1.42232E+01 -1.65406E+01 -1.11851E+01 -1.61287E+01 -1.46284E+01 -1.45023E+01 -1.36745E+01 -1.22466E+01
  -1.31234E+01 -1.37990E+01 -1.20753E+01 -1.55384E+01 -1.66842E+01 -1.45903E+01 -1.56731E+01 -1.53163E+01 -1.81864E+01 -1.70398E+01
  -1.44786E+01 -1.48021E+01 -1.66541E+01 -1.44847E+01 -1.71394E+01 -1.76989E+01 -1.64798E+01 -1.86754E+01 -1.58680E+01 -1.90803E+01
  -1.49700E+01 -1.74362E+01 -1.44367E+01 -1.37323E+01 -1.42800E+01 -1.08788E+01 -1.34577E+01 -1.13694E+01 -1.31499E+01 -1.07325E+01
  -1.13749E+01 -9.50316E+00 -1.09907E+01 -1.34896E+01 -9.20516E+00 -9.68290E+00 -1.18994E+01 -1.24492E+01 -1.29009E+01 -1.04545E+01
  -8.66683E+00 -1.26235E+01 -9.98909E+00 -9.28810E+00 -1.05325E+01 -1.03619E+01 -9.40608E+00 -1.01782E+01 -9.79206E+00 -9.18177E+00
  -8.04550E+00 -9.33195E+00 -5.23165E+00 -6.98269E+00 -6.47575E+00 -1.42286E+00 -5.80556E+00 -2.39574E+00 -5.86416E+00 -6.85579E+00
  -7.46142E+00 -5.83266E+00 -6.74032E+00 -9.54743E+00 -4.01377E+00 -6.83472E+00 -5.20882E+00 -5.75525E+00 -8.29064E+00  4.46604E-01
  -4.24129E+00 -3.81524E+00 -2.90868E+00 -1.66669E+00 -2.43151E+00 -2.17738E+00 -5.38030E+00 -3.46397E+00 -3.64223E-02 -6.26001E+00
  -5.78693E-01 -3.98596E+00 -4.28705E+00 -2.77502E+00 -3.69555E+00 -2.16405E+00 -3.32557E+00 -3.35450E+00 -3.63101E+00 -2.00362E+00
   1.30489E+00 -1.71555E+00  1.37134E+00  4.83877E+00  7.28349E+00  8.31232E+00  1.68513E+01  2.34360E+01  2.57943E+01  2.98680E+01
   3.42830E+01  3.17021E+01  2.90560E+01  2.48706E+01  2.08887E+01  1.98983E+01  1.79791E+01  1.14717E+01  5.01259E+00  4.61623E+00
  -1.22201E+00  2.80066E-01  3.38797E+00 -2.94630E+00 -2.43315E+00 -2.86408E+00 -1.81882E+00 -1.11525E+00 -5.95010E+00 -5.68787E+00
  -5.77334E+00 -2.97370E+00 -2.29016E+00 -5.63095E+00 -4.89958E+00 -9.02296E-01 -6.54220E+00 -7.38823E+00 -5.99353E+00 -5.36556E+00
  -5.82939E+00 -4.53582E+00 -3.12610E+00 -5.43733E+00 -2.55370E+00 -3.00221E+00 -2.76308E+00 -5.83096E+00 -7.79898E+00 -2.13207E+00
  -5.76317E+00 -4.98361E+00 -4.27641E+00 -2.15666E+00 -1.10122E+00 -2.32525E+00 -3.73171E+00 -2.28560E+00 -4.68489E+00 -1.38489E+00
  -2.81782E-02 -2.26880E+00 -2.17224E+00 -2.83353E+00 -2.32916E+00  4.76472E-01 -1.92278E-01  4.87437E-01  2.74384E-01 -1.62761E+00
  -5.77240E-01  1.14120E+00 -4.35703E-01  2.02849E-01 -1.69639E+00  1.91623E-01 -1.80933E+00 -4.06088E+00 -2.03560E+00 -2.91440E+00
   2.31141E+00 -5.13762E+00 -2.96439E+00  2.38367E-01  2.79781E+00 -2.15143E+00 -3.42799E+00 -2.47891E+00 -4.30173E+00 -5.54347E+00
   1.16080E+00 -1.95768E+00 -1.06379E+00  1.65408E+00  2.62769E+00  6.16593E-02  3.61791E+00  2.90121E+00 -8.98590E-01  7.57151E-01
   1.29088E+00  2.32924E+00  1.62815E-01  5.62690E-01 -2.14657E+00 -2.01648E+00 -2.14957E+00 -4.19240E-01  1.45985E+00  2.70483E-01
  -8.54954E-02 -4.01668E+00 -1.45968E+00 -1.61667E+00 -2.08813E+00 -4.26728E+00  1.03145E+00 -1.26622E+00 -1.82380E+00 -2.50035E+00
   6.19011E-01 -9.29120E-01 -3.90923E-01  3.75538E+00 -1.94140E+00 -4.86771E-01  1.63177E+00 -1.49811E+00  9.98028E-01 -4.10530E-01
   1.22521E+00 -2.61988E+00 -2.91072E+00 -3.95543E+00 -1.58526E+00 -8.34738E-01 -2.32690E+00 -1.34305E+00 -2.50533E+00 -1.03807E+00
  -7.34104E-01 -4.23610E-02  3.96666E+00 -2.73659E+00  9.92071E-01 -5.39597E-01 -2.12624E+00  1.41168E+00 -1.06850E+00  2.25113E+00
   3.77105E+00  2.49162E+00  4.00834E-01 -2.77129E+00  4.41874E+00  6.39897E-01  2.28221E+00 -3.21785E-01  8.76602E-01 -5.72372E-01
  -1.57953E+00  1.75312E+00 -1.31944E+00  9.82268E-01  3.52149E+00  3.39987E+00 -1.51677E+00  1.12965E+00 -3.18236E+00 -1.47540E+00
   1.62645E-02 -3.73014E+00 -2.93450E+00 -1.76913E+00 -5.90678E+00 -4.79379E-01 -1.87121E+00 -2.96237E+00 -2.69052E+00 -2.65482E+00
  -1.56856E+00 -3.05305E+00 -3.04401E+00 -5.48200E+00 -1.96254E+00 -5.82202E+00 -5.62147E+00 -4.92180E+00 -3.12017E+00 -1.04685E+00
  -2.98790E+00 -4.74432E+00 -5.04808E+00 -2.90837E+00 -6.01775E+00 -4.65437E+00 -3.13904E+00 -4.65073E+00 -2.78315E+00 -1.40638E+00
  -3.80650E+00 -1.82343E+00 -2.81063E+00 -4.90536E+00 -2.94017E+00 -2.63405E+00 -2.78794E+00  4.31502E-01  6.23114E-01 -3.31262E+00
  -2.48494E+00 -9.04680E-01 -2.30613E+00 -4.30365E+00 -1.27472E+00 -2.44022E+00 -1.96606E+00 -1.80447E+00 -4.42335E+00 -1.14704E+00
  -9.88480E-01  3.58639E-01  1.98252E+00 -2.45506E+00  1.33760E+00 -2.14105E+00 -4.80947E+00 -1.69712E+00  1.93639E-01 -2.01584E+00
  -2.14188E+00 -2.83850E+00 -8.56008E-01  1.28716E+00  5.54686E-01  1.76612E-01 -7.61272E-01 -1.68910E+00 -6.85094E-02 -6.83342E-02
  -9.94659E-01  1.07127E+00  7.14682E-01  1.09064E+00 -1.65336E+00 -1.88510E-01  1.72479E+00  1.04012E-01
 NY points of the fit to the data follow
  -4.06465E+01 -4.07199E+01 -4.06111E+01 -4.02657E+01 -3.96384E+01 -3.87562E+01 -3.77020E+01 -3.66106E+01 -3.56287E+01 -3.48698E+01
  -3.43913E+01 -3.41803E+01 -3.41645E+01 -3.42595E+01 -3.44046E+01 -3.45900E+01 -3.48024E+01 -3.50255E+01 -3.52518E+01 -3.55028E+01
  -3.56475E+01 -3.55947E+01 -3.54852E+01 -3.53214E+01 -3.50374E+01 -3.45628E+01 -3.38704E+01 -3.29942E+01 -3.20255E+01 -3.10915E+01
  -3.03272E+01 -2.98252E+01 -2.96115E+01 -2.96450E+01 -2.98509E+01 -3.01529E+01 -3.04740E+01 -3.07437E+01 -3.08856E+01 -3.08473E+01
  -3.05695E+01 -3.00016E+01 -2.92042E+01 -2.82759E+01 -2.73584E+01 -2.66013E+01 -2.61143E+01 -2.59498E+01 -2.60751E+01 -2.64035E+01
  -2.68182E+01 -2.72180E+01 -2.75407E+01 -2.77577E+01 -2.78695E+01 -2.78889E+01 -2.78146E+01 -2.76377E+01 -2.73760E+01 -2.71047E+01
  -2.68842E+01 -2.67276E+01 -2.66060E+01 -2.64794E+01 -2.63293E+01 -2.61558E+01 -2.59521E+01 -2.57041E+01 -2.54196E+01 -2.50957E+01
  -2.47249E+01 -2.43405E+01 -2.39950E+01 -2.37360E+01 -2.35868E+01 -2.35398E+01 -2.35507E+01 -2.35137E+01 -2.33447E+01 -2.30356E+01
  -2.25861E+01 -2.20385E+01 -2.14673E+01 -2.09587E+01 -2.05878E+01 -2.03901E+01 -2.03456E+01 -2.04148E+01 -2.05813E+01 -2.08100E+01
  -2.10590E+01 -2.13092E+01 -2.14963E+01 -2.13357E+01 -2.05441E+01 -1.90620E+01 -1.68434E+01 -1.39247E+01 -1.06558E+01 -7.55489E+00
  -5.04595E+00 -3.41759E+00 -2.79017E+00 -3.09717E+00 -4.12798E+00 -5.61954E+00 -7.35618E+00 -9.22743E+00 -1.12015E+01 -1.31999E+01
  -1.50933E+01 -1.67622E+01 -1.80290E+01 -1.86764E+01 -1.88512E+01 -1.88900E+01 -1.88635E+01 -1.87357E+01 -1.82891E+01 -1.73217E+01
  -1.58081E+01 -1.37331E+01 -1.11606E+01 -8.34643E+00 -5.66732E+00 -3.47769E+00 -2.03841E+00 -1.46410E+00 -1.70537E+00 -2.58514E+00
  -3.88484E+00 -5.43282E+00 -7.13634E+00 -8.93836E+00 -1.07480E+01 -1.24284E+01 -1.38400E+01 -1.48257E+01 -1.52324E+01 -1.52461E+01
  -1.51662E+01 -1.50702E+01 -1.49748E+01 -1.48806E+01 -1.47843E+01 -1.46953E+01 -1.46352E+01 -1.46083E+01 -1.46091E+01 -1.46253E+01
  -1.46362E+01 -1.46261E+01 -1.45971E+01 -1.45648E+01 -1.45455E+01 -1.45470E+01 -1.45659E+01 -1.45871E+01 -1.45983E+01 -1.45829E+01
  -1.45296E+01 -1.44466E+01 -1.43564E+01 -1.42841E+01 -1.42494E+01 -1.42602E+01 -1.43112E+01 -1.43894E+01 -1.44904E+01 -1.46051E+01
  -1.47262E+01 -1.48542E+01 -1.49910E+01 -1.51213E+01 -1.52020E+01 -1.52112E+01 -1.51516E+01 -1.50485E+01 -1.49423E+01 -1.48497E+01
  -1.47557E+01 -1.46350E+01 -1.44614E+01 -1.42087E+01 -1.38633E+01 -1.34338E+01 -1.29433E+01 -1.24363E+01 -1.19608E+01 -1.15439E+01
  -1.12171E+01 -1.09969E+01 -1.08635E+01 -1.07644E+01 -1.06309E+01 -1.04129E+01 -1.00776E+01 -9.62533E+00 -9.09127E+00 -8.52297E+00
  -7.97800E+00 -7.58643E+00 -7.44363E+00 -7.58581E+00 -8.02282E+00 -8.69724E+00 -9.45301E+00 -1.00950E+01 -1.04604E+01 -1.04764E+01
  -1.01314E+01 -9.48252E+00 -8.66420E+00 -7.86553E+00 -7.26193E+00 -6.93283E+00 -6.88109E+00 -7.08888E+00 -7.47037E+00 -7.88353E+00
  -8.20883E+00 -8.38997E+00 -8.35749E+00 -8.11638E+00 -7.74057E+00 -7.29114E+00 -6.79766E+00 -6.28181E+00 -5.77437E+00 -5.31275E+00
  -4.90282E+00 -4.53950E+00 -4.20965E+00 -3.92216E+00 -3.69213E+00 -3.48364E+00 -3.28137E+00 -3.13043E+00 -3.06498E+00 -3.07567E+00
  -3.12642E+00 -3.17482E+00 -3.18988E+00 -3.14853E+00 -3.02994E+00 -2.84008E+00 -2.60527E+00 -2.33208E+00 -1.97557E+00 -1.51974E+00
  -9.63393E-01 -1.25629E-01  1.49147E+00  4.06864E+00  7.59584E+00  1.21043E+01  1.73462E+01  2.26577E+01  2.72393E+01  3.04319E+01
   3.18330E+01  3.13781E+01  2.93539E+01  2.62667E+01  2.26168E+01  1.87229E+01  1.47031E+01  1.06298E+01  6.67471E+00  3.07225E+00
   8.98352E-02 -1.90153E+00 -2.73522E+00 -3.02670E+00 -3.18813E+00 -3.30537E+00 -3.40939E+00 -3.51619E+00 -3.61991E+00 -3.71883E+00
  -3.81404E+00 -3.90466E+00 -3.98839E+00 -4.06378E+00 -4.12529E+00 -4.16713E+00 -4.18930E+00 -4.19407E+00 -4.18397E+00 -4.16178E+00
  -4.12950E+00 -4.08870E+00 -4.04093E+00 -3.98479E+00 -3.91899E+00 -3.84276E+00 -3.75533E+00 -3.65630E+00 -3.54655E+00 -3.42735E+00
  -3.30014E+00 -3.16638E+00 -3.02842E+00 -2.88860E+00 -2.74934E+00 -2.61307E+00 -2.48204E+00 -2.35805E+00 -2.24276E+00 -2.13730E+00
  -2.04241E+00 -1.95800E+00 -1.88339E+00 -1.81688E+00 -1.75589E+00 -1.69649E+00 -1.63297E+00 -1.55495E+00 -1.44512E+00 -1.30432E+00
  -1.15333E+00 -1.01079E+00 -9.03518E-01 -8.68944E-01 -9.38570E-01 -1.12412E+00 -1.39971E+00 -1.70550E+00 -1.98358E+00 -2.17785E+00
  -2.24339E+00 -2.16700E+00 -1.97084E+00 -1.69409E+00 -1.37623E+00 -1.05167E+00 -7.46322E-01 -4.70180E-01 -2.26114E-01 -3.86173E-02
   7.70017E-02  1.30543E-01  1.29163E-01  8.20124E-02  6.60872E-04 -9.64363E-02 -1.73226E-01 -2.09939E-01 -2.25178E-01 -2.30517E-01
  -2.31354E-01 -2.30882E-01 -2.31533E-01 -2.35181E-01 -2.43522E-01 -2.57895E-01 -2.79505E-01 -3.09179E-01 -3.47587E-01 -3.95005E-01
  -4.51522E-01 -5.16818E-01 -5.90388E-01 -6.71341E-01 -7.58662E-01 -8.51031E-01 -9.47067E-01 -1.04516E+00 -1.14371E+00 -1.24097E+00
  -1.33529E+00 -1.42495E+00 -1.50835E+00 -1.58386E+00 -1.65002E+00 -1.70534E+00 -1.74851E+00 -1.77819E+00 -1.79324E+00 -1.79246E+00
  -1.77482E+00 -1.73931E+00 -1.68507E+00 -1.61132E+00 -1.51752E+00 -1.40324E+00 -1.26846E+00 -1.11342E+00 -9.38878E-01 -7.46043E-01
  -5.36795E-01 -3.13563E-01 -7.95606E-02  1.61414E-01  4.04820E-01  6.45663E-01  8.78424E-01  1.09743E+00  1.29685E+00  1.47115E+00
   1.61514E+00  1.72440E+00  1.79534E+00  1.82555E+00  1.81376E+00  1.76007E+00  1.66581E+00  1.53362E+00  1.36714E+00  1.17099E+00
   9.50360E-01  7.10964E-01  4.58570E-01  1.98956E-01 -6.25088E-02 -3.20858E-01 -5.71853E-01 -8.11879E-01 -1.03817E+00 -1.24862E+00
  -1.44193E+00 -1.61738E+00 -1.77487E+00 -1.91471E+00 -2.03761E+00 -2.14450E+00 -2.23655E+00 -2.31496E+00 -2.38104E+00 -2.43600E+00
  -2.48109E+00 -2.51739E+00 -2.54597E+00 -2.56774E+00 -2.58358E+00 -2.59416E+00 -2.60017E+00 -2.60213E+00 -2.60057E+00 -2.59585E+00
  -2.58838E+00 -2.57841E+00 -2.56624E+00 -2.55206E+00 -2.53611E+00 -2.51851E+00 -2.49944E+00 -2.47897E+00 -2.45727E+00 -2.43438E+00
  -2.41042E+00 -2.38543E+00 -2.35950E+00 -2.33264E+00 -2.30497E+00 -2.27648E+00 -2.24729E+00 -2.21737E+00 -2.18681E+00 -2.15562E+00
  -2.12385E+00 -2.09152E+00 -2.05868E+00 -2.02532E+00 -1.99151E+00 -1.95723E+00 -1.92255E+00 -1.88744E+00 -1.85197E+00 -1.81612E+00
  -1.77994E+00 -1.74340E+00 -1.70658E+00 -1.66943E+00 -1.63203E+00 -1.59433E+00 -1.55640E+00 -1.51820E+00 -1.47980E+00 -1.44116E+00
  -1.40233E+00 -1.36328E+00 -1.32407E+00 -1.28466E+00 -1.24510E+00 -1.20536E+00 -1.16549E+00 -1.12544E+00 -1.08528E+00 -1.04495E+00
  -1.00452E+00 -9.63930E-01 -9.23226E-01 -8.82367E-01 -8.41393E-01 -8.00258E-01 -7.58989E-01 -7.17533E-01
 NY background values follow
    -4.275E+01   -4.253E+01   -4.232E+01   -4.210E+01   -4.188E+01   -4.167E+01   -4.145E+01   -4.123E+01   -4.102E+01   -4.080E+01
    -4.058E+01   -4.037E+01   -4.015E+01   -3.993E+01   -3.972E+01   -3.950E+01   -3.929E+01   -3.907E+01   -3.885E+01   -3.864E+01
    -3.842E+01   -3.821E+01   -3.799E+01   -3.778E+01   -3.756E+01   -3.735E+01   -3.713E+01   -3.692E+01   -3.671E+01   -3.649E+01
    -3.628E+01   -3.607E+01   -3.585E+01   -3.564E+01   -3.543E+01   -3.522E+01   -3.501E+01   -3.480E+01   -3.459E+01   -3.438E+01
    -3.417E+01   -3.396E+01   -3.375E+01   -3.354E+01   -3.334E+01   -3.313E+01   -3.292E+01   -3.272E+01   -3.251E+01   -3.231E+01
    -3.210E+01   -3.190E+01   -3.169E+01   -3.149E+01   -3.129E+01   -3.109E+01   -3.089E+01   -3.069E+01   -3.049E+01   -3.029E+01
    -3.009E+01   -2.989E+01   -2.970E+01   -2.950E+01   -2.931E+01   -2.911E+01   -2.892E+01   -2.872E+01   -2.853E+01   -2.834E+01
    -2.815E+01   -2.796E+01   -2.777E+01   -2.758E+01   -2.739E+01   -2.720E+01   -2.702E+01   -2.683E+01   -2.664E+01   -2.646E+01
    -2.628E+01   -2.610E+01   -2.591E+01   -2.573E+01   -2.555E+01   -2.537E+01   -2.520E+01   -2.502E+01   -2.484E+01   -2.467E+01
    -2.449E+01   -2.432E+01   -2.415E+01   -2.397E+01   -2.380E+01   -2.363E+01   -2.347E+01   -2.330E+01   -2.313E+01   -2.296E+01
    -2.280E+01   -2.264E+01   -2.247E+01   -2.231E+01   -2.215E+01   -2.199E+01   -2.183E+01   -2.167E+01   -2.151E+01   -2.136E+01
    -2.120E+01   -2.104E+01   -2.089E+01   -2.074E+01   -2.059E+01   -2.043E+01   -2.028E+01   -2.013E+01   -1.999E+01   -1.984E+01
    -1.969E+01   -1.955E+01   -1.940E+01   -1.926E+01   -1.911E+01   -1.897E+01   -1.883E+01   -1.869E+01   -1.855E+01   -1.841E+01
    -1.828E+01   -1.814E+01   -1.800E+01   -1.787E+01   -1.774E+01   -1.760E+01   -1.747E+01   -1.734E+01   -1.721E+01   -1.708E+01
    -1.695E+01   -1.682E+01   -1.670E+01   -1.657E+01   -1.645E+01   -1.632E+01   -1.620E+01   -1.608E+01   -1.595E+01   -1.583E+01
    -1.571E+01   -1.559E+01   -1.548E+01   -1.536E+01   -1.524E+01   -1.512E+01   -1.501E+01   -1.489E+01   -1.478E+01   -1.467E+01
    -1.455E+01   -1.444E+01   -1.433E+01   -1.422E+01   -1.411E+01   -1.400E+01   -1.389E+01   -1.379E+01   -1.368E+01   -1.357E+01
    -1.347E+01   -1.336E+01   -1.326E+01   -1.315E+01   -1.305E+01   -1.295E+01   -1.284E+01   -1.274E+01   -1.264E+01   -1.254E+01
    -1.244E+01   -1.234E+01   -1.224E+01   -1.214E+01   -1.205E+01   -1.195E+01   -1.185E+01   -1.176E+01   -1.166E+01   -1.157E+01
    -1.147E+01   -1.138E+01   -1.128E+01   -1.119E+01   -1.110E+01   -1.101E+01   -1.092E+01   -1.083E+01   -1.074E+01   -1.065E+01
    -1.056E+01   -1.047E+01   -1.039E+01   -1.030E+01   -1.022E+01   -1.013E+01   -1.005E+01   -9.963E+00   -9.880E+00   -9.798E+00
    -9.717E+00   -9.637E+00   -9.557E+00   -9.478E+00   -9.400E+00   -9.322E+00   -9.245E+00   -9.169E+00   -9.094E+00   -9.020E+00
    -8.946E+00   -8.873E+00   -8.801E+00   -8.730E+00   -8.659E+00   -8.589E+00   -8.520E+00   -8.452E+00   -8.385E+00   -8.319E+00
    -8.253E+00   -8.188E+00   -8.124E+00   -8.061E+00   -7.998E+00   -7.937E+00   -7.876E+00   -7.816E+00   -7.756E+00   -7.697E+00
    -7.639E+00   -7.582E+00   -7.526E+00   -7.470E+00   -7.415E+00   -7.360E+00   -7.307E+00   -7.253E+00   -7.201E+00   -7.149E+00
    -7.098E+00   -7.048E+00   -6.998E+00   -6.949E+00   -6.901E+00   -6.853E+00   -6.806E+00   -6.759E+00   -6.713E+00   -6.668E+00
    -6.623E+00   -6.579E+00   -6.535E+00   -6.492E+00   -6.450E+00   -6.408E+00   -6.366E+00   -6.325E+00   -6.285E+00   -6.245E+00
    -6.206E+00   -6.167E+00   -6.129E+00   -6.091E+00   -6.054E+00   -6.017E+00   -5.981E+00   -5.945E+00   -5.910E+00   -5.875E+00
    -5.841E+00   -5.807E+00   -5.774E+00   -5.741E+00   -5.708E+00   -5.676E+00   -5.644E+00   -5.613E+00   -5.582E+00   -5.552E+00
    -5.521E+00   -5.492E+00   -5.463E+00   -5.434E+00   -5.405E+00   -5.377E+00   -5.349E+00   -5.322E+00   -5.295E+00   -5.268E+00
    -5.242E+00   -5.216E+00   -5.191E+00   -5.165E+00   -5.140E+00   -5.116E+00   -5.091E+00   -5.067E+00   -5.044E+00   -5.020E+00
    -4.997E+00   -4.974E+00   -4.952E+00   -4.929E+00   -4.907E+00   -4.886E+00   -4.864E+00   -4.843E+00   -4.822E+00   -4.801E+00
    -4.781E+00   -4.760E+00   -4.740E+00   -4.721E+00   -4.701E+00   -4.682E+00   -4.663E+00   -4.644E+00   -4.625E+00   -4.606E+00
    -4.588E+00   -4.570E+00   -4.552E+00   -4.534E+00   -4.517E+00   -4.500E+00   -4.482E+00   -4.465E+00   -4.449E+00   -4.432E+00
    -4.415E+00   -4.399E+00   -4.383E+00   -4.367E+00   -4.351E+00   -4.335E+00   -4.320E+00   -4.304E+00   -4.289E+00   -4.274E+00
    -4.259E+00   -4.244E+00   -4.229E+00   -4.214E+00   -4.200E+00   -4.185E+00   -4.171E+00   -4.157E+00   -4.143E+00   -4.128E+00
    -4.114E+00   -4.101E+00   -4.087E+00   -4.073E+00   -4.059E+00   -4.046E+00   -4.032E+00   -4.019E+00   -4.005E+00   -3.992E+00
    -3.978E+00   -3.965E+00   -3.951E+00   -3.938E+00   -3.924E+00   -3.911E+00   -3.897E+00   -3.884E+00   -3.870E+00   -3.856E+00
    -3.843E+00   -3.829E+00   -3.815E+00   -3.801E+00   -3.787E+00   -3.772E+00   -3.758E+00   -3.744E+00   -3.729E+00   -3.714E+00
    -3.699E+00   -3.684E+00   -3.669E+00   -3.654E+00   -3.638E+00   -3.622E+00   -3.606E+00   -3.590E+00   -3.574E+00   -3.557E+00
    -3.540E+00   -3.523E+00   -3.505E+00   -3.488E+00   -3.470E+00   -3.452E+00   -3.433E+00   -3.414E+00   -3.395E+00   -3.376E+00
    -3.356E+00   -3.336E+00   -3.316E+00   -3.295E+00   -3.274E+00   -3.253E+00   -3.232E+00   -3.210E+00   -3.188E+00   -3.165E+00
    -3.142E+00   -3.119E+00   -3.096E+00   -3.072E+00   -3.048E+00   -3.024E+00   -2.999E+00   -2.974E+00   -2.949E+00   -2.923E+00
    -2.897E+00   -2.871E+00   -2.844E+00   -2.817E+00   -2.790E+00   -2.762E+00   -2.734E+00   -2.706E+00   -2.677E+00   -2.648E+00
    -2.619E+00   -2.590E+00   -2.560E+00   -2.529E+00   -2.499E+00   -2.468E+00   -2.436E+00   -2.405E+00   -2.373E+00   -2.340E+00
    -2.307E+00   -2.274E+00   -2.241E+00   -2.207E+00   -2.173E+00   -2.139E+00   -2.104E+00   -2.069E+00   -2.033E+00   -1.998E+00
    -1.962E+00   -1.926E+00   -1.889E+00   -1.852E+00   -1.815E+00   -1.778E+00   -1.741E+00   -1.703E+00   -1.665E+00   -1.627E+00
    -1.589E+00   -1.550E+00   -1.512E+00   -1.473E+00   -1.434E+00   -1.395E+00   -1.356E+00   -1.316E+00   -1.277E+00   -1.238E+00
    -1.198E+00   -1.158E+00   -1.118E+00   -1.079E+00   -1.039E+00   -9.987E-01   -9.587E-01   -9.187E-01   -8.787E-01   -8.387E-01
    -7.986E-01   -7.586E-01   -7.186E-01   -6.786E-01   -6.386E-01   -5.987E-01   -5.589E-01   -5.191E-01
 Ala      Conc. = 1.48E+02
