 LCModel (Version 6.3-1L) Copyright: S.W. Provencher.          Ref.: Magn. Reson. Med. 30:672-679 (1993).                
 Slice#3 Row#14 Col#6  PD_05_press_1_raw_act
 36 lines in following concentration table = NCONC+1
    Conc.  %SD /Cr+PCr  Metabolite                                         
  108.211  27%   2.171 Ala                                                 
    4.639 160% 9.3E-02 Asp                                                 
    0.000 999%   0.000 Cr                                                  
   49.850  23%   1.000 PCr                                                 
    3.551 125% 7.1E-02 GABA                                                
    2.915 153% 5.8E-02 Glc                                                 
    0.000 999%   0.000 Gln                                                 
    0.000 999%   0.000 Glu                                                 
    0.000 999%   0.000 GPC                                                 
   10.331  43%   0.207 PCh                                                 
    1.852 934% 3.7E-02 GSH                                                 
    0.000 999%   0.000 Ins                                                 
   43.241  70%   0.867 Lac                                                 
   28.801  47%   0.578 NAA                                                 
    0.000 999%   0.000 NAAG                                                
    1.180 124% 2.4E-02 Scyllo                                              
    4.448 166% 8.9E-02 Tau                                                 
    0.000 999%   0.000 -CrCH2                                              
   10.331  43%   0.207 GPC+PCh                                             
   28.801  47%   0.578 NAA+NAAG                                            
   49.850  23%   1.000 Cr+PCr                                              
    0.000 999%   0.000 Glu+Gln                                             
  148.591  59%   2.981 Lip13a                                              
    0.000 999%   0.000 Lip13b                                              
   36.223  82%   0.727 Lip09                                               
   36.837 108%   0.739 MM09                                                
   26.237  68%   0.526 Lip20                                               
   61.510  99%   1.234 MM20                                                
   11.297 117%   0.227 MM12                                                
   20.930 177%   0.420 MM14                                                
   11.525 188%   0.231 MM17                                                
  148.591  59%   2.981 Lip13a+Lip13b                                       
  180.818  51%   3.627 MM14+Lip13a+Lip13b+MM12                             
   73.060  58%   1.466 MM09+Lip09                                          
   87.747  69%   1.760 MM20+Lip20                                          
   6 lines in following misc. output table
  FWHM = 0.061 ppm    S/N =   1                                            
  Data shift =-0.069 ppm                                                   
  Ph: 137 deg     -15.5 deg/ppm                                            
  alphaB,S = 4.7E-01,   2.3E+01                                            
   14 spline knots.   Ns = 5(1)                                            
  ( 7) 2 infls.   ( 7) 1 extrs.                                            
  498 points on ppm-axis = NY
      4.000000     3.992357     3.984714     3.977070     3.969427     3.961784     3.954141     3.946497     3.938854     3.931211
      3.923568     3.915925     3.908281     3.900638     3.892995     3.885352     3.877708     3.870065     3.862422     3.854779
      3.847136     3.839492     3.831849     3.824206     3.816563     3.808919     3.801276     3.793633     3.785990     3.778347
      3.770703     3.763060     3.755417     3.747774     3.740130     3.732487     3.724844     3.717201     3.709558     3.701914
      3.694271     3.686628     3.678985     3.671341     3.663698     3.656055     3.648412     3.640769     3.633125     3.625482
      3.617839     3.610196     3.602552     3.594909     3.587266     3.579623     3.571980     3.564336     3.556693     3.549050
      3.541407     3.533763     3.526120     3.518477     3.510834     3.503191     3.495547     3.487904     3.480261     3.472618
      3.464974     3.457331     3.449688     3.442045     3.434402     3.426758     3.419115     3.411472     3.403829     3.396185
      3.388542     3.380899     3.373256     3.365613     3.357969     3.350326     3.342683     3.335040     3.327396     3.319753
      3.312110     3.304467     3.296824     3.289180     3.281537     3.273894     3.266251     3.258607     3.250964     3.243321
      3.235678     3.228034     3.220391     3.212748     3.205105     3.197462     3.189818     3.182175     3.174532     3.166889
      3.159245     3.151602     3.143959     3.136316     3.128673     3.121029     3.113386     3.105743     3.098100     3.090456
      3.082813     3.075170     3.067527     3.059884     3.052240     3.044597     3.036954     3.029311     3.021667     3.014024
      3.006381     2.998738     2.991095     2.983451     2.975808     2.968165     2.960522     2.952878     2.945235     2.937592
      2.929949     2.922306     2.914662     2.907019     2.899376     2.891733     2.884089     2.876446     2.868803     2.861160
      2.853517     2.845873     2.838230     2.830587     2.822944     2.815300     2.807657     2.800014     2.792371     2.784728
      2.777084     2.769441     2.761798     2.754155     2.746511     2.738868     2.731225     2.723582     2.715939     2.708295
      2.700652     2.693009     2.685366     2.677722     2.670079     2.662436     2.654793     2.647150     2.639506     2.631863
      2.624220     2.616577     2.608933     2.601290     2.593647     2.586004     2.578361     2.570717     2.563074     2.555431
      2.547788     2.540144     2.532501     2.524858     2.517215     2.509572     2.501928     2.494285     2.486642     2.478999
      2.471355     2.463712     2.456069     2.448426     2.440783     2.433139     2.425496     2.417853     2.410210     2.402566
      2.394923     2.387280     2.379637     2.371994     2.364350     2.356707     2.349064     2.341421     2.333777     2.326134
      2.318491     2.310848     2.303205     2.295561     2.287918     2.280275     2.272632     2.264988     2.257345     2.249702
      2.242059     2.234416     2.226772     2.219129     2.211486     2.203843     2.196199     2.188556     2.180913     2.173270
      2.165627     2.157983     2.150340     2.142697     2.135054     2.127410     2.119767     2.112124     2.104481     2.096838
      2.089194     2.081551     2.073908     2.066265     2.058621     2.050978     2.043335     2.035692     2.028049     2.020405
      2.012762     2.005119     1.997476     1.989833     1.982190     1.974546     1.966903     1.959260     1.951617     1.943974
      1.936331     1.928688     1.921045     1.913402     1.905759     1.898115     1.890472     1.882829     1.875186     1.867543
      1.859900     1.852257     1.844614     1.836971     1.829327     1.821684     1.814041     1.806398     1.798755     1.791112
      1.783469     1.775826     1.768183     1.760540     1.752896     1.745253     1.737610     1.729967     1.722324     1.714681
      1.707038     1.699395     1.691752     1.684108     1.676465     1.668822     1.661179     1.653536     1.645893     1.638250
      1.630607     1.622964     1.615321     1.607677     1.600034     1.592391     1.584748     1.577105     1.569462     1.561819
      1.554176     1.546533     1.538890     1.531246     1.523603     1.515960     1.508317     1.500674     1.493031     1.485388
      1.477745     1.470102     1.462458     1.454815     1.447172     1.439529     1.431886     1.424243     1.416600     1.408957
      1.401314     1.393671     1.386027     1.378384     1.370741     1.363098     1.355455     1.347812     1.340169     1.332526
      1.324883     1.317240     1.309596     1.301953     1.294310     1.286667     1.279024     1.271381     1.263738     1.256095
      1.248452     1.240808     1.233165     1.225522     1.217879     1.210236     1.202593     1.194950     1.187307     1.179664
      1.172021     1.164377     1.156734     1.149091     1.141448     1.133805     1.126162     1.118519     1.110876     1.103233
      1.095590     1.087946     1.080303     1.072660     1.065017     1.057374     1.049731     1.042088     1.034445     1.026802
      1.019158     1.011515     1.003872     0.996229     0.988586     0.980943     0.973300     0.965657     0.958014     0.950371
      0.942727     0.935084     0.927441     0.919798     0.912155     0.904512     0.896869     0.889226     0.881583     0.873940
      0.866296     0.858653     0.851010     0.843367     0.835724     0.828081     0.820438     0.812795     0.805152     0.797508
      0.789865     0.782222     0.774579     0.766936     0.759293     0.751650     0.744007     0.736364     0.728721     0.721077
      0.713434     0.705791     0.698148     0.690505     0.682862     0.675219     0.667576     0.659933     0.652290     0.644646
      0.637003     0.629360     0.621717     0.614074     0.606431     0.598788     0.591145     0.583502     0.575858     0.568215
      0.560572     0.552929     0.545286     0.537643     0.530000     0.522357     0.514714     0.507071     0.499427     0.491784
      0.484141     0.476498     0.468855     0.461212     0.453569     0.445925     0.438282     0.430639     0.422996     0.415353
      0.407710     0.400067     0.392424     0.384780     0.377137     0.369494     0.361851     0.354208     0.346565     0.338922
      0.331278     0.323635     0.315992     0.308349     0.300706     0.293063     0.285420     0.277777     0.270133     0.262490
      0.254847     0.247204     0.239561     0.231918     0.224275     0.216631     0.208988     0.201345
 NY phased data points follow
   3.72775E+01  3.51029E+01  3.45525E+01  3.38709E+01  3.48509E+01  3.18706E+01  3.23780E+01  3.18789E+01  3.29602E+01  3.15370E+01
   3.18773E+01  3.14742E+01  2.87937E+01  2.86203E+01  2.98788E+01  2.97403E+01  2.93218E+01  2.82015E+01  2.72581E+01  2.74143E+01
   2.69494E+01  2.71915E+01  2.61811E+01  2.71035E+01  2.62037E+01  2.61330E+01  2.64354E+01  2.58922E+01  2.58536E+01  2.48253E+01
   2.43378E+01  2.35727E+01  2.38722E+01  2.41145E+01  2.33721E+01  2.39869E+01  2.26019E+01  2.18683E+01  2.18009E+01  2.18741E+01
   2.24534E+01  2.18375E+01  2.11446E+01  1.95891E+01  2.16981E+01  2.21750E+01  2.02556E+01  1.98499E+01  1.90028E+01  1.93918E+01
   1.93588E+01  1.97183E+01  1.79483E+01  1.97719E+01  1.84654E+01  1.92389E+01  1.79419E+01  1.82493E+01  1.84424E+01  1.78897E+01
   1.78673E+01  1.72035E+01  1.65444E+01  1.68737E+01  1.67162E+01  1.68762E+01  1.70144E+01  1.64606E+01  1.59167E+01  1.57622E+01
   1.71796E+01  1.77848E+01  1.60217E+01  1.48448E+01  1.58771E+01  1.48308E+01  1.49289E+01  1.66086E+01  1.48494E+01  1.57518E+01
   1.41174E+01  1.43850E+01  1.55280E+01  1.46236E+01  1.47333E+01  1.39055E+01  1.32885E+01  1.41157E+01  1.50464E+01  1.44026E+01
   1.40730E+01  1.37738E+01  1.36691E+01  1.34105E+01  1.40487E+01  1.35848E+01  1.33043E+01  1.35312E+01  1.40468E+01  1.47828E+01
   1.16704E+01  1.34903E+01  1.28342E+01  1.08507E+01  1.36638E+01  1.30214E+01  1.29166E+01  1.46414E+01  1.27985E+01  1.21796E+01
   1.11132E+01  1.19558E+01  1.13940E+01  1.11894E+01  9.72317E+00  1.08410E+01  1.05527E+01  1.18784E+01  9.78244E+00  1.11170E+01
   1.13295E+01  1.12086E+01  1.18515E+01  1.12207E+01  1.02112E+01  1.17569E+01  1.12435E+01  9.95703E+00  1.10442E+01  1.23738E+01
   1.10278E+01  1.03712E+01  9.94091E+00  9.98958E+00  8.98030E+00  9.68934E+00  9.90313E+00  7.83318E+00  9.36307E+00  1.16829E+01
   9.99590E+00  9.60972E+00  8.70003E+00  8.68027E+00  8.29925E+00  8.51703E+00  9.13858E+00  9.15154E+00  9.71656E+00  9.23987E+00
   8.67255E+00  8.21048E+00  7.88823E+00  9.60722E+00  9.52796E+00  7.97991E+00  9.72855E+00  9.48594E+00  7.93671E+00  7.93297E+00
   7.45090E+00  8.56485E+00  9.57093E+00  9.07767E+00  8.42291E+00  7.99951E+00  7.66657E+00  7.62373E+00  8.05958E+00  7.59738E+00
   7.38446E+00  8.08712E+00  7.47474E+00  8.37135E+00  7.69776E+00  8.19766E+00  7.58211E+00  5.19561E+00  7.20900E+00  7.47923E+00
   6.20162E+00  7.18262E+00  6.95845E+00  4.96853E+00  7.78827E+00  7.12607E+00  6.02953E+00  8.17309E+00  4.29334E+00  7.04822E+00
   6.99967E+00  5.63361E+00  6.93231E+00  6.05615E+00  6.83758E+00  6.95980E+00  6.07130E+00  6.62205E+00  5.13699E+00  5.95984E+00
   6.37473E+00  7.02672E+00  5.68528E+00  4.25833E+00  5.52929E+00  7.00623E+00  6.62305E+00  5.87545E+00  6.38519E+00  7.21262E+00
   6.76659E+00  6.63934E+00  6.94741E+00  5.66246E+00  5.82968E+00  5.75250E+00  5.70673E+00  6.35438E+00  6.45192E+00  6.02813E+00
   5.68682E+00  6.33276E+00  6.28725E+00  5.70705E+00  6.41296E+00  5.33973E+00  5.73572E+00  6.41381E+00  4.99798E+00  5.56636E+00
   6.07470E+00  4.71747E+00  5.25533E+00  5.44125E+00  6.73403E+00  7.23943E+00  6.60099E+00  5.74082E+00  6.33527E+00  6.66387E+00
   6.48732E+00  6.65445E+00  6.58157E+00  6.43294E+00  5.40420E+00  5.60234E+00  6.22376E+00  4.56574E+00  6.45673E+00  5.46352E+00
   5.82555E+00  6.20181E+00  5.31201E+00  4.50309E+00  3.82225E+00  5.61637E+00  6.47308E+00  5.63635E+00  6.49575E+00  6.82603E+00
   6.03971E+00  5.94197E+00  5.21280E+00  5.00613E+00  6.33435E+00  4.90372E+00  5.66699E+00  4.08854E+00  3.36582E+00  4.11864E+00
   5.07145E+00  5.50430E+00  5.69304E+00  3.86475E+00  5.51914E+00  5.27907E+00  3.80438E+00  5.07567E+00  3.04936E+00  2.71618E+00
   4.61292E+00  4.62917E+00  6.07879E+00  5.94246E+00  5.38653E+00  5.27482E+00  5.11700E+00  3.62096E+00  3.39890E+00  4.17515E+00
   3.09697E+00  4.25499E+00  4.47387E+00  4.93030E+00  4.65795E+00  5.09482E+00  3.18153E+00  4.47846E+00  3.56031E+00  4.41744E+00
   3.33405E+00  3.33289E+00  3.75705E+00  2.34100E+00  4.41085E+00  4.28198E+00  4.38411E+00  4.47746E+00  3.24211E+00  3.73380E+00
   3.39234E+00  4.08811E+00  2.56400E+00  2.87970E+00  4.54428E+00  4.10068E+00  3.94744E+00  4.36833E+00  3.83585E+00  3.59112E+00
   3.04259E+00  3.77920E+00  2.60243E+00  4.78416E+00  4.29852E+00  4.70664E+00  4.51249E+00  2.73859E+00  2.03073E+00  2.94012E+00
   1.06075E+00  1.98976E+00  2.69248E+00  2.20926E+00  2.64930E+00  3.29356E+00  4.07536E+00  4.97840E+00  3.76318E+00  4.47133E+00
   3.87211E+00  5.41230E+00  3.02691E+00  3.96215E+00  5.34729E+00  4.59321E+00  4.17155E+00  4.70599E+00  3.75269E+00  2.19726E+00
   3.36801E+00  2.92520E+00  2.73576E+00  3.35978E+00  3.92434E+00  3.36044E+00  2.88854E+00  2.72803E+00  2.77993E+00  3.71319E+00
   3.97540E+00  3.69706E+00  2.28296E+00  3.96511E+00  3.76246E+00  3.34776E+00  4.05115E+00  4.93596E+00  3.37386E+00  2.39554E+00
   3.29334E+00  3.11892E+00  2.94490E+00  2.82875E+00  3.42074E+00  2.88633E+00  3.84416E+00  2.34847E+00  2.50268E+00  2.87281E+00
   1.75871E+00  2.94376E+00  3.59393E+00  2.67365E+00  2.78951E+00  3.32043E+00  3.63972E+00  3.43758E+00  3.70793E+00  2.70160E+00
   1.67186E+00  2.29729E+00  2.16364E+00  1.58051E+00  3.17310E+00  3.38640E+00  1.89025E+00  3.73820E+00  2.58204E+00  2.91977E+00
   2.42031E+00  2.12138E+00  2.20873E+00  2.10407E+00  1.90307E+00  2.53187E+00  1.92890E+00  3.22343E+00  3.45087E+00  1.36938E+00
   2.10531E+00  1.85085E+00  1.39248E+00  1.75032E+00  3.91869E+00  7.02890E-01  1.87881E+00  4.02927E+00  1.60513E+00  2.59300E+00
   3.80015E+00  6.32899E-01  1.31353E+00  3.01963E+00  2.77985E+00  1.99482E+00  1.73781E+00  6.20813E-01  1.98435E+00  2.69901E+00
   8.15656E-01  2.18820E+00  3.13861E+00  1.04086E+00  2.36264E+00  2.56807E-01  8.54894E-01  1.44616E+00  5.73263E-01  9.96945E-01
   1.32019E+00  1.80985E+00  1.83904E+00  2.61279E+00  1.59656E-01  1.28133E+00  3.01755E+00  1.84277E+00  2.77537E+00  1.89467E+00
   1.10918E+00  6.40801E-01  1.67765E+00  2.67059E+00  1.24339E+00  2.83472E+00 -4.30001E-01  1.53724E+00  1.05733E+00  2.09913E+00
   9.37359E-01 -3.98608E-01  1.37406E+00  1.43326E+00  9.46404E-01  6.24566E-01  1.71955E+00 -2.57919E-01  1.85500E-01  9.71319E-01
   1.10472E+00  2.20999E+00  1.00742E-02  2.48498E+00  3.49948E-02  1.23729E+00  9.24727E-01  4.58495E-01  1.10823E+00  5.69704E-01
   1.43305E+00  7.69692E-01  1.49489E+00  1.57204E+00  4.08898E-01  1.84766E+00  1.68848E+00  7.61312E-01  1.41806E-01  9.70181E-01
   2.10847E+00  1.61489E+00  1.13312E+00 -2.15809E-01 -1.22102E-01  1.94879E+00  1.80606E+00  3.95694E-01
 NY points of the fit to the data follow
   3.27735E+01  3.25193E+01  3.22920E+01  3.21653E+01  3.21728E+01  3.21579E+01  3.20558E+01  3.18701E+01  3.16017E+01  3.12791E+01
   3.09351E+01  3.05653E+01  3.01447E+01  2.96540E+01  2.91359E+01  2.86931E+01  2.83756E+01  2.81144E+01  2.78802E+01  2.76698E+01
   2.74911E+01  2.73034E+01  2.70600E+01  2.67757E+01  2.64627E+01  2.61249E+01  2.57755E+01  2.54168E+01  2.50782E+01  2.48062E+01
   2.45818E+01  2.43970E+01  2.42556E+01  2.41184E+01  2.39517E+01  2.37571E+01  2.35285E+01  2.32789E+01  2.30030E+01  2.26969E+01
   2.23907E+01  2.21175E+01  2.18664E+01  2.16287E+01  2.14039E+01  2.11953E+01  2.09993E+01  2.08057E+01  2.06056E+01  2.04041E+01
   2.02026E+01  2.00022E+01  1.98020E+01  1.96017E+01  1.94035E+01  1.92075E+01  1.90134E+01  1.88210E+01  1.86292E+01  1.84392E+01
   1.82528E+01  1.80703E+01  1.78914E+01  1.77144E+01  1.75396E+01  1.73658E+01  1.71924E+01  1.70213E+01  1.68530E+01  1.66871E+01
   1.65264E+01  1.63718E+01  1.62189E+01  1.60658E+01  1.59122E+01  1.57574E+01  1.56033E+01  1.54521E+01  1.53039E+01  1.51578E+01
   1.50151E+01  1.48829E+01  1.47606E+01  1.46396E+01  1.45159E+01  1.43885E+01  1.42574E+01  1.41250E+01  1.39918E+01  1.38561E+01
   1.37176E+01  1.35776E+01  1.34406E+01  1.33162E+01  1.32060E+01  1.31021E+01  1.30048E+01  1.29323E+01  1.29641E+01  1.31152E+01
   1.32423E+01  1.32910E+01  1.32602E+01  1.31538E+01  1.30021E+01  1.28343E+01  1.26450E+01  1.24129E+01  1.21327E+01  1.18379E+01
   1.16106E+01  1.14804E+01  1.13805E+01  1.12885E+01  1.12004E+01  1.11152E+01  1.10331E+01  1.09551E+01  1.08825E+01  1.08215E+01
   1.08029E+01  1.09589E+01  1.12982E+01  1.15924E+01  1.17614E+01  1.18053E+01  1.17297E+01  1.15825E+01  1.14065E+01  1.11883E+01
   1.08944E+01  1.05195E+01  1.01206E+01  9.83214E+00  9.69565E+00  9.60606E+00  9.52851E+00  9.45662E+00  9.38789E+00  9.32171E+00
   9.25830E+00  9.19781E+00  9.13811E+00  9.07763E+00  9.01565E+00  8.95205E+00  8.88827E+00  8.82556E+00  8.76407E+00  8.70324E+00
   8.64253E+00  8.58257E+00  8.52399E+00  8.46722E+00  8.41135E+00  8.35426E+00  8.29345E+00  8.23104E+00  8.17077E+00  8.11436E+00
   8.06384E+00  8.01549E+00  7.96619E+00  7.91628E+00  7.86641E+00  7.81764E+00  7.77058E+00  7.72345E+00  7.67331E+00  7.62040E+00
   7.56626E+00  7.51064E+00  7.45643E+00  7.40794E+00  7.36401E+00  7.32216E+00  7.27879E+00  7.23397E+00  7.19082E+00  7.15124E+00
   7.11556E+00  7.08099E+00  7.04292E+00  7.00250E+00  6.96549E+00  6.93535E+00  6.91093E+00  6.88834E+00  6.86187E+00  6.83213E+00
   6.80281E+00  6.77606E+00  6.75222E+00  6.72478E+00  6.69055E+00  6.65316E+00  6.61602E+00  6.58021E+00  6.54821E+00  6.52208E+00
   6.49724E+00  6.47127E+00  6.44451E+00  6.41774E+00  6.39192E+00  6.36556E+00  6.33809E+00  6.30823E+00  6.27252E+00  6.23364E+00
   6.19746E+00  6.16671E+00  6.13987E+00  6.11551E+00  6.09280E+00  6.07157E+00  6.05253E+00  6.03653E+00  6.02425E+00  6.01440E+00
   6.00321E+00  5.98947E+00  5.97367E+00  5.95544E+00  5.93438E+00  5.90983E+00  5.88188E+00  5.85294E+00  5.82606E+00  5.80201E+00
   5.78147E+00  5.76483E+00  5.75144E+00  5.74004E+00  5.72887E+00  5.71708E+00  5.70422E+00  5.68911E+00  5.67117E+00  5.65191E+00
   5.63365E+00  5.61720E+00  5.60208E+00  5.58799E+00  5.57506E+00  5.56293E+00  5.55031E+00  5.53637E+00  5.52098E+00  5.50412E+00
   5.48582E+00  5.46644E+00  5.44750E+00  5.43273E+00  5.43850E+00  5.54193E+00  5.75339E+00  5.93848E+00  6.04991E+00  6.08759E+00
   6.05382E+00  5.97661E+00  5.88150E+00  5.76150E+00  5.59768E+00  5.38525E+00  5.15648E+00  4.99059E+00  4.91359E+00  4.86351E+00
   4.82041E+00  4.78124E+00  4.74499E+00  4.71025E+00  4.67625E+00  4.64290E+00  4.60936E+00  4.57503E+00  4.54036E+00  4.50552E+00
   4.47093E+00  4.43730E+00  4.40484E+00  4.37385E+00  4.34460E+00  4.31670E+00  4.28972E+00  4.26366E+00  4.23838E+00  4.21350E+00
   4.18882E+00  4.16426E+00  4.14003E+00  4.11636E+00  4.09327E+00  4.07067E+00  4.04858E+00  4.02700E+00  4.00584E+00  3.98503E+00
   3.96457E+00  3.94433E+00  3.92426E+00  3.90439E+00  3.88474E+00  3.86539E+00  3.84645E+00  3.82805E+00  3.81037E+00  3.79362E+00
   3.77808E+00  3.76411E+00  3.75214E+00  3.74275E+00  3.73664E+00  3.73481E+00  3.73865E+00  3.75027E+00  3.77304E+00  3.81304E+00
   3.88278E+00  4.01497E+00  4.27478E+00  4.51794E+00  4.51218E+00  4.30312E+00  3.96786E+00  3.55451E+00  3.11784E+00  2.65819E+00
   2.27727E+00  2.17346E+00  2.26748E+00  2.51555E+00  2.94082E+00  3.40226E+00  3.75239E+00  4.03539E+00  4.27445E+00  4.43877E+00
   4.47472E+00  4.36547E+00  4.24793E+00  4.22916E+00  4.17390E+00  4.05916E+00  3.90379E+00  3.72034E+00  3.52783E+00  3.33417E+00
   3.20427E+00  3.17537E+00  3.19964E+00  3.27049E+00  3.40249E+00  3.55070E+00  3.65796E+00  3.73640E+00  3.78889E+00  3.79914E+00
   3.74607E+00  3.62950E+00  3.50972E+00  3.42567E+00  3.35892E+00  3.29975E+00  3.24468E+00  3.19225E+00  3.14183E+00  3.09321E+00
   3.04634E+00  3.00128E+00  2.95809E+00  2.91688E+00  2.87774E+00  2.84080E+00  2.80611E+00  2.77374E+00  2.74372E+00  2.71608E+00
   2.69087E+00  2.66810E+00  2.64781E+00  2.63000E+00  2.61468E+00  2.60185E+00  2.59152E+00  2.58366E+00  2.57824E+00  2.57515E+00
   2.57427E+00  2.57543E+00  2.57841E+00  2.58290E+00  2.58854E+00  2.59492E+00  2.60154E+00  2.60789E+00  2.61342E+00  2.61755E+00
   2.61972E+00  2.61940E+00  2.61611E+00  2.60945E+00  2.59913E+00  2.58495E+00  2.56683E+00  2.54480E+00  2.51903E+00  2.48979E+00
   2.45743E+00  2.42240E+00  2.38517E+00  2.34626E+00  2.30617E+00  2.26542E+00  2.22447E+00  2.18376E+00  2.14363E+00  2.10441E+00
   2.06632E+00  2.02956E+00  1.99424E+00  1.96043E+00  1.92814E+00  1.89735E+00  1.86804E+00  1.84012E+00  1.81351E+00  1.78813E+00
   1.76386E+00  1.74062E+00  1.71832E+00  1.69686E+00  1.67617E+00  1.65616E+00  1.63677E+00  1.61794E+00  1.59961E+00  1.58175E+00
   1.56430E+00  1.54722E+00  1.53050E+00  1.51410E+00  1.49799E+00  1.48217E+00  1.46661E+00  1.45130E+00  1.43622E+00  1.42136E+00
   1.40672E+00  1.39229E+00  1.37806E+00  1.36402E+00  1.35017E+00  1.33649E+00  1.32298E+00  1.30964E+00  1.29644E+00  1.28340E+00
   1.27050E+00  1.25774E+00  1.24512E+00  1.23262E+00  1.22024E+00  1.20798E+00  1.19584E+00  1.18381E+00  1.17189E+00  1.16008E+00
   1.14836E+00  1.13674E+00  1.12521E+00  1.11378E+00  1.10244E+00  1.09117E+00  1.08000E+00  1.06890E+00  1.05788E+00  1.04693E+00
   1.03605E+00  1.02524E+00  1.01450E+00  1.00382E+00  9.93209E-01  9.82654E-01  9.72153E-01  9.61706E-01  9.51312E-01  9.40970E-01
   9.30675E-01  9.20425E-01  9.10217E-01  9.00049E-01  8.89922E-01  8.79832E-01  8.69778E-01  8.59755E-01
 NY background values follow
     3.274E+01    3.247E+01    3.220E+01    3.193E+01    3.166E+01    3.138E+01    3.111E+01    3.084E+01    3.057E+01    3.030E+01
     3.003E+01    2.976E+01    2.949E+01    2.922E+01    2.895E+01    2.868E+01    2.842E+01    2.815E+01    2.788E+01    2.762E+01
     2.736E+01    2.709E+01    2.683E+01    2.657E+01    2.631E+01    2.605E+01    2.580E+01    2.554E+01    2.529E+01    2.504E+01
     2.478E+01    2.453E+01    2.429E+01    2.404E+01    2.380E+01    2.355E+01    2.331E+01    2.308E+01    2.284E+01    2.260E+01
     2.237E+01    2.214E+01    2.191E+01    2.169E+01    2.147E+01    2.124E+01    2.103E+01    2.081E+01    2.060E+01    2.039E+01
     2.018E+01    1.997E+01    1.977E+01    1.957E+01    1.937E+01    1.917E+01    1.897E+01    1.878E+01    1.859E+01    1.841E+01
     1.822E+01    1.804E+01    1.786E+01    1.768E+01    1.750E+01    1.733E+01    1.715E+01    1.699E+01    1.682E+01    1.665E+01
     1.649E+01    1.633E+01    1.617E+01    1.601E+01    1.585E+01    1.570E+01    1.555E+01    1.540E+01    1.525E+01    1.511E+01
     1.497E+01    1.482E+01    1.468E+01    1.455E+01    1.441E+01    1.428E+01    1.415E+01    1.402E+01    1.389E+01    1.376E+01
     1.364E+01    1.351E+01    1.339E+01    1.327E+01    1.315E+01    1.304E+01    1.292E+01    1.281E+01    1.270E+01    1.259E+01
     1.248E+01    1.238E+01    1.227E+01    1.217E+01    1.207E+01    1.197E+01    1.187E+01    1.177E+01    1.167E+01    1.158E+01
     1.148E+01    1.139E+01    1.130E+01    1.121E+01    1.112E+01    1.103E+01    1.095E+01    1.086E+01    1.078E+01    1.070E+01
     1.062E+01    1.053E+01    1.046E+01    1.038E+01    1.030E+01    1.022E+01    1.015E+01    1.007E+01    9.999E+00    9.926E+00
     9.854E+00    9.783E+00    9.712E+00    9.643E+00    9.574E+00    9.506E+00    9.439E+00    9.372E+00    9.306E+00    9.241E+00
     9.176E+00    9.112E+00    9.049E+00    8.986E+00    8.925E+00    8.863E+00    8.803E+00    8.743E+00    8.684E+00    8.625E+00
     8.568E+00    8.510E+00    8.454E+00    8.398E+00    8.343E+00    8.288E+00    8.234E+00    8.181E+00    8.128E+00    8.076E+00
     8.025E+00    7.974E+00    7.924E+00    7.874E+00    7.825E+00    7.777E+00    7.729E+00    7.682E+00    7.635E+00    7.589E+00
     7.544E+00    7.499E+00    7.455E+00    7.411E+00    7.368E+00    7.326E+00    7.284E+00    7.243E+00    7.202E+00    7.162E+00
     7.122E+00    7.083E+00    7.045E+00    7.007E+00    6.969E+00    6.932E+00    6.896E+00    6.860E+00    6.824E+00    6.790E+00
     6.755E+00    6.721E+00    6.687E+00    6.654E+00    6.621E+00    6.589E+00    6.557E+00    6.526E+00    6.494E+00    6.463E+00
     6.433E+00    6.403E+00    6.373E+00    6.344E+00    6.314E+00    6.285E+00    6.257E+00    6.228E+00    6.200E+00    6.173E+00
     6.145E+00    6.118E+00    6.090E+00    6.063E+00    6.037E+00    6.010E+00    5.984E+00    5.957E+00    5.931E+00    5.905E+00
     5.880E+00    5.854E+00    5.828E+00    5.803E+00    5.777E+00    5.752E+00    5.727E+00    5.701E+00    5.676E+00    5.651E+00
     5.626E+00    5.601E+00    5.576E+00    5.551E+00    5.526E+00    5.501E+00    5.476E+00    5.451E+00    5.426E+00    5.401E+00
     5.376E+00    5.351E+00    5.326E+00    5.301E+00    5.276E+00    5.251E+00    5.226E+00    5.201E+00    5.176E+00    5.151E+00
     5.126E+00    5.101E+00    5.076E+00    5.050E+00    5.025E+00    5.000E+00    4.975E+00    4.949E+00    4.924E+00    4.898E+00
     4.872E+00    4.847E+00    4.821E+00    4.795E+00    4.769E+00    4.743E+00    4.717E+00    4.691E+00    4.665E+00    4.638E+00
     4.612E+00    4.585E+00    4.558E+00    4.532E+00    4.505E+00    4.478E+00    4.451E+00    4.423E+00    4.396E+00    4.369E+00
     4.342E+00    4.315E+00    4.287E+00    4.260E+00    4.233E+00    4.205E+00    4.178E+00    4.151E+00    4.124E+00    4.096E+00
     4.069E+00    4.042E+00    4.015E+00    3.989E+00    3.962E+00    3.935E+00    3.909E+00    3.882E+00    3.856E+00    3.830E+00
     3.804E+00    3.778E+00    3.753E+00    3.727E+00    3.702E+00    3.677E+00    3.652E+00    3.628E+00    3.603E+00    3.579E+00
     3.555E+00    3.532E+00    3.509E+00    3.486E+00    3.463E+00    3.440E+00    3.418E+00    3.397E+00    3.375E+00    3.354E+00
     3.333E+00    3.313E+00    3.292E+00    3.272E+00    3.253E+00    3.233E+00    3.214E+00    3.195E+00    3.176E+00    3.158E+00
     3.140E+00    3.122E+00    3.104E+00    3.086E+00    3.069E+00    3.052E+00    3.035E+00    3.018E+00    3.002E+00    2.985E+00
     2.969E+00    2.953E+00    2.937E+00    2.921E+00    2.905E+00    2.890E+00    2.874E+00    2.859E+00    2.843E+00    2.828E+00
     2.813E+00    2.798E+00    2.783E+00    2.768E+00    2.753E+00    2.739E+00    2.724E+00    2.709E+00    2.695E+00    2.680E+00
     2.665E+00    2.651E+00    2.636E+00    2.621E+00    2.607E+00    2.592E+00    2.577E+00    2.563E+00    2.548E+00    2.533E+00
     2.519E+00    2.504E+00    2.489E+00    2.475E+00    2.460E+00    2.445E+00    2.431E+00    2.416E+00    2.401E+00    2.387E+00
     2.372E+00    2.357E+00    2.342E+00    2.328E+00    2.313E+00    2.298E+00    2.283E+00    2.269E+00    2.254E+00    2.239E+00
     2.224E+00    2.209E+00    2.195E+00    2.180E+00    2.165E+00    2.150E+00    2.135E+00    2.120E+00    2.106E+00    2.091E+00
     2.076E+00    2.061E+00    2.046E+00    2.031E+00    2.016E+00    2.001E+00    1.987E+00    1.972E+00    1.957E+00    1.942E+00
     1.927E+00    1.912E+00    1.897E+00    1.882E+00    1.867E+00    1.852E+00    1.837E+00    1.822E+00    1.808E+00    1.793E+00
     1.778E+00    1.763E+00    1.748E+00    1.734E+00    1.719E+00    1.704E+00    1.690E+00    1.675E+00    1.660E+00    1.646E+00
     1.632E+00    1.617E+00    1.603E+00    1.588E+00    1.574E+00    1.560E+00    1.546E+00    1.532E+00    1.518E+00    1.504E+00
     1.490E+00    1.477E+00    1.463E+00    1.449E+00    1.436E+00    1.422E+00    1.409E+00    1.396E+00    1.383E+00    1.370E+00
     1.357E+00    1.344E+00    1.331E+00    1.318E+00    1.306E+00    1.294E+00    1.281E+00    1.269E+00    1.257E+00    1.245E+00
     1.233E+00    1.221E+00    1.209E+00    1.198E+00    1.186E+00    1.175E+00    1.163E+00    1.152E+00    1.141E+00    1.129E+00
     1.118E+00    1.107E+00    1.096E+00    1.086E+00    1.075E+00    1.064E+00    1.053E+00    1.043E+00    1.032E+00    1.022E+00
     1.011E+00    1.001E+00    9.904E-01    9.801E-01    9.699E-01    9.597E-01    9.496E-01    9.395E-01    9.294E-01    9.194E-01
     9.094E-01    8.995E-01    8.896E-01    8.797E-01    8.699E-01    8.600E-01    8.503E-01    8.405E-01
 Ala      Conc. = 1.08E+02
