 LCModel (Version 6.3-1L) Copyright: S.W. Provencher.          Ref.: Magn. Reson. Med. 30:672-679 (1993).                
 Slice#2 Row#4 Col#7  PD_05_press_1_raw_act
 36 lines in following concentration table = NCONC+1
    Conc.  %SD /Cr+PCr  Metabolite                                         
  300.785  39%   0.171 Ala                                                 
   17.617 999% 1.0E-02 Asp                                                 
  548.022  37%   0.312 Cr                                                  
 1.21E+03  17%   0.688 PCr                                                 
    0.000 999%   0.000 GABA                                                
    0.000 999%   0.000 Glc                                                 
  969.442  23%   0.551 Gln                                                 
 2.06E+03  12%   1.170 Glu                                                 
  682.610   4%   0.388 GPC                                                 
    0.000 999%   0.000 PCh                                                 
  593.999  13%   0.338 GSH                                                 
 1.53E+03  17%   0.872 Ins                                                 
  366.399  32%   0.208 Lac                                                 
 2.52E+03   4%   1.434 NAA                                                 
   62.873 154% 3.6E-02 NAAG                                                
  112.332  26% 6.4E-02 Scyllo                                              
    0.000 999%   0.000 Tau                                                 
    0.000 999%   0.000 -CrCH2                                              
  682.610   4%   0.388 GPC+PCh                                             
 2.58E+03   4%   1.470 NAA+NAAG                                            
 1.76E+03   3%   1.000 Cr+PCr                                              
 3.03E+03  12%   1.721 Glu+Gln                                             
 1.52E+03  34%   0.863 Lip13a                                              
    0.000 999%   0.000 Lip13b                                              
    0.000 999%   0.000 Lip09                                               
 2.13E+03  13%   1.209 MM09                                                
  225.470  77%   0.128 Lip20                                               
 3.95E+03  12%   2.247 MM20                                                
  738.033  23%   0.420 MM12                                                
 7.73E+03   3%   4.394+MM14                                                
 1.40E+03  23%   0.794 MM17                                                
 1.52E+03  34%   0.863 Lip13a+Lip13b                                       
 9.98E+03   5%   5.677 MM14+Lip13a+Lip13b+MM12                             
 2.13E+03  13%   1.209 MM09+Lip09                                          
 4.18E+03  11%   2.375 MM20+Lip20                                          
   6 lines in following misc. output table
  FWHM = 0.046 ppm    S/N =  13                                            
  Data shift =-0.038 ppm                                                   
  Ph: -38 deg     -15.3 deg/ppm                                            
  alphaB,S = 1.2E+00,   9.5E+01                                            
   14 spline knots.   Ns = 6(1)                                            
  (12) 4 infls.   ( 7) 1 extrs.                                            
  498 points on ppm-axis = NY
      4.000000     3.992357     3.984714     3.977070     3.969427     3.961784     3.954141     3.946497     3.938854     3.931211
      3.923568     3.915925     3.908281     3.900638     3.892995     3.885352     3.877708     3.870065     3.862422     3.854779
      3.847136     3.839492     3.831849     3.824206     3.816563     3.808919     3.801276     3.793633     3.785990     3.778347
      3.770703     3.763060     3.755417     3.747774     3.740130     3.732487     3.724844     3.717201     3.709558     3.701914
      3.694271     3.686628     3.678985     3.671341     3.663698     3.656055     3.648412     3.640769     3.633125     3.625482
      3.617839     3.610196     3.602552     3.594909     3.587266     3.579623     3.571980     3.564336     3.556693     3.549050
      3.541407     3.533763     3.526120     3.518477     3.510834     3.503191     3.495547     3.487904     3.480261     3.472618
      3.464974     3.457331     3.449688     3.442045     3.434402     3.426758     3.419115     3.411472     3.403829     3.396185
      3.388542     3.380899     3.373256     3.365613     3.357969     3.350326     3.342683     3.335040     3.327396     3.319753
      3.312110     3.304467     3.296824     3.289180     3.281537     3.273894     3.266251     3.258607     3.250964     3.243321
      3.235678     3.228034     3.220391     3.212748     3.205105     3.197462     3.189818     3.182175     3.174532     3.166889
      3.159245     3.151602     3.143959     3.136316     3.128673     3.121029     3.113386     3.105743     3.098100     3.090456
      3.082813     3.075170     3.067527     3.059884     3.052240     3.044597     3.036954     3.029311     3.021667     3.014024
      3.006381     2.998738     2.991095     2.983451     2.975808     2.968165     2.960522     2.952878     2.945235     2.937592
      2.929949     2.922306     2.914662     2.907019     2.899376     2.891733     2.884089     2.876446     2.868803     2.861160
      2.853517     2.845873     2.838230     2.830587     2.822944     2.815300     2.807657     2.800014     2.792371     2.784728
      2.777084     2.769441     2.761798     2.754155     2.746511     2.738868     2.731225     2.723582     2.715939     2.708295
      2.700652     2.693009     2.685366     2.677722     2.670079     2.662436     2.654793     2.647150     2.639506     2.631863
      2.624220     2.616577     2.608933     2.601290     2.593647     2.586004     2.578361     2.570717     2.563074     2.555431
      2.547788     2.540144     2.532501     2.524858     2.517215     2.509572     2.501928     2.494285     2.486642     2.478999
      2.471355     2.463712     2.456069     2.448426     2.440783     2.433139     2.425496     2.417853     2.410210     2.402566
      2.394923     2.387280     2.379637     2.371994     2.364350     2.356707     2.349064     2.341421     2.333777     2.326134
      2.318491     2.310848     2.303205     2.295561     2.287918     2.280275     2.272632     2.264988     2.257345     2.249702
      2.242059     2.234416     2.226772     2.219129     2.211486     2.203843     2.196199     2.188556     2.180913     2.173270
      2.165627     2.157983     2.150340     2.142697     2.135054     2.127410     2.119767     2.112124     2.104481     2.096838
      2.089194     2.081551     2.073908     2.066265     2.058621     2.050978     2.043335     2.035692     2.028049     2.020405
      2.012762     2.005119     1.997476     1.989833     1.982190     1.974546     1.966903     1.959260     1.951617     1.943974
      1.936331     1.928688     1.921045     1.913402     1.905759     1.898115     1.890472     1.882829     1.875186     1.867543
      1.859900     1.852257     1.844614     1.836971     1.829327     1.821684     1.814041     1.806398     1.798755     1.791112
      1.783469     1.775826     1.768183     1.760540     1.752896     1.745253     1.737610     1.729967     1.722324     1.714681
      1.707038     1.699395     1.691752     1.684108     1.676465     1.668822     1.661179     1.653536     1.645893     1.638250
      1.630607     1.622964     1.615321     1.607677     1.600034     1.592391     1.584748     1.577105     1.569462     1.561819
      1.554176     1.546533     1.538890     1.531246     1.523603     1.515960     1.508317     1.500674     1.493031     1.485388
      1.477745     1.470102     1.462458     1.454815     1.447172     1.439529     1.431886     1.424243     1.416600     1.408957
      1.401314     1.393671     1.386027     1.378384     1.370741     1.363098     1.355455     1.347812     1.340169     1.332526
      1.324883     1.317240     1.309596     1.301953     1.294310     1.286667     1.279024     1.271381     1.263738     1.256095
      1.248452     1.240808     1.233165     1.225522     1.217879     1.210236     1.202593     1.194950     1.187307     1.179664
      1.172021     1.164377     1.156734     1.149091     1.141448     1.133805     1.126162     1.118519     1.110876     1.103233
      1.095590     1.087946     1.080303     1.072660     1.065017     1.057374     1.049731     1.042088     1.034445     1.026802
      1.019158     1.011515     1.003872     0.996229     0.988586     0.980943     0.973300     0.965657     0.958014     0.950371
      0.942727     0.935084     0.927441     0.919798     0.912155     0.904512     0.896869     0.889226     0.881583     0.873940
      0.866296     0.858653     0.851010     0.843367     0.835724     0.828081     0.820438     0.812795     0.805152     0.797508
      0.789865     0.782222     0.774579     0.766936     0.759293     0.751650     0.744007     0.736364     0.728721     0.721077
      0.713434     0.705791     0.698148     0.690505     0.682862     0.675219     0.667576     0.659933     0.652290     0.644646
      0.637003     0.629360     0.621717     0.614074     0.606431     0.598788     0.591145     0.583502     0.575858     0.568215
      0.560572     0.552929     0.545286     0.537643     0.530000     0.522357     0.514714     0.507071     0.499427     0.491784
      0.484141     0.476498     0.468855     0.461212     0.453569     0.445925     0.438282     0.430639     0.422996     0.415353
      0.407710     0.400067     0.392424     0.384780     0.377137     0.369494     0.361851     0.354208     0.346565     0.338922
      0.331278     0.323635     0.315992     0.308349     0.300706     0.293063     0.285420     0.277777     0.270133     0.262490
      0.254847     0.247204     0.239561     0.231918     0.224275     0.216631     0.208988     0.201345
 NY phased data points follow
   7.93651E+00  1.16608E+01  1.04547E+01  1.53215E+01  1.49956E+01  1.99597E+01  2.91913E+01  3.93680E+01  5.04121E+01  5.51267E+01
   5.81571E+01  4.91203E+01  4.90160E+01  4.16624E+01  3.77281E+01  2.80441E+01  2.76019E+01  1.68943E+01  1.45773E+01  1.70875E+01
   1.50020E+01  1.53520E+01  1.69491E+01  1.87139E+01  1.93852E+01  1.86080E+01  1.95058E+01  2.43032E+01  2.07231E+01  2.73815E+01
   3.13590E+01  2.80987E+01  2.64648E+01  2.46747E+01  1.56200E+01  1.73687E+01  1.69169E+01  1.87065E+01  1.97778E+01  2.09030E+01
   2.07129E+01  1.95468E+01  1.90944E+01  1.89949E+01  2.25531E+01  2.56157E+01  3.07109E+01  2.91078E+01  2.86167E+01  2.45277E+01
   2.06791E+01  1.76323E+01  1.36291E+01  1.37964E+01  1.41545E+01  1.63249E+01  1.89661E+01  1.58063E+01  1.48803E+01  1.20017E+01
   1.43398E+01  1.60764E+01  7.32987E+00  9.99296E+00  2.52203E+00  6.06495E+00  1.86580E+00  6.56779E+00  3.84418E+00  2.49442E+00
   6.83651E+00  3.58696E+00  8.18383E+00  4.93049E+00  9.75320E+00  1.11339E+01  7.93536E+00  5.84658E+00  7.57468E+00  7.78362E+00
   5.73964E+00  8.10035E+00  9.73855E+00  1.02364E+01  9.22360E+00  9.26266E+00  1.12090E+01  9.85100E+00  1.07571E+01  1.15271E+01
   9.80623E+00  1.12704E+01  9.27894E+00  1.25016E+01  9.15764E+00  1.39873E+01  1.38606E+01  1.39908E+01  1.65391E+01  2.29457E+01
   4.24182E+01  6.17882E+01  7.54033E+01  7.74675E+01  6.63947E+01  5.49149E+01  4.17624E+01  3.58090E+01  2.81830E+01  2.24789E+01
   1.90652E+01  1.41858E+01  1.26931E+01  1.33976E+01  9.07942E+00  5.72501E+00  4.98816E+00  5.00492E+00  7.39565E+00  8.63638E+00
   1.23607E+01  1.35906E+01  1.15324E+01  2.08340E+01  3.93105E+01  5.92997E+01  7.18423E+01  7.38227E+01  6.85824E+01  5.69655E+01
   4.42408E+01  3.39668E+01  2.69433E+01  2.17517E+01  1.71350E+01  1.55598E+01  9.16365E+00  6.27687E+00  4.06792E+00  6.73280E+00
   4.83834E+00  7.52450E+00  9.13065E+00  2.21987E+00  3.25405E+00  4.31721E+00  7.84651E+00  9.04982E+00  5.37784E+00  8.85831E+00
   5.86437E+00  5.26179E+00  4.01051E+00  5.45761E+00  2.18954E+00  6.41364E+00  4.38595E+00  6.84319E+00  1.07483E+01  6.69718E+00
   3.32742E+00  1.14406E+00 -4.18919E+00  1.09738E+00  5.25396E-01  4.83927E+00  5.69176E+00  6.27848E+00  1.03076E+00  2.03255E+00
   2.05865E-01 -2.59506E+00 -3.25969E+00 -3.16793E+00 -5.81834E+00 -8.37504E+00 -4.41989E+00  4.64851E-01 -4.44200E+00 -3.28794E+00
  -1.09224E+00 -1.84851E+00 -5.53167E+00 -5.13914E+00 -4.75993E+00 -6.78155E+00 -8.31585E+00 -2.81345E+00 -4.14524E-01  4.28280E+00
   6.48869E+00  3.70806E+00  1.10176E+01  1.22519E+01  8.40785E+00  8.81642E+00  7.04270E+00  6.63906E+00  3.71253E+00  7.32921E+00
   1.19314E+01  1.01422E+01  1.12080E+01  1.38411E+01  1.45660E+01  1.06087E+01  9.56035E+00  9.82566E+00  4.16571E+00  2.10767E+00
   5.72105E-01  2.54292E+00  1.30138E+01  1.36544E+01  2.35619E+01  2.48856E+01  2.36008E+01  2.03708E+01  1.76727E+01  1.00032E+01
   2.39121E+00  2.55552E+00  2.80253E+00  4.99324E+00  1.10572E+01  1.24849E+01  1.95992E+01  1.65484E+01  1.60790E+01  1.47767E+01
   1.75761E+01  1.54232E+01  1.65526E+01  1.37266E+01  1.58076E+01  1.69839E+01  1.90544E+01  1.71544E+01  1.65887E+01  1.59028E+01
   1.64913E+01  1.32760E+01  1.00997E+01  1.34881E+01  1.90705E+01  2.05815E+01  1.90597E+01  1.99099E+01  2.10663E+01  1.75703E+01
   2.03113E+01  2.67811E+01  2.75391E+01  3.52210E+01  3.36370E+01  2.81131E+01  3.70303E+01  5.93843E+01  8.24471E+01  1.08398E+02
   1.13852E+02  1.08004E+02  9.68636E+01  7.73898E+01  5.98213E+01  4.55848E+01  4.07333E+01  3.10708E+01  2.75688E+01  2.44228E+01
   1.90687E+01  2.30561E+01  2.00695E+01  1.45268E+01  2.06201E+01  1.70647E+01  1.67983E+01  1.42207E+01  1.84176E+01  1.58893E+01
   1.02522E+01  1.58254E+01  1.36816E+01  1.29477E+01  1.04404E+01  9.31319E+00  8.84266E+00  1.03274E+01  1.00766E+01  1.09747E+01
   1.06870E+01  1.10743E+01  1.43448E+01  1.02473E+01  1.06120E+01  1.32351E+01  1.37664E+01  1.45679E+01  1.07637E+01  1.21395E+01
   1.36646E+01  8.84997E+00  1.52919E+01  1.22651E+01  1.45538E+01  1.81133E+01  1.91420E+01  1.78610E+01  1.96584E+01  2.27735E+01
   2.38940E+01  2.05869E+01  2.31155E+01  2.03429E+01  2.77450E+01  2.44655E+01  2.69048E+01  2.79032E+01  3.03094E+01  2.62609E+01
   3.12174E+01  3.11058E+01  2.77811E+01  3.29654E+01  3.10381E+01  3.52805E+01  3.82300E+01  4.13828E+01  4.57765E+01  4.65445E+01
   5.07136E+01  5.49235E+01  5.95241E+01  6.57007E+01  7.07153E+01  7.45126E+01  7.56359E+01  7.84799E+01  7.81890E+01  7.87817E+01
   7.14854E+01  7.12803E+01  6.83744E+01  6.41265E+01  5.90348E+01  5.48987E+01  5.01180E+01  4.81812E+01  4.15798E+01  3.16817E+01
   3.13210E+01  3.01588E+01  2.57565E+01  2.79719E+01  2.24419E+01  2.11816E+01  2.34130E+01  2.15014E+01  1.87459E+01  1.98721E+01
   1.93155E+01  1.43359E+01  1.50922E+01  1.75495E+01  1.63441E+01  1.68676E+01  1.58160E+01  1.48507E+01  1.55084E+01  1.63107E+01
   1.90402E+01  1.90964E+01  1.34752E+01  1.74782E+01  1.64565E+01  1.28757E+01  9.95189E+00  1.36225E+01  8.81869E+00  7.15608E+00
   1.08340E+01  1.21714E+01  6.09170E+00  7.55823E+00  1.01998E+01  7.32832E+00  5.77521E+00  5.76218E+00  9.54809E+00  8.40839E+00
   1.03334E+01  7.86622E+00  9.87331E+00  1.02553E+01  1.11047E+01  9.99353E+00  1.06777E+01  1.03273E+01  1.48980E+01  1.07086E+01
   1.31746E+01  1.20354E+01  1.36330E+01  1.43642E+01  1.26820E+01  1.72394E+01  1.55963E+01  1.81413E+01  1.72276E+01  1.41790E+01
   1.80242E+01  1.62843E+01  1.56816E+01  1.67659E+01  1.84254E+01  1.61972E+01  1.37305E+01  1.46259E+01  1.07341E+01  1.39406E+01
   1.21904E+01  1.23076E+01  7.38265E+00  8.31220E+00  7.18026E+00  8.60741E+00  9.61656E+00  8.06781E+00  5.10011E+00  7.33700E+00
   4.83558E+00  7.33639E+00  1.06872E+01  7.53556E+00  5.67491E+00  7.10011E+00  6.17938E+00  9.85922E+00  3.35267E+00  5.67168E+00
   6.25786E+00  4.49908E+00  9.61952E+00  3.84633E+00  7.75881E+00  4.71529E+00  3.59930E+00  7.81508E+00  4.99096E+00  2.07258E+00
   5.03872E+00  6.04445E+00  6.93805E+00  5.21598E+00  7.68160E+00  7.04361E+00  6.33017E+00  5.74122E+00  4.05299E+00  5.51273E+00
   7.31463E+00  3.11269E+00  2.10117E+00  5.35285E+00  6.59589E+00  6.71259E+00  3.80898E+00  5.74075E+00  6.49883E+00  5.98597E+00
   7.94631E+00  5.36284E+00  6.53661E+00  1.15791E+01  3.92115E+00  7.26319E+00  5.14071E+00  6.38796E+00  5.20175E+00  6.69523E+00
   7.91074E+00  2.33379E+00  6.05356E+00  5.87832E+00  4.23311E+00  1.52175E+00  4.10153E+00  5.63111E+00  7.35745E+00  7.37215E+00
   6.33871E+00  6.78195E+00  3.68786E+00  5.43579E+00  4.67226E+00  6.26475E+00  5.02551E+00  3.47957E+00
 NY points of the fit to the data follow
   1.34994E+01  1.31676E+01  1.32352E+01  1.38419E+01  1.59261E+01  2.06200E+01  2.87921E+01  3.93660E+01  4.93627E+01  5.55641E+01
   5.64361E+01  5.25636E+01  4.60537E+01  3.92842E+01  3.37750E+01  2.95844E+01  2.56903E+01  2.19322E+01  1.95576E+01  1.80603E+01
   1.74120E+01  1.70530E+01  1.65498E+01  1.57420E+01  1.48776E+01  1.47582E+01  1.62844E+01  1.93921E+01  2.31424E+01  2.65473E+01
   2.89066E+01  2.96321E+01  2.84945E+01  2.59909E+01  2.28313E+01  1.96431E+01  1.65192E+01  1.41853E+01  1.34092E+01  1.32876E+01
   1.34884E+01  1.40824E+01  1.52631E+01  1.74771E+01  2.06273E+01  2.39043E+01  2.59485E+01  2.59009E+01  2.40754E+01  2.12081E+01
   1.80952E+01  1.55898E+01  1.40126E+01  1.28853E+01  1.18638E+01  1.13989E+01  1.18865E+01  1.29532E+01  1.39843E+01  1.45287E+01
   1.43106E+01  1.33552E+01  1.19570E+01  1.06002E+01  9.71771E+00  9.39318E+00  9.41429E+00  9.67542E+00  1.01565E+01  1.07290E+01
   1.12497E+01  1.15012E+01  1.14351E+01  1.11179E+01  1.06513E+01  1.01853E+01  9.80995E+00  9.54174E+00  9.29541E+00  9.02350E+00
   8.87774E+00  8.97131E+00  9.44182E+00  1.03645E+01  1.14274E+01  1.20019E+01  1.16825E+01  1.06300E+01  9.34238E+00  8.30716E+00
   7.82129E+00  7.88715E+00  8.22154E+00  8.39215E+00  8.21118E+00  8.07615E+00  8.26009E+00  9.75687E+00  1.48895E+01  2.62654E+01
   4.38159E+01  6.22535E+01  7.43747E+01  7.62805E+01  6.91788E+01  5.71125E+01  4.44940E+01  3.44326E+01  2.75413E+01  2.18647E+01
   1.53379E+01  1.01461E+01  8.37436E+00  7.81282E+00  7.57151E+00  7.43577E+00  7.33813E+00  7.27529E+00  7.29996E+00  7.50432E+00
   8.08714E+00  9.82819E+00  1.45508E+01  2.46383E+01  4.06974E+01  5.83094E+01  7.05981E+01  7.34819E+01  6.78292E+01  5.73582E+01
   4.60958E+01  3.66917E+01  2.96369E+01  2.32833E+01  1.56990E+01  9.09785E+00  6.89590E+00  6.90137E+00  7.77348E+00  8.74289E+00
   9.31914E+00  9.51160E+00  9.43810E+00  9.12701E+00  8.73862E+00  8.35692E+00  7.93052E+00  7.48237E+00  6.96874E+00  6.48967E+00
   6.09305E+00  5.75725E+00  5.51751E+00  5.40420E+00  5.40020E+00  5.43175E+00  5.38613E+00  5.12156E+00  4.52197E+00  3.73058E+00
   3.12613E+00  3.04143E+00  3.48610E+00  4.10070E+00  4.45135E+00  4.29560E+00  3.70920E+00  2.98317E+00  2.43737E+00  2.14599E+00
   1.86442E+00  1.42547E+00  7.00455E-01 -1.90766E-01 -8.55962E-01 -1.08193E+00 -8.29695E-01 -3.58728E-01 -5.08499E-02 -4.19698E-02
  -1.95030E-01 -3.34604E-01 -3.92837E-01 -3.52555E-01 -2.01076E-01  1.77419E-01  1.21401E+00  3.12047E+00  5.49061E+00  7.56646E+00
   8.59597E+00  8.47416E+00  7.49963E+00  6.14012E+00  5.00927E+00  4.46217E+00  4.49125E+00  5.20954E+00  6.56984E+00  8.37091E+00
   1.04123E+01  1.24461E+01  1.40904E+01  1.48831E+01  1.42400E+01  1.19313E+01  8.31906E+00  4.33836E+00  1.22613E+00 -5.33738E-02
   7.58166E-01  3.44376E+00  7.73778E+00  1.29006E+01  1.72723E+01  1.93885E+01  1.88489E+01  1.60004E+01  1.10282E+01  5.30630E+00
   8.17057E-01 -1.13100E+00 -4.54338E-01  2.19739E+00  6.22330E+00  1.04662E+01  1.35894E+01  1.52077E+01  1.57167E+01  1.58811E+01
   1.59675E+01  1.58666E+01  1.58568E+01  1.63955E+01  1.73596E+01  1.84119E+01  1.91779E+01  1.94416E+01  1.91422E+01  1.81052E+01
   1.66150E+01  1.55550E+01  1.55906E+01  1.65782E+01  1.78919E+01  1.93056E+01  2.04991E+01  2.11467E+01  2.13995E+01  2.18214E+01
   2.28275E+01  2.41522E+01  2.57208E+01  2.74759E+01  2.95199E+01  3.34052E+01  4.25281E+01  6.01365E+01  8.37953E+01  1.04705E+02
   1.14290E+02  1.10273E+02  9.61499E+01  7.78971E+01  6.12143E+01  4.91010E+01  4.06518E+01  3.23055E+01  2.29064E+01  1.74534E+01
   1.57303E+01  1.49947E+01  1.46985E+01  1.46021E+01  1.44292E+01  1.41652E+01  1.38090E+01  1.33825E+01  1.29454E+01  1.25517E+01
   1.21880E+01  1.18559E+01  1.15900E+01  1.13915E+01  1.12303E+01  1.10847E+01  1.09587E+01  1.08722E+01  1.08330E+01  1.08279E+01
   1.08651E+01  1.09522E+01  1.10906E+01  1.12803E+01  1.15238E+01  1.18252E+01  1.21859E+01  1.26060E+01  1.30878E+01  1.36297E+01
   1.42269E+01  1.48708E+01  1.55490E+01  1.62471E+01  1.69510E+01  1.76477E+01  1.83246E+01  1.89692E+01  1.95733E+01  2.01325E+01
   2.06470E+01  2.11244E+01  2.15795E+01  2.20332E+01  2.25147E+01  2.30599E+01  2.37117E+01  2.45184E+01  2.55342E+01  2.68239E+01
   2.84773E+01  3.05944E+01  3.31883E+01  3.60501E+01  3.86977E+01  4.07648E+01  4.23164E+01  4.37366E+01  4.53975E+01  4.75592E+01
   5.04012E+01  5.40443E+01  5.82806E+01  6.25610E+01  6.64138E+01  6.95022E+01  7.13753E+01  7.20862E+01  7.19288E+01  7.12006E+01
   7.00629E+01  6.84820E+01  6.64581E+01  6.42535E+01  6.14851E+01  5.75866E+01  5.24895E+01  4.66835E+01  4.08438E+01  3.55789E+01
   3.13858E+01  2.86383E+01  2.72418E+01  2.65755E+01  2.60470E+01  2.54938E+01  2.45568E+01  2.31666E+01  2.16516E+01  2.03154E+01
   1.92435E+01  1.82178E+01  1.70646E+01  1.61248E+01  1.54306E+01  1.48648E+01  1.43752E+01  1.39353E+01  1.35289E+01  1.31461E+01
   1.27811E+01  1.24314E+01  1.20969E+01  1.17785E+01  1.14783E+01  1.11988E+01  1.09430E+01  1.07139E+01  1.05146E+01  1.03477E+01
   1.02152E+01  1.01190E+01  1.00607E+01  1.00416E+01  1.00626E+01  1.01243E+01  1.02269E+01  1.03703E+01  1.05543E+01  1.07785E+01
   1.10417E+01  1.13425E+01  1.16786E+01  1.20473E+01  1.24452E+01  1.28681E+01  1.33105E+01  1.37664E+01  1.42285E+01  1.46889E+01
   1.51393E+01  1.55705E+01  1.59730E+01  1.63372E+01  1.66542E+01  1.69156E+01  1.71141E+01  1.72434E+01  1.72991E+01  1.72781E+01
   1.71797E+01  1.70052E+01  1.67574E+01  1.64412E+01  1.60627E+01  1.56297E+01  1.51509E+01  1.46356E+01  1.40932E+01  1.35332E+01
   1.29645E+01  1.23956E+01  1.18342E+01  1.12867E+01  1.07587E+01  1.02544E+01  9.77699E+00  9.32884E+00  8.91129E+00  8.52481E+00
   8.16909E+00  7.84332E+00  7.54633E+00  7.27668E+00  7.03267E+00  6.81242E+00  6.61397E+00  6.43543E+00  6.27505E+00  6.13118E+00
   6.00222E+00  5.88659E+00  5.78289E+00  5.68990E+00  5.60657E+00  5.53194E+00  5.46509E+00  5.40514E+00  5.35136E+00  5.30317E+00
   5.26009E+00  5.22163E+00  5.18730E+00  5.15665E+00  5.12935E+00  5.10517E+00  5.08386E+00  5.06517E+00  5.04879E+00  5.03450E+00
   5.02217E+00  5.01171E+00  5.00300E+00  4.99586E+00  4.99010E+00  4.98563E+00  4.98239E+00  4.98035E+00  4.97941E+00  4.97945E+00
   4.98037E+00  4.98211E+00  4.98471E+00  4.98814E+00  4.99230E+00  4.99709E+00  5.00246E+00  5.00843E+00  5.01500E+00  5.02215E+00
   5.02980E+00  5.03786E+00  5.04635E+00  5.05529E+00  5.06472E+00  5.07457E+00  5.08477E+00  5.09529E+00  5.10618E+00  5.11746E+00
   5.12915E+00  5.14120E+00  5.15355E+00  5.16622E+00  5.17928E+00  5.19278E+00  5.20671E+00  5.22105E+00
 NY background values follow
     1.057E+01    1.052E+01    1.046E+01    1.040E+01    1.034E+01    1.029E+01    1.023E+01    1.017E+01    1.011E+01    1.005E+01
     9.996E+00    9.938E+00    9.880E+00    9.822E+00    9.764E+00    9.706E+00    9.647E+00    9.589E+00    9.531E+00    9.472E+00
     9.414E+00    9.355E+00    9.297E+00    9.238E+00    9.180E+00    9.121E+00    9.062E+00    9.004E+00    8.945E+00    8.886E+00
     8.828E+00    8.769E+00    8.710E+00    8.651E+00    8.592E+00    8.534E+00    8.475E+00    8.416E+00    8.357E+00    8.298E+00
     8.239E+00    8.180E+00    8.121E+00    8.063E+00    8.004E+00    7.945E+00    7.886E+00    7.827E+00    7.768E+00    7.710E+00
     7.651E+00    7.592E+00    7.534E+00    7.475E+00    7.417E+00    7.358E+00    7.300E+00    7.242E+00    7.184E+00    7.126E+00
     7.069E+00    7.011E+00    6.954E+00    6.897E+00    6.840E+00    6.783E+00    6.726E+00    6.670E+00    6.614E+00    6.558E+00
     6.503E+00    6.447E+00    6.392E+00    6.338E+00    6.283E+00    6.229E+00    6.176E+00    6.122E+00    6.069E+00    6.016E+00
     5.964E+00    5.912E+00    5.860E+00    5.809E+00    5.759E+00    5.708E+00    5.658E+00    5.609E+00    5.560E+00    5.511E+00
     5.463E+00    5.415E+00    5.368E+00    5.322E+00    5.276E+00    5.230E+00    5.185E+00    5.140E+00    5.096E+00    5.053E+00
     5.010E+00    4.968E+00    4.926E+00    4.885E+00    4.844E+00    4.804E+00    4.764E+00    4.726E+00    4.687E+00    4.650E+00
     4.613E+00    4.576E+00    4.540E+00    4.505E+00    4.471E+00    4.437E+00    4.404E+00    4.371E+00    4.339E+00    4.308E+00
     4.278E+00    4.248E+00    4.219E+00    4.191E+00    4.163E+00    4.136E+00    4.110E+00    4.084E+00    4.060E+00    4.036E+00
     4.013E+00    3.990E+00    3.968E+00    3.948E+00    3.927E+00    3.908E+00    3.890E+00    3.872E+00    3.855E+00    3.839E+00
     3.824E+00    3.809E+00    3.796E+00    3.783E+00    3.771E+00    3.760E+00    3.749E+00    3.740E+00    3.731E+00    3.723E+00
     3.716E+00    3.709E+00    3.704E+00    3.699E+00    3.695E+00    3.692E+00    3.690E+00    3.689E+00    3.688E+00    3.688E+00
     3.690E+00    3.691E+00    3.694E+00    3.698E+00    3.702E+00    3.707E+00    3.713E+00    3.720E+00    3.728E+00    3.737E+00
     3.746E+00    3.756E+00    3.767E+00    3.779E+00    3.792E+00    3.805E+00    3.820E+00    3.835E+00    3.851E+00    3.868E+00
     3.886E+00    3.904E+00    3.924E+00    3.944E+00    3.965E+00    3.987E+00    4.010E+00    4.033E+00    4.057E+00    4.082E+00
     4.107E+00    4.133E+00    4.159E+00    4.186E+00    4.214E+00    4.242E+00    4.271E+00    4.300E+00    4.330E+00    4.360E+00
     4.390E+00    4.421E+00    4.452E+00    4.484E+00    4.516E+00    4.548E+00    4.580E+00    4.613E+00    4.646E+00    4.679E+00
     4.712E+00    4.745E+00    4.779E+00    4.812E+00    4.846E+00    4.879E+00    4.913E+00    4.947E+00    4.980E+00    5.014E+00
     5.047E+00    5.081E+00    5.114E+00    5.147E+00    5.180E+00    5.213E+00    5.246E+00    5.278E+00    5.310E+00    5.342E+00
     5.373E+00    5.405E+00    5.436E+00    5.467E+00    5.497E+00    5.527E+00    5.557E+00    5.587E+00    5.616E+00    5.645E+00
     5.673E+00    5.702E+00    5.730E+00    5.757E+00    5.785E+00    5.811E+00    5.838E+00    5.864E+00    5.890E+00    5.915E+00
     5.940E+00    5.965E+00    5.989E+00    6.013E+00    6.036E+00    6.059E+00    6.082E+00    6.104E+00    6.126E+00    6.147E+00
     6.168E+00    6.188E+00    6.208E+00    6.227E+00    6.246E+00    6.264E+00    6.282E+00    6.299E+00    6.316E+00    6.333E+00
     6.349E+00    6.364E+00    6.379E+00    6.393E+00    6.407E+00    6.420E+00    6.433E+00    6.445E+00    6.456E+00    6.467E+00
     6.478E+00    6.488E+00    6.498E+00    6.507E+00    6.515E+00    6.523E+00    6.531E+00    6.538E+00    6.544E+00    6.550E+00
     6.556E+00    6.561E+00    6.565E+00    6.569E+00    6.573E+00    6.576E+00    6.579E+00    6.581E+00    6.582E+00    6.583E+00
     6.584E+00    6.584E+00    6.584E+00    6.583E+00    6.582E+00    6.580E+00    6.578E+00    6.575E+00    6.572E+00    6.568E+00
     6.564E+00    6.560E+00    6.555E+00    6.549E+00    6.544E+00    6.537E+00    6.530E+00    6.523E+00    6.516E+00    6.507E+00
     6.499E+00    6.490E+00    6.481E+00    6.471E+00    6.461E+00    6.450E+00    6.439E+00    6.428E+00    6.417E+00    6.405E+00
     6.392E+00    6.380E+00    6.367E+00    6.354E+00    6.340E+00    6.326E+00    6.312E+00    6.298E+00    6.283E+00    6.269E+00
     6.253E+00    6.238E+00    6.223E+00    6.207E+00    6.191E+00    6.175E+00    6.158E+00    6.142E+00    6.125E+00    6.108E+00
     6.091E+00    6.074E+00    6.057E+00    6.039E+00    6.022E+00    6.004E+00    5.986E+00    5.968E+00    5.950E+00    5.932E+00
     5.914E+00    5.896E+00    5.878E+00    5.860E+00    5.841E+00    5.823E+00    5.805E+00    5.787E+00    5.768E+00    5.750E+00
     5.732E+00    5.714E+00    5.696E+00    5.678E+00    5.661E+00    5.643E+00    5.625E+00    5.608E+00    5.591E+00    5.574E+00
     5.557E+00    5.541E+00    5.524E+00    5.508E+00    5.492E+00    5.477E+00    5.461E+00    5.446E+00    5.432E+00    5.417E+00
     5.403E+00    5.389E+00    5.376E+00    5.363E+00    5.350E+00    5.338E+00    5.326E+00    5.314E+00    5.303E+00    5.293E+00
     5.283E+00    5.273E+00    5.264E+00    5.255E+00    5.247E+00    5.240E+00    5.233E+00    5.226E+00    5.220E+00    5.215E+00
     5.210E+00    5.206E+00    5.202E+00    5.198E+00    5.196E+00    5.193E+00    5.192E+00    5.190E+00    5.189E+00    5.189E+00
     5.189E+00    5.190E+00    5.191E+00    5.192E+00    5.194E+00    5.196E+00    5.199E+00    5.202E+00    5.205E+00    5.209E+00
     5.213E+00    5.217E+00    5.222E+00    5.227E+00    5.233E+00    5.239E+00    5.245E+00    5.251E+00    5.258E+00    5.265E+00
     5.272E+00    5.280E+00    5.288E+00    5.296E+00    5.304E+00    5.313E+00    5.321E+00    5.330E+00    5.339E+00    5.349E+00
     5.358E+00    5.368E+00    5.378E+00    5.388E+00    5.398E+00    5.409E+00    5.419E+00    5.430E+00    5.441E+00    5.451E+00
     5.463E+00    5.474E+00    5.485E+00    5.496E+00    5.508E+00    5.520E+00    5.531E+00    5.543E+00    5.555E+00    5.567E+00
     5.579E+00    5.591E+00    5.603E+00    5.615E+00    5.628E+00    5.640E+00    5.652E+00    5.665E+00    5.677E+00    5.690E+00
     5.702E+00    5.715E+00    5.728E+00    5.740E+00    5.753E+00    5.765E+00    5.778E+00    5.790E+00    5.803E+00    5.816E+00
     5.828E+00    5.841E+00    5.853E+00    5.865E+00    5.878E+00    5.890E+00    5.902E+00    5.915E+00
 Ala      Conc. = 3.01E+02
