 LCModel (Version 6.3-1L) Copyright: S.W. Provencher.          Ref.: Magn. Reson. Med. 30:672-679 (1993).                
 Slice#3 Row#10 Col#14  PD_05_press_1_raw_act
 36 lines in following concentration table = NCONC+1
    Conc.  %SD /Cr+PCr  Metabolite                                         
 3.14E+03  11%   0.000 Ala                                                 
    4.448 165%   0.000 Asp                                                 
    0.000 999%   0.000 Cr                                                  
    0.000 999%   0.000 PCr                                                 
    2.815 157%   0.000 GABA                                                
    3.214 138%   0.000 Glc                                                 
  124.582 126%   0.000 Gln                                                 
 1.08E+03  19%   0.000 Glu                                                 
    0.000 999%   0.000 GPC                                                 
   30.205  20%   0.000 PCh                                                 
    0.000 999%   0.000 GSH                                                 
    0.000 999%   0.000 Ins                                                 
  413.814 107%   0.000 Lac                                                 
    0.000 999%   0.000 NAA                                                 
    0.000 999%   0.000 NAAG                                                
    1.220 119%   0.000 Scyllo                                              
    5.799 125%   0.000 Tau                                                 
    0.480 888%   0.000 -CrCH2                                              
   30.205  20%   0.000 GPC+PCh                                             
    0.000 999%   0.000 NAA+NAAG                                            
    0.000 999%   0.000 Cr+PCr                                              
 1.21E+03  23%   0.000 Glu+Gln                                             
  757.038  49%   0.000 Lip13a                                              
   94.264  70%   0.000 Lip13b                                              
  258.577  34%   0.000 Lip09                                               
 1.06E+03  13%   0.000 MM09                                                
  132.955  45%   0.000 Lip20                                               
  634.367  18%   0.000 MM20                                                
  190.547  75%   0.000 MM12                                                
 4.64E+03   3%   0.000+MM14                                                
 2.43E+03  11%   0.000+MM17                                                
  851.302  40%   0.000 Lip13a+Lip13b                                       
 5.69E+03   7%   0.000 MM14+Lip13a+Lip13b+MM12                             
 1.32E+03   8%   0.000 MM09+Lip09                                          
  767.322  13%   0.000 MM20+Lip20                                          
   6 lines in following misc. output table
  FWHM = 0.138 ppm    S/N =  26                                            
  Data shift = 0.199 ppm                                                   
  Ph: -47 deg     -29.6 deg/ppm                                            
  alphaB,S = 8.5E+01,   2.0E+02                                            
    6 spline knots.   Ns = 9(2)                                            
   2 inflections.     1 extrema                                            
  498 points on ppm-axis = NY
      4.000000     3.992357     3.984714     3.977070     3.969427     3.961784     3.954141     3.946497     3.938854     3.931211
      3.923568     3.915925     3.908281     3.900638     3.892995     3.885352     3.877708     3.870065     3.862422     3.854779
      3.847136     3.839492     3.831849     3.824206     3.816563     3.808919     3.801276     3.793633     3.785990     3.778347
      3.770703     3.763060     3.755417     3.747774     3.740130     3.732487     3.724844     3.717201     3.709558     3.701914
      3.694271     3.686628     3.678985     3.671341     3.663698     3.656055     3.648412     3.640769     3.633125     3.625482
      3.617839     3.610196     3.602552     3.594909     3.587266     3.579623     3.571980     3.564336     3.556693     3.549050
      3.541407     3.533763     3.526120     3.518477     3.510834     3.503191     3.495547     3.487904     3.480261     3.472618
      3.464974     3.457331     3.449688     3.442045     3.434402     3.426758     3.419115     3.411472     3.403829     3.396185
      3.388542     3.380899     3.373256     3.365613     3.357969     3.350326     3.342683     3.335040     3.327396     3.319753
      3.312110     3.304467     3.296824     3.289180     3.281537     3.273894     3.266251     3.258607     3.250964     3.243321
      3.235678     3.228034     3.220391     3.212748     3.205105     3.197462     3.189818     3.182175     3.174532     3.166889
      3.159245     3.151602     3.143959     3.136316     3.128673     3.121029     3.113386     3.105743     3.098100     3.090456
      3.082813     3.075170     3.067527     3.059884     3.052240     3.044597     3.036954     3.029311     3.021667     3.014024
      3.006381     2.998738     2.991095     2.983451     2.975808     2.968165     2.960522     2.952878     2.945235     2.937592
      2.929949     2.922306     2.914662     2.907019     2.899376     2.891733     2.884089     2.876446     2.868803     2.861160
      2.853517     2.845873     2.838230     2.830587     2.822944     2.815300     2.807657     2.800014     2.792371     2.784728
      2.777084     2.769441     2.761798     2.754155     2.746511     2.738868     2.731225     2.723582     2.715939     2.708295
      2.700652     2.693009     2.685366     2.677722     2.670079     2.662436     2.654793     2.647150     2.639506     2.631863
      2.624220     2.616577     2.608933     2.601290     2.593647     2.586004     2.578361     2.570717     2.563074     2.555431
      2.547788     2.540144     2.532501     2.524858     2.517215     2.509572     2.501928     2.494285     2.486642     2.478999
      2.471355     2.463712     2.456069     2.448426     2.440783     2.433139     2.425496     2.417853     2.410210     2.402566
      2.394923     2.387280     2.379637     2.371994     2.364350     2.356707     2.349064     2.341421     2.333777     2.326134
      2.318491     2.310848     2.303205     2.295561     2.287918     2.280275     2.272632     2.264988     2.257345     2.249702
      2.242059     2.234416     2.226772     2.219129     2.211486     2.203843     2.196199     2.188556     2.180913     2.173270
      2.165627     2.157983     2.150340     2.142697     2.135054     2.127410     2.119767     2.112124     2.104481     2.096838
      2.089194     2.081551     2.073908     2.066265     2.058621     2.050978     2.043335     2.035692     2.028049     2.020405
      2.012762     2.005119     1.997476     1.989833     1.982190     1.974546     1.966903     1.959260     1.951617     1.943974
      1.936331     1.928688     1.921045     1.913402     1.905759     1.898115     1.890472     1.882829     1.875186     1.867543
      1.859900     1.852257     1.844614     1.836971     1.829327     1.821684     1.814041     1.806398     1.798755     1.791112
      1.783469     1.775826     1.768183     1.760540     1.752896     1.745253     1.737610     1.729967     1.722324     1.714681
      1.707038     1.699395     1.691752     1.684108     1.676465     1.668822     1.661179     1.653536     1.645893     1.638250
      1.630607     1.622964     1.615321     1.607677     1.600034     1.592391     1.584748     1.577105     1.569462     1.561819
      1.554176     1.546533     1.538890     1.531246     1.523603     1.515960     1.508317     1.500674     1.493031     1.485388
      1.477745     1.470102     1.462458     1.454815     1.447172     1.439529     1.431886     1.424243     1.416600     1.408957
      1.401314     1.393671     1.386027     1.378384     1.370741     1.363098     1.355455     1.347812     1.340169     1.332526
      1.324883     1.317240     1.309596     1.301953     1.294310     1.286667     1.279024     1.271381     1.263738     1.256095
      1.248452     1.240808     1.233165     1.225522     1.217879     1.210236     1.202593     1.194950     1.187307     1.179664
      1.172021     1.164377     1.156734     1.149091     1.141448     1.133805     1.126162     1.118519     1.110876     1.103233
      1.095590     1.087946     1.080303     1.072660     1.065017     1.057374     1.049731     1.042088     1.034445     1.026802
      1.019158     1.011515     1.003872     0.996229     0.988586     0.980943     0.973300     0.965657     0.958014     0.950371
      0.942727     0.935084     0.927441     0.919798     0.912155     0.904512     0.896869     0.889226     0.881583     0.873940
      0.866296     0.858653     0.851010     0.843367     0.835724     0.828081     0.820438     0.812795     0.805152     0.797508
      0.789865     0.782222     0.774579     0.766936     0.759293     0.751650     0.744007     0.736364     0.728721     0.721077
      0.713434     0.705791     0.698148     0.690505     0.682862     0.675219     0.667576     0.659933     0.652290     0.644646
      0.637003     0.629360     0.621717     0.614074     0.606431     0.598788     0.591145     0.583502     0.575858     0.568215
      0.560572     0.552929     0.545286     0.537643     0.530000     0.522357     0.514714     0.507071     0.499427     0.491784
      0.484141     0.476498     0.468855     0.461212     0.453569     0.445925     0.438282     0.430639     0.422996     0.415353
      0.407710     0.400067     0.392424     0.384780     0.377137     0.369494     0.361851     0.354208     0.346565     0.338922
      0.331278     0.323635     0.315992     0.308349     0.300706     0.293063     0.285420     0.277777     0.270133     0.262490
      0.254847     0.247204     0.239561     0.231918     0.224275     0.216631     0.208988     0.201345
 NY phased data points follow
   2.57775E+00  2.47368E+00  2.52473E+00  2.03978E+00  1.99973E+00  1.53922E+00  2.38758E+00  1.81333E+00  1.83657E+00  2.25673E+00
   2.31781E+00  2.92831E+00  2.22818E+00  2.63098E+00  3.06146E+00  2.21256E+00  2.19412E+00  1.69544E+00  2.53635E+00  2.32540E+00
   2.90393E+00  2.55775E+00  3.05889E+00  2.69263E+00  2.49663E+00  1.57198E+00  2.04692E+00  1.85454E+00  2.26723E+00  2.79893E+00
   2.10756E+00  2.77457E+00  2.86803E+00  2.39318E+00  2.16326E+00  1.98497E+00  2.69390E+00  3.51486E+00  3.51138E+00  2.37378E+00
   2.49897E+00  2.31810E+00  2.65113E+00  2.22812E+00  1.38788E+00  1.74993E+00  2.47051E+00  1.95185E+00  1.99381E+00  2.19797E+00
   9.77737E-01  7.48796E-01  2.64572E+00  2.32443E+00  6.83963E-01  2.79933E+00  2.74896E+00  3.02221E+00  3.22973E+00  2.00270E+00
   1.74442E+00  3.40289E+00  2.07588E+00  3.35066E+00  1.59876E+00  2.76192E+00  1.15000E+00  2.26686E+00  3.31123E+00  1.48578E+00
   1.91347E+00  3.50237E+00  1.26699E+00  2.82018E+00  3.05252E+00  3.40166E+00  3.69717E+00  2.68802E+00  3.11149E+00  3.82818E+00
   3.71449E+00  2.84441E+00  3.26472E+00  1.49383E+00  2.10816E+00  1.36815E+00  2.13416E+00  2.39697E+00  1.88060E+00  3.27297E+00
   2.58045E+00  2.35414E+00  2.58247E+00  3.30194E+00  3.09290E+00  3.81486E+00  3.51742E+00  2.47060E+00  3.07626E+00  3.13542E+00
   2.98684E+00  3.39839E+00  3.96578E+00  5.06453E+00  4.89414E+00  4.92400E+00  3.23227E+00  2.62257E+00  2.76561E+00  2.60022E+00
   3.05628E+00  2.41486E+00  1.47317E+00  2.60822E+00  2.47253E+00  1.85331E+00  3.94881E+00  2.71580E+00  3.44146E+00  3.19452E+00
   2.71149E+00  2.82219E+00  3.70858E+00  2.12118E+00  2.85677E+00  2.35157E+00  2.81666E+00  1.30011E+00  2.19264E+00  2.23024E+00
   2.66268E+00  2.73988E+00  2.78046E+00  3.01935E+00  2.65491E+00  2.33847E+00  3.03505E+00  2.93946E+00  3.58154E+00  2.85789E+00
   2.15050E+00  2.49309E+00  3.14354E+00  3.42297E+00  2.63790E+00  2.35041E+00  2.69304E+00  3.06551E+00  3.20724E+00  2.57152E+00
   3.03126E+00  2.01998E+00  3.82848E+00  2.75829E+00  3.00083E+00  2.23528E+00  3.20278E+00  2.22914E+00  3.29077E+00  2.77610E+00
   1.95400E+00  2.90449E+00  2.65081E+00  2.12195E+00  2.36666E+00  2.83563E+00  3.00622E+00  3.19308E+00  3.31518E+00  2.56951E+00
   2.57628E+00  2.20141E+00  3.15774E+00  2.55435E+00  3.27175E+00  1.97811E+00  2.07154E+00  3.21234E+00  3.11143E+00  3.54616E+00
   3.69301E+00  2.78305E+00  3.55032E+00  1.97936E+00  2.17047E+00  2.71374E+00  3.64013E+00  2.73693E+00  2.44065E+00  3.30471E+00
   3.02480E+00  4.70785E+00  3.55390E+00  2.74054E+00  2.84446E+00  3.21041E+00  2.39414E+00  2.77695E+00  1.82674E+00  2.55404E+00
   3.27321E+00  3.65667E+00  3.36976E+00  2.94265E+00  2.66066E+00  3.50107E+00  1.94838E+00  3.14666E+00  2.26744E+00  3.33539E+00
   3.52995E+00  3.36004E+00  2.61165E+00  3.69046E+00  2.24704E+00  2.34061E+00  2.97130E+00  2.85044E+00  3.41873E+00  2.71619E+00
   2.92064E+00  3.22405E+00  3.09353E+00  2.49669E+00  2.24152E+00  3.54336E+00  3.26520E+00  4.26853E+00  3.62116E+00  3.37679E+00
   2.40530E+00  4.45212E+00  3.47173E+00  4.22903E+00  4.08831E+00  5.38047E+00  5.79064E+00  6.60556E+00  6.29145E+00  7.41029E+00
   6.72681E+00  5.60524E+00  4.81241E+00  4.06606E+00  5.50084E+00  4.75824E+00  5.00004E+00  5.09315E+00  5.80068E+00  5.57290E+00
   6.45799E+00  6.80913E+00  5.58032E+00  5.82488E+00  6.17147E+00  6.54554E+00  7.01631E+00  5.20646E+00  6.70642E+00  7.16967E+00
   6.78735E+00  6.72062E+00  7.63237E+00  7.86559E+00  6.63303E+00  7.46800E+00  7.24814E+00  7.94910E+00  7.42716E+00  7.45020E+00
   7.94849E+00  6.97342E+00  8.60968E+00  8.46799E+00  7.69331E+00  7.14388E+00  7.83980E+00  8.45655E+00  8.23797E+00  8.39878E+00
   8.85221E+00  8.98250E+00  9.77863E+00  9.86350E+00  9.39187E+00  1.04943E+01  9.78837E+00  1.02466E+01  1.05383E+01  1.16977E+01
   1.12638E+01  1.12218E+01  1.17994E+01  1.14576E+01  1.36652E+01  1.25679E+01  1.34366E+01  1.33056E+01  1.24970E+01  1.35816E+01
   1.28846E+01  1.47461E+01  1.58955E+01  1.48695E+01  1.43885E+01  1.42138E+01  1.53001E+01  1.50346E+01  1.60088E+01  1.66753E+01
   1.72098E+01  1.76095E+01  1.95005E+01  1.83415E+01  1.96035E+01  1.97973E+01  2.06939E+01  2.17246E+01  2.24376E+01  2.28564E+01
   2.50320E+01  2.52118E+01  2.72275E+01  2.77593E+01  2.87651E+01  3.00238E+01  3.18007E+01  3.38554E+01  3.63182E+01  3.60285E+01
   3.87258E+01  3.95380E+01  4.14884E+01  4.32371E+01  4.42587E+01  4.56791E+01  4.55926E+01  4.50059E+01  4.62237E+01  4.34249E+01
   4.34337E+01  4.10187E+01  3.91190E+01  3.68263E+01  3.36800E+01  3.04003E+01  2.82807E+01  2.68722E+01  2.45503E+01  2.22205E+01
   2.01336E+01  1.94159E+01  1.75887E+01  1.53387E+01  1.53602E+01  1.48736E+01  1.36268E+01  1.32824E+01  1.23378E+01  1.19016E+01
   1.20426E+01  1.13937E+01  1.08909E+01  8.65869E+00  1.00918E+01  9.74792E+00  7.98705E+00  1.05152E+01  9.05399E+00  9.07237E+00
   9.18408E+00  9.34361E+00  9.36700E+00  8.75590E+00  8.85475E+00  9.92817E+00  1.03283E+01  9.87604E+00  1.05412E+01  1.07867E+01
   1.11278E+01  1.08929E+01  1.19186E+01  1.12251E+01  1.13852E+01  1.19490E+01  1.31354E+01  1.23881E+01  1.17622E+01  1.22864E+01
   1.08623E+01  1.21846E+01  1.14810E+01  1.08407E+01  1.14663E+01  1.13909E+01  9.81627E+00  9.98154E+00  1.01395E+01  9.47546E+00
   8.88791E+00  9.48197E+00  8.06908E+00  8.83282E+00  8.77341E+00  8.40782E+00  8.38676E+00  6.68588E+00  6.53000E+00  7.30580E+00
   8.05719E+00  6.53282E+00  5.47180E+00  6.38700E+00  7.08928E+00  6.22378E+00  6.33079E+00  5.72860E+00  4.98658E+00  4.58866E+00
   4.78786E+00  5.32104E+00  4.90161E+00  4.96027E+00  4.53129E+00  3.64076E+00  4.86487E+00  5.59887E+00  4.49702E+00  4.62846E+00
   4.57303E+00  5.57290E+00  4.31826E+00  4.67251E+00  4.49540E+00  3.90748E+00  5.31375E+00  3.68285E+00  3.69004E+00  4.99271E+00
   3.75535E+00  3.47275E+00  4.44713E+00  3.60325E+00  2.64160E+00  4.41803E+00  2.54627E+00  4.28796E+00  4.33740E+00  3.03688E+00
   2.88374E+00  2.97745E+00  3.95210E+00  3.97018E+00  4.52476E+00  3.02286E+00  3.35302E+00  3.17943E+00  3.48685E+00  1.97977E+00
   2.70649E+00  3.64284E+00  4.33402E+00  3.13663E+00  3.49037E+00  3.37635E+00  3.02801E+00  2.85063E+00  2.77248E+00  3.67064E+00
   3.34213E+00  3.65835E+00  2.79434E+00  3.76276E+00  3.23763E+00  3.01046E+00  2.31552E+00  3.54315E+00  2.34121E+00  4.86133E+00
   2.66038E+00  2.17759E+00  3.21128E+00  1.89296E+00  3.02020E+00  2.19945E+00  1.94759E+00  3.37629E+00  1.93535E+00  2.06447E+00
   2.06150E+00  3.17993E+00  2.79232E+00  2.78713E+00  2.71073E+00  2.27010E+00  1.80588E+00  2.04426E+00
 NY points of the fit to the data follow
   2.12426E+00  2.17357E+00  2.04310E+00  2.12640E+00  2.03791E+00  2.18135E+00  2.19304E+00  2.47626E+00  2.41622E+00  2.71078E+00
   2.51570E+00  2.76856E+00  2.46901E+00  2.67577E+00  2.29181E+00  2.65716E+00  2.33773E+00  2.77037E+00  2.43934E+00  2.81058E+00
   2.45053E+00  2.72268E+00  2.32926E+00  2.52228E+00  2.22470E+00  2.35431E+00  2.16682E+00  2.20546E+00  2.14997E+00  2.15047E+00
   2.26002E+00  2.24949E+00  2.49419E+00  2.46905E+00  2.78747E+00  2.68847E+00  2.95924E+00  2.75751E+00  2.91621E+00  2.63963E+00
   2.74349E+00  2.46692E+00  2.56807E+00  2.36350E+00  2.48321E+00  2.38044E+00  2.48648E+00  2.39862E+00  2.44936E+00  2.35893E+00
   2.36730E+00  2.29384E+00  2.28996E+00  2.27160E+00  2.29885E+00  2.30511E+00  2.32560E+00  2.33130E+00  2.33593E+00  2.33379E+00
   2.32304E+00  2.31504E+00  2.30423E+00  2.29732E+00  2.28907E+00  2.28403E+00  2.27815E+00  2.27484E+00  2.27231E+00  2.26990E+00
   2.26964E+00  2.26759E+00  2.26934E+00  2.26782E+00  2.27138E+00  2.27016E+00  2.27523E+00  2.27401E+00  2.27979E+00  2.27886E+00
   2.28565E+00  2.28631E+00  2.29459E+00  2.29970E+00  2.32320E+00  2.38990E+00  2.43784E+00  2.52820E+00  2.58718E+00  2.68244E+00
   2.74916E+00  2.85451E+00  2.93302E+00  3.05517E+00  3.14227E+00  3.25478E+00  3.33888E+00  3.42236E+00  3.49562E+00  3.54328E+00
   3.59794E+00  3.59349E+00  3.62349E+00  3.56945E+00  3.57259E+00  3.46609E+00  3.44423E+00  3.30679E+00  3.27064E+00  3.13118E+00
   3.09259E+00  2.96989E+00  2.93775E+00  2.84569E+00  2.82609E+00  2.76953E+00  2.76124E+00  2.72322E+00  2.72243E+00  2.70242E+00
   2.70942E+00  2.70806E+00  2.72348E+00  2.74122E+00  2.76094E+00  2.77885E+00  2.79695E+00  2.81248E+00  2.82772E+00  2.83986E+00
   2.85130E+00  2.85955E+00  2.86678E+00  2.87106E+00  2.87422E+00  2.87481E+00  2.87433E+00  2.87167E+00  2.86801E+00  2.86273E+00
   2.85655E+00  2.84924E+00  2.84117E+00  2.83254E+00  2.82331E+00  2.81405E+00  2.80426E+00  2.79485E+00  2.78494E+00  2.77600E+00
   2.76630E+00  2.75816E+00  2.74885E+00  2.74155E+00  2.73256E+00  2.72604E+00  2.71745E+00  2.71183E+00  2.70370E+00  2.69868E+00
   2.69078E+00  2.68606E+00  2.67831E+00  2.67361E+00  2.66614E+00  2.66163E+00  2.65480E+00  2.65062E+00  2.64427E+00  2.64029E+00
   2.63465E+00  2.63128E+00  2.62676E+00  2.62448E+00  2.62123E+00  2.61975E+00  2.61573E+00  2.61577E+00  2.60809E+00  2.61006E+00
   2.60113E+00  2.60746E+00  2.60010E+00  2.61688E+00  2.61631E+00  2.64555E+00  2.65192E+00  2.70022E+00  2.71893E+00  2.78264E+00
   2.78651E+00  2.86547E+00  2.81514E+00  2.90114E+00  2.81441E+00  2.91837E+00  2.82413E+00  2.98784E+00  2.93921E+00  3.22634E+00
   3.10958E+00  3.47397E+00  3.24598E+00  3.64919E+00  3.27168E+00  3.65783E+00  3.17873E+00  3.65109E+00  3.09883E+00  3.64530E+00
   3.03646E+00  3.60261E+00  2.95575E+00  3.49660E+00  2.82360E+00  3.33988E+00  2.69937E+00  3.17500E+00  2.59835E+00  3.01660E+00
   2.57157E+00  2.96248E+00  2.69584E+00  3.05528E+00  2.98080E+00  3.31062E+00  3.38942E+00  3.69786E+00  3.86402E+00  4.11552E+00
   4.28739E+00  4.45440E+00  4.60087E+00  4.67389E+00  4.79416E+00  4.83063E+00  4.97277E+00  5.02794E+00  5.17361E+00  5.22257E+00
   5.34647E+00  5.35791E+00  5.47222E+00  5.47085E+00  5.61579E+00  5.64228E+00  5.83185E+00  5.86450E+00  6.06343E+00  6.08437E+00
   6.29054E+00  6.28623E+00  6.49221E+00  6.45980E+00  6.65282E+00  6.59798E+00  6.76966E+00  6.71679E+00  6.85976E+00  6.80901E+00
   6.91382E+00  6.87319E+00  6.93122E+00  6.90089E+00  6.92505E+00  6.92290E+00  6.93324E+00  6.95766E+00  6.96940E+00  7.01753E+00
   7.04502E+00  7.11489E+00  7.17489E+00  7.28097E+00  7.38626E+00  7.52973E+00  7.67665E+00  7.85470E+00  8.03872E+00  8.24905E+00
   8.47858E+00  8.72702E+00  9.00036E+00  9.28567E+00  9.59572E+00  9.91352E+00  1.02482E+01  1.05872E+01  1.09333E+01  1.12756E+01
   1.16150E+01  1.19419E+01  1.22560E+01  1.25495E+01  1.28231E+01  1.30690E+01  1.32880E+01  1.34755E+01  1.36340E+01  1.37626E+01
   1.38676E+01  1.39521E+01  1.40286E+01  1.41068E+01  1.42074E+01  1.43531E+01  1.45850E+01  1.49683E+01  1.56445E+01  1.66687E+01
   1.72511E+01  1.82454E+01  1.85883E+01  1.94452E+01  1.96243E+01  2.03829E+01  2.03522E+01  2.16842E+01  2.20103E+01  2.35627E+01
   2.41925E+01  2.56655E+01  2.65281E+01  2.79056E+01  2.90383E+01  3.03665E+01  3.20890E+01  3.32977E+01  3.55290E+01  3.64366E+01
   3.89812E+01  3.95499E+01  4.22755E+01  4.23669E+01  4.48393E+01  4.43168E+01  4.61837E+01  4.49905E+01  4.57886E+01  4.38129E+01
   4.32880E+01  4.05972E+01  3.90429E+01  3.60951E+01  3.39096E+01  3.11678E+01  2.88074E+01  2.65973E+01  2.43298E+01  2.24766E+01
   2.04328E+01  1.90338E+01  1.73221E+01  1.63683E+01  1.50160E+01  1.44945E+01  1.35467E+01  1.31886E+01  1.24437E+01  1.21131E+01
   1.14844E+01  1.11475E+01  1.06471E+01  1.03482E+01  9.99001E+00  9.77398E+00  9.55449E+00  9.44808E+00  9.32980E+00  9.27311E+00
   9.23664E+00  9.23214E+00  9.26962E+00  9.32932E+00  9.43963E+00  9.58787E+00  9.76749E+00  9.97271E+00  1.01980E+01  1.04374E+01
   1.06845E+01  1.09321E+01  1.11727E+01  1.13987E+01  1.16021E+01  1.17759E+01  1.19133E+01  1.20089E+01  1.20582E+01  1.20586E+01
   1.20088E+01  1.19095E+01  1.17627E+01  1.15720E+01  1.13423E+01  1.10794E+01  1.07899E+01  1.04805E+01  1.01581E+01  9.82914E+00
   9.49958E+00  9.17456E+00  8.85832E+00  8.55412E+00  8.26423E+00  7.99000E+00  7.73193E+00  7.48984E+00  7.26295E+00  7.05013E+00
   6.84995E+00  6.66092E+00  6.48152E+00  6.31038E+00  6.14625E+00  5.98816E+00  5.83531E+00  5.68721E+00  5.54354E+00  5.40419E+00
   5.26918E+00  5.13869E+00  5.01290E+00  4.89209E+00  4.77649E+00  4.66633E+00  4.56175E+00  4.46291E+00  4.36980E+00  4.28244E+00
   4.20070E+00  4.12446E+00  4.05350E+00  3.98760E+00  3.92646E+00  3.86984E+00  3.81740E+00  3.76888E+00  3.72395E+00  3.68234E+00
   3.64377E+00  3.60801E+00  3.57477E+00  3.54388E+00  3.51509E+00  3.48826E+00  3.46318E+00  3.43972E+00  3.41773E+00  3.39710E+00
   3.37770E+00  3.35944E+00  3.34222E+00  3.32597E+00  3.31060E+00  3.29606E+00  3.28227E+00  3.26920E+00  3.25677E+00  3.24496E+00
   3.23371E+00  3.22301E+00  3.21278E+00  3.20304E+00  3.19372E+00  3.18483E+00  3.17631E+00  3.16816E+00  3.16035E+00  3.15287E+00
   3.14569E+00  3.13881E+00  3.13220E+00  3.12586E+00  3.11975E+00  3.11390E+00  3.10827E+00  3.10286E+00  3.09764E+00  3.09264E+00
   3.08782E+00  3.08319E+00  3.07872E+00  3.07444E+00  3.07031E+00  3.06636E+00  3.06255E+00  3.05891E+00  3.05541E+00  3.05207E+00
   3.04887E+00  3.04584E+00  3.04295E+00  3.04025E+00  3.03770E+00  3.03536E+00  3.03322E+00  3.03134E+00
 NY background values follow
     1.972E+00    1.975E+00    1.977E+00    1.979E+00    1.981E+00    1.984E+00    1.986E+00    1.988E+00    1.991E+00    1.993E+00
     1.995E+00    1.997E+00    2.000E+00    2.002E+00    2.004E+00    2.006E+00    2.009E+00    2.011E+00    2.013E+00    2.015E+00
     2.018E+00    2.020E+00    2.022E+00    2.025E+00    2.027E+00    2.029E+00    2.031E+00    2.034E+00    2.036E+00    2.038E+00
     2.040E+00    2.043E+00    2.045E+00    2.047E+00    2.049E+00    2.052E+00    2.054E+00    2.056E+00    2.058E+00    2.061E+00
     2.063E+00    2.065E+00    2.068E+00    2.070E+00    2.072E+00    2.074E+00    2.077E+00    2.079E+00    2.081E+00    2.083E+00
     2.086E+00    2.088E+00    2.090E+00    2.092E+00    2.095E+00    2.097E+00    2.099E+00    2.101E+00    2.104E+00    2.106E+00
     2.108E+00    2.110E+00    2.112E+00    2.115E+00    2.117E+00    2.119E+00    2.121E+00    2.124E+00    2.126E+00    2.128E+00
     2.130E+00    2.133E+00    2.135E+00    2.137E+00    2.139E+00    2.141E+00    2.144E+00    2.146E+00    2.148E+00    2.150E+00
     2.153E+00    2.155E+00    2.157E+00    2.159E+00    2.161E+00    2.164E+00    2.166E+00    2.168E+00    2.170E+00    2.172E+00
     2.175E+00    2.177E+00    2.179E+00    2.181E+00    2.183E+00    2.186E+00    2.188E+00    2.190E+00    2.192E+00    2.194E+00
     2.197E+00    2.199E+00    2.201E+00    2.203E+00    2.205E+00    2.207E+00    2.210E+00    2.212E+00    2.214E+00    2.216E+00
     2.218E+00    2.221E+00    2.223E+00    2.225E+00    2.227E+00    2.229E+00    2.231E+00    2.233E+00    2.236E+00    2.238E+00
     2.240E+00    2.242E+00    2.244E+00    2.246E+00    2.248E+00    2.251E+00    2.253E+00    2.255E+00    2.257E+00    2.259E+00
     2.261E+00    2.263E+00    2.266E+00    2.268E+00    2.270E+00    2.272E+00    2.274E+00    2.276E+00    2.278E+00    2.280E+00
     2.282E+00    2.284E+00    2.287E+00    2.289E+00    2.291E+00    2.293E+00    2.295E+00    2.297E+00    2.299E+00    2.301E+00
     2.303E+00    2.305E+00    2.307E+00    2.309E+00    2.312E+00    2.314E+00    2.316E+00    2.318E+00    2.320E+00    2.322E+00
     2.324E+00    2.326E+00    2.328E+00    2.330E+00    2.332E+00    2.334E+00    2.336E+00    2.338E+00    2.340E+00    2.342E+00
     2.344E+00    2.346E+00    2.348E+00    2.350E+00    2.352E+00    2.354E+00    2.356E+00    2.358E+00    2.360E+00    2.362E+00
     2.364E+00    2.366E+00    2.368E+00    2.370E+00    2.372E+00    2.374E+00    2.376E+00    2.378E+00    2.380E+00    2.382E+00
     2.384E+00    2.386E+00    2.388E+00    2.390E+00    2.392E+00    2.394E+00    2.396E+00    2.397E+00    2.399E+00    2.401E+00
     2.403E+00    2.405E+00    2.407E+00    2.409E+00    2.411E+00    2.413E+00    2.415E+00    2.417E+00    2.418E+00    2.420E+00
     2.422E+00    2.424E+00    2.426E+00    2.428E+00    2.430E+00    2.432E+00    2.433E+00    2.435E+00    2.437E+00    2.439E+00
     2.441E+00    2.443E+00    2.445E+00    2.446E+00    2.448E+00    2.450E+00    2.452E+00    2.454E+00    2.456E+00    2.457E+00
     2.459E+00    2.461E+00    2.463E+00    2.465E+00    2.466E+00    2.468E+00    2.470E+00    2.472E+00    2.474E+00    2.475E+00
     2.477E+00    2.479E+00    2.481E+00    2.482E+00    2.484E+00    2.486E+00    2.488E+00    2.489E+00    2.491E+00    2.493E+00
     2.495E+00    2.496E+00    2.498E+00    2.500E+00    2.502E+00    2.503E+00    2.505E+00    2.507E+00    2.508E+00    2.510E+00
     2.512E+00    2.513E+00    2.515E+00    2.517E+00    2.518E+00    2.520E+00    2.522E+00    2.523E+00    2.525E+00    2.527E+00
     2.528E+00    2.530E+00    2.532E+00    2.533E+00    2.535E+00    2.537E+00    2.538E+00    2.540E+00    2.541E+00    2.543E+00
     2.545E+00    2.546E+00    2.548E+00    2.549E+00    2.551E+00    2.553E+00    2.554E+00    2.556E+00    2.557E+00    2.559E+00
     2.560E+00    2.562E+00    2.564E+00    2.565E+00    2.567E+00    2.568E+00    2.570E+00    2.571E+00    2.573E+00    2.574E+00
     2.576E+00    2.577E+00    2.579E+00    2.580E+00    2.582E+00    2.583E+00    2.585E+00    2.586E+00    2.588E+00    2.589E+00
     2.591E+00    2.592E+00    2.594E+00    2.595E+00    2.596E+00    2.598E+00    2.599E+00    2.601E+00    2.602E+00    2.604E+00
     2.605E+00    2.606E+00    2.608E+00    2.609E+00    2.611E+00    2.612E+00    2.613E+00    2.615E+00    2.616E+00    2.618E+00
     2.619E+00    2.620E+00    2.622E+00    2.623E+00    2.624E+00    2.626E+00    2.627E+00    2.628E+00    2.630E+00    2.631E+00
     2.632E+00    2.634E+00    2.635E+00    2.636E+00    2.637E+00    2.639E+00    2.640E+00    2.641E+00    2.643E+00    2.644E+00
     2.645E+00    2.646E+00    2.648E+00    2.649E+00    2.650E+00    2.651E+00    2.653E+00    2.654E+00    2.655E+00    2.656E+00
     2.657E+00    2.659E+00    2.660E+00    2.661E+00    2.662E+00    2.663E+00    2.665E+00    2.666E+00    2.667E+00    2.668E+00
     2.669E+00    2.671E+00    2.672E+00    2.673E+00    2.674E+00    2.675E+00    2.676E+00    2.678E+00    2.679E+00    2.680E+00
     2.681E+00    2.682E+00    2.683E+00    2.684E+00    2.685E+00    2.687E+00    2.688E+00    2.689E+00    2.690E+00    2.691E+00
     2.692E+00    2.693E+00    2.694E+00    2.695E+00    2.696E+00    2.697E+00    2.699E+00    2.700E+00    2.701E+00    2.702E+00
     2.703E+00    2.704E+00    2.705E+00    2.706E+00    2.707E+00    2.708E+00    2.709E+00    2.710E+00    2.711E+00    2.712E+00
     2.713E+00    2.714E+00    2.715E+00    2.716E+00    2.717E+00    2.718E+00    2.719E+00    2.720E+00    2.721E+00    2.722E+00
     2.723E+00    2.724E+00    2.725E+00    2.726E+00    2.727E+00    2.728E+00    2.729E+00    2.730E+00    2.731E+00    2.732E+00
     2.733E+00    2.734E+00    2.735E+00    2.736E+00    2.737E+00    2.738E+00    2.739E+00    2.740E+00    2.741E+00    2.742E+00
     2.742E+00    2.743E+00    2.744E+00    2.745E+00    2.746E+00    2.747E+00    2.748E+00    2.749E+00    2.750E+00    2.751E+00
     2.752E+00    2.753E+00    2.754E+00    2.754E+00    2.755E+00    2.756E+00    2.757E+00    2.758E+00    2.759E+00    2.760E+00
     2.761E+00    2.762E+00    2.762E+00    2.763E+00    2.764E+00    2.765E+00    2.766E+00    2.767E+00    2.768E+00    2.769E+00
     2.770E+00    2.770E+00    2.771E+00    2.772E+00    2.773E+00    2.774E+00    2.775E+00    2.776E+00    2.776E+00    2.777E+00
     2.778E+00    2.779E+00    2.780E+00    2.781E+00    2.782E+00    2.782E+00    2.783E+00    2.784E+00    2.785E+00    2.786E+00
     2.787E+00    2.787E+00    2.788E+00    2.789E+00    2.790E+00    2.791E+00    2.792E+00    2.792E+00
 Ala      Conc. = 3.14E+03
