 LCModel (Version 6.3-1L) Copyright: S.W. Provencher.          Ref.: Magn. Reson. Med. 30:672-679 (1993).                
 Slice#2 Row#11 Col#8  PD_05_press_1_raw_act
 36 lines in following concentration table = NCONC+1
    Conc.  %SD /Cr+PCr  Metabolite                                         
   54.828 261% 4.7E-02 Ala                                                 
    0.000 999%   0.000 Asp                                                 
  705.656  33%   0.610 Cr                                                  
  451.439  52%   0.390 PCr                                                 
  148.090  93%   0.128 GABA                                                
    0.000 999%   0.000 Glc                                                 
 1.53E+03  19%   1.319 Gln                                                 
 1.46E+03  23%   1.265 Glu                                                 
  354.387   5%   0.306 GPC                                                 
    0.000 999%   0.000 PCh                                                 
  458.552  15%   0.396 GSH                                                 
 1.61E+03  15%   1.387 Ins                                                 
  187.001  86%   0.162 Lac                                                 
 1.98E+03   8%   1.709 NAA                                                 
    1.405 999% 1.2E-03 NAAG                                                
   29.957  75% 2.6E-02 Scyllo                                              
    0.000 999%   0.000 Tau                                                 
    0.000 999%   0.000 -CrCH2                                              
  354.387   5%   0.306 GPC+PCh                                             
 1.98E+03   4%   1.711 NAA+NAAG                                            
 1.16E+03   5%   1.000 Cr+PCr                                              
 2.99E+03  18%   2.584 Glu+Gln                                             
 1.42E+03  39%   1.225 Lip13a                                              
   67.422 292% 5.8E-02 Lip13b                                              
   86.944 217% 7.5E-02 Lip09                                               
 1.03E+03  21%   0.892 MM09                                                
  213.117  59%   0.184 Lip20                                               
 2.08E+03  15%   1.795 MM20                                                
  343.281  38%   0.297 MM12                                                
 2.46E+03  14%   2.126 MM14                                                
 1.00E+03  20%   0.866 MM17                                                
 1.49E+03  31%   1.283 Lip13a+Lip13b                                       
 4.29E+03   8%   3.706 MM14+Lip13a+Lip13b+MM12                             
 1.12E+03  13%   0.967 MM09+Lip09                                          
 2.29E+03  13%   1.979 MM20+Lip20                                          
   6 lines in following misc. output table
  FWHM = 0.069 ppm    S/N =  11                                            
  Data shift = 0.038 ppm                                                   
  Ph:  -2 deg       5.5 deg/ppm                                            
  alphaB,S = 1.6E+00,   5.1E+01                                            
   14 spline knots.   Ns = 9(1)                                            
  (15) 9 infls.   (19) 1 extrs.                                            
  498 points on ppm-axis = NY
      4.000000     3.992357     3.984714     3.977070     3.969427     3.961784     3.954141     3.946497     3.938854     3.931211
      3.923568     3.915925     3.908281     3.900638     3.892995     3.885352     3.877708     3.870065     3.862422     3.854779
      3.847136     3.839492     3.831849     3.824206     3.816563     3.808919     3.801276     3.793633     3.785990     3.778347
      3.770703     3.763060     3.755417     3.747774     3.740130     3.732487     3.724844     3.717201     3.709558     3.701914
      3.694271     3.686628     3.678985     3.671341     3.663698     3.656055     3.648412     3.640769     3.633125     3.625482
      3.617839     3.610196     3.602552     3.594909     3.587266     3.579623     3.571980     3.564336     3.556693     3.549050
      3.541407     3.533763     3.526120     3.518477     3.510834     3.503191     3.495547     3.487904     3.480261     3.472618
      3.464974     3.457331     3.449688     3.442045     3.434402     3.426758     3.419115     3.411472     3.403829     3.396185
      3.388542     3.380899     3.373256     3.365613     3.357969     3.350326     3.342683     3.335040     3.327396     3.319753
      3.312110     3.304467     3.296824     3.289180     3.281537     3.273894     3.266251     3.258607     3.250964     3.243321
      3.235678     3.228034     3.220391     3.212748     3.205105     3.197462     3.189818     3.182175     3.174532     3.166889
      3.159245     3.151602     3.143959     3.136316     3.128673     3.121029     3.113386     3.105743     3.098100     3.090456
      3.082813     3.075170     3.067527     3.059884     3.052240     3.044597     3.036954     3.029311     3.021667     3.014024
      3.006381     2.998738     2.991095     2.983451     2.975808     2.968165     2.960522     2.952878     2.945235     2.937592
      2.929949     2.922306     2.914662     2.907019     2.899376     2.891733     2.884089     2.876446     2.868803     2.861160
      2.853517     2.845873     2.838230     2.830587     2.822944     2.815300     2.807657     2.800014     2.792371     2.784728
      2.777084     2.769441     2.761798     2.754155     2.746511     2.738868     2.731225     2.723582     2.715939     2.708295
      2.700652     2.693009     2.685366     2.677722     2.670079     2.662436     2.654793     2.647150     2.639506     2.631863
      2.624220     2.616577     2.608933     2.601290     2.593647     2.586004     2.578361     2.570717     2.563074     2.555431
      2.547788     2.540144     2.532501     2.524858     2.517215     2.509572     2.501928     2.494285     2.486642     2.478999
      2.471355     2.463712     2.456069     2.448426     2.440783     2.433139     2.425496     2.417853     2.410210     2.402566
      2.394923     2.387280     2.379637     2.371994     2.364350     2.356707     2.349064     2.341421     2.333777     2.326134
      2.318491     2.310848     2.303205     2.295561     2.287918     2.280275     2.272632     2.264988     2.257345     2.249702
      2.242059     2.234416     2.226772     2.219129     2.211486     2.203843     2.196199     2.188556     2.180913     2.173270
      2.165627     2.157983     2.150340     2.142697     2.135054     2.127410     2.119767     2.112124     2.104481     2.096838
      2.089194     2.081551     2.073908     2.066265     2.058621     2.050978     2.043335     2.035692     2.028049     2.020405
      2.012762     2.005119     1.997476     1.989833     1.982190     1.974546     1.966903     1.959260     1.951617     1.943974
      1.936331     1.928688     1.921045     1.913402     1.905759     1.898115     1.890472     1.882829     1.875186     1.867543
      1.859900     1.852257     1.844614     1.836971     1.829327     1.821684     1.814041     1.806398     1.798755     1.791112
      1.783469     1.775826     1.768183     1.760540     1.752896     1.745253     1.737610     1.729967     1.722324     1.714681
      1.707038     1.699395     1.691752     1.684108     1.676465     1.668822     1.661179     1.653536     1.645893     1.638250
      1.630607     1.622964     1.615321     1.607677     1.600034     1.592391     1.584748     1.577105     1.569462     1.561819
      1.554176     1.546533     1.538890     1.531246     1.523603     1.515960     1.508317     1.500674     1.493031     1.485388
      1.477745     1.470102     1.462458     1.454815     1.447172     1.439529     1.431886     1.424243     1.416600     1.408957
      1.401314     1.393671     1.386027     1.378384     1.370741     1.363098     1.355455     1.347812     1.340169     1.332526
      1.324883     1.317240     1.309596     1.301953     1.294310     1.286667     1.279024     1.271381     1.263738     1.256095
      1.248452     1.240808     1.233165     1.225522     1.217879     1.210236     1.202593     1.194950     1.187307     1.179664
      1.172021     1.164377     1.156734     1.149091     1.141448     1.133805     1.126162     1.118519     1.110876     1.103233
      1.095590     1.087946     1.080303     1.072660     1.065017     1.057374     1.049731     1.042088     1.034445     1.026802
      1.019158     1.011515     1.003872     0.996229     0.988586     0.980943     0.973300     0.965657     0.958014     0.950371
      0.942727     0.935084     0.927441     0.919798     0.912155     0.904512     0.896869     0.889226     0.881583     0.873940
      0.866296     0.858653     0.851010     0.843367     0.835724     0.828081     0.820438     0.812795     0.805152     0.797508
      0.789865     0.782222     0.774579     0.766936     0.759293     0.751650     0.744007     0.736364     0.728721     0.721077
      0.713434     0.705791     0.698148     0.690505     0.682862     0.675219     0.667576     0.659933     0.652290     0.644646
      0.637003     0.629360     0.621717     0.614074     0.606431     0.598788     0.591145     0.583502     0.575858     0.568215
      0.560572     0.552929     0.545286     0.537643     0.530000     0.522357     0.514714     0.507071     0.499427     0.491784
      0.484141     0.476498     0.468855     0.461212     0.453569     0.445925     0.438282     0.430639     0.422996     0.415353
      0.407710     0.400067     0.392424     0.384780     0.377137     0.369494     0.361851     0.354208     0.346565     0.338922
      0.331278     0.323635     0.315992     0.308349     0.300706     0.293063     0.285420     0.277777     0.270133     0.262490
      0.254847     0.247204     0.239561     0.231918     0.224275     0.216631     0.208988     0.201345
 NY phased data points follow
   1.79760E+01  1.31643E+01  1.55837E+01  1.32859E+01  1.88325E+01  2.25210E+01  2.52222E+01  3.00791E+01  3.26697E+01  3.31130E+01
   3.44551E+01  3.50844E+01  3.63510E+01  3.10963E+01  2.90317E+01  3.17025E+01  2.58319E+01  2.27297E+01  2.01239E+01  1.95286E+01
   1.91004E+01  1.88952E+01  1.95180E+01  1.71234E+01  2.04503E+01  1.91096E+01  2.20814E+01  2.13458E+01  2.28632E+01  1.80512E+01
   2.24165E+01  1.60843E+01  2.30925E+01  1.86080E+01  1.96755E+01  1.54984E+01  2.04053E+01  1.82761E+01  1.74580E+01  1.88861E+01
   1.65261E+01  1.93402E+01  1.56384E+01  1.63695E+01  1.88924E+01  2.34236E+01  1.86619E+01  1.85575E+01  2.16978E+01  1.91247E+01
   1.85367E+01  1.62977E+01  1.30042E+01  1.35841E+01  1.64336E+01  1.57369E+01  1.54826E+01  1.72837E+01  1.31802E+01  1.52512E+01
   1.15733E+01  1.32507E+01  1.10325E+01  8.08770E+00  7.36414E+00  9.50268E+00  6.07528E+00  1.01800E+01  1.00465E+01  1.02882E+01
   9.23889E+00  1.16167E+01  1.03591E+01  7.70881E+00  6.97681E+00  4.58492E+00  9.83421E+00  9.37169E+00  6.82943E+00  9.08964E+00
   9.21848E+00  1.00788E+01  9.21136E+00  7.23652E+00  7.36143E+00  2.51559E+00  3.92233E+00  9.78980E+00  4.62926E+00  9.39886E+00
   1.00898E+01  3.04059E+00  8.22485E+00  5.09066E+00  6.72081E+00  8.74024E+00  1.02494E+01  1.17406E+01  1.67611E+01  1.53392E+01
   1.97979E+01  2.46984E+01  2.78186E+01  2.51562E+01  3.09259E+01  2.90110E+01  2.57767E+01  2.26166E+01  1.89123E+01  1.81848E+01
   1.55160E+01  1.42154E+01  1.66121E+01  1.05239E+01  9.74674E+00  9.08321E+00  5.20748E+00  7.83173E+00  8.73462E+00  7.13523E+00
   1.15989E+01  9.08388E+00  1.38779E+01  1.95681E+01  2.44747E+01  3.19862E+01  3.01281E+01  3.29123E+01  3.33427E+01  3.51890E+01
   2.84195E+01  2.68915E+01  1.91061E+01  1.68638E+01  1.64648E+01  1.52252E+01  1.20237E+01  1.12672E+01  1.07617E+01  9.10841E+00
   8.92587E+00  7.29761E+00  4.56939E+00  4.33323E+00  5.96786E+00  9.13582E+00  5.94131E+00  6.78579E+00  2.59742E+00  5.15295E+00
   4.04876E+00  6.90471E+00  7.16652E+00  4.48927E+00  4.20111E+00  1.08526E+00  5.36502E+00  3.11792E+00  3.78651E+00  1.50531E-01
   3.42925E+00 -3.41026E-01  7.66732E-01  2.99707E+00  4.19507E+00  3.48292E-01  2.47964E-01  5.03813E+00  4.40049E+00  2.77247E+00
  -1.41580E+00 -1.55142E+00 -1.32851E+00 -4.63573E+00 -7.03765E+00 -3.55583E+00 -5.54319E+00 -3.20088E+00 -5.99700E+00 -4.47230E+00
   2.75297E-01 -3.95439E+00 -2.28739E+00 -3.94882E+00 -1.97488E+00 -2.33534E+00  4.23653E-01 -1.64991E+00 -6.13070E-01  5.83596E-01
  -5.04683E-01  3.90205E+00  6.55262E+00  6.10963E-01  2.68323E+00  4.29924E+00  1.94645E-01  1.81931E+00  6.61414E+00  4.69144E+00
   3.28367E+00  2.45888E+00 -3.05022E+00  2.28106E+00  3.73315E+00  2.02447E+00 -1.31537E+00  1.03237E+00 -6.35108E+00 -5.55011E+00
  -4.72077E-02  2.14184E+00  3.37872E+00  3.39543E+00  4.72365E+00  4.30460E+00  1.06649E+01  6.13568E+00  3.05635E+00  2.31429E+00
   3.53835E+00  3.42471E+00  2.85779E+00  4.27128E+00  3.25598E+00  2.80485E+00  7.77768E+00  9.28745E+00  4.69640E+00  6.10485E+00
   7.07909E+00  5.19460E+00  7.92522E+00  3.19054E+00  5.25884E+00  5.21299E+00  7.68221E+00  3.16459E+00  1.15770E+01  6.15965E+00
   5.53533E+00  2.83319E+00  6.32446E+00  6.01031E+00  8.25538E+00  1.07052E+01  1.12686E+01  1.07036E+01  1.00594E+01  1.46659E+01
   1.34553E+01  1.69764E+01  1.20774E+01  2.07186E+01  2.23965E+01  3.54442E+01  4.01734E+01  4.83824E+01  5.66340E+01  5.63186E+01
   5.92913E+01  5.97712E+01  5.23749E+01  3.76005E+01  3.61230E+01  3.00335E+01  2.62074E+01  2.10284E+01  1.54701E+01  1.28480E+01
   1.13121E+01  1.04845E+01  9.05412E+00  5.17290E+00  8.40915E+00  6.20609E+00  1.10600E+01  7.46379E+00  5.60535E+00  6.91618E+00
   8.89163E+00  6.44328E+00  1.26967E+00  3.69323E+00  4.33542E+00  5.90340E+00  3.81281E+00  3.52869E+00  2.42256E+00  5.91605E+00
   5.55123E+00  6.24831E+00  6.97473E+00  7.49060E+00  5.48335E+00  4.56501E+00  7.55514E+00  2.76939E+00  6.18337E+00  6.50264E+00
   5.70482E+00  8.05624E+00  3.96870E+00  5.43650E+00  8.78048E+00  1.71680E+00  7.68851E+00  7.57862E+00  1.01841E+01  1.20144E+01
   7.79884E+00  9.91421E+00  6.61393E+00  1.15722E+01  7.57125E+00  8.60367E+00  9.86789E+00  1.05303E+01  7.33536E+00  6.80318E+00
   1.13531E+01  1.10865E+01  1.07485E+01  1.07225E+01  1.35191E+01  1.42376E+01  1.33451E+01  1.39509E+01  1.65105E+01  2.03991E+01
   1.34105E+01  1.98945E+01  1.24755E+01  1.67106E+01  1.85620E+01  1.53332E+01  1.91659E+01  1.65311E+01  1.90169E+01  1.70915E+01
   2.08419E+01  1.71331E+01  1.47747E+01  1.75194E+01  1.61830E+01  1.32344E+01  1.67977E+01  1.38154E+01  1.37746E+01  1.34774E+01
   1.13687E+01  1.39639E+01  1.16559E+01  1.10417E+01  1.12474E+01  1.44376E+01  1.37908E+01  1.34876E+01  1.04720E+01  9.68705E+00
   1.20031E+01  9.55763E+00  9.08956E+00  9.15545E+00  5.82222E+00  1.09932E+01  5.41934E+00  8.15706E+00  7.29078E+00  7.96523E+00
   7.67550E+00  8.50207E+00  7.81113E+00  6.97263E+00  2.73099E+00  7.63745E+00  6.41821E+00  4.78639E+00 -7.03710E-01  3.91572E+00
   9.62125E-01  5.28815E+00  6.08089E+00  1.52664E+00  4.81387E+00  4.64782E+00  3.63171E+00  5.38054E+00  5.57665E+00  6.54776E+00
   7.15887E+00  6.83371E+00  6.98781E+00  1.27490E+00  5.55697E+00  6.96802E+00  4.05399E+00  5.38403E+00  5.72067E+00  4.49241E+00
   3.18142E+00  5.85767E+00  5.37910E+00  8.91602E+00  8.65302E+00  4.46742E+00  7.36436E+00  1.13060E+01  7.70914E+00  7.76860E+00
   5.90180E+00  7.59563E+00  5.30463E+00  4.66918E+00  4.30595E+00  4.77722E+00  6.99096E+00  5.79014E+00  2.14930E+00  3.82432E+00
   2.04036E+00  1.99115E+00  4.41585E+00  1.23569E+00  3.36909E-01  2.03362E+00  2.12580E-01  8.15365E-01 -3.17549E+00  9.87196E-01
  -4.33906E+00  6.31416E-01  8.85848E-01  7.99741E-01  4.59528E-01  3.12360E+00  1.53272E+00  4.84323E-01  2.65942E+00 -1.35677E+00
   2.29426E+00  1.67155E-01 -1.55853E+00 -2.04551E+00 -1.57836E+00  1.16386E+00  3.52325E+00 -5.47639E-01  3.22862E+00  1.42472E+00
  -2.30947E+00  4.82506E-01  5.43028E-01  3.06525E+00  9.62473E-01 -7.30480E-01  2.56837E+00  3.80042E+00  3.86883E+00 -9.74127E-02
  -9.92744E-01 -2.01351E+00  2.10265E+00 -2.01130E+00 -1.66530E+00 -5.95146E-02 -9.61158E-01 -4.08679E+00  3.28624E+00  2.33798E-01
  -1.57949E+00 -2.76767E+00  2.15937E+00  7.27569E-01 -7.57054E-01 -1.92028E+00  3.60266E+00  2.59770E+00  1.51367E+00  1.74161E-01
   1.47940E+00  7.36436E-01  7.73671E-01 -6.09836E-01 -4.37376E+00  7.23261E-01  9.27727E-01  1.30767E+00 -9.42194E-01  4.12675E-01
   4.10582E-01 -9.62392E-01  2.55098E-01 -3.18507E+00 -2.70219E+00  4.52367E-01 -5.95861E-02  1.12396E+00
 NY points of the fit to the data follow
   1.60365E+01  1.61426E+01  1.64219E+01  1.72420E+01  1.87692E+01  2.07207E+01  2.31955E+01  2.60963E+01  2.88079E+01  3.10382E+01
   3.24814E+01  3.28284E+01  3.22433E+01  3.07955E+01  2.84938E+01  2.60712E+01  2.41656E+01  2.26898E+01  2.13996E+01  1.99857E+01
   1.86285E+01  1.76296E+01  1.65376E+01  1.61014E+01  1.65692E+01  1.75754E+01  1.88772E+01  2.01558E+01  2.13097E+01  2.24610E+01
   2.30547E+01  2.26264E+01  2.14090E+01  1.98425E+01  1.82744E+01  1.69452E+01  1.58651E+01  1.51518E+01  1.51779E+01  1.52396E+01
   1.53193E+01  1.58245E+01  1.66732E+01  1.78453E+01  1.90181E+01  1.98161E+01  2.00851E+01  2.00458E+01  1.95750E+01  1.83018E+01
   1.64239E+01  1.48594E+01  1.41057E+01  1.37714E+01  1.34772E+01  1.33712E+01  1.34569E+01  1.32582E+01  1.28466E+01  1.26713E+01
   1.26444E+01  1.23677E+01  1.18801E+01  1.14086E+01  1.10615E+01  1.09106E+01  1.09328E+01  1.11198E+01  1.13751E+01  1.14802E+01
   1.14110E+01  1.12918E+01  1.11958E+01  1.10879E+01  1.08659E+01  1.06117E+01  1.04114E+01  1.02308E+01  9.98065E+00  9.64296E+00
   9.32011E+00  8.97191E+00  8.49411E+00  7.95655E+00  7.37431E+00  6.83540E+00  6.40075E+00  6.06001E+00  5.77050E+00  5.65702E+00
   5.84026E+00  6.18029E+00  6.45844E+00  6.64738E+00  7.02490E+00  8.31051E+00  9.71875E+00  1.11961E+01  1.37324E+01  1.73784E+01
   2.15544E+01  2.54717E+01  2.80243E+01  2.93764E+01  3.03588E+01  2.97972E+01  2.64793E+01  2.21751E+01  1.90265E+01  1.70302E+01
   1.52655E+01  1.34852E+01  1.19918E+01  1.05619E+01  8.33469E+00  6.74328E+00  6.34215E+00  6.35067E+00  6.97201E+00  8.83736E+00
   1.07080E+01  1.29363E+01  1.65090E+01  2.12219E+01  2.63130E+01  3.07586E+01  3.34649E+01  3.50902E+01  3.61952E+01  3.49619E+01
   3.06337E+01  2.55529E+01  2.18339E+01  1.91887E+01  1.66213E+01  1.41525E+01  1.23265E+01  1.06931E+01  8.36791E+00  7.21109E+00
   7.04872E+00  6.97321E+00  6.76534E+00  6.41207E+00  6.13724E+00  5.98004E+00  5.81478E+00  5.64308E+00  5.44160E+00  5.16107E+00
   4.88211E+00  4.56329E+00  4.27000E+00  4.06378E+00  3.88383E+00  3.69191E+00  3.49909E+00  3.22724E+00  2.95741E+00  2.81024E+00
   2.71884E+00  2.58576E+00  2.47153E+00  2.41098E+00  2.35202E+00  2.17669E+00  1.77731E+00  1.22954E+00  7.80054E-01  4.72126E-01
   1.63854E-01 -1.44711E-01 -5.15745E-01 -8.10118E-01 -1.01198E+00 -1.24157E+00 -1.42453E+00 -1.49964E+00 -1.46588E+00 -1.36227E+00
  -1.37034E+00 -1.48555E+00 -1.43403E+00 -1.08185E+00 -5.87451E-01  1.09466E-02  6.93293E-01  1.26252E+00  1.72381E+00  2.08022E+00
   2.17672E+00  2.01805E+00  1.66780E+00  1.26408E+00  1.11733E+00  1.47436E+00  2.24531E+00  3.33103E+00  4.49434E+00  5.54461E+00
   6.24668E+00  6.51054E+00  6.33780E+00  5.39164E+00  3.77060E+00  1.99155E+00  3.40207E-01 -8.00518E-01 -1.30776E+00 -1.35977E+00
  -5.77576E-01  1.27670E+00  3.48260E+00  4.96378E+00  5.53777E+00  5.84774E+00  5.95192E+00  5.27101E+00  3.89902E+00  2.76890E+00
   2.33216E+00  2.14793E+00  2.19266E+00  2.62343E+00  3.52741E+00  4.56731E+00  4.91867E+00  4.88854E+00  5.04360E+00  5.20534E+00
   5.32468E+00  5.51814E+00  6.06656E+00  6.92286E+00  7.64826E+00  7.93443E+00  8.12816E+00  8.38633E+00  8.32450E+00  7.73181E+00
   7.05349E+00  6.64001E+00  6.20868E+00  5.80100E+00  5.98238E+00  6.86236E+00  7.75641E+00  8.27724E+00  8.85736E+00  9.58668E+00
   1.08083E+01  1.39530E+01  1.76517E+01  2.11886E+01  2.64560E+01  3.36306E+01  4.16314E+01  4.90942E+01  5.39773E+01  5.64778E+01
   5.84025E+01  5.75604E+01  5.12124E+01  4.23753E+01  3.55098E+01  3.09214E+01  2.68151E+01  2.26821E+01  1.92828E+01  1.61881E+01
   1.15488E+01  7.97360E+00  6.86898E+00  6.40698E+00  6.08925E+00  5.82550E+00  5.58743E+00  5.29889E+00  5.00448E+00  4.74021E+00
   4.52044E+00  4.33669E+00  4.20741E+00  4.11835E+00  4.04763E+00  4.00970E+00  4.01273E+00  4.04846E+00  4.11348E+00  4.20654E+00
   4.33116E+00  4.48906E+00  4.66247E+00  4.85223E+00  5.06169E+00  5.28301E+00  5.51104E+00  5.74721E+00  5.98868E+00  6.22643E+00
   6.45456E+00  6.67157E+00  6.87284E+00  7.05278E+00  7.21221E+00  7.34862E+00  7.46219E+00  7.55599E+00  7.63458E+00  7.70373E+00
   7.77042E+00  7.84293E+00  7.93026E+00  8.04136E+00  8.18556E+00  8.37234E+00  8.61097E+00  8.91213E+00  9.28759E+00  9.71612E+00
   1.01908E+01  1.07331E+01  1.13235E+01  1.19281E+01  1.25182E+01  1.30695E+01  1.36062E+01  1.41482E+01  1.46296E+01  1.50454E+01
   1.54677E+01  1.59324E+01  1.63991E+01  1.68030E+01  1.71112E+01  1.73536E+01  1.75363E+01  1.76098E+01  1.76155E+01  1.75285E+01
   1.73478E+01  1.71682E+01  1.69440E+01  1.66029E+01  1.61020E+01  1.53999E+01  1.46604E+01  1.39716E+01  1.32054E+01  1.24196E+01
   1.18880E+01  1.17473E+01  1.18585E+01  1.19797E+01  1.20561E+01  1.21902E+01  1.22658E+01  1.20361E+01  1.16452E+01  1.12841E+01
   1.09093E+01  1.04940E+01  1.00335E+01  9.57087E+00  9.11647E+00  8.55976E+00  7.99540E+00  7.51161E+00  7.07607E+00  6.67360E+00
   6.29881E+00  5.94967E+00  5.62578E+00  5.32754E+00  5.05581E+00  4.81154E+00  4.59571E+00  4.40934E+00  4.25337E+00  4.12866E+00
   4.03589E+00  3.97558E+00  3.94815E+00  3.95390E+00  3.99298E+00  4.06528E+00  4.17031E+00  4.30717E+00  4.47454E+00  4.67057E+00
   4.89273E+00  5.13776E+00  5.40157E+00  5.67930E+00  5.96541E+00  6.25371E+00  6.53741E+00  6.80937E+00  7.06225E+00  7.28886E+00
   7.48245E+00  7.63693E+00  7.74710E+00  7.80888E+00  7.81955E+00  7.77788E+00  7.68418E+00  7.54024E+00  7.34916E+00  7.11524E+00
   6.84382E+00  6.54100E+00  6.21333E+00  5.86753E+00  5.51019E+00  5.14756E+00  4.78543E+00  4.42894E+00  4.08247E+00  3.74952E+00
   3.43276E+00  3.13412E+00  2.85482E+00  2.59547E+00  2.35610E+00  2.13627E+00  1.93519E+00  1.75188E+00  1.58519E+00  1.43390E+00
   1.29671E+00  1.17230E+00  1.05943E+00  9.56929E-01  8.63760E-01  7.78935E-01  7.01529E-01  6.30701E-01  5.65727E-01  5.05996E-01
   4.50970E-01  4.00145E-01  3.53048E-01  3.09275E-01  2.68497E-01  2.30446E-01  1.94876E-01  1.61534E-01  1.30183E-01  1.00634E-01
   7.27526E-02  4.64280E-02  2.15314E-02 -2.08349E-03 -2.45406E-02 -4.59230E-02 -6.62852E-02 -8.56811E-02 -1.04194E-01 -1.21918E-01
  -1.38919E-01 -1.55223E-01 -1.70847E-01 -1.85832E-01 -2.00244E-01 -2.14145E-01 -2.27565E-01 -2.40508E-01 -2.52978E-01 -2.65013E-01
  -2.76665E-01 -2.87973E-01 -2.98933E-01 -3.09541E-01 -3.19808E-01 -3.29771E-01 -3.39474E-01 -3.48931E-01 -3.58131E-01 -3.67063E-01
  -3.75745E-01 -3.84218E-01 -3.92510E-01 -4.00615E-01 -4.08514E-01 -4.16205E-01 -4.23717E-01 -4.31083E-01 -4.38314E-01 -4.45393E-01
  -4.52301E-01 -4.59045E-01 -4.65657E-01 -4.72161E-01 -4.78550E-01 -4.84796E-01 -4.90885E-01 -4.96832E-01
 NY background values follow
     1.098E+01    1.092E+01    1.087E+01    1.081E+01    1.075E+01    1.069E+01    1.063E+01    1.057E+01    1.051E+01    1.046E+01
     1.040E+01    1.034E+01    1.028E+01    1.022E+01    1.016E+01    1.010E+01    1.005E+01    9.987E+00    9.929E+00    9.870E+00
     9.812E+00    9.754E+00    9.695E+00    9.637E+00    9.578E+00    9.520E+00    9.462E+00    9.403E+00    9.345E+00    9.287E+00
     9.229E+00    9.171E+00    9.112E+00    9.054E+00    8.996E+00    8.938E+00    8.880E+00    8.822E+00    8.764E+00    8.707E+00
     8.649E+00    8.591E+00    8.533E+00    8.476E+00    8.418E+00    8.361E+00    8.303E+00    8.246E+00    8.189E+00    8.131E+00
     8.074E+00    8.017E+00    7.960E+00    7.903E+00    7.846E+00    7.790E+00    7.733E+00    7.676E+00    7.620E+00    7.563E+00
     7.507E+00    7.451E+00    7.395E+00    7.339E+00    7.283E+00    7.227E+00    7.172E+00    7.116E+00    7.061E+00    7.005E+00
     6.950E+00    6.895E+00    6.840E+00    6.786E+00    6.731E+00    6.676E+00    6.622E+00    6.568E+00    6.514E+00    6.460E+00
     6.406E+00    6.353E+00    6.299E+00    6.246E+00    6.193E+00    6.140E+00    6.087E+00    6.034E+00    5.982E+00    5.930E+00
     5.878E+00    5.826E+00    5.774E+00    5.723E+00    5.671E+00    5.620E+00    5.569E+00    5.518E+00    5.468E+00    5.417E+00
     5.367E+00    5.317E+00    5.267E+00    5.218E+00    5.168E+00    5.119E+00    5.070E+00    5.021E+00    4.973E+00    4.924E+00
     4.876E+00    4.828E+00    4.780E+00    4.733E+00    4.685E+00    4.638E+00    4.591E+00    4.545E+00    4.498E+00    4.452E+00
     4.406E+00    4.360E+00    4.314E+00    4.269E+00    4.224E+00    4.179E+00    4.134E+00    4.090E+00    4.046E+00    4.001E+00
     3.958E+00    3.914E+00    3.871E+00    3.828E+00    3.785E+00    3.742E+00    3.700E+00    3.658E+00    3.616E+00    3.574E+00
     3.533E+00    3.491E+00    3.451E+00    3.410E+00    3.369E+00    3.329E+00    3.289E+00    3.250E+00    3.210E+00    3.171E+00
     3.132E+00    3.093E+00    3.055E+00    3.017E+00    2.979E+00    2.941E+00    2.904E+00    2.867E+00    2.830E+00    2.793E+00
     2.757E+00    2.721E+00    2.685E+00    2.649E+00    2.614E+00    2.579E+00    2.544E+00    2.510E+00    2.476E+00    2.442E+00
     2.408E+00    2.375E+00    2.341E+00    2.309E+00    2.276E+00    2.244E+00    2.212E+00    2.180E+00    2.149E+00    2.118E+00
     2.087E+00    2.056E+00    2.026E+00    1.996E+00    1.966E+00    1.937E+00    1.908E+00    1.879E+00    1.850E+00    1.822E+00
     1.794E+00    1.766E+00    1.738E+00    1.711E+00    1.684E+00    1.658E+00    1.631E+00    1.605E+00    1.579E+00    1.553E+00
     1.528E+00    1.503E+00    1.478E+00    1.453E+00    1.429E+00    1.405E+00    1.381E+00    1.357E+00    1.334E+00    1.310E+00
     1.287E+00    1.265E+00    1.242E+00    1.220E+00    1.198E+00    1.176E+00    1.155E+00    1.133E+00    1.112E+00    1.091E+00
     1.070E+00    1.050E+00    1.030E+00    1.010E+00    9.899E-01    9.703E-01    9.509E-01    9.317E-01    9.127E-01    8.939E-01
     8.754E-01    8.570E-01    8.388E-01    8.208E-01    8.030E-01    7.854E-01    7.680E-01    7.507E-01    7.337E-01    7.168E-01
     7.001E-01    6.836E-01    6.673E-01    6.511E-01    6.351E-01    6.193E-01    6.036E-01    5.881E-01    5.728E-01    5.576E-01
     5.425E-01    5.277E-01    5.130E-01    4.984E-01    4.840E-01    4.697E-01    4.556E-01    4.416E-01    4.277E-01    4.140E-01
     4.004E-01    3.870E-01    3.737E-01    3.605E-01    3.474E-01    3.345E-01    3.216E-01    3.089E-01    2.964E-01    2.839E-01
     2.715E-01    2.593E-01    2.471E-01    2.351E-01    2.232E-01    2.114E-01    1.996E-01    1.880E-01    1.765E-01    1.651E-01
     1.538E-01    1.426E-01    1.314E-01    1.204E-01    1.095E-01    9.864E-02    8.789E-02    7.724E-02    6.668E-02    5.621E-02
     4.582E-02    3.553E-02    2.532E-02    1.519E-02    5.149E-03   -4.808E-03   -1.468E-02   -2.448E-02   -3.419E-02   -4.383E-02
    -5.339E-02   -6.287E-02   -7.227E-02   -8.160E-02   -9.086E-02   -1.000E-01   -1.092E-01   -1.182E-01   -1.272E-01   -1.361E-01
    -1.449E-01   -1.537E-01   -1.624E-01   -1.710E-01   -1.796E-01   -1.881E-01   -1.966E-01   -2.050E-01   -2.133E-01   -2.216E-01
    -2.299E-01   -2.380E-01   -2.461E-01   -2.542E-01   -2.622E-01   -2.701E-01   -2.780E-01   -2.858E-01   -2.935E-01   -3.012E-01
    -3.089E-01   -3.165E-01   -3.240E-01   -3.315E-01   -3.389E-01   -3.463E-01   -3.536E-01   -3.609E-01   -3.681E-01   -3.752E-01
    -3.823E-01   -3.893E-01   -3.963E-01   -4.033E-01   -4.101E-01   -4.170E-01   -4.237E-01   -4.305E-01   -4.371E-01   -4.437E-01
    -4.503E-01   -4.568E-01   -4.633E-01   -4.697E-01   -4.760E-01   -4.823E-01   -4.886E-01   -4.948E-01   -5.010E-01   -5.071E-01
    -5.131E-01   -5.191E-01   -5.251E-01   -5.310E-01   -5.368E-01   -5.426E-01   -5.484E-01   -5.541E-01   -5.597E-01   -5.653E-01
    -5.709E-01   -5.764E-01   -5.818E-01   -5.872E-01   -5.926E-01   -5.978E-01   -6.031E-01   -6.082E-01   -6.134E-01   -6.184E-01
    -6.234E-01   -6.284E-01   -6.333E-01   -6.381E-01   -6.429E-01   -6.476E-01   -6.523E-01   -6.569E-01   -6.615E-01   -6.660E-01
    -6.704E-01   -6.748E-01   -6.791E-01   -6.834E-01   -6.876E-01   -6.917E-01   -6.958E-01   -6.998E-01   -7.038E-01   -7.076E-01
    -7.115E-01   -7.152E-01   -7.190E-01   -7.226E-01   -7.262E-01   -7.297E-01   -7.331E-01   -7.365E-01   -7.399E-01   -7.431E-01
    -7.463E-01   -7.494E-01   -7.525E-01   -7.555E-01   -7.585E-01   -7.614E-01   -7.642E-01   -7.670E-01   -7.698E-01   -7.724E-01
    -7.751E-01   -7.776E-01   -7.802E-01   -7.826E-01   -7.851E-01   -7.875E-01   -7.898E-01   -7.921E-01   -7.943E-01   -7.965E-01
    -7.987E-01   -8.008E-01   -8.029E-01   -8.049E-01   -8.069E-01   -8.089E-01   -8.108E-01   -8.127E-01   -8.146E-01   -8.164E-01
    -8.182E-01   -8.199E-01   -8.217E-01   -8.234E-01   -8.250E-01   -8.267E-01   -8.283E-01   -8.299E-01   -8.315E-01   -8.330E-01
    -8.345E-01   -8.360E-01   -8.375E-01   -8.390E-01   -8.404E-01   -8.418E-01   -8.432E-01   -8.446E-01   -8.460E-01   -8.474E-01
    -8.487E-01   -8.500E-01   -8.513E-01   -8.526E-01   -8.539E-01   -8.552E-01   -8.565E-01   -8.577E-01   -8.590E-01   -8.602E-01
    -8.614E-01   -8.626E-01   -8.638E-01   -8.650E-01   -8.662E-01   -8.674E-01   -8.685E-01   -8.697E-01   -8.709E-01   -8.720E-01
    -8.732E-01   -8.743E-01   -8.755E-01   -8.766E-01   -8.778E-01   -8.789E-01   -8.801E-01   -8.812E-01   -8.823E-01   -8.835E-01
    -8.846E-01   -8.858E-01   -8.869E-01   -8.881E-01   -8.892E-01   -8.904E-01   -8.916E-01   -8.927E-01
 Ala      Conc. = 5.48E+01
