 LCModel (Version 6.3-1L) Copyright: S.W. Provencher.          Ref.: Magn. Reson. Med. 30:672-679 (1993).                
 Slice#1 Row#13 Col#3  PD_05_press_1_raw_act
 36 lines in following concentration table = NCONC+1
    Conc.  %SD /Cr+PCr  Metabolite                                         
    0.000 999%   0.000 Ala                                                 
    7.729  59%   0.233 Asp                                                 
    0.000 999%   0.000 Cr                                                  
   33.132  44%   1.000 PCr                                                 
    4.737  58%   0.143 GABA                                                
    4.758  58%   0.144 Glc                                                 
    8.620 645%   0.260 Gln                                                 
   95.252  65%   2.875 Glu                                                 
   14.829  39%   0.448 GPC                                                 
    0.000 999%   0.000 PCh                                                 
   47.430  44%   1.432 GSH                                                 
   94.157  71%   2.842 Ins                                                 
    0.000 999%   0.000 Lac                                                 
   54.326  34%   1.640 NAA                                                 
   22.789  85%   0.688 NAAG                                                
    1.476  62% 4.5E-02 Scyllo                                              
    7.275  63%   0.220 Tau                                                 
    2.454 257% 7.4E-02 -CrCH2                                              
   14.829  39%   0.448 GPC+PCh                                             
   77.115  28%   2.327 NAA+NAAG                                            
   33.132  44%   1.000 Cr+PCr                                              
  103.871  77%   3.135 Glu+Gln                                             
    0.000 999%   0.000 Lip13a                                              
    0.000 999%   0.000 Lip13b                                              
    0.000 999%   0.000 Lip09                                               
  227.759  21%   6.874 MM09                                                
    3.333 404%   0.101 Lip20                                               
  405.492  22%  12.239 MM20                                                
   67.685  38%   2.043 MM12                                                
    0.000 999%   0.000 MM14                                                
  183.460  28%   5.537 MM17                                                
    0.000 999%   0.000 Lip13a+Lip13b                                       
   67.685  38%   2.043 MM14+Lip13a+Lip13b+MM12                             
  227.759  21%   6.874 MM09+Lip09                                          
  408.825  22%  12.339 MM20+Lip20                                          
   6 lines in following misc. output table
  FWHM = 0.046 ppm    S/N =   1                                            
  Data shift = 0.046 ppm                                                   
  Ph:  63 deg     -19.7 deg/ppm                                            
  alphaB,S = 7.7E-01,   3.8E+01                                            
   14 spline knots.   Ns = 5(1)                                            
  ( 3) 2 infls.   ( 2) 1 extrs.                                            
  498 points on ppm-axis = NY
      4.000000     3.992357     3.984714     3.977070     3.969427     3.961784     3.954141     3.946497     3.938854     3.931211
      3.923568     3.915925     3.908281     3.900638     3.892995     3.885352     3.877708     3.870065     3.862422     3.854779
      3.847136     3.839492     3.831849     3.824206     3.816563     3.808919     3.801276     3.793633     3.785990     3.778347
      3.770703     3.763060     3.755417     3.747774     3.740130     3.732487     3.724844     3.717201     3.709558     3.701914
      3.694271     3.686628     3.678985     3.671341     3.663698     3.656055     3.648412     3.640769     3.633125     3.625482
      3.617839     3.610196     3.602552     3.594909     3.587266     3.579623     3.571980     3.564336     3.556693     3.549050
      3.541407     3.533763     3.526120     3.518477     3.510834     3.503191     3.495547     3.487904     3.480261     3.472618
      3.464974     3.457331     3.449688     3.442045     3.434402     3.426758     3.419115     3.411472     3.403829     3.396185
      3.388542     3.380899     3.373256     3.365613     3.357969     3.350326     3.342683     3.335040     3.327396     3.319753
      3.312110     3.304467     3.296824     3.289180     3.281537     3.273894     3.266251     3.258607     3.250964     3.243321
      3.235678     3.228034     3.220391     3.212748     3.205105     3.197462     3.189818     3.182175     3.174532     3.166889
      3.159245     3.151602     3.143959     3.136316     3.128673     3.121029     3.113386     3.105743     3.098100     3.090456
      3.082813     3.075170     3.067527     3.059884     3.052240     3.044597     3.036954     3.029311     3.021667     3.014024
      3.006381     2.998738     2.991095     2.983451     2.975808     2.968165     2.960522     2.952878     2.945235     2.937592
      2.929949     2.922306     2.914662     2.907019     2.899376     2.891733     2.884089     2.876446     2.868803     2.861160
      2.853517     2.845873     2.838230     2.830587     2.822944     2.815300     2.807657     2.800014     2.792371     2.784728
      2.777084     2.769441     2.761798     2.754155     2.746511     2.738868     2.731225     2.723582     2.715939     2.708295
      2.700652     2.693009     2.685366     2.677722     2.670079     2.662436     2.654793     2.647150     2.639506     2.631863
      2.624220     2.616577     2.608933     2.601290     2.593647     2.586004     2.578361     2.570717     2.563074     2.555431
      2.547788     2.540144     2.532501     2.524858     2.517215     2.509572     2.501928     2.494285     2.486642     2.478999
      2.471355     2.463712     2.456069     2.448426     2.440783     2.433139     2.425496     2.417853     2.410210     2.402566
      2.394923     2.387280     2.379637     2.371994     2.364350     2.356707     2.349064     2.341421     2.333777     2.326134
      2.318491     2.310848     2.303205     2.295561     2.287918     2.280275     2.272632     2.264988     2.257345     2.249702
      2.242059     2.234416     2.226772     2.219129     2.211486     2.203843     2.196199     2.188556     2.180913     2.173270
      2.165627     2.157983     2.150340     2.142697     2.135054     2.127410     2.119767     2.112124     2.104481     2.096838
      2.089194     2.081551     2.073908     2.066265     2.058621     2.050978     2.043335     2.035692     2.028049     2.020405
      2.012762     2.005119     1.997476     1.989833     1.982190     1.974546     1.966903     1.959260     1.951617     1.943974
      1.936331     1.928688     1.921045     1.913402     1.905759     1.898115     1.890472     1.882829     1.875186     1.867543
      1.859900     1.852257     1.844614     1.836971     1.829327     1.821684     1.814041     1.806398     1.798755     1.791112
      1.783469     1.775826     1.768183     1.760540     1.752896     1.745253     1.737610     1.729967     1.722324     1.714681
      1.707038     1.699395     1.691752     1.684108     1.676465     1.668822     1.661179     1.653536     1.645893     1.638250
      1.630607     1.622964     1.615321     1.607677     1.600034     1.592391     1.584748     1.577105     1.569462     1.561819
      1.554176     1.546533     1.538890     1.531246     1.523603     1.515960     1.508317     1.500674     1.493031     1.485388
      1.477745     1.470102     1.462458     1.454815     1.447172     1.439529     1.431886     1.424243     1.416600     1.408957
      1.401314     1.393671     1.386027     1.378384     1.370741     1.363098     1.355455     1.347812     1.340169     1.332526
      1.324883     1.317240     1.309596     1.301953     1.294310     1.286667     1.279024     1.271381     1.263738     1.256095
      1.248452     1.240808     1.233165     1.225522     1.217879     1.210236     1.202593     1.194950     1.187307     1.179664
      1.172021     1.164377     1.156734     1.149091     1.141448     1.133805     1.126162     1.118519     1.110876     1.103233
      1.095590     1.087946     1.080303     1.072660     1.065017     1.057374     1.049731     1.042088     1.034445     1.026802
      1.019158     1.011515     1.003872     0.996229     0.988586     0.980943     0.973300     0.965657     0.958014     0.950371
      0.942727     0.935084     0.927441     0.919798     0.912155     0.904512     0.896869     0.889226     0.881583     0.873940
      0.866296     0.858653     0.851010     0.843367     0.835724     0.828081     0.820438     0.812795     0.805152     0.797508
      0.789865     0.782222     0.774579     0.766936     0.759293     0.751650     0.744007     0.736364     0.728721     0.721077
      0.713434     0.705791     0.698148     0.690505     0.682862     0.675219     0.667576     0.659933     0.652290     0.644646
      0.637003     0.629360     0.621717     0.614074     0.606431     0.598788     0.591145     0.583502     0.575858     0.568215
      0.560572     0.552929     0.545286     0.537643     0.530000     0.522357     0.514714     0.507071     0.499427     0.491784
      0.484141     0.476498     0.468855     0.461212     0.453569     0.445925     0.438282     0.430639     0.422996     0.415353
      0.407710     0.400067     0.392424     0.384780     0.377137     0.369494     0.361851     0.354208     0.346565     0.338922
      0.331278     0.323635     0.315992     0.308349     0.300706     0.293063     0.285420     0.277777     0.270133     0.262490
      0.254847     0.247204     0.239561     0.231918     0.224275     0.216631     0.208988     0.201345
 NY phased data points follow
   2.47813E+01  2.59925E+01  2.32961E+01  2.32047E+01  2.37279E+01  2.28118E+01  2.49737E+01  2.18940E+01  2.01257E+01  2.06677E+01
   2.16727E+01  2.16037E+01  1.79106E+01  2.12276E+01  1.97310E+01  2.11022E+01  1.90552E+01  1.98245E+01  1.95474E+01  1.93203E+01
   2.03895E+01  2.05233E+01  2.10922E+01  2.02930E+01  2.09666E+01  2.05572E+01  2.03591E+01  2.02553E+01  2.09903E+01  2.07204E+01
   2.02974E+01  2.07615E+01  1.91877E+01  1.99991E+01  1.96360E+01  1.78867E+01  2.08242E+01  1.79304E+01  1.91764E+01  2.04755E+01
   1.65456E+01  1.98858E+01  1.75245E+01  1.81589E+01  1.84753E+01  1.74498E+01  1.89139E+01  1.92155E+01  1.69723E+01  1.75668E+01
   1.69067E+01  1.76857E+01  1.50605E+01  1.46323E+01  1.65587E+01  1.65209E+01  1.57877E+01  1.58838E+01  1.71340E+01  1.76805E+01
   1.77463E+01  1.62751E+01  1.53355E+01  1.68361E+01  1.61466E+01  1.65835E+01  1.57142E+01  1.62193E+01  1.49822E+01  1.57608E+01
   1.54155E+01  1.46951E+01  1.52918E+01  1.56521E+01  1.61513E+01  1.47865E+01  1.66202E+01  1.74765E+01  1.50241E+01  1.23810E+01
   1.32580E+01  1.44267E+01  1.52300E+01  1.49490E+01  1.50590E+01  1.19907E+01  1.42418E+01  1.66206E+01  1.41066E+01  1.37219E+01
   1.31244E+01  1.38964E+01  1.37592E+01  1.37194E+01  1.49478E+01  1.44797E+01  1.45102E+01  1.42268E+01  1.45129E+01  1.40453E+01
   1.67902E+01  1.53852E+01  1.51666E+01  1.48512E+01  1.57397E+01  1.38026E+01  1.39934E+01  1.24626E+01  1.08151E+01  1.30127E+01
   1.27780E+01  1.40745E+01  1.38827E+01  1.12037E+01  1.28417E+01  1.04313E+01  1.36586E+01  1.16297E+01  1.38815E+01  1.23121E+01
   1.28274E+01  1.52905E+01  1.25127E+01  1.27804E+01  1.65145E+01  1.27109E+01  1.52770E+01  1.53365E+01  1.23782E+01  1.25830E+01
   1.38377E+01  1.20072E+01  1.16001E+01  1.24322E+01  1.33198E+01  1.19734E+01  1.30847E+01  1.32769E+01  1.28556E+01  1.09221E+01
   1.36851E+01  1.31426E+01  1.25740E+01  1.31883E+01  1.13877E+01  1.19906E+01  1.32000E+01  1.44332E+01  1.15986E+01  1.39548E+01
   1.25448E+01  1.18327E+01  1.24021E+01  1.15770E+01  1.37088E+01  1.27963E+01  1.23302E+01  1.37312E+01  1.14989E+01  9.85279E+00
   1.34282E+01  1.35571E+01  1.24964E+01  1.02930E+01  1.24202E+01  1.23896E+01  1.34170E+01  1.41728E+01  1.18072E+01  1.23633E+01
   1.16550E+01  1.03264E+01  1.17009E+01  1.28923E+01  1.02766E+01  1.12932E+01  1.26854E+01  1.19568E+01  1.05300E+01  1.28684E+01
   1.38047E+01  1.18363E+01  1.24019E+01  9.58253E+00  1.15378E+01  9.50099E+00  1.25539E+01  1.16519E+01  1.43680E+01  1.17830E+01
   1.07179E+01  1.18773E+01  1.11725E+01  1.33719E+01  1.07796E+01  1.07131E+01  1.22406E+01  1.19288E+01  1.05540E+01  1.21866E+01
   1.14608E+01  1.02701E+01  1.17513E+01  1.21345E+01  1.08946E+01  1.05959E+01  1.07084E+01  1.12337E+01  1.11248E+01  1.13521E+01
   1.15421E+01  1.04240E+01  9.55029E+00  1.32256E+01  1.40811E+01  1.09504E+01  1.20173E+01  1.14216E+01  1.00187E+01  1.09341E+01
   1.11338E+01  1.04962E+01  1.23773E+01  1.26918E+01  1.19924E+01  1.13413E+01  1.19383E+01  1.21677E+01  1.15338E+01  9.87811E+00
   1.06633E+01  1.14585E+01  9.75639E+00  1.17928E+01  1.16856E+01  1.22810E+01  1.23190E+01  1.10585E+01  1.25248E+01  1.00949E+01
   1.02673E+01  1.22848E+01  1.13213E+01  1.05313E+01  1.37878E+01  1.18237E+01  1.21698E+01  1.28769E+01  1.07152E+01  1.17507E+01
   1.30824E+01  1.07854E+01  1.47779E+01  1.21821E+01  1.29209E+01  1.31926E+01  1.19583E+01  1.41839E+01  1.35852E+01  1.61515E+01
   1.17236E+01  1.33781E+01  1.28392E+01  1.17869E+01  1.03273E+01  1.10099E+01  1.06703E+01  1.02590E+01  1.20725E+01  1.05889E+01
   1.29328E+01  1.18264E+01  1.19497E+01  1.25327E+01  1.12466E+01  1.08243E+01  1.11470E+01  1.21819E+01  1.24119E+01  1.05816E+01
   8.87397E+00  1.17841E+01  9.60465E+00  1.18737E+01  1.19631E+01  9.91422E+00  9.91605E+00  1.07062E+01  1.12011E+01  9.91677E+00
   1.15936E+01  9.05262E+00  1.23116E+01  9.05209E+00  9.47296E+00  9.27712E+00  1.08538E+01  8.38700E+00  1.11977E+01  7.76179E+00
   1.06003E+01  9.48982E+00  9.62231E+00  9.46231E+00  9.72966E+00  1.06533E+01  7.13138E+00  9.61419E+00  7.77016E+00  9.46037E+00
   8.71276E+00  8.07749E+00  7.93159E+00  8.06385E+00  1.04917E+01  8.96078E+00  8.61291E+00  9.20334E+00  9.64156E+00  7.72206E+00
   8.92946E+00  7.70037E+00  6.92598E+00  7.29172E+00  6.68998E+00  5.95590E+00  5.95030E+00  5.76647E+00  6.19642E+00  8.22130E+00
   6.45289E+00  6.17476E+00  6.27128E+00  5.26684E+00  4.65346E+00  5.47077E+00  7.25751E+00  4.56306E+00  4.68983E+00  6.56991E+00
   6.25907E+00  8.14901E+00  6.59596E+00  8.51731E+00  5.66198E+00  5.12193E+00  6.36895E+00  6.71345E+00  6.63032E+00  5.99685E+00
   6.66874E+00  5.24410E+00  5.48778E+00  7.34945E+00  6.96912E+00  5.29173E+00  7.00610E+00  6.39492E+00  4.90372E+00  6.51383E+00
   8.27763E+00  6.38391E+00  7.69448E+00  5.78340E+00  8.99266E+00  6.63851E+00  6.91329E+00  7.63228E+00  7.72503E+00  7.06364E+00
   6.69564E+00  7.28994E+00  8.21291E+00  9.34125E+00  6.59842E+00  8.13596E+00  5.85392E+00  7.68849E+00  5.18945E+00  7.60009E+00
   7.42164E+00  8.23328E+00  7.34591E+00  5.83309E+00  7.94636E+00  8.33045E+00  9.57683E+00  6.82849E+00  6.52724E+00  8.02678E+00
   7.09901E+00  6.23204E+00  5.81250E+00  7.29938E+00  8.53360E+00  8.13373E+00  5.99762E+00  6.48881E+00  6.99321E+00  5.27401E+00
   7.07999E+00  6.11819E+00  6.94150E+00  6.99982E+00  8.28829E+00  6.49300E+00  9.45369E+00  6.40994E+00  7.25257E+00  7.24853E+00
   6.06205E+00  5.90765E+00  6.95575E+00  6.12632E+00  6.16954E+00  3.75279E+00  6.07086E+00  4.88402E+00  5.33335E+00  5.09147E+00
   7.98701E+00  5.06441E+00  5.10529E+00  4.42070E+00  6.14434E+00  5.92428E+00  6.53805E+00  2.47829E+00  5.53874E+00  5.65997E+00
   5.60415E+00  2.35020E+00  3.93811E+00  6.58077E+00  6.81686E+00  5.32739E+00  6.23247E+00  3.98409E+00  4.17101E+00  5.83119E+00
   4.48058E+00  4.30160E+00  3.85771E+00  6.64344E+00  6.38751E+00  6.89991E+00  4.47078E+00  6.54482E+00  5.49546E+00  6.53924E+00
   2.98051E+00  6.42117E+00  2.59070E+00  8.13360E+00  5.91631E+00  6.80938E+00  4.02812E+00  7.47191E+00  5.83636E+00  3.55176E+00
   5.57998E+00  4.22686E+00  3.02859E+00  4.30874E+00  5.48810E+00  4.85876E+00  4.96575E+00  4.94480E+00  4.79651E+00  5.45587E+00
   5.38607E+00  4.24231E+00  2.55156E+00  2.17003E+00  5.52253E-01  3.69228E+00  4.61338E+00  4.40064E+00  2.85962E+00  4.70155E+00
   5.99772E+00  3.31106E+00  3.76056E+00  3.73153E+00  3.96710E+00  2.91891E+00  2.95492E+00  3.45601E+00  1.52136E+00  2.31114E+00
   3.03012E+00  2.85673E+00  2.60204E+00  3.22169E+00  3.97943E+00  2.92823E+00  3.11512E+00  4.10163E+00
 NY points of the fit to the data follow
   2.18099E+01  2.17157E+01  2.16585E+01  2.16738E+01  2.17947E+01  2.19430E+01  2.20288E+01  2.20007E+01  2.18556E+01  2.16254E+01
   2.13524E+01  2.10801E+01  2.08477E+01  2.06754E+01  2.05588E+01  2.04671E+01  2.03755E+01  2.02913E+01  2.02152E+01  2.01306E+01
   2.00359E+01  1.99428E+01  1.98493E+01  1.97427E+01  1.96805E+01  1.98086E+01  2.00977E+01  2.04106E+01  2.06209E+01  2.06592E+01
   2.05102E+01  2.01930E+01  1.97662E+01  1.93142E+01  1.89241E+01  1.86570E+01  1.84973E+01  1.83888E+01  1.83161E+01  1.82648E+01
   1.82148E+01  1.81708E+01  1.81785E+01  1.82806E+01  1.84366E+01  1.85496E+01  1.85395E+01  1.83862E+01  1.81227E+01  1.78034E+01
   1.74843E+01  1.72174E+01  1.70364E+01  1.69396E+01  1.69071E+01  1.69174E+01  1.69481E+01  1.69798E+01  1.69812E+01  1.69282E+01
   1.68170E+01  1.66621E+01  1.64919E+01  1.63350E+01  1.62142E+01  1.61376E+01  1.60944E+01  1.60778E+01  1.60727E+01  1.60579E+01
   1.60236E+01  1.59694E+01  1.58971E+01  1.58096E+01  1.57099E+01  1.56027E+01  1.54955E+01  1.53977E+01  1.53138E+01  1.52402E+01
   1.51758E+01  1.51238E+01  1.50657E+01  1.49771E+01  1.48504E+01  1.47035E+01  1.45661E+01  1.44625E+01  1.44015E+01  1.43801E+01
   1.43868E+01  1.44082E+01  1.44277E+01  1.44236E+01  1.43911E+01  1.43377E+01  1.42884E+01  1.43263E+01  1.45986E+01  1.50203E+01
   1.53961E+01  1.55769E+01  1.55115E+01  1.52453E+01  1.48572E+01  1.44297E+01  1.40452E+01  1.37711E+01  1.36327E+01  1.35891E+01
   1.35635E+01  1.35370E+01  1.35125E+01  1.34896E+01  1.34666E+01  1.34388E+01  1.34072E+01  1.33768E+01  1.33531E+01  1.33454E+01
   1.33792E+01  1.35424E+01  1.38784E+01  1.42541E+01  1.45231E+01  1.46009E+01  1.44910E+01  1.42575E+01  1.39834E+01  1.37327E+01
   1.35171E+01  1.33308E+01  1.31602E+01  1.29759E+01  1.27881E+01  1.26507E+01  1.25983E+01  1.26394E+01  1.27385E+01  1.28452E+01
   1.29126E+01  1.29182E+01  1.28695E+01  1.27853E+01  1.26895E+01  1.26010E+01  1.25265E+01  1.24644E+01  1.24085E+01  1.23506E+01
   1.22898E+01  1.22334E+01  1.21893E+01  1.21604E+01  1.21450E+01  1.21320E+01  1.21072E+01  1.20675E+01  1.20205E+01  1.19762E+01
   1.19451E+01  1.19258E+01  1.19125E+01  1.18987E+01  1.18794E+01  1.18511E+01  1.18169E+01  1.17853E+01  1.17633E+01  1.17502E+01
   1.17361E+01  1.17083E+01  1.16661E+01  1.16248E+01  1.15948E+01  1.15766E+01  1.15605E+01  1.15405E+01  1.15182E+01  1.15016E+01
   1.14867E+01  1.14674E+01  1.14424E+01  1.14232E+01  1.14287E+01  1.14734E+01  1.15607E+01  1.16769E+01  1.17868E+01  1.18513E+01
   1.18488E+01  1.17763E+01  1.16434E+01  1.14697E+01  1.13148E+01  1.12317E+01  1.12353E+01  1.13063E+01  1.14108E+01  1.15217E+01
   1.16200E+01  1.16885E+01  1.17048E+01  1.16683E+01  1.15900E+01  1.14780E+01  1.13512E+01  1.12374E+01  1.11635E+01  1.11581E+01
   1.12445E+01  1.14414E+01  1.16760E+01  1.18531E+01  1.19102E+01  1.18277E+01  1.16185E+01  1.13032E+01  1.09458E+01  1.06679E+01
   1.05661E+01  1.06517E+01  1.08709E+01  1.11379E+01  1.13918E+01  1.15837E+01  1.16625E+01  1.16181E+01  1.15074E+01  1.14099E+01
   1.13789E+01  1.14231E+01  1.15360E+01  1.16932E+01  1.18284E+01  1.18768E+01  1.18174E+01  1.16724E+01  1.14893E+01  1.13339E+01
   1.12668E+01  1.13196E+01  1.14743E+01  1.16833E+01  1.18811E+01  1.20128E+01  1.20588E+01  1.20329E+01  1.19738E+01  1.19258E+01
   1.19497E+01  1.21216E+01  1.23930E+01  1.26428E+01  1.28139E+01  1.30294E+01  1.34037E+01  1.37809E+01  1.39749E+01  1.38893E+01
   1.35438E+01  1.30330E+01  1.24457E+01  1.18496E+01  1.13372E+01  1.09831E+01  1.07905E+01  1.06806E+01  1.05872E+01  1.05136E+01
   1.04596E+01  1.04170E+01  1.03780E+01  1.03356E+01  1.02857E+01  1.02277E+01  1.01637E+01  1.00995E+01  1.00421E+01  9.99659E+00
   9.96318E+00  9.93995E+00  9.92428E+00  9.91362E+00  9.90628E+00  9.90092E+00  9.89677E+00  9.89513E+00  9.89699E+00  9.90157E+00
   9.90683E+00  9.91039E+00  9.91012E+00  9.90381E+00  9.88936E+00  9.86601E+00  9.83393E+00  9.79371E+00  9.74594E+00  9.69056E+00
   9.62743E+00  9.55671E+00  9.47875E+00  9.39420E+00  9.30405E+00  9.20968E+00  9.11275E+00  9.01472E+00  8.91688E+00  8.82036E+00
   8.72607E+00  8.63476E+00  8.54704E+00  8.46332E+00  8.38388E+00  8.30882E+00  8.23813E+00  8.17171E+00  8.10932E+00  8.05070E+00
   7.99552E+00  7.94348E+00  7.89428E+00  7.84760E+00  7.80317E+00  7.76074E+00  7.72006E+00  7.68095E+00  7.64325E+00  7.60683E+00
   7.57156E+00  7.53735E+00  7.50414E+00  7.47188E+00  7.44055E+00  7.41011E+00  7.38057E+00  7.35193E+00  7.32420E+00  7.29742E+00
   7.27161E+00  7.24681E+00  7.22305E+00  7.20036E+00  7.17879E+00  7.15836E+00  7.13912E+00  7.12104E+00  7.10414E+00  7.08839E+00
   7.07375E+00  7.06014E+00  7.04747E+00  7.03561E+00  7.02440E+00  7.01367E+00  7.00324E+00  6.99288E+00  6.98237E+00  6.97150E+00
   6.96005E+00  6.94784E+00  6.93472E+00  6.92056E+00  6.90528E+00  6.88888E+00  6.87140E+00  6.85295E+00  6.83373E+00  6.81397E+00
   6.79398E+00  6.77414E+00  6.75486E+00  6.73660E+00  6.71987E+00  6.70518E+00  6.69306E+00  6.68405E+00  6.67870E+00  6.67752E+00
   6.68097E+00  6.68948E+00  6.70342E+00  6.72303E+00  6.74849E+00  6.77978E+00  6.81675E+00  6.85903E+00  6.90607E+00  6.95707E+00
   7.01101E+00  7.06663E+00  7.12247E+00  7.17687E+00  7.22809E+00  7.27428E+00  7.31362E+00  7.34434E+00  7.36486E+00  7.37383E+00
   7.37022E+00  7.35336E+00  7.32298E+00  7.27921E+00  7.22261E+00  7.15412E+00  7.07502E+00  6.98681E+00  6.89124E+00  6.79010E+00
   6.68525E+00  6.57849E+00  6.47149E+00  6.36574E+00  6.26253E+00  6.16291E+00  6.06767E+00  5.97741E+00  5.89245E+00  5.81296E+00
   5.73892E+00  5.67017E+00  5.60646E+00  5.54747E+00  5.49282E+00  5.44211E+00  5.39494E+00  5.35092E+00  5.30967E+00  5.27085E+00
   5.23414E+00  5.19925E+00  5.16593E+00  5.13396E+00  5.10315E+00  5.07332E+00  5.04433E+00  5.01605E+00  4.98837E+00  4.96120E+00
   4.93446E+00  4.90807E+00  4.88199E+00  4.85614E+00  4.83049E+00  4.80500E+00  4.77962E+00  4.75434E+00  4.72911E+00  4.70392E+00
   4.67874E+00  4.65354E+00  4.62832E+00  4.60306E+00  4.57775E+00  4.55237E+00  4.52694E+00  4.50144E+00  4.47587E+00  4.45023E+00
   4.42451E+00  4.39871E+00  4.37285E+00  4.34691E+00  4.32090E+00  4.29480E+00  4.26864E+00  4.24240E+00  4.21610E+00  4.18972E+00
   4.16328E+00  4.13678E+00  4.11021E+00  4.08358E+00  4.05690E+00  4.03017E+00  4.00338E+00  3.97655E+00  3.94967E+00  3.92276E+00
   3.89581E+00  3.86882E+00  3.84180E+00  3.81475E+00  3.78769E+00  3.76061E+00  3.73351E+00  3.70640E+00  3.67929E+00  3.65217E+00
   3.62506E+00  3.59795E+00  3.57086E+00  3.54377E+00  3.51671E+00  3.48968E+00  3.46268E+00  3.43571E+00
 NY background values follow
     2.157E+01    2.148E+01    2.138E+01    2.129E+01    2.120E+01    2.111E+01    2.102E+01    2.092E+01    2.083E+01    2.074E+01
     2.065E+01    2.056E+01    2.047E+01    2.037E+01    2.028E+01    2.019E+01    2.010E+01    2.001E+01    1.992E+01    1.983E+01
     1.974E+01    1.965E+01    1.956E+01    1.947E+01    1.938E+01    1.929E+01    1.920E+01    1.911E+01    1.902E+01    1.893E+01
     1.884E+01    1.875E+01    1.867E+01    1.858E+01    1.849E+01    1.840E+01    1.832E+01    1.823E+01    1.814E+01    1.806E+01
     1.797E+01    1.789E+01    1.780E+01    1.772E+01    1.764E+01    1.755E+01    1.747E+01    1.739E+01    1.731E+01    1.722E+01
     1.714E+01    1.706E+01    1.698E+01    1.690E+01    1.682E+01    1.674E+01    1.666E+01    1.659E+01    1.651E+01    1.643E+01
     1.636E+01    1.628E+01    1.621E+01    1.613E+01    1.606E+01    1.598E+01    1.591E+01    1.584E+01    1.577E+01    1.569E+01
     1.562E+01    1.555E+01    1.548E+01    1.542E+01    1.535E+01    1.528E+01    1.521E+01    1.515E+01    1.508E+01    1.502E+01
     1.495E+01    1.489E+01    1.483E+01    1.477E+01    1.470E+01    1.464E+01    1.458E+01    1.452E+01    1.447E+01    1.441E+01
     1.435E+01    1.430E+01    1.424E+01    1.419E+01    1.413E+01    1.408E+01    1.403E+01    1.398E+01    1.393E+01    1.388E+01
     1.383E+01    1.378E+01    1.373E+01    1.368E+01    1.364E+01    1.359E+01    1.355E+01    1.350E+01    1.346E+01    1.341E+01
     1.337E+01    1.333E+01    1.329E+01    1.325E+01    1.321E+01    1.317E+01    1.313E+01    1.309E+01    1.306E+01    1.302E+01
     1.298E+01    1.295E+01    1.291E+01    1.288E+01    1.284E+01    1.281E+01    1.278E+01    1.274E+01    1.271E+01    1.268E+01
     1.265E+01    1.262E+01    1.259E+01    1.256E+01    1.253E+01    1.250E+01    1.248E+01    1.245E+01    1.242E+01    1.240E+01
     1.237E+01    1.234E+01    1.232E+01    1.229E+01    1.227E+01    1.225E+01    1.222E+01    1.220E+01    1.218E+01    1.215E+01
     1.213E+01    1.211E+01    1.209E+01    1.207E+01    1.205E+01    1.203E+01    1.201E+01    1.199E+01    1.197E+01    1.195E+01
     1.193E+01    1.191E+01    1.189E+01    1.187E+01    1.185E+01    1.183E+01    1.181E+01    1.180E+01    1.178E+01    1.176E+01
     1.174E+01    1.172E+01    1.171E+01    1.169E+01    1.167E+01    1.165E+01    1.164E+01    1.162E+01    1.160E+01    1.158E+01
     1.157E+01    1.155E+01    1.153E+01    1.152E+01    1.150E+01    1.148E+01    1.146E+01    1.145E+01    1.143E+01    1.141E+01
     1.139E+01    1.138E+01    1.136E+01    1.134E+01    1.132E+01    1.131E+01    1.129E+01    1.127E+01    1.125E+01    1.124E+01
     1.122E+01    1.120E+01    1.118E+01    1.116E+01    1.114E+01    1.113E+01    1.111E+01    1.109E+01    1.107E+01    1.105E+01
     1.103E+01    1.102E+01    1.100E+01    1.098E+01    1.096E+01    1.094E+01    1.092E+01    1.090E+01    1.088E+01    1.086E+01
     1.084E+01    1.082E+01    1.080E+01    1.078E+01    1.076E+01    1.074E+01    1.072E+01    1.070E+01    1.068E+01    1.066E+01
     1.064E+01    1.062E+01    1.060E+01    1.057E+01    1.055E+01    1.053E+01    1.051E+01    1.049E+01    1.046E+01    1.044E+01
     1.042E+01    1.040E+01    1.037E+01    1.035E+01    1.032E+01    1.030E+01    1.028E+01    1.025E+01    1.023E+01    1.020E+01
     1.018E+01    1.015E+01    1.013E+01    1.010E+01    1.007E+01    1.005E+01    1.002E+01    9.993E+00    9.965E+00    9.937E+00
     9.909E+00    9.881E+00    9.852E+00    9.823E+00    9.793E+00    9.763E+00    9.733E+00    9.703E+00    9.672E+00    9.640E+00
     9.608E+00    9.576E+00    9.544E+00    9.511E+00    9.478E+00    9.444E+00    9.410E+00    9.376E+00    9.341E+00    9.306E+00
     9.271E+00    9.236E+00    9.200E+00    9.164E+00    9.128E+00    9.092E+00    9.055E+00    9.018E+00    8.981E+00    8.944E+00
     8.907E+00    8.869E+00    8.832E+00    8.794E+00    8.756E+00    8.718E+00    8.680E+00    8.642E+00    8.604E+00    8.566E+00
     8.528E+00    8.490E+00    8.452E+00    8.414E+00    8.376E+00    8.338E+00    8.300E+00    8.262E+00    8.224E+00    8.187E+00
     8.149E+00    8.112E+00    8.075E+00    8.038E+00    8.001E+00    7.964E+00    7.927E+00    7.891E+00    7.855E+00    7.819E+00
     7.783E+00    7.748E+00    7.712E+00    7.677E+00    7.643E+00    7.608E+00    7.574E+00    7.539E+00    7.505E+00    7.472E+00
     7.438E+00    7.405E+00    7.372E+00    7.339E+00    7.307E+00    7.274E+00    7.242E+00    7.210E+00    7.179E+00    7.148E+00
     7.116E+00    7.086E+00    7.055E+00    7.025E+00    6.994E+00    6.965E+00    6.935E+00    6.906E+00    6.876E+00    6.848E+00
     6.819E+00    6.791E+00    6.762E+00    6.735E+00    6.707E+00    6.680E+00    6.653E+00    6.626E+00    6.599E+00    6.573E+00
     6.547E+00    6.521E+00    6.496E+00    6.470E+00    6.446E+00    6.421E+00    6.396E+00    6.372E+00    6.348E+00    6.325E+00
     6.301E+00    6.278E+00    6.255E+00    6.232E+00    6.209E+00    6.187E+00    6.164E+00    6.142E+00    6.120E+00    6.099E+00
     6.077E+00    6.056E+00    6.034E+00    6.013E+00    5.992E+00    5.971E+00    5.951E+00    5.930E+00    5.910E+00    5.889E+00
     5.869E+00    5.849E+00    5.829E+00    5.809E+00    5.789E+00    5.769E+00    5.750E+00    5.730E+00    5.710E+00    5.691E+00
     5.671E+00    5.652E+00    5.632E+00    5.613E+00    5.594E+00    5.574E+00    5.555E+00    5.536E+00    5.516E+00    5.497E+00
     5.478E+00    5.458E+00    5.439E+00    5.420E+00    5.400E+00    5.381E+00    5.361E+00    5.342E+00    5.322E+00    5.303E+00
     5.283E+00    5.263E+00    5.244E+00    5.224E+00    5.204E+00    5.184E+00    5.164E+00    5.144E+00    5.124E+00    5.104E+00
     5.083E+00    5.063E+00    5.042E+00    5.022E+00    5.001E+00    4.980E+00    4.959E+00    4.938E+00    4.917E+00    4.896E+00
     4.874E+00    4.853E+00    4.831E+00    4.809E+00    4.787E+00    4.765E+00    4.743E+00    4.721E+00    4.698E+00    4.675E+00
     4.652E+00    4.629E+00    4.606E+00    4.582E+00    4.559E+00    4.535E+00    4.511E+00    4.487E+00    4.463E+00    4.438E+00
     4.413E+00    4.389E+00    4.364E+00    4.339E+00    4.314E+00    4.288E+00    4.263E+00    4.237E+00    4.212E+00    4.186E+00
     4.160E+00    4.134E+00    4.108E+00    4.082E+00    4.056E+00    4.030E+00    4.003E+00    3.977E+00    3.950E+00    3.924E+00
     3.897E+00    3.871E+00    3.844E+00    3.817E+00    3.790E+00    3.763E+00    3.737E+00    3.710E+00    3.683E+00    3.656E+00
     3.629E+00    3.602E+00    3.575E+00    3.548E+00    3.521E+00    3.494E+00    3.467E+00    3.440E+00
 Asp      Conc. = 7.73E+00
