 LCModel (Version 6.3-1L) Copyright: S.W. Provencher.          Ref.: Magn. Reson. Med. 30:672-679 (1993).                
 Slice#3 Row#1 Col#7  PD_05_press_1_raw_act
 36 lines in following concentration table = NCONC+1
    Conc.  %SD /Cr+PCr  Metabolite                                         
    0.000 999%   0.000 Ala                                                 
   14.129  89%   0.172 Asp                                                 
   82.381  25%   1.000 Cr                                                  
    0.000 999%   0.000 PCr                                                 
    6.871 110% 8.3E-02 GABA                                                
    7.689  98% 9.3E-02 Glc                                                 
    0.000 999%   0.000 Gln                                                 
  119.945  83%   1.456 Glu                                                 
   15.672  51%   0.190 GPC                                                 
    0.000 999%   0.000 PCh                                                 
   11.056 269%   0.134 GSH                                                 
  244.430  39%   2.967 Ins                                                 
   28.984 180%   0.352 Lac                                                 
    0.000 999%   0.000 NAA                                                 
  103.547  22%   1.257 NAAG                                                
    2.193 113% 2.7E-02 Scyllo                                              
   11.341 110%   0.138 Tau                                                 
   19.541  96%   0.237 -CrCH2                                              
   15.672  51%   0.190 GPC+PCh                                             
  103.547  22%   1.257 NAA+NAAG                                            
   82.381  25%   1.000 Cr+PCr                                              
  119.945  83%   1.456 Glu+Gln                                             
 1.27E+03  17%  15.443 Lip13a                                              
   24.665 423%   0.299 Lip13b                                              
  267.810  28%   3.251 Lip09                                               
    0.000 999%   0.000 MM09                                                
   77.610  88%   0.942 Lip20                                               
    0.000 999%   0.000 MM20                                                
 9.86E-02 999% 1.2E-03 MM12                                                
   16.649 150%   0.202 MM14                                                
    5.551 298% 6.7E-02 MM17                                                
 1.30E+03  15%  15.743 Lip13a+Lip13b                                       
 1.31E+03  14%  15.946 MM14+Lip13a+Lip13b+MM12                             
  267.810  28%   3.251 MM09+Lip09                                          
   77.610  88%   0.942 MM20+Lip20                                          
   6 lines in following misc. output table
  FWHM = 0.054 ppm    S/N =   1                                            
  Data shift = 0.046 ppm                                                   
  Ph: 165 deg      96.0 deg/ppm                                            
  alphaB,S = 8.5E+01,   4.6E+01                                            
   14 spline knots.   Ns = 5(1)                                            
   2 inflections.     1 extrema                                            
  498 points on ppm-axis = NY
      4.000000     3.992357     3.984714     3.977070     3.969427     3.961784     3.954141     3.946497     3.938854     3.931211
      3.923568     3.915925     3.908281     3.900638     3.892995     3.885352     3.877708     3.870065     3.862422     3.854779
      3.847136     3.839492     3.831849     3.824206     3.816563     3.808919     3.801276     3.793633     3.785990     3.778347
      3.770703     3.763060     3.755417     3.747774     3.740130     3.732487     3.724844     3.717201     3.709558     3.701914
      3.694271     3.686628     3.678985     3.671341     3.663698     3.656055     3.648412     3.640769     3.633125     3.625482
      3.617839     3.610196     3.602552     3.594909     3.587266     3.579623     3.571980     3.564336     3.556693     3.549050
      3.541407     3.533763     3.526120     3.518477     3.510834     3.503191     3.495547     3.487904     3.480261     3.472618
      3.464974     3.457331     3.449688     3.442045     3.434402     3.426758     3.419115     3.411472     3.403829     3.396185
      3.388542     3.380899     3.373256     3.365613     3.357969     3.350326     3.342683     3.335040     3.327396     3.319753
      3.312110     3.304467     3.296824     3.289180     3.281537     3.273894     3.266251     3.258607     3.250964     3.243321
      3.235678     3.228034     3.220391     3.212748     3.205105     3.197462     3.189818     3.182175     3.174532     3.166889
      3.159245     3.151602     3.143959     3.136316     3.128673     3.121029     3.113386     3.105743     3.098100     3.090456
      3.082813     3.075170     3.067527     3.059884     3.052240     3.044597     3.036954     3.029311     3.021667     3.014024
      3.006381     2.998738     2.991095     2.983451     2.975808     2.968165     2.960522     2.952878     2.945235     2.937592
      2.929949     2.922306     2.914662     2.907019     2.899376     2.891733     2.884089     2.876446     2.868803     2.861160
      2.853517     2.845873     2.838230     2.830587     2.822944     2.815300     2.807657     2.800014     2.792371     2.784728
      2.777084     2.769441     2.761798     2.754155     2.746511     2.738868     2.731225     2.723582     2.715939     2.708295
      2.700652     2.693009     2.685366     2.677722     2.670079     2.662436     2.654793     2.647150     2.639506     2.631863
      2.624220     2.616577     2.608933     2.601290     2.593647     2.586004     2.578361     2.570717     2.563074     2.555431
      2.547788     2.540144     2.532501     2.524858     2.517215     2.509572     2.501928     2.494285     2.486642     2.478999
      2.471355     2.463712     2.456069     2.448426     2.440783     2.433139     2.425496     2.417853     2.410210     2.402566
      2.394923     2.387280     2.379637     2.371994     2.364350     2.356707     2.349064     2.341421     2.333777     2.326134
      2.318491     2.310848     2.303205     2.295561     2.287918     2.280275     2.272632     2.264988     2.257345     2.249702
      2.242059     2.234416     2.226772     2.219129     2.211486     2.203843     2.196199     2.188556     2.180913     2.173270
      2.165627     2.157983     2.150340     2.142697     2.135054     2.127410     2.119767     2.112124     2.104481     2.096838
      2.089194     2.081551     2.073908     2.066265     2.058621     2.050978     2.043335     2.035692     2.028049     2.020405
      2.012762     2.005119     1.997476     1.989833     1.982190     1.974546     1.966903     1.959260     1.951617     1.943974
      1.936331     1.928688     1.921045     1.913402     1.905759     1.898115     1.890472     1.882829     1.875186     1.867543
      1.859900     1.852257     1.844614     1.836971     1.829327     1.821684     1.814041     1.806398     1.798755     1.791112
      1.783469     1.775826     1.768183     1.760540     1.752896     1.745253     1.737610     1.729967     1.722324     1.714681
      1.707038     1.699395     1.691752     1.684108     1.676465     1.668822     1.661179     1.653536     1.645893     1.638250
      1.630607     1.622964     1.615321     1.607677     1.600034     1.592391     1.584748     1.577105     1.569462     1.561819
      1.554176     1.546533     1.538890     1.531246     1.523603     1.515960     1.508317     1.500674     1.493031     1.485388
      1.477745     1.470102     1.462458     1.454815     1.447172     1.439529     1.431886     1.424243     1.416600     1.408957
      1.401314     1.393671     1.386027     1.378384     1.370741     1.363098     1.355455     1.347812     1.340169     1.332526
      1.324883     1.317240     1.309596     1.301953     1.294310     1.286667     1.279024     1.271381     1.263738     1.256095
      1.248452     1.240808     1.233165     1.225522     1.217879     1.210236     1.202593     1.194950     1.187307     1.179664
      1.172021     1.164377     1.156734     1.149091     1.141448     1.133805     1.126162     1.118519     1.110876     1.103233
      1.095590     1.087946     1.080303     1.072660     1.065017     1.057374     1.049731     1.042088     1.034445     1.026802
      1.019158     1.011515     1.003872     0.996229     0.988586     0.980943     0.973300     0.965657     0.958014     0.950371
      0.942727     0.935084     0.927441     0.919798     0.912155     0.904512     0.896869     0.889226     0.881583     0.873940
      0.866296     0.858653     0.851010     0.843367     0.835724     0.828081     0.820438     0.812795     0.805152     0.797508
      0.789865     0.782222     0.774579     0.766936     0.759293     0.751650     0.744007     0.736364     0.728721     0.721077
      0.713434     0.705791     0.698148     0.690505     0.682862     0.675219     0.667576     0.659933     0.652290     0.644646
      0.637003     0.629360     0.621717     0.614074     0.606431     0.598788     0.591145     0.583502     0.575858     0.568215
      0.560572     0.552929     0.545286     0.537643     0.530000     0.522357     0.514714     0.507071     0.499427     0.491784
      0.484141     0.476498     0.468855     0.461212     0.453569     0.445925     0.438282     0.430639     0.422996     0.415353
      0.407710     0.400067     0.392424     0.384780     0.377137     0.369494     0.361851     0.354208     0.346565     0.338922
      0.331278     0.323635     0.315992     0.308349     0.300706     0.293063     0.285420     0.277777     0.270133     0.262490
      0.254847     0.247204     0.239561     0.231918     0.224275     0.216631     0.208988     0.201345
 NY phased data points follow
   2.65185E+00  9.02940E-01  2.40551E+00  2.24047E+00 -8.30902E-01 -1.27051E+00  9.11097E-01  3.31803E-01 -8.43353E-01  2.08626E+00
   1.93785E+00  1.25143E+00  3.15153E-01  2.43403E+00  3.69768E+00  4.99467E+00  1.37775E+00  1.12816E+00  2.01736E+00  3.48597E+00
   3.47548E+00  8.85731E-02  1.59928E+00  1.10163E+00  4.61982E-01  1.52304E+00  2.07250E+00  8.13801E-02  2.99268E+00  2.21710E+00
   6.04351E-02  2.06555E-01 -3.84317E-01  2.02499E+00  2.13356E+00  1.10377E+00  6.42342E-01  1.48370E+00  3.13427E+00  2.78876E+00
   3.65992E+00  2.61534E+00  1.53026E+00  2.51630E+00  2.17940E+00  2.57875E-01  2.55331E+00  1.14319E+00 -1.56257E+00 -3.02344E-01
   3.33245E+00  5.74208E-01  2.26203E+00  3.71041E-01  3.14052E+00  1.29463E+00  1.18294E+00  6.18866E-01  3.36279E+00 -1.51982E+00
   1.79305E-01  8.76742E-01  1.15967E+00 -5.02456E-01 -3.19019E-01 -1.96376E+00  2.31863E+00 -4.06416E-01  2.12436E+00 -1.14788E+00
   8.27313E-01  1.77777E+00  2.60708E+00  2.55486E+00 -4.42720E-01  7.33454E-01  2.37524E+00  8.70031E-01  1.41216E+00  5.16980E-01
   1.88872E+00  1.27892E-01 -5.52272E-01 -5.88573E-01 -1.13929E+00 -9.48121E-01  3.15592E-01 -2.38492E+00  3.49464E+00  7.01410E-01
  -1.35605E+00 -3.13706E+00 -1.01161E+00 -1.38551E+00  6.65095E-01 -1.04547E+00  5.94475E-01 -8.49869E-02  6.33353E-01 -8.05111E-01
   2.16497E+00 -1.79012E+00 -1.23271E+00  1.11417E+00  3.89269E-01 -4.37931E-01  3.33215E+00  2.35939E+00 -3.48326E-01 -3.75535E-01
   1.02946E+00  9.80471E-01 -9.65241E-01  8.50147E-02  1.82702E+00 -3.16844E+00 -1.07691E+00 -3.37224E+00 -3.61120E+00 -4.74770E-01
   2.72938E+00  1.66942E+00 -2.10032E+00 -6.96562E-01 -4.39691E+00  1.39851E+00  3.66023E+00  2.26190E+00  3.45133E+00  1.36747E+00
   2.82602E+00  1.70150E+00  2.41202E+00  8.55687E-01 -2.97229E+00 -1.49457E+00 -2.35135E+00 -2.66626E-01  1.15087E+00 -3.97458E-01
   7.45561E-01 -1.13918E+00 -1.36026E+00 -1.78728E+00 -1.93659E+00 -2.78511E+00 -1.60319E+00  8.09769E-01 -1.96526E+00  8.32094E-01
   2.26627E+00 -9.05958E-01 -2.96734E-01  8.89756E-01 -1.56841E+00 -2.34839E+00 -9.81802E-01 -1.77538E+00 -7.64451E-01 -2.15538E+00
  -2.83465E+00 -1.87435E+00 -1.78509E+00 -2.46820E+00 -2.18395E+00 -3.37658E+00 -3.12797E+00 -1.03021E+00 -4.76113E+00 -3.11584E+00
  -1.83388E+00 -2.14530E+00 -4.57137E+00 -1.79628E+00 -6.62227E-01 -5.60419E-01 -9.23977E-01 -1.40792E+00 -1.99420E+00 -2.02163E+00
  -1.76981E+00 -1.77231E+00 -1.37948E+00 -2.94217E+00 -1.89901E+00 -6.59794E-01 -2.89295E+00 -2.49795E+00 -2.88251E+00  4.48846E-01
  -1.69661E+00 -3.31283E-02 -1.67658E+00 -4.04208E-01 -2.33459E+00 -4.29281E-01  5.95161E-01 -3.21312E+00 -1.83714E+00 -9.63367E-01
  -2.00969E+00  4.98834E-01 -1.48307E+00 -1.57909E+00 -2.02404E+00 -4.21971E+00 -1.82835E+00 -3.94024E+00 -2.73408E+00 -1.94216E+00
  -1.94074E+00 -4.98015E-01 -1.13627E+00  1.57313E+00 -1.18637E+00 -2.63046E-03  5.78219E-01 -1.96739E-01  9.91442E-02  4.41262E-02
  -1.27953E+00 -2.39966E+00 -1.61904E+00 -2.54108E+00 -5.69900E-02  3.73334E-01 -6.16716E-01  6.39921E-01 -1.09806E+00 -1.02046E+00
   1.65749E+00 -1.37413E+00  2.40333E+00 -6.22371E-01 -2.06453E+00  4.12503E-01  3.92210E-01 -9.29543E-01  6.75692E-01 -2.09009E-01
  -1.41805E+00 -1.44920E+00 -1.15334E-01 -2.72994E+00  4.57587E-01 -2.44130E+00  5.48273E-01 -2.20142E+00 -2.15583E+00 -2.44635E-01
  -2.92542E+00  5.80535E-01  2.48486E-01 -1.57863E-01 -8.28286E-01 -2.15316E+00  1.20275E-02  1.87192E+00  1.68818E+00  5.72538E+00
   1.80254E+00  3.62476E+00  4.63470E-01  1.35286E+00 -6.42117E-01 -3.23943E+00 -2.32851E+00 -9.12953E-01 -2.92434E+00 -2.29579E+00
  -1.89717E+00 -3.28081E+00 -2.21599E+00 -4.58575E+00 -2.08427E+00 -2.54480E+00 -2.86469E+00 -3.09040E+00 -1.93150E+00 -2.01149E+00
  -1.57790E+00 -2.49350E+00 -1.12271E+00 -2.04117E-01 -1.27003E+00 -1.45048E+00  3.76878E-01 -2.47987E+00 -1.98751E+00 -1.27845E+00
  -1.66111E+00 -1.22884E+00 -2.14387E+00 -2.33289E+00 -4.43887E+00 -2.15260E-02 -2.91103E-01 -2.99590E+00 -7.97123E-01  6.28009E-01
   9.85352E-01 -2.40495E+00 -3.15534E+00 -1.20939E+00 -3.41261E+00 -2.78195E+00 -2.79206E+00 -7.67254E-01 -2.06710E+00  5.13196E-01
  -6.71400E-01  3.47595E-01 -9.14276E-01 -1.32781E+00 -1.94608E+00 -9.57826E-01 -2.54347E+00 -3.49511E-01 -7.16622E-01 -1.69742E+00
  -3.99780E+00 -2.84412E+00 -1.82944E+00 -3.38404E-01 -2.59601E+00 -2.10233E+00 -1.18081E+00  4.61135E-01  2.15681E-01 -1.65414E+00
   7.62855E-01  1.62016E+00  2.47734E-01  2.41139E+00 -1.90770E+00  7.32950E-01 -1.99855E+00  1.61855E-01  1.20464E+00  2.01607E+00
   6.95018E-01  1.11478E+00 -2.77119E-01  1.16036E+00 -1.15782E+00 -2.07089E-01 -3.48412E-02  1.78992E+00  8.25586E-01  1.36685E+00
   2.94459E+00 -1.90915E-01  2.22793E+00  1.84415E+00  3.03735E+00  7.30523E-01  3.18052E+00  4.51937E+00  2.50525E+00  3.62659E+00
   2.70191E+00  3.68974E+00  4.67048E+00  5.36045E+00  4.39284E+00  2.82002E+00  4.11820E+00  2.52605E+00  4.24803E+00  3.56268E+00
   3.17766E+00  2.92825E+00  1.72885E+00  8.66587E-01  1.07220E+00  2.84589E+00  2.23084E+00  1.25919E+00  7.75275E-01 -2.10595E-01
   5.90745E-01  4.49354E+00  2.67161E+00  7.61030E-01  4.36487E+00 -5.53672E-01  9.11442E-01  3.53956E+00  2.38364E+00  5.75351E-01
   3.39371E-03 -1.17988E+00  6.30028E-01 -1.60663E-02  2.64617E+00 -1.46810E+00 -1.42873E+00 -1.73037E+00 -4.86435E-01 -1.96713E+00
  -1.50652E+00 -3.21950E+00 -6.97025E-01 -3.22914E+00  1.44674E+00 -3.52058E-01  1.74349E+00 -3.45977E-01  4.09622E-02  3.50738E-01
   1.54015E+00  9.65776E-01  1.00064E+00  4.76642E-01  1.83732E+00 -1.42287E+00  2.57775E-01 -3.39949E+00 -1.94710E+00  1.16754E-01
  -9.27250E-01  1.20728E+00  5.03224E+00  3.30929E-01  3.00174E+00 -1.50293E+00 -1.18605E-01  5.95325E-01 -6.70278E-01  3.63647E+00
  -2.00768E+00 -1.23212E+00  3.93832E-01  1.06191E+00  2.02872E+00  2.88005E-01  2.15974E+00  1.57318E+00 -9.46277E-02  2.51541E+00
  -9.25423E-01  2.18715E-01  1.53959E+00  2.04433E-01  1.07866E+00  3.23214E+00 -1.99989E+00  6.97177E-01  2.30836E+00 -8.05932E-01
   6.68993E-01  1.51896E-01 -3.74429E-01  2.15796E+00  3.11505E-02  3.91075E-01  6.30481E-01  1.12486E+00  1.13972E+00  2.52069E-01
   6.92897E-01 -1.66079E+00  7.82623E-01  2.60921E+00  1.03594E+00  1.14283E+00  1.81803E+00 -9.26172E-01 -2.52205E-01 -1.74862E+00
   2.74805E+00  1.95265E+00 -7.57590E-01 -5.24177E-01  1.11645E+00 -2.46810E+00  7.71685E-01  4.40982E-01 -1.09778E+00 -1.55636E+00
  -1.91082E+00  3.37794E+00 -1.15220E+00  2.90826E-01 -3.61785E+00 -1.18841E+00 -2.70879E+00 -1.75102E-01  9.88644E-01  1.95497E+00
   7.64539E-01  4.37266E-01  9.49027E-01 -2.22161E-01 -1.21881E-01 -2.13928E+00  3.49719E-01  1.89547E+00
 NY points of the fit to the data follow
   1.07000E+00  9.00668E-01  7.70417E-01  7.10893E-01  6.78882E-01  6.61892E-01  7.19644E-01  8.94344E-01  1.11622E+00  1.34018E+00
   1.56149E+00  1.79595E+00  2.04581E+00  2.25123E+00  2.28931E+00  2.04071E+00  1.52603E+00  9.66785E-01  6.23940E-01  5.50153E-01
   5.49243E-01  5.59974E-01  5.74928E-01  5.87741E-01  6.00532E-01  6.18900E-01  6.38352E-01  6.60119E-01  6.92429E-01  7.40769E-01
   8.02607E-01  8.81640E-01  9.82791E-01  1.08639E+00  1.13336E+00  1.08768E+00  9.75207E-01  8.36758E-01  6.90384E-01  5.64932E-01
   4.83623E-01  4.56682E-01  5.04754E-01  6.68431E-01  9.39065E-01  1.25744E+00  1.55851E+00  1.81259E+00  2.00052E+00  2.08367E+00
   1.98933E+00  1.64900E+00  1.08709E+00  4.70361E-01  5.49658E-02 -2.32467E-02  1.26894E-01  3.48616E-01  5.59948E-01  7.37397E-01
   8.69284E-01  9.47439E-01  9.65459E-01  9.11203E-01  7.73898E-01  5.69602E-01  3.75561E-01  2.80962E-01  2.99800E-01  4.07969E-01
   5.47614E-01  6.73964E-01  7.60658E-01  7.99094E-01  7.98529E-01  7.63746E-01  6.95496E-01  6.00928E-01  4.98387E-01  4.24748E-01
   3.75219E-01  3.37649E-01  3.00005E-01  2.48550E-01  1.71087E-01  6.98502E-02 -4.74655E-02 -1.75812E-01 -3.08865E-01 -4.30743E-01
  -5.16120E-01 -5.28407E-01 -4.40277E-01 -2.72698E-01 -1.01311E-01  1.37121E-02  5.79771E-02  6.70950E-02  1.17492E-01  2.15764E-01
   3.25966E-01  4.50504E-01  6.03102E-01  7.96318E-01  1.00188E+00  1.12913E+00  1.08431E+00  8.21868E-01  4.09804E-01  1.95327E-02
  -1.72148E-01 -2.23431E-01 -2.47118E-01 -2.60103E-01 -2.70691E-01 -2.81479E-01 -2.95829E-01 -3.13773E-01 -3.34278E-01 -3.54359E-01
  -3.68727E-01 -3.60465E-01 -2.45363E-01  5.43705E-02  4.56986E-01  8.97851E-01  1.34909E+00  1.79899E+00  2.22219E+00  2.53384E+00
   2.58470E+00  2.24433E+00  1.53531E+00  6.93446E-01  9.20102E-02 -1.31025E-01 -2.24885E-01 -2.87463E-01 -3.34189E-01 -3.63668E-01
  -3.70545E-01 -3.56028E-01 -3.33650E-01 -3.15127E-01 -3.07553E-01 -3.13115E-01 -3.25509E-01 -3.38037E-01 -3.49648E-01 -3.64715E-01
  -3.89945E-01 -4.20230E-01 -4.49402E-01 -4.72528E-01 -4.88622E-01 -5.04181E-01 -5.19679E-01 -5.29843E-01 -5.28962E-01 -5.17543E-01
  -5.06783E-01 -5.15672E-01 -5.51672E-01 -6.01314E-01 -6.51056E-01 -6.91670E-01 -7.16676E-01 -7.32159E-01 -7.41967E-01 -7.45456E-01
  -7.47711E-01 -7.54900E-01 -7.61694E-01 -7.60143E-01 -7.47960E-01 -7.37314E-01 -7.47387E-01 -7.89278E-01 -8.47323E-01 -8.87542E-01
  -9.00112E-01 -8.93517E-01 -8.85056E-01 -8.84148E-01 -8.77145E-01 -8.52502E-01 -8.05448E-01 -7.40707E-01 -6.77904E-01 -6.42040E-01
  -6.38883E-01 -6.45543E-01 -6.53980E-01 -6.73440E-01 -7.07943E-01 -7.54737E-01 -8.10017E-01 -8.61795E-01 -8.92464E-01 -8.88294E-01
  -8.53483E-01 -8.01983E-01 -7.47666E-01 -7.08115E-01 -7.04918E-01 -7.48309E-01 -8.18816E-01 -8.95616E-01 -9.78212E-01 -1.06191E+00
  -1.12850E+00 -1.13787E+00 -1.08153E+00 -9.65427E-01 -8.08114E-01 -6.32352E-01 -4.85749E-01 -4.31966E-01 -5.05594E-01 -7.10449E-01
  -1.01514E+00 -1.35317E+00 -1.63232E+00 -1.77170E+00 -1.78610E+00 -1.68160E+00 -1.46763E+00 -1.19459E+00 -9.52739E-01 -8.30603E-01
  -8.25756E-01 -8.68444E-01 -9.14952E-01 -9.58757E-01 -9.80246E-01 -9.73431E-01 -9.41687E-01 -9.07703E-01 -9.18041E-01 -9.82429E-01
  -1.08536E+00 -1.20819E+00 -1.32074E+00 -1.39570E+00 -1.42284E+00 -1.40555E+00 -1.35100E+00 -1.28593E+00 -1.24294E+00 -1.25973E+00
  -1.32377E+00 -1.25267E+00 -9.64471E-01 -5.34439E-01 -5.61545E-03  6.13573E-01  1.30270E+00  1.99132E+00  2.53434E+00  2.72828E+00
   2.41085E+00  1.61996E+00  6.84830E-01  8.90153E-02 -1.46228E-01 -2.85594E-01 -4.07755E-01 -5.23664E-01 -6.30058E-01 -7.21764E-01
  -7.92836E-01 -8.39853E-01 -8.74448E-01 -8.99612E-01 -9.09467E-01 -9.10924E-01 -9.15545E-01 -9.34390E-01 -9.72800E-01 -1.02601E+00
  -1.08373E+00 -1.13183E+00 -1.16226E+00 -1.17678E+00 -1.18520E+00 -1.19217E+00 -1.20034E+00 -1.21279E+00 -1.23220E+00 -1.25734E+00
  -1.28342E+00 -1.30546E+00 -1.32382E+00 -1.33600E+00 -1.34234E+00 -1.34586E+00 -1.35037E+00 -1.36061E+00 -1.37935E+00 -1.40196E+00
  -1.42470E+00 -1.44671E+00 -1.46646E+00 -1.48206E+00 -1.49278E+00 -1.50033E+00 -1.50868E+00 -1.51925E+00 -1.53090E+00 -1.54333E+00
  -1.55596E+00 -1.56847E+00 -1.58069E+00 -1.59250E+00 -1.60377E+00 -1.61439E+00 -1.62418E+00 -1.63300E+00 -1.64060E+00 -1.64668E+00
  -1.65086E+00 -1.65287E+00 -1.65239E+00 -1.64910E+00 -1.64257E+00 -1.63236E+00 -1.61793E+00 -1.59872E+00 -1.57407E+00 -1.54332E+00
  -1.50571E+00 -1.46046E+00 -1.40669E+00 -1.34352E+00 -1.27003E+00 -1.18534E+00 -1.08855E+00 -9.78773E-01 -8.55092E-01 -7.16471E-01
  -5.61299E-01 -3.85554E-01 -1.76117E-01  7.12266E-02  3.34467E-01  6.01079E-01  8.65794E-01  1.12380E+00  1.36318E+00  1.55922E+00
   1.70094E+00  1.79960E+00  1.87858E+00  1.98485E+00  2.16879E+00  2.42652E+00  2.70478E+00  2.98749E+00  3.25429E+00  3.46370E+00
   3.57181E+00  3.56458E+00  3.49311E+00  3.41158E+00  3.32089E+00  3.21900E+00  3.10669E+00  2.98559E+00  2.85749E+00  2.72413E+00
   2.58712E+00  2.44793E+00  2.30792E+00  2.16833E+00  2.03035E+00  1.89499E+00  1.76318E+00  1.63564E+00  1.51299E+00  1.39569E+00
   1.28411E+00  1.17850E+00  1.07905E+00  9.85842E-01  8.98943E-01  8.18368E-01  7.44167E-01  6.76347E-01  6.14959E-01  5.60028E-01
   5.11636E-01  4.69852E-01  4.34804E-01  4.06590E-01  3.85334E-01  3.71106E-01  3.63988E-01  3.63982E-01  3.71066E-01  3.85092E-01
   4.05845E-01  4.32957E-01  4.65977E-01  5.04291E-01  5.47188E-01  5.93792E-01  6.43147E-01  6.94168E-01  7.45748E-01  7.96707E-01
   8.45905E-01  8.92191E-01  9.34527E-01  9.71944E-01  1.00366E+00  1.02900E+00  1.04753E+00  1.05895E+00  1.06316E+00  1.06025E+00
   1.05049E+00  1.03427E+00  1.01212E+00  9.84625E-01  9.52490E-01  9.16404E-01  8.77112E-01  8.35303E-01  7.91667E-01  7.46804E-01
   7.01298E-01  6.55628E-01  6.10244E-01  5.65485E-01  5.21653E-01  4.78953E-01  4.37576E-01  3.97624E-01  3.59196E-01  3.22311E-01
   2.86996E-01  2.53216E-01  2.20964E-01  1.90180E-01  1.60830E-01  1.32835E-01  1.06145E-01  8.06782E-02  5.63905E-02  3.32036E-02
   1.10736E-02 -1.00808E-02 -3.02996E-02 -4.96530E-02 -6.81685E-02 -8.59101E-02 -1.02905E-01 -1.19217E-01 -1.34866E-01 -1.49904E-01
  -1.64342E-01 -1.78230E-01 -1.91581E-01 -2.04444E-01 -2.16826E-01 -2.28763E-01 -2.40258E-01 -2.51351E-01 -2.62046E-01 -2.72383E-01
  -2.82356E-01 -2.91998E-01 -3.01303E-01 -3.10307E-01 -3.19010E-01 -3.27440E-01 -3.35590E-01 -3.43485E-01 -3.51120E-01 -3.58526E-01
  -3.65700E-01 -3.72665E-01 -3.79411E-01 -3.85962E-01 -3.92312E-01 -3.98491E-01 -4.04491E-01 -4.10334E-01 -4.16009E-01 -4.21540E-01
  -4.26923E-01 -4.32186E-01 -4.37320E-01 -4.42348E-01 -4.47259E-01 -4.52083E-01 -4.56817E-01 -4.61491E-01
 NY background values follow
     2.981E-01    2.930E-01    2.880E-01    2.829E-01    2.778E-01    2.727E-01    2.676E-01    2.625E-01    2.574E-01    2.522E-01
     2.471E-01    2.420E-01    2.368E-01    2.317E-01    2.265E-01    2.213E-01    2.161E-01    2.109E-01    2.057E-01    2.005E-01
     1.953E-01    1.901E-01    1.849E-01    1.797E-01    1.744E-01    1.692E-01    1.639E-01    1.587E-01    1.534E-01    1.481E-01
     1.429E-01    1.376E-01    1.323E-01    1.270E-01    1.217E-01    1.164E-01    1.111E-01    1.058E-01    1.005E-01    9.515E-02
     8.983E-02    8.449E-02    7.916E-02    7.382E-02    6.848E-02    6.313E-02    5.778E-02    5.242E-02    4.706E-02    4.170E-02
     3.633E-02    3.096E-02    2.558E-02    2.021E-02    1.483E-02    9.442E-03    4.055E-03   -1.334E-03   -6.726E-03   -1.212E-02
    -1.752E-02   -2.292E-02   -2.832E-02   -3.372E-02   -3.913E-02   -4.454E-02   -4.995E-02   -5.536E-02   -6.077E-02   -6.619E-02
    -7.160E-02   -7.702E-02   -8.244E-02   -8.786E-02   -9.328E-02   -9.870E-02   -1.041E-01   -1.095E-01   -1.150E-01   -1.204E-01
    -1.258E-01   -1.312E-01   -1.367E-01   -1.421E-01   -1.475E-01   -1.529E-01   -1.584E-01   -1.638E-01   -1.692E-01   -1.746E-01
    -1.800E-01   -1.855E-01   -1.909E-01   -1.963E-01   -2.017E-01   -2.071E-01   -2.125E-01   -2.179E-01   -2.234E-01   -2.288E-01
    -2.342E-01   -2.396E-01   -2.450E-01   -2.504E-01   -2.558E-01   -2.612E-01   -2.665E-01   -2.719E-01   -2.773E-01   -2.827E-01
    -2.881E-01   -2.935E-01   -2.988E-01   -3.042E-01   -3.096E-01   -3.149E-01   -3.203E-01   -3.256E-01   -3.310E-01   -3.363E-01
    -3.417E-01   -3.470E-01   -3.523E-01   -3.577E-01   -3.630E-01   -3.683E-01   -3.736E-01   -3.789E-01   -3.842E-01   -3.895E-01
    -3.948E-01   -4.001E-01   -4.054E-01   -4.107E-01   -4.160E-01   -4.212E-01   -4.265E-01   -4.317E-01   -4.370E-01   -4.422E-01
    -4.474E-01   -4.527E-01   -4.579E-01   -4.631E-01   -4.683E-01   -4.735E-01   -4.787E-01   -4.839E-01   -4.891E-01   -4.942E-01
    -4.994E-01   -5.046E-01   -5.097E-01   -5.148E-01   -5.200E-01   -5.251E-01   -5.302E-01   -5.353E-01   -5.404E-01   -5.455E-01
    -5.506E-01   -5.557E-01   -5.607E-01   -5.658E-01   -5.708E-01   -5.759E-01   -5.809E-01   -5.859E-01   -5.909E-01   -5.959E-01
    -6.009E-01   -6.059E-01   -6.109E-01   -6.158E-01   -6.208E-01   -6.257E-01   -6.306E-01   -6.355E-01   -6.405E-01   -6.454E-01
    -6.502E-01   -6.551E-01   -6.600E-01   -6.648E-01   -6.697E-01   -6.745E-01   -6.793E-01   -6.841E-01   -6.889E-01   -6.937E-01
    -6.985E-01   -7.032E-01   -7.080E-01   -7.127E-01   -7.174E-01   -7.222E-01   -7.269E-01   -7.315E-01   -7.362E-01   -7.409E-01
    -7.455E-01   -7.502E-01   -7.548E-01   -7.594E-01   -7.640E-01   -7.686E-01   -7.731E-01   -7.777E-01   -7.822E-01   -7.867E-01
    -7.913E-01   -7.958E-01   -8.002E-01   -8.047E-01   -8.092E-01   -8.136E-01   -8.180E-01   -8.225E-01   -8.268E-01   -8.312E-01
    -8.356E-01   -8.400E-01   -8.443E-01   -8.486E-01   -8.529E-01   -8.572E-01   -8.615E-01   -8.657E-01   -8.700E-01   -8.742E-01
    -8.784E-01   -8.826E-01   -8.868E-01   -8.910E-01   -8.951E-01   -8.992E-01   -9.034E-01   -9.075E-01   -9.115E-01   -9.156E-01
    -9.196E-01   -9.237E-01   -9.277E-01   -9.317E-01   -9.357E-01   -9.396E-01   -9.436E-01   -9.475E-01   -9.514E-01   -9.553E-01
    -9.592E-01   -9.630E-01   -9.669E-01   -9.707E-01   -9.745E-01   -9.783E-01   -9.820E-01   -9.858E-01   -9.895E-01   -9.932E-01
    -9.969E-01   -1.001E+00   -1.004E+00   -1.008E+00   -1.011E+00   -1.015E+00   -1.019E+00   -1.022E+00   -1.026E+00   -1.029E+00
    -1.033E+00   -1.036E+00   -1.040E+00   -1.043E+00   -1.046E+00   -1.050E+00   -1.053E+00   -1.057E+00   -1.060E+00   -1.063E+00
    -1.067E+00   -1.070E+00   -1.073E+00   -1.076E+00   -1.079E+00   -1.083E+00   -1.086E+00   -1.089E+00   -1.092E+00   -1.095E+00
    -1.098E+00   -1.101E+00   -1.104E+00   -1.107E+00   -1.110E+00   -1.113E+00   -1.116E+00   -1.119E+00   -1.122E+00   -1.125E+00
    -1.128E+00   -1.131E+00   -1.134E+00   -1.136E+00   -1.139E+00   -1.142E+00   -1.145E+00   -1.147E+00   -1.150E+00   -1.153E+00
    -1.155E+00   -1.158E+00   -1.160E+00   -1.163E+00   -1.166E+00   -1.168E+00   -1.171E+00   -1.173E+00   -1.175E+00   -1.178E+00
    -1.180E+00   -1.183E+00   -1.185E+00   -1.187E+00   -1.190E+00   -1.192E+00   -1.194E+00   -1.196E+00   -1.199E+00   -1.201E+00
    -1.203E+00   -1.205E+00   -1.207E+00   -1.209E+00   -1.211E+00   -1.213E+00   -1.215E+00   -1.217E+00   -1.219E+00   -1.221E+00
    -1.223E+00   -1.225E+00   -1.227E+00   -1.228E+00   -1.230E+00   -1.232E+00   -1.234E+00   -1.236E+00   -1.237E+00   -1.239E+00
    -1.241E+00   -1.242E+00   -1.244E+00   -1.245E+00   -1.247E+00   -1.248E+00   -1.250E+00   -1.251E+00   -1.253E+00   -1.254E+00
    -1.255E+00   -1.257E+00   -1.258E+00   -1.259E+00   -1.261E+00   -1.262E+00   -1.263E+00   -1.264E+00   -1.265E+00   -1.267E+00
    -1.268E+00   -1.269E+00   -1.270E+00   -1.271E+00   -1.272E+00   -1.273E+00   -1.274E+00   -1.275E+00   -1.275E+00   -1.276E+00
    -1.277E+00   -1.278E+00   -1.279E+00   -1.279E+00   -1.280E+00   -1.281E+00   -1.281E+00   -1.282E+00   -1.283E+00   -1.283E+00
    -1.284E+00   -1.284E+00   -1.285E+00   -1.285E+00   -1.286E+00   -1.286E+00   -1.286E+00   -1.287E+00   -1.287E+00   -1.287E+00
    -1.287E+00   -1.288E+00   -1.288E+00   -1.288E+00   -1.288E+00   -1.288E+00   -1.288E+00   -1.288E+00   -1.288E+00   -1.288E+00
    -1.288E+00   -1.288E+00   -1.288E+00   -1.288E+00   -1.288E+00   -1.288E+00   -1.287E+00   -1.287E+00   -1.287E+00   -1.286E+00
    -1.286E+00   -1.286E+00   -1.285E+00   -1.285E+00   -1.284E+00   -1.284E+00   -1.283E+00   -1.283E+00   -1.282E+00   -1.281E+00
    -1.281E+00   -1.280E+00   -1.279E+00   -1.279E+00   -1.278E+00   -1.277E+00   -1.276E+00   -1.275E+00   -1.274E+00   -1.273E+00
    -1.272E+00   -1.271E+00   -1.270E+00   -1.269E+00   -1.268E+00   -1.267E+00   -1.266E+00   -1.265E+00   -1.264E+00   -1.262E+00
    -1.261E+00   -1.260E+00   -1.258E+00   -1.257E+00   -1.256E+00   -1.254E+00   -1.253E+00   -1.251E+00   -1.250E+00   -1.248E+00
    -1.246E+00   -1.245E+00   -1.243E+00   -1.241E+00   -1.240E+00   -1.238E+00   -1.236E+00   -1.234E+00   -1.232E+00   -1.230E+00
    -1.229E+00   -1.227E+00   -1.225E+00   -1.223E+00   -1.221E+00   -1.218E+00   -1.216E+00   -1.214E+00   -1.212E+00   -1.210E+00
    -1.208E+00   -1.205E+00   -1.203E+00   -1.201E+00   -1.198E+00   -1.196E+00   -1.193E+00   -1.191E+00   -1.188E+00   -1.186E+00
    -1.183E+00   -1.181E+00   -1.178E+00   -1.175E+00   -1.173E+00   -1.170E+00   -1.167E+00   -1.164E+00
 Asp      Conc. = 1.41E+01
