 LCModel (Version 6.3-1L) Copyright: S.W. Provencher.          Ref.: Magn. Reson. Med. 30:672-679 (1993).                
 Slice#1 Row#10 Col#1  PD_05_press_1_raw_act
 36 lines in following concentration table = NCONC+1
    Conc.  %SD /Cr+PCr  Metabolite                                         
    0.000 999%   0.000 Ala                                                 
    7.153  73%   0.145 Asp                                                 
    0.000 999%   0.000 Cr                                                  
   49.392  23%   1.000 PCr                                                 
    3.658  85% 7.4E-02 GABA                                                
    3.785  83% 7.7E-02 Glc                                                 
  148.125  41%   2.999 Gln                                                 
  110.998  60%   2.247 Glu                                                 
    3.859 115% 7.8E-02 GPC                                                 
    0.000 999%   0.000 PCh                                                 
   14.659 122%   0.297 GSH                                                 
    0.000 999%   0.000 Ins                                                 
    0.000 999%   0.000 Lac                                                 
   65.926  21%   1.335 NAA                                                 
    0.000 999%   0.000 NAAG                                                
    1.095  95% 2.2E-02 Scyllo                                              
    5.031 103%   0.102 Tau                                                 
    0.000 999%   0.000 -CrCH2                                              
    3.859 115% 7.8E-02 GPC+PCh                                             
   65.926  21%   1.335 NAA+NAAG                                            
   49.392  23%   1.000 Cr+PCr                                              
  259.123  38%   5.246 Glu+Gln                                             
    0.000 999%   0.000 Lip13a                                              
   44.337  57%   0.898 Lip13b                                              
   12.021  60%   0.243 Lip09                                               
   14.318 244%   0.290 MM09                                                
    6.617  64%   0.134 Lip20                                               
    6.238 885%   0.126 MM20                                                
    3.157 423% 6.4E-02 MM12                                                
    5.041 804%   0.102 MM14                                                
    7.236 361%   0.147 MM17                                                
   44.337  57%   0.898 Lip13a+Lip13b                                       
   52.535 103%   1.064 MM14+Lip13a+Lip13b+MM12                             
   26.339 135%   0.533 MM09+Lip09                                          
   12.855 430%   0.260 MM20+Lip20                                          
   6 lines in following misc. output table
  FWHM = 0.061 ppm    S/N =   1                                            
  Data shift =-0.023 ppm                                                   
  Ph: 100 deg       4.0 deg/ppm                                            
  alphaB,S = 6.2E-01,   6.9E+01                                            
   14 spline knots.   Ns = 6(1)                                            
  ( 5) 2 infls.   ( 1) 1 extrs.                                            
  498 points on ppm-axis = NY
      4.000000     3.992357     3.984714     3.977070     3.969427     3.961784     3.954141     3.946497     3.938854     3.931211
      3.923568     3.915925     3.908281     3.900638     3.892995     3.885352     3.877708     3.870065     3.862422     3.854779
      3.847136     3.839492     3.831849     3.824206     3.816563     3.808919     3.801276     3.793633     3.785990     3.778347
      3.770703     3.763060     3.755417     3.747774     3.740130     3.732487     3.724844     3.717201     3.709558     3.701914
      3.694271     3.686628     3.678985     3.671341     3.663698     3.656055     3.648412     3.640769     3.633125     3.625482
      3.617839     3.610196     3.602552     3.594909     3.587266     3.579623     3.571980     3.564336     3.556693     3.549050
      3.541407     3.533763     3.526120     3.518477     3.510834     3.503191     3.495547     3.487904     3.480261     3.472618
      3.464974     3.457331     3.449688     3.442045     3.434402     3.426758     3.419115     3.411472     3.403829     3.396185
      3.388542     3.380899     3.373256     3.365613     3.357969     3.350326     3.342683     3.335040     3.327396     3.319753
      3.312110     3.304467     3.296824     3.289180     3.281537     3.273894     3.266251     3.258607     3.250964     3.243321
      3.235678     3.228034     3.220391     3.212748     3.205105     3.197462     3.189818     3.182175     3.174532     3.166889
      3.159245     3.151602     3.143959     3.136316     3.128673     3.121029     3.113386     3.105743     3.098100     3.090456
      3.082813     3.075170     3.067527     3.059884     3.052240     3.044597     3.036954     3.029311     3.021667     3.014024
      3.006381     2.998738     2.991095     2.983451     2.975808     2.968165     2.960522     2.952878     2.945235     2.937592
      2.929949     2.922306     2.914662     2.907019     2.899376     2.891733     2.884089     2.876446     2.868803     2.861160
      2.853517     2.845873     2.838230     2.830587     2.822944     2.815300     2.807657     2.800014     2.792371     2.784728
      2.777084     2.769441     2.761798     2.754155     2.746511     2.738868     2.731225     2.723582     2.715939     2.708295
      2.700652     2.693009     2.685366     2.677722     2.670079     2.662436     2.654793     2.647150     2.639506     2.631863
      2.624220     2.616577     2.608933     2.601290     2.593647     2.586004     2.578361     2.570717     2.563074     2.555431
      2.547788     2.540144     2.532501     2.524858     2.517215     2.509572     2.501928     2.494285     2.486642     2.478999
      2.471355     2.463712     2.456069     2.448426     2.440783     2.433139     2.425496     2.417853     2.410210     2.402566
      2.394923     2.387280     2.379637     2.371994     2.364350     2.356707     2.349064     2.341421     2.333777     2.326134
      2.318491     2.310848     2.303205     2.295561     2.287918     2.280275     2.272632     2.264988     2.257345     2.249702
      2.242059     2.234416     2.226772     2.219129     2.211486     2.203843     2.196199     2.188556     2.180913     2.173270
      2.165627     2.157983     2.150340     2.142697     2.135054     2.127410     2.119767     2.112124     2.104481     2.096838
      2.089194     2.081551     2.073908     2.066265     2.058621     2.050978     2.043335     2.035692     2.028049     2.020405
      2.012762     2.005119     1.997476     1.989833     1.982190     1.974546     1.966903     1.959260     1.951617     1.943974
      1.936331     1.928688     1.921045     1.913402     1.905759     1.898115     1.890472     1.882829     1.875186     1.867543
      1.859900     1.852257     1.844614     1.836971     1.829327     1.821684     1.814041     1.806398     1.798755     1.791112
      1.783469     1.775826     1.768183     1.760540     1.752896     1.745253     1.737610     1.729967     1.722324     1.714681
      1.707038     1.699395     1.691752     1.684108     1.676465     1.668822     1.661179     1.653536     1.645893     1.638250
      1.630607     1.622964     1.615321     1.607677     1.600034     1.592391     1.584748     1.577105     1.569462     1.561819
      1.554176     1.546533     1.538890     1.531246     1.523603     1.515960     1.508317     1.500674     1.493031     1.485388
      1.477745     1.470102     1.462458     1.454815     1.447172     1.439529     1.431886     1.424243     1.416600     1.408957
      1.401314     1.393671     1.386027     1.378384     1.370741     1.363098     1.355455     1.347812     1.340169     1.332526
      1.324883     1.317240     1.309596     1.301953     1.294310     1.286667     1.279024     1.271381     1.263738     1.256095
      1.248452     1.240808     1.233165     1.225522     1.217879     1.210236     1.202593     1.194950     1.187307     1.179664
      1.172021     1.164377     1.156734     1.149091     1.141448     1.133805     1.126162     1.118519     1.110876     1.103233
      1.095590     1.087946     1.080303     1.072660     1.065017     1.057374     1.049731     1.042088     1.034445     1.026802
      1.019158     1.011515     1.003872     0.996229     0.988586     0.980943     0.973300     0.965657     0.958014     0.950371
      0.942727     0.935084     0.927441     0.919798     0.912155     0.904512     0.896869     0.889226     0.881583     0.873940
      0.866296     0.858653     0.851010     0.843367     0.835724     0.828081     0.820438     0.812795     0.805152     0.797508
      0.789865     0.782222     0.774579     0.766936     0.759293     0.751650     0.744007     0.736364     0.728721     0.721077
      0.713434     0.705791     0.698148     0.690505     0.682862     0.675219     0.667576     0.659933     0.652290     0.644646
      0.637003     0.629360     0.621717     0.614074     0.606431     0.598788     0.591145     0.583502     0.575858     0.568215
      0.560572     0.552929     0.545286     0.537643     0.530000     0.522357     0.514714     0.507071     0.499427     0.491784
      0.484141     0.476498     0.468855     0.461212     0.453569     0.445925     0.438282     0.430639     0.422996     0.415353
      0.407710     0.400067     0.392424     0.384780     0.377137     0.369494     0.361851     0.354208     0.346565     0.338922
      0.331278     0.323635     0.315992     0.308349     0.300706     0.293063     0.285420     0.277777     0.270133     0.262490
      0.254847     0.247204     0.239561     0.231918     0.224275     0.216631     0.208988     0.201345
 NY phased data points follow
   1.64070E+01  1.42579E+01  1.45292E+01  1.50855E+01  1.62546E+01  1.48456E+01  1.45846E+01  1.38979E+01  1.31521E+01  1.35208E+01
   1.37879E+01  1.44710E+01  1.30798E+01  1.49200E+01  1.20446E+01  1.15219E+01  1.17994E+01  1.15853E+01  1.06158E+01  1.25776E+01
   1.20428E+01  1.15562E+01  1.29806E+01  1.21304E+01  1.10938E+01  1.27709E+01  9.94359E+00  1.27624E+01  1.15095E+01  9.57332E+00
   1.10396E+01  1.18120E+01  1.08746E+01  1.08145E+01  1.08340E+01  1.13996E+01  9.88207E+00  9.05157E+00  8.46357E+00  1.00450E+01
   9.53761E+00  1.02034E+01  9.72483E+00  9.70008E+00  1.11493E+01  9.72405E+00  8.36839E+00  9.77870E+00  1.10586E+01  9.44667E+00
   1.02022E+01  9.38978E+00  9.48639E+00  7.71793E+00  8.16069E+00  8.95667E+00  8.48927E+00  7.68923E+00  6.68106E+00  6.44227E+00
   7.72173E+00  9.06327E+00  8.93963E+00  8.22784E+00  8.02527E+00  7.73337E+00  7.84060E+00  7.33233E+00  8.51982E+00  7.91867E+00
   7.85714E+00  8.09157E+00  7.63924E+00  7.93086E+00  6.96317E+00  7.87719E+00  7.66826E+00  7.31750E+00  7.73661E+00  8.49953E+00
   8.57953E+00  6.71524E+00  7.24501E+00  8.26175E+00  8.09081E+00  8.03574E+00  6.83182E+00  5.58275E+00  6.88998E+00  7.06304E+00
   5.69360E+00  7.58915E+00  6.49903E+00  7.08263E+00  6.01978E+00  5.85437E+00  7.42643E+00  5.27485E+00  7.15594E+00  6.39788E+00
   7.23447E+00  7.00016E+00  7.20137E+00  6.86971E+00  6.89305E+00  7.69705E+00  5.61915E+00  6.38039E+00  7.08477E+00  6.05611E+00
   5.78023E+00  5.72242E+00  6.21342E+00  7.49259E+00  5.93992E+00  6.48528E+00  4.78401E+00  6.43326E+00  5.55183E+00  5.97431E+00
   5.86383E+00  5.71083E+00  5.37134E+00  6.70129E+00  5.33738E+00  7.31929E+00  5.36443E+00  7.55737E+00  6.60068E+00  7.17966E+00
   6.58157E+00  5.26291E+00  4.44428E+00  3.56091E+00  4.35783E+00  6.88676E+00  6.12260E+00  5.87600E+00  5.01618E+00  5.22349E+00
   5.29900E+00  5.34917E+00  5.70056E+00  6.00391E+00  5.92097E+00  5.62506E+00  4.69984E+00  5.04670E+00  5.28571E+00  4.76468E+00
   4.85987E+00  4.14957E+00  4.81806E+00  5.56743E+00  3.22630E+00  5.21415E+00  3.88633E+00  4.66998E+00  4.01195E+00  4.69856E+00
   3.32718E+00  5.37215E+00  5.00913E+00  4.54825E+00  2.88607E+00  3.70478E+00  3.80349E+00  4.12479E+00  4.51137E+00  5.20782E+00
   5.28286E+00  5.14502E+00  5.19822E+00  4.91185E+00  5.11647E+00  5.04223E+00  3.96500E+00  6.38036E+00  5.02505E+00  3.49937E+00
   4.06992E+00  4.12743E+00  5.91963E+00  6.39427E+00  4.43721E+00  4.54355E+00  3.74171E+00  4.74014E+00  5.17452E+00  5.04198E+00
   2.52777E+00  4.99962E+00  4.24455E+00  4.83611E+00  4.25369E+00  2.65781E+00  3.54144E+00  3.68595E+00  3.80444E+00  2.91896E+00
   5.12317E+00  5.58070E+00  3.83110E+00  5.92550E+00  3.96812E+00  6.31638E+00  3.74424E+00  5.20545E+00  4.84736E+00  4.31781E+00
   2.43081E+00  5.48500E+00  1.60716E+00  3.52122E+00  2.00918E+00  4.49206E+00  3.60964E+00  4.34574E+00  4.47890E+00  3.55648E+00
   2.07139E+00  4.12128E+00  2.40702E+00  3.76810E+00  2.60056E+00  2.19735E+00  3.90986E+00  4.13364E+00  3.60398E+00  2.85495E+00
   3.25535E+00  2.87405E+00  3.34622E+00  3.85944E+00  4.58404E+00  2.61567E+00  3.52092E+00  3.28177E+00  2.25825E+00  3.38423E+00
   5.09517E+00  2.78752E+00  3.39048E+00  4.02543E+00  3.47882E+00  2.41168E+00  3.44589E+00  1.34732E+00  1.35071E+00  2.81561E+00
   2.20806E+00  1.86641E+00  3.22310E+00  2.36629E+00  2.68102E+00  3.49124E+00  3.56937E+00  4.93836E+00  3.39396E+00  5.84866E+00
   5.29549E+00  4.10160E+00  3.63336E+00  5.20610E+00  3.64137E+00  4.11432E+00  4.34943E+00  6.81303E-01  1.96362E+00  1.35954E+00
   3.46775E+00  3.02021E+00  2.52289E+00  2.60943E+00  3.11407E+00  2.69078E+00  1.65487E+00  1.52161E+00  1.38845E+00  2.32380E+00
   1.60153E+00  2.46919E+00  2.14762E+00  1.87722E+00  2.57756E+00  2.76899E+00  2.35145E+00  6.85258E-01  1.39892E+00  4.47959E+00
   1.30120E+00  2.88292E+00  2.82001E+00  2.13323E+00  1.56081E+00  2.55196E+00  2.47093E+00  2.49661E+00  2.18485E+00  2.26324E-01
   1.01309E+00  3.22465E+00  1.21857E+00  2.71233E+00  1.71383E+00  2.83557E+00  1.90075E+00  1.12305E+00  2.11989E+00  2.69368E+00
   1.16875E+00  2.87041E+00  1.52071E+00  2.74388E+00  1.97970E+00  2.14052E+00  3.15818E+00  3.62332E+00  2.46504E+00  1.30468E+00
   2.62039E+00  2.38720E+00  4.70584E-01  1.55579E+00  1.61723E+00 -4.80199E-01  1.79818E+00  9.95389E-01  5.79406E-01  2.35341E+00
   4.82847E-01  3.57146E+00  1.29640E+00  8.71979E-01  2.50303E+00  1.58371E+00  1.79588E+00  9.93621E-01  2.10154E+00  2.04888E+00
   2.39679E+00  2.51481E+00  5.17418E-01  2.08500E+00  2.40404E+00  8.62388E-01  2.84129E+00  1.01061E+00  1.75525E+00  1.39937E+00
   3.11415E+00  2.63445E+00  1.81070E+00  2.83925E+00  1.41428E+00  1.26219E+00  2.07582E+00  2.40736E+00  2.07309E+00  3.59464E-01
   1.86015E+00  1.96842E+00  1.48829E+00  4.28555E-01 -2.73865E-01  2.53966E+00  1.67444E-01  2.29863E+00  9.82699E-01  5.93107E-01
   4.20866E-01  1.68983E+00  1.64445E+00  1.43277E+00  1.62900E+00  2.46617E+00  1.18009E+00  4.47044E-01  1.22345E+00  3.24646E-01
   7.63304E-01  6.21730E-01  9.62170E-01  9.71183E-01  2.21707E+00  2.20324E+00 -2.88714E-01  3.08975E-01  1.90850E+00  1.18815E+00
   1.78674E+00  7.43987E-01  2.68608E+00  7.86352E-01  7.90400E-01  3.05614E+00  1.57816E+00  1.63563E+00  1.97325E+00  2.26175E+00
   2.30345E+00  8.48442E-01  1.52113E+00 -2.29251E-01  2.14992E+00  1.50387E+00  2.91009E+00  2.68064E+00  4.79223E-01  2.31562E+00
  -1.47481E-01  2.05214E+00  1.10857E-01  8.60761E-01  1.61854E+00  1.11200E+00  5.63525E-01  1.12597E+00  1.60916E+00  1.68135E+00
   3.93029E-01  8.56150E-01  9.13847E-01  8.52377E-01  1.26817E+00  8.05770E-01  6.22502E-01  2.24952E+00  1.85725E+00  1.30424E+00
   9.65962E-01  5.44691E-01  6.53325E-01  5.48634E-01  7.44643E-01  1.49982E+00  1.71381E+00  1.36419E+00 -4.56323E-02  9.79909E-01
   3.40969E-01  1.01848E+00  6.43797E-01  9.40171E-01  1.33912E-01  1.19876E+00  2.44064E+00  1.14349E+00 -8.52586E-01  1.29061E+00
   2.65678E+00 -2.39521E-02  8.63370E-01  1.56124E-01  1.70404E+00  7.17874E-01  1.19987E+00  7.87207E-01 -4.67498E-01  1.20792E+00
   7.06587E-01  1.95653E+00  7.30685E-01 -1.83845E-01  1.48499E+00  2.12309E+00  3.42453E-01  7.72466E-01  2.99010E-01  5.37745E-01
   4.30920E-01  4.58657E-01  1.57093E+00  2.11200E+00  3.62376E-01  6.65391E-01  1.26171E+00  5.94325E-01 -5.72522E-03 -3.21824E-01
   7.89065E-01  2.56571E-01  1.21258E+00  6.09945E-01  1.27621E+00  1.06623E+00 -8.27080E-01  9.22952E-01 -4.51391E-01  4.81700E-01
   7.94267E-01  3.01333E-01  1.87781E+00  1.94571E-01  6.05581E-01  7.88540E-01  2.09302E+00  8.47130E-01
 NY points of the fit to the data follow
   1.31672E+01  1.31208E+01  1.31042E+01  1.31369E+01  1.32004E+01  1.32752E+01  1.33516E+01  1.34180E+01  1.34564E+01  1.34499E+01
   1.33810E+01  1.32291E+01  1.29878E+01  1.26821E+01  1.23633E+01  1.20972E+01  1.19344E+01  1.18587E+01  1.18075E+01  1.17652E+01
   1.17279E+01  1.16785E+01  1.16065E+01  1.15182E+01  1.14267E+01  1.13343E+01  1.12544E+01  1.12069E+01  1.11881E+01  1.11904E+01
   1.12144E+01  1.12561E+01  1.12906E+01  1.12866E+01  1.12076E+01  1.10158E+01  1.07274E+01  1.04067E+01  1.01238E+01  9.93027E+00
   9.86690E+00  9.91469E+00  9.99748E+00  1.00543E+01  1.00519E+01  9.98252E+00  9.86452E+00  9.74064E+00  9.63649E+00  9.54607E+00
   9.46420E+00  9.38821E+00  9.31532E+00  9.24410E+00  9.17392E+00  9.10382E+00  9.03397E+00  8.96563E+00  8.89944E+00  8.83495E+00
   8.77201E+00  8.71060E+00  8.65056E+00  8.59181E+00  8.53362E+00  8.47527E+00  8.41673E+00  8.35836E+00  8.30030E+00  8.24324E+00
   8.18783E+00  8.13382E+00  8.08095E+00  8.02929E+00  7.97847E+00  7.92746E+00  7.87552E+00  7.82223E+00  7.76660E+00  7.70949E+00
   7.65434E+00  7.60328E+00  7.55693E+00  7.51587E+00  7.47815E+00  7.43998E+00  7.39891E+00  7.35324E+00  7.30164E+00  7.24407E+00
   7.18215E+00  7.11860E+00  7.05782E+00  7.00478E+00  6.96125E+00  6.92485E+00  6.89808E+00  6.89004E+00  6.89710E+00  6.91100E+00
   6.92601E+00  6.93626E+00  6.93519E+00  6.91756E+00  6.87921E+00  6.81486E+00  6.72183E+00  6.60538E+00  6.47977E+00  6.36706E+00
   6.28768E+00  6.24324E+00  6.21182E+00  6.18288E+00  6.15521E+00  6.12946E+00  6.10675E+00  6.08806E+00  6.07665E+00  6.08326E+00
   6.14336E+00  6.27630E+00  6.44942E+00  6.63612E+00  6.82267E+00  6.99028E+00  7.11206E+00  7.16271E+00  7.11309E+00  6.93063E+00
   6.61213E+00  6.20370E+00  5.78996E+00  5.47072E+00  5.30834E+00  5.25324E+00  5.21729E+00  5.18340E+00  5.15477E+00  5.13626E+00
   5.13087E+00  5.13634E+00  5.14317E+00  5.14052E+00  5.12415E+00  5.09457E+00  5.05616E+00  5.01572E+00  4.97751E+00  4.94277E+00
   4.91105E+00  4.88080E+00  4.85214E+00  4.82521E+00  4.79913E+00  4.77145E+00  4.74193E+00  4.71209E+00  4.68277E+00  4.65515E+00
   4.62859E+00  4.60249E+00  4.57765E+00  4.55575E+00  4.53818E+00  4.52404E+00  4.51017E+00  4.49184E+00  4.46459E+00  4.42796E+00
   4.38680E+00  4.34708E+00  4.31402E+00  4.28757E+00  4.26286E+00  4.23749E+00  4.21266E+00  4.19049E+00  4.17246E+00  4.15865E+00
   4.14730E+00  4.13493E+00  4.12023E+00  4.10444E+00  4.09062E+00  4.08458E+00  4.08884E+00  4.09740E+00  4.10187E+00  4.09740E+00
   4.08473E+00  4.05875E+00  4.01395E+00  3.94963E+00  3.87047E+00  3.79114E+00  3.73837E+00  3.73190E+00  3.77639E+00  3.87110E+00
   4.00773E+00  4.15722E+00  4.28451E+00  4.35360E+00  4.31844E+00  4.15617E+00  3.90395E+00  3.60597E+00  3.30626E+00  3.06574E+00
   2.94559E+00  2.95862E+00  3.10037E+00  3.36341E+00  3.70068E+00  4.01804E+00  4.22006E+00  4.23822E+00  4.06752E+00  3.78708E+00
   3.49703E+00  3.25350E+00  3.10319E+00  3.07563E+00  3.16105E+00  3.30929E+00  3.48087E+00  3.63633E+00  3.73494E+00  3.74588E+00
   3.66308E+00  3.52784E+00  3.39705E+00  3.29224E+00  3.21846E+00  3.18764E+00  3.20014E+00  3.22952E+00  3.25995E+00  3.29003E+00
   3.31356E+00  3.31482E+00  3.27745E+00  3.18181E+00  3.02155E+00  2.84325E+00  2.70951E+00  2.64725E+00  2.66635E+00  2.76120E+00
   2.89499E+00  3.02300E+00  3.14489E+00  3.27094E+00  3.43688E+00  3.66266E+00  3.90419E+00  4.12654E+00  4.32476E+00  4.49819E+00
   4.62915E+00  4.69006E+00  4.63835E+00  4.42300E+00  4.02990E+00  3.51267E+00  2.98429E+00  2.58445E+00  2.40058E+00  2.36459E+00
   2.35870E+00  2.36040E+00  2.36662E+00  2.37309E+00  2.38019E+00  2.38753E+00  2.39113E+00  2.38749E+00  2.37498E+00  2.35463E+00
   2.33030E+00  2.30704E+00  2.28722E+00  2.27090E+00  2.25800E+00  2.24791E+00  2.23925E+00  2.23064E+00  2.22102E+00  2.21031E+00
   2.19896E+00  2.18720E+00  2.17525E+00  2.16339E+00  2.15175E+00  2.14020E+00  2.12868E+00  2.11735E+00  2.10623E+00  2.09514E+00
   2.08399E+00  2.07278E+00  2.06138E+00  2.04975E+00  2.03786E+00  2.02573E+00  2.01334E+00  2.00070E+00  1.98785E+00  1.97485E+00
   1.96178E+00  1.94873E+00  1.93573E+00  1.92285E+00  1.91015E+00  1.89767E+00  1.88546E+00  1.87354E+00  1.86195E+00  1.85069E+00
   1.83977E+00  1.82918E+00  1.81892E+00  1.80898E+00  1.79935E+00  1.79000E+00  1.78092E+00  1.77207E+00  1.76346E+00  1.75506E+00
   1.74686E+00  1.73887E+00  1.73108E+00  1.72352E+00  1.71622E+00  1.70927E+00  1.70276E+00  1.69687E+00  1.69188E+00  1.68818E+00
   1.68640E+00  1.68736E+00  1.69216E+00  1.70216E+00  1.71884E+00  1.74363E+00  1.77755E+00  1.82082E+00  1.87238E+00  1.92961E+00
   1.98816E+00  2.04225E+00  2.08530E+00  2.11090E+00  2.11397E+00  2.09175E+00  2.04449E+00  1.97547E+00  1.89048E+00  1.79684E+00
   1.70211E+00  1.61299E+00  1.53442E+00  1.46924E+00  1.41820E+00  1.38041E+00  1.35392E+00  1.33630E+00  1.32511E+00  1.31824E+00
   1.31401E+00  1.31126E+00  1.30923E+00  1.30747E+00  1.30578E+00  1.30408E+00  1.30237E+00  1.30069E+00  1.29910E+00  1.29769E+00
   1.29650E+00  1.29560E+00  1.29504E+00  1.29486E+00  1.29512E+00  1.29583E+00  1.29702E+00  1.29869E+00  1.30083E+00  1.30340E+00
   1.30636E+00  1.30963E+00  1.31310E+00  1.31663E+00  1.32008E+00  1.32328E+00  1.32602E+00  1.32811E+00  1.32933E+00  1.32950E+00
   1.32841E+00  1.32593E+00  1.32192E+00  1.31629E+00  1.30902E+00  1.30012E+00  1.28964E+00  1.27772E+00  1.26449E+00  1.25016E+00
   1.23494E+00  1.21906E+00  1.20277E+00  1.18629E+00  1.16986E+00  1.15366E+00  1.13786E+00  1.12261E+00  1.10802E+00  1.09415E+00
   1.08106E+00  1.06877E+00  1.05725E+00  1.04650E+00  1.03647E+00  1.02711E+00  1.01837E+00  1.01017E+00  1.00246E+00  9.95192E-01
   9.88297E-01  9.81728E-01  9.75436E-01  9.69380E-01  9.63526E-01  9.57844E-01  9.52304E-01  9.46883E-01  9.41561E-01  9.36322E-01
   9.31154E-01  9.26047E-01  9.20989E-01  9.15972E-01  9.10990E-01  9.06037E-01  9.01111E-01  8.96207E-01  8.91320E-01  8.86448E-01
   8.81588E-01  8.76741E-01  8.71905E-01  8.67078E-01  8.62258E-01  8.57445E-01  8.52638E-01  8.47840E-01  8.43048E-01  8.38260E-01
   8.33477E-01  8.28698E-01  8.23925E-01  8.19158E-01  8.14397E-01  8.09641E-01  8.04889E-01  8.00143E-01  7.95403E-01  7.90669E-01
   7.85940E-01  7.81216E-01  7.76498E-01  7.71786E-01  7.67083E-01  7.62388E-01  7.57700E-01  7.53019E-01  7.48345E-01  7.43682E-01
   7.39029E-01  7.34385E-01  7.29751E-01  7.25127E-01  7.20515E-01  7.15917E-01  7.11333E-01  7.06763E-01  7.02207E-01  6.97666E-01
   6.93145E-01  6.88643E-01  6.84162E-01  6.79703E-01  6.75266E-01  6.70857E-01  6.66478E-01  6.62131E-01
 NY background values follow
     1.300E+01    1.293E+01    1.285E+01    1.278E+01    1.270E+01    1.262E+01    1.255E+01    1.247E+01    1.240E+01    1.232E+01
     1.225E+01    1.217E+01    1.210E+01    1.202E+01    1.195E+01    1.187E+01    1.180E+01    1.172E+01    1.165E+01    1.157E+01
     1.150E+01    1.143E+01    1.135E+01    1.128E+01    1.121E+01    1.113E+01    1.106E+01    1.099E+01    1.091E+01    1.084E+01
     1.077E+01    1.070E+01    1.062E+01    1.055E+01    1.048E+01    1.041E+01    1.034E+01    1.027E+01    1.020E+01    1.013E+01
     1.006E+01    9.991E+00    9.922E+00    9.854E+00    9.786E+00    9.718E+00    9.651E+00    9.584E+00    9.517E+00    9.451E+00
     9.385E+00    9.320E+00    9.255E+00    9.190E+00    9.126E+00    9.062E+00    8.999E+00    8.936E+00    8.873E+00    8.811E+00
     8.749E+00    8.688E+00    8.627E+00    8.567E+00    8.506E+00    8.447E+00    8.388E+00    8.329E+00    8.270E+00    8.212E+00
     8.155E+00    8.098E+00    8.041E+00    7.985E+00    7.929E+00    7.874E+00    7.819E+00    7.765E+00    7.711E+00    7.657E+00
     7.604E+00    7.552E+00    7.500E+00    7.448E+00    7.397E+00    7.347E+00    7.296E+00    7.247E+00    7.198E+00    7.149E+00
     7.101E+00    7.053E+00    7.006E+00    6.959E+00    6.913E+00    6.867E+00    6.822E+00    6.777E+00    6.732E+00    6.689E+00
     6.645E+00    6.602E+00    6.560E+00    6.518E+00    6.476E+00    6.435E+00    6.394E+00    6.354E+00    6.314E+00    6.274E+00
     6.235E+00    6.197E+00    6.158E+00    6.121E+00    6.083E+00    6.046E+00    6.010E+00    5.974E+00    5.938E+00    5.902E+00
     5.867E+00    5.833E+00    5.798E+00    5.764E+00    5.731E+00    5.698E+00    5.665E+00    5.633E+00    5.601E+00    5.569E+00
     5.537E+00    5.506E+00    5.476E+00    5.445E+00    5.415E+00    5.386E+00    5.356E+00    5.327E+00    5.299E+00    5.270E+00
     5.242E+00    5.214E+00    5.187E+00    5.159E+00    5.132E+00    5.106E+00    5.079E+00    5.053E+00    5.027E+00    5.001E+00
     4.976E+00    4.950E+00    4.925E+00    4.900E+00    4.876E+00    4.851E+00    4.827E+00    4.803E+00    4.779E+00    4.755E+00
     4.732E+00    4.708E+00    4.685E+00    4.662E+00    4.639E+00    4.616E+00    4.593E+00    4.571E+00    4.548E+00    4.526E+00
     4.504E+00    4.481E+00    4.459E+00    4.437E+00    4.415E+00    4.393E+00    4.371E+00    4.349E+00    4.328E+00    4.306E+00
     4.284E+00    4.262E+00    4.241E+00    4.219E+00    4.197E+00    4.176E+00    4.154E+00    4.132E+00    4.111E+00    4.089E+00
     4.068E+00    4.046E+00    4.025E+00    4.003E+00    3.982E+00    3.960E+00    3.939E+00    3.918E+00    3.896E+00    3.875E+00
     3.854E+00    3.832E+00    3.811E+00    3.790E+00    3.769E+00    3.748E+00    3.726E+00    3.705E+00    3.684E+00    3.663E+00
     3.642E+00    3.621E+00    3.601E+00    3.580E+00    3.559E+00    3.538E+00    3.517E+00    3.497E+00    3.476E+00    3.455E+00
     3.435E+00    3.414E+00    3.394E+00    3.373E+00    3.353E+00    3.333E+00    3.312E+00    3.292E+00    3.272E+00    3.252E+00
     3.232E+00    3.212E+00    3.192E+00    3.172E+00    3.152E+00    3.132E+00    3.113E+00    3.093E+00    3.073E+00    3.054E+00
     3.034E+00    3.015E+00    2.996E+00    2.976E+00    2.957E+00    2.938E+00    2.919E+00    2.900E+00    2.881E+00    2.862E+00
     2.844E+00    2.825E+00    2.807E+00    2.788E+00    2.770E+00    2.752E+00    2.734E+00    2.716E+00    2.698E+00    2.680E+00
     2.662E+00    2.645E+00    2.627E+00    2.610E+00    2.592E+00    2.575E+00    2.558E+00    2.541E+00    2.524E+00    2.507E+00
     2.491E+00    2.474E+00    2.458E+00    2.442E+00    2.426E+00    2.410E+00    2.394E+00    2.378E+00    2.362E+00    2.347E+00
     2.331E+00    2.316E+00    2.301E+00    2.286E+00    2.271E+00    2.256E+00    2.241E+00    2.226E+00    2.212E+00    2.197E+00
     2.183E+00    2.169E+00    2.155E+00    2.141E+00    2.127E+00    2.113E+00    2.100E+00    2.086E+00    2.073E+00    2.059E+00
     2.046E+00    2.033E+00    2.020E+00    2.007E+00    1.994E+00    1.981E+00    1.969E+00    1.956E+00    1.944E+00    1.931E+00
     1.919E+00    1.907E+00    1.895E+00    1.883E+00    1.871E+00    1.859E+00    1.848E+00    1.836E+00    1.825E+00    1.813E+00
     1.802E+00    1.791E+00    1.780E+00    1.769E+00    1.758E+00    1.747E+00    1.736E+00    1.726E+00    1.715E+00    1.705E+00
     1.694E+00    1.684E+00    1.674E+00    1.664E+00    1.654E+00    1.644E+00    1.634E+00    1.624E+00    1.615E+00    1.605E+00
     1.596E+00    1.586E+00    1.577E+00    1.568E+00    1.559E+00    1.550E+00    1.541E+00    1.532E+00    1.523E+00    1.515E+00
     1.506E+00    1.498E+00    1.490E+00    1.481E+00    1.473E+00    1.465E+00    1.457E+00    1.449E+00    1.441E+00    1.434E+00
     1.426E+00    1.419E+00    1.411E+00    1.404E+00    1.397E+00    1.390E+00    1.382E+00    1.375E+00    1.369E+00    1.362E+00
     1.355E+00    1.348E+00    1.342E+00    1.335E+00    1.329E+00    1.322E+00    1.316E+00    1.310E+00    1.303E+00    1.297E+00
     1.291E+00    1.285E+00    1.279E+00    1.273E+00    1.267E+00    1.261E+00    1.256E+00    1.250E+00    1.244E+00    1.239E+00
     1.233E+00    1.227E+00    1.222E+00    1.216E+00    1.211E+00    1.205E+00    1.200E+00    1.194E+00    1.189E+00    1.184E+00
     1.178E+00    1.173E+00    1.168E+00    1.162E+00    1.157E+00    1.152E+00    1.147E+00    1.141E+00    1.136E+00    1.131E+00
     1.125E+00    1.120E+00    1.115E+00    1.110E+00    1.104E+00    1.099E+00    1.094E+00    1.089E+00    1.084E+00    1.078E+00
     1.073E+00    1.068E+00    1.063E+00    1.058E+00    1.052E+00    1.047E+00    1.042E+00    1.037E+00    1.032E+00    1.026E+00
     1.021E+00    1.016E+00    1.011E+00    1.006E+00    1.001E+00    9.954E-01    9.902E-01    9.851E-01    9.800E-01    9.748E-01
     9.697E-01    9.646E-01    9.594E-01    9.543E-01    9.492E-01    9.441E-01    9.389E-01    9.338E-01    9.287E-01    9.236E-01
     9.185E-01    9.134E-01    9.083E-01    9.032E-01    8.982E-01    8.931E-01    8.880E-01    8.829E-01    8.778E-01    8.728E-01
     8.677E-01    8.627E-01    8.576E-01    8.525E-01    8.475E-01    8.425E-01    8.374E-01    8.324E-01    8.274E-01    8.223E-01
     8.173E-01    8.123E-01    8.073E-01    8.023E-01    7.973E-01    7.923E-01    7.873E-01    7.823E-01    7.773E-01    7.724E-01
     7.674E-01    7.624E-01    7.575E-01    7.525E-01    7.476E-01    7.427E-01    7.377E-01    7.328E-01    7.279E-01    7.230E-01
     7.181E-01    7.132E-01    7.083E-01    7.034E-01    6.985E-01    6.936E-01    6.888E-01    6.839E-01
 Asp      Conc. = 7.15E+00
