 LCModel (Version 6.3-1L) Copyright: S.W. Provencher.          Ref.: Magn. Reson. Med. 30:672-679 (1993).                
 Slice#3 Row#14 Col#12  PD_05_press_1_raw_act
 36 lines in following concentration table = NCONC+1
    Conc.  %SD /Cr+PCr  Metabolite                                         
  513.709  17%  88.797 Ala                                                 
    1.714 104%   0.296 Asp                                                 
    5.785 258%   1.000 Cr                                                  
    0.000 999%   0.000 PCr                                                 
    1.025 104%   0.177 GABA                                                
    1.036 103%   0.179 Glc                                                 
  138.954 100%  24.019 Gln                                                 
  267.486  60%  46.236 Glu                                                 
    9.549  62%   1.651 GPC                                                 
    0.000 999%   0.000 PCh                                                 
   28.960  96%   5.006 GSH                                                 
  142.654  49%  24.658 Ins                                                 
  545.043  24%  94.214 Lac                                                 
    0.000 999%   0.000 NAA                                                 
    0.000 999%   0.000 NAAG                                                
    0.349 103% 6.0E-02 Scyllo                                              
    1.738 102%   0.300 Tau                                                 
    0.497 455% 8.6E-02 -CrCH2                                              
    9.549  62%   1.651 GPC+PCh                                             
    0.000 999%   0.000 NAA+NAAG                                            
    5.785 258%   1.000 Cr+PCr                                              
  406.440  62%  70.255 Glu+Gln                                             
  834.018  16% 144.165 Lip13a                                              
    0.000 999%   0.000 Lip13b                                              
  194.050  26%  33.543 Lip09                                               
   11.361 251%   1.964 MM09                                                
   25.183 154%   4.353 Lip20                                               
    0.000 999%   0.000 MM20                                                
    4.001 390%   0.692 MM12                                                
  213.869  23%  36.968 MM14                                                
    5.296 631%   0.915 MM17                                                
  834.018  16% 144.165 Lip13a+Lip13b                                       
 1.05E+03  12% 181.825 MM14+Lip13a+Lip13b+MM12                             
  205.411  20%  35.506 MM09+Lip09                                          
   25.183 154%   4.353 MM20+Lip20                                          
   6 lines in following misc. output table
  FWHM = 0.138 ppm    S/N =   4                                            
  Data shift = 0.069 ppm                                                   
  Ph: 101 deg     -41.7 deg/ppm                                            
  alphaB,S = 8.5E+01,   1.0E+02                                            
   14 spline knots.   Ns = 6(2)                                            
   2 inflections.     1 extrema                                            
  498 points on ppm-axis = NY
      4.000000     3.992357     3.984714     3.977070     3.969427     3.961784     3.954141     3.946497     3.938854     3.931211
      3.923568     3.915925     3.908281     3.900638     3.892995     3.885352     3.877708     3.870065     3.862422     3.854779
      3.847136     3.839492     3.831849     3.824206     3.816563     3.808919     3.801276     3.793633     3.785990     3.778347
      3.770703     3.763060     3.755417     3.747774     3.740130     3.732487     3.724844     3.717201     3.709558     3.701914
      3.694271     3.686628     3.678985     3.671341     3.663698     3.656055     3.648412     3.640769     3.633125     3.625482
      3.617839     3.610196     3.602552     3.594909     3.587266     3.579623     3.571980     3.564336     3.556693     3.549050
      3.541407     3.533763     3.526120     3.518477     3.510834     3.503191     3.495547     3.487904     3.480261     3.472618
      3.464974     3.457331     3.449688     3.442045     3.434402     3.426758     3.419115     3.411472     3.403829     3.396185
      3.388542     3.380899     3.373256     3.365613     3.357969     3.350326     3.342683     3.335040     3.327396     3.319753
      3.312110     3.304467     3.296824     3.289180     3.281537     3.273894     3.266251     3.258607     3.250964     3.243321
      3.235678     3.228034     3.220391     3.212748     3.205105     3.197462     3.189818     3.182175     3.174532     3.166889
      3.159245     3.151602     3.143959     3.136316     3.128673     3.121029     3.113386     3.105743     3.098100     3.090456
      3.082813     3.075170     3.067527     3.059884     3.052240     3.044597     3.036954     3.029311     3.021667     3.014024
      3.006381     2.998738     2.991095     2.983451     2.975808     2.968165     2.960522     2.952878     2.945235     2.937592
      2.929949     2.922306     2.914662     2.907019     2.899376     2.891733     2.884089     2.876446     2.868803     2.861160
      2.853517     2.845873     2.838230     2.830587     2.822944     2.815300     2.807657     2.800014     2.792371     2.784728
      2.777084     2.769441     2.761798     2.754155     2.746511     2.738868     2.731225     2.723582     2.715939     2.708295
      2.700652     2.693009     2.685366     2.677722     2.670079     2.662436     2.654793     2.647150     2.639506     2.631863
      2.624220     2.616577     2.608933     2.601290     2.593647     2.586004     2.578361     2.570717     2.563074     2.555431
      2.547788     2.540144     2.532501     2.524858     2.517215     2.509572     2.501928     2.494285     2.486642     2.478999
      2.471355     2.463712     2.456069     2.448426     2.440783     2.433139     2.425496     2.417853     2.410210     2.402566
      2.394923     2.387280     2.379637     2.371994     2.364350     2.356707     2.349064     2.341421     2.333777     2.326134
      2.318491     2.310848     2.303205     2.295561     2.287918     2.280275     2.272632     2.264988     2.257345     2.249702
      2.242059     2.234416     2.226772     2.219129     2.211486     2.203843     2.196199     2.188556     2.180913     2.173270
      2.165627     2.157983     2.150340     2.142697     2.135054     2.127410     2.119767     2.112124     2.104481     2.096838
      2.089194     2.081551     2.073908     2.066265     2.058621     2.050978     2.043335     2.035692     2.028049     2.020405
      2.012762     2.005119     1.997476     1.989833     1.982190     1.974546     1.966903     1.959260     1.951617     1.943974
      1.936331     1.928688     1.921045     1.913402     1.905759     1.898115     1.890472     1.882829     1.875186     1.867543
      1.859900     1.852257     1.844614     1.836971     1.829327     1.821684     1.814041     1.806398     1.798755     1.791112
      1.783469     1.775826     1.768183     1.760540     1.752896     1.745253     1.737610     1.729967     1.722324     1.714681
      1.707038     1.699395     1.691752     1.684108     1.676465     1.668822     1.661179     1.653536     1.645893     1.638250
      1.630607     1.622964     1.615321     1.607677     1.600034     1.592391     1.584748     1.577105     1.569462     1.561819
      1.554176     1.546533     1.538890     1.531246     1.523603     1.515960     1.508317     1.500674     1.493031     1.485388
      1.477745     1.470102     1.462458     1.454815     1.447172     1.439529     1.431886     1.424243     1.416600     1.408957
      1.401314     1.393671     1.386027     1.378384     1.370741     1.363098     1.355455     1.347812     1.340169     1.332526
      1.324883     1.317240     1.309596     1.301953     1.294310     1.286667     1.279024     1.271381     1.263738     1.256095
      1.248452     1.240808     1.233165     1.225522     1.217879     1.210236     1.202593     1.194950     1.187307     1.179664
      1.172021     1.164377     1.156734     1.149091     1.141448     1.133805     1.126162     1.118519     1.110876     1.103233
      1.095590     1.087946     1.080303     1.072660     1.065017     1.057374     1.049731     1.042088     1.034445     1.026802
      1.019158     1.011515     1.003872     0.996229     0.988586     0.980943     0.973300     0.965657     0.958014     0.950371
      0.942727     0.935084     0.927441     0.919798     0.912155     0.904512     0.896869     0.889226     0.881583     0.873940
      0.866296     0.858653     0.851010     0.843367     0.835724     0.828081     0.820438     0.812795     0.805152     0.797508
      0.789865     0.782222     0.774579     0.766936     0.759293     0.751650     0.744007     0.736364     0.728721     0.721077
      0.713434     0.705791     0.698148     0.690505     0.682862     0.675219     0.667576     0.659933     0.652290     0.644646
      0.637003     0.629360     0.621717     0.614074     0.606431     0.598788     0.591145     0.583502     0.575858     0.568215
      0.560572     0.552929     0.545286     0.537643     0.530000     0.522357     0.514714     0.507071     0.499427     0.491784
      0.484141     0.476498     0.468855     0.461212     0.453569     0.445925     0.438282     0.430639     0.422996     0.415353
      0.407710     0.400067     0.392424     0.384780     0.377137     0.369494     0.361851     0.354208     0.346565     0.338922
      0.331278     0.323635     0.315992     0.308349     0.300706     0.293063     0.285420     0.277777     0.270133     0.262490
      0.254847     0.247204     0.239561     0.231918     0.224275     0.216631     0.208988     0.201345
 NY phased data points follow
  -6.60399E-01 -7.79008E-03  3.45170E-01 -3.24533E-01 -3.17627E-02 -2.45974E-01  2.07502E-01  3.43915E-01  1.36732E-01  1.00276E+00
   9.37563E-01  4.15977E-01 -1.77268E-01  1.18289E-01  9.82581E-01  1.33648E+00  1.75783E-01  2.11802E+00 -4.57271E-02  1.56808E+00
   1.18394E+00  4.04160E-01  9.37912E-01  7.45468E-01 -2.45595E-01 -1.26822E-01 -4.52637E-01  7.20140E-01  9.51089E-01  3.31162E-01
   1.32246E+00  9.73055E-01  5.40404E-01  4.00642E-01  6.31351E-01 -4.08556E-01  1.81625E-01  1.71243E+00  1.88588E+00 -5.54886E-01
  -1.45678E-01  9.36186E-01  5.45279E-01  1.17167E+00  1.21806E+00  1.05113E-01  9.91835E-01  4.92757E-01 -3.33241E-01  3.69079E-02
   4.97889E-01  1.53411E+00  8.39005E-01  2.47183E-01  1.37981E+00  9.92760E-01  1.27932E+00 -4.76194E-01  1.18512E+00  1.11804E+00
   7.82015E-02 -5.51694E-01 -1.25272E-01 -2.85799E-01  1.05319E+00  8.50710E-01  4.47974E-01 -3.88257E-01  6.46730E-01  1.29488E+00
  -2.35028E-01  1.02781E-01  8.10691E-01  3.73902E-01  6.30346E-01 -5.09819E-01  8.51915E-02  1.09561E+00  8.57899E-01  1.21976E-01
   1.21785E-01  1.58113E-01  8.01332E-01 -8.58003E-02  8.18477E-01  7.33035E-02  1.33733E+00  8.92871E-01 -1.08578E-01 -2.14226E-01
  -1.74336E-01  3.84816E-01 -2.17706E-01  8.83970E-02 -7.26777E-02 -1.03252E+00 -3.15275E-01 -9.24046E-01 -4.07724E-01  6.04746E-01
   8.65559E-02  7.65775E-01 -9.78316E-02  4.96771E-01  5.97954E-01  1.69793E+00  4.01963E-01 -6.95592E-01  1.20867E+00  7.74726E-01
   1.20183E+00  1.05193E+00 -8.43952E-02  1.30549E+00  4.38345E-01  8.30900E-01  7.40263E-01  1.31571E+00  3.69258E-01 -1.12777E+00
   7.92684E-01 -5.46880E-01 -6.83586E-01  9.74586E-02 -6.30192E-01 -5.20965E-01 -2.63958E-01 -3.88290E-01  4.79306E-01  2.75113E-01
   2.83725E-01  5.38915E-01  9.42384E-01  1.47002E+00 -2.91316E-01 -3.98057E-01  4.12796E-01  9.10410E-01  7.03937E-01 -7.05474E-01
   8.93896E-01  9.59640E-01  2.38548E-01  1.01677E+00  1.66954E-01  9.63774E-01  9.58728E-02 -7.31890E-02  8.22550E-01  7.43177E-01
  -2.91622E-01 -4.18196E-01  3.21594E-01 -6.42234E-02 -8.06069E-02  7.67133E-01 -5.51978E-02  2.95116E-01  6.42180E-01  3.66147E-01
   7.55202E-01  6.49438E-02 -1.45671E+00  2.08865E-01 -1.40907E+00 -2.51765E-01  2.21214E+00  6.65957E-01  1.17201E+00 -1.19226E+00
   2.02277E-01  8.09226E-01 -6.89958E-01 -2.18382E-01 -9.95292E-01 -2.29136E-01 -1.21811E-01  9.46730E-01  8.12970E-01 -2.57069E-01
  -1.06674E+00  1.31149E-01  2.11450E-01 -2.87185E-01  1.70642E+00  3.93054E-01  1.13534E+00  4.69233E-01  1.35587E+00 -4.48535E-01
   5.61363E-02  7.32510E-01 -2.93687E-01  4.61791E-01 -7.77086E-01  1.96190E-02  8.87609E-02 -1.44653E-01  1.14929E+00  9.31655E-01
   5.15015E-01 -9.88802E-02  1.33419E-01 -3.30421E-01  2.70428E-01  1.27424E+00  4.10216E-01  6.06728E-01  2.22727E-01  9.40182E-01
  -6.85679E-02  1.16930E+00 -1.47516E-02  2.46723E-01 -9.36851E-01  6.58400E-01  6.76159E-01 -2.43163E-01  5.64281E-01 -2.47635E-01
  -1.21071E-01 -3.55198E-01  1.79878E-01  3.50828E-01 -6.53910E-01  1.01071E+00  3.80074E-01  1.46177E+00 -5.36979E-02  1.07399E+00
  -2.50138E-02 -1.13458E-01  7.73555E-03  9.47565E-01  1.33366E+00  8.76818E-01 -1.31782E-02  1.05983E+00 -3.17826E-01  7.18859E-01
   1.32729E-01  5.01528E-01 -2.64954E-01  1.47327E+00  4.32256E-01  4.48080E-01  4.76594E-01  1.19559E+00  5.96433E-01 -9.54268E-01
   6.01520E-02 -1.09105E-01  5.20778E-02 -1.37370E-02 -3.29808E-01 -7.98120E-01 -2.36043E-01  1.07179E+00 -3.42179E-01  5.26545E-02
   1.89046E+00 -5.86357E-01  4.72352E-01 -6.37505E-01  8.43453E-01  2.88718E-01  1.13864E+00  1.26243E+00  1.79349E+00 -3.51792E-01
   1.40548E+00  7.74280E-01 -3.51680E-01  9.20402E-01  4.18480E-01  8.13245E-01  2.62233E-01  9.17461E-01  3.33060E-01  1.09963E+00
  -1.54016E-01  6.52463E-01  5.27860E-01  1.40331E+00  1.32925E+00  1.76544E-01  8.79780E-01 -4.01962E-01  4.93100E-01  1.42048E+00
   1.44257E+00  1.42526E+00  8.88973E-01  1.77298E+00  1.67050E+00  1.25747E+00  2.06913E+00  1.38600E+00  2.51911E-01  1.62686E-01
   1.73372E+00  3.91752E-01  6.91296E-01  3.31154E-02  2.01091E-01  1.68849E-01  9.39587E-01  1.39906E+00  1.45033E+00  2.09704E+00
   2.02836E+00  3.30013E+00  2.55076E+00  3.05250E+00  2.95812E+00  2.44502E+00  3.74902E+00  2.38586E+00  3.12974E+00  4.22133E+00
   4.05850E+00  2.92655E+00  2.48764E+00  3.25398E+00  2.99541E+00  1.80243E+00  3.16663E+00  3.13476E+00  3.26409E+00  4.27329E+00
   4.37147E+00  4.48749E+00  4.63834E+00  4.79569E+00  5.95772E+00  5.72529E+00  5.99624E+00  5.35768E+00  6.14183E+00  6.50750E+00
   4.66125E+00  6.89527E+00  6.55561E+00  5.40084E+00  5.74439E+00  5.89227E+00  6.40972E+00  4.06576E+00  5.48923E+00  3.41598E+00
   5.07457E+00  4.60644E+00  4.07716E+00  5.96234E+00  4.40454E+00  4.19254E+00  4.33906E+00  5.31972E+00  4.42123E+00  5.22020E+00
   3.52274E+00  4.89354E+00  4.39155E+00  4.40216E+00  4.33937E+00  4.17761E+00  4.39567E+00  3.45233E+00  3.44151E+00  3.39969E+00
   2.55914E+00  3.05493E+00  3.65740E+00  3.28354E+00  2.13606E+00  1.91612E+00  2.94640E+00  2.13289E+00  2.45073E+00  2.61758E+00
   3.23360E+00  2.44776E+00  2.78381E+00  3.76170E+00  1.92206E+00  3.78974E+00  2.88856E+00  2.60940E+00  2.93927E+00  2.30339E+00
   1.53978E+00  2.66969E+00  2.60136E+00  2.60368E+00  2.53341E+00  2.31292E+00  1.80356E+00  1.74084E+00  2.23263E+00  3.49356E+00
   1.57275E+00  1.91995E+00  9.84107E-01  8.92075E-01  1.59756E+00  1.35655E+00  2.22910E+00  1.72280E+00  9.40988E-01  2.33332E+00
   1.43286E+00  1.97662E+00  7.92884E-01  1.44991E+00  1.42211E+00  2.18110E+00  1.38314E+00  1.69304E+00  2.05070E+00  1.35234E+00
   2.02512E+00  1.65436E+00  2.12254E+00  6.66001E-01  1.14473E+00  7.63207E-01  1.62453E+00  1.31152E+00 -3.59080E-01  1.45274E-01
   6.10153E-01 -5.25832E-01  1.93879E-01  4.63894E-01  1.31530E+00  5.90147E-01  1.93021E+00  1.44229E+00  1.25604E-01  1.13719E+00
   9.42407E-01  1.86438E+00  1.04885E+00  1.53792E+00  1.09089E+00  1.81343E+00  1.12127E+00  1.74059E+00  1.60269E+00  1.59562E+00
   6.13338E-01  1.23064E+00  8.85379E-01  1.78404E-01  4.84120E-02  1.05056E+00  1.74959E+00  1.34003E+00  8.27781E-01  1.55100E+00
   1.11637E+00 -2.05112E-01  7.54352E-01  8.03228E-01  2.15542E-01  1.48448E+00  8.05878E-01  1.51968E+00  9.33220E-01  1.04233E+00
   1.41117E+00  8.55643E-01  1.19887E+00  8.54412E-01  2.22474E+00 -2.30253E-01  2.21973E+00  5.67739E-02  1.12320E+00  1.97679E-01
   5.07953E-01  1.38560E-02  3.59572E-01  1.35401E+00  4.92749E-01  1.84907E+00  7.80750E-01  1.06908E+00  1.02605E+00  7.02732E-01
   5.46913E-02  7.71172E-01  1.23321E+00  7.52846E-01  3.20415E-02  1.18264E+00  9.72170E-01  1.05991E-01
 NY points of the fit to the data follow
   4.26875E-01  5.12729E-01  3.88422E-01  3.91197E-01  2.66836E-01  2.20241E-01  1.06833E-01  1.19646E-01  5.70292E-02  1.17741E-01
   9.63672E-02  1.96530E-01  2.37238E-01  4.06319E-01  3.77375E-01  5.38553E-01  4.15554E-01  5.53603E-01  3.85521E-01  4.71804E-01
   2.78904E-01  4.04683E-01  2.92560E-01  4.33789E-01  3.80555E-01  5.15157E-01  5.23450E-01  6.47430E-01  6.66386E-01  7.28033E-01
   7.33748E-01  7.20504E-01  6.96152E-01  5.98540E-01  5.81018E-01  5.08605E-01  5.88372E-01  5.46846E-01  6.87868E-01  6.78689E-01
   8.38638E-01  8.28986E-01  8.92281E-01  8.19850E-01  8.01721E-01  6.89312E-01  6.43157E-01  5.40594E-01  5.21803E-01  4.98848E-01
   5.39122E-01  5.37286E-01  5.73527E-01  5.62416E-01  5.75542E-01  5.40323E-01  5.22473E-01  4.67836E-01  4.45004E-01  3.89783E-01
   3.80157E-01  3.39576E-01  3.57243E-01  3.45890E-01  3.91204E-01  3.80625E-01  4.21795E-01  3.97265E-01  4.26970E-01  3.91207E-01
   4.09667E-01  3.70780E-01  3.81484E-01  3.48430E-01  3.53929E-01  3.21283E-01  3.21441E-01  2.79536E-01  2.75853E-01  2.21920E-01
   2.13068E-01  1.54871E-01  1.49077E-01  9.75775E-02  1.02875E-01  6.29301E-02  7.32155E-02  4.26907E-02  5.88357E-02  3.57668E-02
   6.50906E-02  9.47408E-02  1.21642E-01  1.75538E-01  1.92008E-01  2.62145E-01  2.68439E-01  3.48030E-01  3.41560E-01  4.15345E-01
   3.94135E-01  4.50698E-01  4.13270E-01  4.42962E-01  3.94649E-01  4.11859E-01  3.63649E-01  3.74518E-01  3.30027E-01  3.35326E-01
   2.94380E-01  2.81686E-01  2.46901E-01  2.21685E-01  1.93268E-01  1.69368E-01  1.53073E-01  1.42368E-01  1.42870E-01  1.64479E-01
   1.70331E-01  2.00954E-01  2.07701E-01  2.30314E-01  2.31072E-01  2.41135E-01  2.35251E-01  2.38169E-01  2.32683E-01  2.34748E-01
   2.34456E-01  2.33633E-01  2.37731E-01  2.33661E-01  2.41500E-01  2.32628E-01  2.43266E-01  2.29447E-01  2.40286E-01  2.21304E-01
   2.30675E-01  2.10308E-01  2.18439E-01  2.04922E-01  2.13442E-01  2.03429E-01  2.12738E-01  2.07038E-01  2.17030E-01  2.14421E-01
   2.22111E-01  2.15270E-01  2.16403E-01  2.07761E-01  2.04237E-01  1.99310E-01  1.96166E-01  1.95535E-01  1.94585E-01  1.95005E-01
   1.95083E-01  1.96335E-01  1.97239E-01  1.98710E-01  1.99630E-01  2.01068E-01  2.01156E-01  2.01882E-01  2.00866E-01  2.00454E-01
   1.98669E-01  1.97365E-01  1.96232E-01  1.92161E-01  1.91655E-01  1.85985E-01  1.87043E-01  1.82280E-01  1.89395E-01  1.89260E-01
   2.02379E-01  2.01745E-01  2.09190E-01  2.07080E-01  1.96268E-01  1.87332E-01  1.60784E-01  1.57875E-01  1.27052E-01  1.50234E-01
   1.33057E-01  1.81904E-01  1.76939E-01  2.60609E-01  2.63790E-01  3.56312E-01  3.35139E-01  4.05854E-01  2.92672E-01  3.65638E-01
   2.03380E-01  2.91785E-01  1.20523E-01  2.60849E-01  1.62182E-01  3.69277E-01  2.96037E-01  5.31997E-01  4.52000E-01  6.61233E-01
   5.02394E-01  6.21813E-01  3.99271E-01  4.86980E-01  2.43864E-01  3.36580E-01  1.27227E-01  2.52483E-01  1.34829E-01  2.81815E-01
   2.24695E-01  3.79855E-01  3.55927E-01  4.63640E-01  3.87362E-01  4.53248E-01  3.37695E-01  4.04098E-01  3.11192E-01  3.99374E-01
   3.59591E-01  4.53299E-01  4.79447E-01  5.60170E-01  5.91911E-01  6.20430E-01  6.40584E-01  5.96438E-01  5.86411E-01  4.88849E-01
   4.91336E-01  4.14333E-01  4.46608E-01  3.99731E-01  4.56549E-01  4.15440E-01  4.69128E-01  4.11281E-01  4.67940E-01  4.06760E-01
   4.74883E-01  4.23345E-01  4.97256E-01  4.72626E-01  5.45195E-01  5.52440E-01  6.11224E-01  6.33811E-01  6.66454E-01  6.81259E-01
   6.88818E-01  7.04653E-01  7.01436E-01  7.17591E-01  7.10688E-01  7.28093E-01  7.20315E-01  7.41769E-01  7.31771E-01  7.60181E-01
   7.51229E-01  7.82117E-01  7.65536E-01  7.89761E-01  7.66476E-01  7.78091E-01  7.64140E-01  7.73664E-01  7.73502E-01  7.80575E-01
   7.92302E-01  7.98499E-01  8.09830E-01  8.16328E-01  8.27617E-01  8.32496E-01  8.41960E-01  8.45955E-01  8.54489E-01  8.61153E-01
   8.73511E-01  8.85073E-01  9.00454E-01  9.16096E-01  9.34057E-01  9.53030E-01  9.73450E-01  9.94985E-01  1.01889E+00  1.04457E+00
   1.07315E+00  1.10429E+00  1.13909E+00  1.17756E+00  1.22093E+00  1.26962E+00  1.32552E+00  1.38948E+00  1.46433E+00  1.55229E+00
   1.65812E+00  1.78757E+00  1.95220E+00  2.17437E+00  2.51592E+00  3.01741E+00  3.18402E+00  3.58517E+00  3.52760E+00  3.76219E+00
   3.46803E+00  3.46086E+00  2.88265E+00  2.96418E+00  2.57621E+00  2.70366E+00  2.56007E+00  2.71970E+00  2.87027E+00  3.11176E+00
   3.50010E+00  3.71754E+00  4.24134E+00  4.40406E+00  5.05788E+00  5.30873E+00  5.80611E+00  5.84347E+00  6.19783E+00  6.01993E+00
   6.27087E+00  5.90596E+00  6.02784E+00  5.87100E+00  5.81573E+00  5.60561E+00  5.41941E+00  5.21887E+00  4.95173E+00  4.92837E+00
   4.63486E+00  4.83277E+00  4.67274E+00  4.83970E+00  4.64968E+00  4.62125E+00  4.42913E+00  4.38477E+00  4.26194E+00  4.27617E+00
   4.28455E+00  4.46350E+00  4.58484E+00  4.79662E+00  4.77178E+00  4.69648E+00  4.54417E+00  4.23212E+00  3.97662E+00  3.57343E+00
   3.30168E+00  3.10365E+00  2.94327E+00  2.80724E+00  2.68918E+00  2.58565E+00  2.49451E+00  2.41444E+00  2.34449E+00  2.28398E+00
   2.23229E+00  2.18896E+00  2.15348E+00  2.12547E+00  2.10445E+00  2.08997E+00  2.08147E+00  2.07839E+00  2.08009E+00  2.08594E+00
   2.09518E+00  2.10702E+00  2.12061E+00  2.13506E+00  2.14948E+00  2.16298E+00  2.17467E+00  2.18371E+00  2.18930E+00  2.19078E+00
   2.18757E+00  2.17927E+00  2.16557E+00  2.14636E+00  2.12163E+00  2.09160E+00  2.05658E+00  2.01705E+00  1.97353E+00  1.92668E+00
   1.87717E+00  1.82572E+00  1.77304E+00  1.71984E+00  1.66672E+00  1.61428E+00  1.56301E+00  1.51336E+00  1.46565E+00  1.42016E+00
   1.37706E+00  1.33647E+00  1.29842E+00  1.26294E+00  1.22997E+00  1.19943E+00  1.17120E+00  1.14517E+00  1.12120E+00  1.09916E+00
   1.07890E+00  1.06029E+00  1.04317E+00  1.02745E+00  1.01298E+00  9.99682E-01  9.87425E-01  9.76140E-01  9.65713E-01  9.56102E-01
   9.47210E-01  9.39005E-01  9.31395E-01  9.24357E-01  9.17817E-01  9.11768E-01  9.06144E-01  9.00939E-01  8.96089E-01  8.91594E-01
   8.87405E-01  8.83529E-01  8.79919E-01  8.76578E-01  8.73460E-01  8.70578E-01  8.67893E-01  8.65422E-01  8.63123E-01  8.61008E-01
   8.59038E-01  8.57236E-01  8.55567E-01  8.54050E-01  8.52648E-01  8.51379E-01  8.50209E-01  8.49164E-01  8.48211E-01  8.47372E-01
   8.46611E-01  8.45950E-01  8.45361E-01  8.44867E-01  8.44440E-01  8.44100E-01  8.43815E-01  8.43608E-01  8.43454E-01  8.43378E-01
   8.43349E-01  8.43390E-01  8.43471E-01  8.43617E-01  8.43803E-01  8.44055E-01  8.44342E-01  8.44687E-01  8.45064E-01  8.45499E-01
   8.45967E-01  8.46493E-01  8.47049E-01  8.47660E-01  8.48301E-01  8.49002E-01  8.49737E-01  8.50535E-01
 NY background values follow
    -1.271E-01   -1.253E-01   -1.235E-01   -1.217E-01   -1.198E-01   -1.180E-01   -1.162E-01   -1.144E-01   -1.126E-01   -1.107E-01
    -1.089E-01   -1.071E-01   -1.053E-01   -1.035E-01   -1.016E-01   -9.983E-02   -9.801E-02   -9.619E-02   -9.437E-02   -9.255E-02
    -9.073E-02   -8.891E-02   -8.710E-02   -8.528E-02   -8.346E-02   -8.164E-02   -7.982E-02   -7.800E-02   -7.618E-02   -7.436E-02
    -7.255E-02   -7.073E-02   -6.891E-02   -6.709E-02   -6.527E-02   -6.345E-02   -6.163E-02   -5.981E-02   -5.800E-02   -5.618E-02
    -5.436E-02   -5.254E-02   -5.072E-02   -4.890E-02   -4.708E-02   -4.526E-02   -4.344E-02   -4.163E-02   -3.981E-02   -3.799E-02
    -3.617E-02   -3.435E-02   -3.253E-02   -3.071E-02   -2.889E-02   -2.708E-02   -2.526E-02   -2.344E-02   -2.162E-02   -1.980E-02
    -1.798E-02   -1.616E-02   -1.434E-02   -1.253E-02   -1.071E-02   -8.888E-03   -7.069E-03   -5.250E-03   -3.432E-03   -1.613E-03
     2.060E-04    2.025E-03    3.844E-03    5.662E-03    7.481E-03    9.300E-03    1.112E-02    1.294E-02    1.476E-02    1.658E-02
     1.839E-02    2.021E-02    2.203E-02    2.385E-02    2.567E-02    2.749E-02    2.931E-02    3.113E-02    3.294E-02    3.476E-02
     3.658E-02    3.840E-02    4.022E-02    4.204E-02    4.386E-02    4.568E-02    4.749E-02    4.931E-02    5.113E-02    5.295E-02
     5.477E-02    5.659E-02    5.841E-02    6.023E-02    6.205E-02    6.386E-02    6.568E-02    6.750E-02    6.932E-02    7.114E-02
     7.296E-02    7.478E-02    7.660E-02    7.841E-02    8.023E-02    8.205E-02    8.387E-02    8.569E-02    8.751E-02    8.933E-02
     9.115E-02    9.296E-02    9.478E-02    9.660E-02    9.842E-02    1.002E-01    1.021E-01    1.039E-01    1.057E-01    1.075E-01
     1.093E-01    1.112E-01    1.130E-01    1.148E-01    1.166E-01    1.184E-01    1.202E-01    1.221E-01    1.239E-01    1.257E-01
     1.275E-01    1.293E-01    1.312E-01    1.330E-01    1.348E-01    1.366E-01    1.384E-01    1.403E-01    1.421E-01    1.439E-01
     1.457E-01    1.475E-01    1.493E-01    1.512E-01    1.530E-01    1.548E-01    1.566E-01    1.584E-01    1.603E-01    1.621E-01
     1.639E-01    1.657E-01    1.675E-01    1.694E-01    1.712E-01    1.730E-01    1.748E-01    1.766E-01    1.785E-01    1.803E-01
     1.821E-01    1.839E-01    1.857E-01    1.875E-01    1.894E-01    1.912E-01    1.930E-01    1.948E-01    1.966E-01    1.985E-01
     2.003E-01    2.021E-01    2.039E-01    2.057E-01    2.076E-01    2.094E-01    2.112E-01    2.130E-01    2.148E-01    2.166E-01
     2.185E-01    2.203E-01    2.221E-01    2.239E-01    2.257E-01    2.276E-01    2.294E-01    2.312E-01    2.330E-01    2.348E-01
     2.367E-01    2.385E-01    2.403E-01    2.421E-01    2.439E-01    2.458E-01    2.476E-01    2.494E-01    2.512E-01    2.530E-01
     2.548E-01    2.567E-01    2.585E-01    2.603E-01    2.621E-01    2.639E-01    2.658E-01    2.676E-01    2.694E-01    2.712E-01
     2.730E-01    2.749E-01    2.767E-01    2.785E-01    2.803E-01    2.821E-01    2.840E-01    2.858E-01    2.876E-01    2.894E-01
     2.912E-01    2.930E-01    2.949E-01    2.967E-01    2.985E-01    3.003E-01    3.021E-01    3.040E-01    3.058E-01    3.076E-01
     3.094E-01    3.112E-01    3.131E-01    3.149E-01    3.167E-01    3.185E-01    3.203E-01    3.222E-01    3.240E-01    3.258E-01
     3.276E-01    3.294E-01    3.313E-01    3.331E-01    3.349E-01    3.367E-01    3.385E-01    3.403E-01    3.422E-01    3.440E-01
     3.458E-01    3.476E-01    3.494E-01    3.513E-01    3.531E-01    3.549E-01    3.567E-01    3.585E-01    3.604E-01    3.622E-01
     3.640E-01    3.658E-01    3.676E-01    3.695E-01    3.713E-01    3.731E-01    3.749E-01    3.767E-01    3.786E-01    3.804E-01
     3.822E-01    3.840E-01    3.858E-01    3.877E-01    3.895E-01    3.913E-01    3.931E-01    3.949E-01    3.967E-01    3.986E-01
     4.004E-01    4.022E-01    4.040E-01    4.058E-01    4.077E-01    4.095E-01    4.113E-01    4.131E-01    4.149E-01    4.168E-01
     4.186E-01    4.204E-01    4.222E-01    4.240E-01    4.259E-01    4.277E-01    4.295E-01    4.313E-01    4.331E-01    4.350E-01
     4.368E-01    4.386E-01    4.404E-01    4.422E-01    4.441E-01    4.459E-01    4.477E-01    4.495E-01    4.513E-01    4.531E-01
     4.550E-01    4.568E-01    4.586E-01    4.604E-01    4.622E-01    4.641E-01    4.659E-01    4.677E-01    4.695E-01    4.713E-01
     4.732E-01    4.750E-01    4.768E-01    4.786E-01    4.804E-01    4.823E-01    4.841E-01    4.859E-01    4.877E-01    4.895E-01
     4.914E-01    4.932E-01    4.950E-01    4.968E-01    4.986E-01    5.005E-01    5.023E-01    5.041E-01    5.059E-01    5.077E-01
     5.096E-01    5.114E-01    5.132E-01    5.150E-01    5.168E-01    5.186E-01    5.205E-01    5.223E-01    5.241E-01    5.259E-01
     5.277E-01    5.296E-01    5.314E-01    5.332E-01    5.350E-01    5.368E-01    5.387E-01    5.405E-01    5.423E-01    5.441E-01
     5.459E-01    5.478E-01    5.496E-01    5.514E-01    5.532E-01    5.550E-01    5.569E-01    5.587E-01    5.605E-01    5.623E-01
     5.641E-01    5.660E-01    5.678E-01    5.696E-01    5.714E-01    5.732E-01    5.751E-01    5.769E-01    5.787E-01    5.805E-01
     5.823E-01    5.841E-01    5.860E-01    5.878E-01    5.896E-01    5.914E-01    5.932E-01    5.951E-01    5.969E-01    5.987E-01
     6.005E-01    6.023E-01    6.042E-01    6.060E-01    6.078E-01    6.096E-01    6.114E-01    6.133E-01    6.151E-01    6.169E-01
     6.187E-01    6.205E-01    6.224E-01    6.242E-01    6.260E-01    6.278E-01    6.296E-01    6.315E-01    6.333E-01    6.351E-01
     6.369E-01    6.387E-01    6.406E-01    6.424E-01    6.442E-01    6.460E-01    6.478E-01    6.496E-01    6.515E-01    6.533E-01
     6.551E-01    6.569E-01    6.587E-01    6.606E-01    6.624E-01    6.642E-01    6.660E-01    6.678E-01    6.697E-01    6.715E-01
     6.733E-01    6.751E-01    6.769E-01    6.788E-01    6.806E-01    6.824E-01    6.842E-01    6.860E-01    6.879E-01    6.897E-01
     6.915E-01    6.933E-01    6.951E-01    6.970E-01    6.988E-01    7.006E-01    7.024E-01    7.042E-01    7.061E-01    7.079E-01
     7.097E-01    7.115E-01    7.133E-01    7.151E-01    7.170E-01    7.188E-01    7.206E-01    7.224E-01    7.242E-01    7.261E-01
     7.279E-01    7.297E-01    7.315E-01    7.333E-01    7.352E-01    7.370E-01    7.388E-01    7.406E-01    7.424E-01    7.443E-01
     7.461E-01    7.479E-01    7.497E-01    7.515E-01    7.534E-01    7.552E-01    7.570E-01    7.588E-01    7.606E-01    7.625E-01
     7.643E-01    7.661E-01    7.679E-01    7.697E-01    7.716E-01    7.734E-01    7.752E-01    7.770E-01
 Ala      Conc. = 5.14E+02
