 LCModel (Version 6.3-1L) Copyright: S.W. Provencher.          Ref.: Magn. Reson. Med. 30:672-679 (1993).                
 Slice#1 Row#12 Col#6  PD_05_press_1_raw_act
 36 lines in following concentration table = NCONC+1
    Conc.  %SD /Cr+PCr  Metabolite                                         
  242.870  39%   0.308 Ala                                                 
    0.000 999%   0.000 Asp                                                 
  283.937  59%   0.360 Cr                                                  
  504.170  34%   0.640 PCr                                                 
    0.000 999%   0.000 GABA                                                
    0.000 999%   0.000 Glc                                                 
  738.003  27%   0.936 Gln                                                 
 1.10E+03  20%   1.393 Glu                                                 
  256.582   6%   0.326 GPC                                                 
    0.000 999%   0.000 PCh                                                 
  267.253  19%   0.339 GSH                                                 
  955.023  17%   1.212 Ins                                                 
    0.000 999%   0.000 Lac                                                 
 1.82E+03   6%   2.305 NAA                                                 
   35.089 363% 4.5E-02 NAAG                                                
   73.909  24% 9.4E-02 Scyllo                                              
  134.020  95%   0.170 Tau                                                 
  237.597  30%   0.301 -CrCH2                                              
  256.582   6%   0.326 GPC+PCh                                             
 1.85E+03   3%   2.349 NAA+NAAG                                            
  788.108   5%   1.000 Cr+PCr                                              
 1.84E+03  18%   2.330 Glu+Gln                                             
    0.000 999%   0.000 Lip13a                                              
  112.324  94%   0.143 Lip13b                                              
    0.000 999%   0.000 Lip09                                               
  872.996  11%   1.108 MM09                                                
   21.126 177% 2.7E-02 Lip20                                               
 2.00E+03  10%   2.539 MM20                                                
  235.571  34%   0.299 MM12                                                
 1.22E+03  15%   1.551 MM14                                                
  652.156  20%   0.827 MM17                                                
  112.324  94%   0.143 Lip13a+Lip13b                                       
 1.57E+03  11%   1.992 MM14+Lip13a+Lip13b+MM12                             
  872.996  11%   1.108 MM09+Lip09                                          
 2.02E+03  10%   2.565 MM20+Lip20                                          
   6 lines in following misc. output table
  FWHM = 0.069 ppm    S/N =  13                                            
  Data shift = 0.015 ppm                                                   
  Ph: -34 deg      -4.0 deg/ppm                                            
  alphaB,S = 8.5E+01,   3.2E+02                                            
   14 spline knots.   Ns = 8(1)                                            
   2 inflections.     1 extrema                                            
  498 points on ppm-axis = NY
      4.000000     3.992357     3.984714     3.977070     3.969427     3.961784     3.954141     3.946497     3.938854     3.931211
      3.923568     3.915925     3.908281     3.900638     3.892995     3.885352     3.877708     3.870065     3.862422     3.854779
      3.847136     3.839492     3.831849     3.824206     3.816563     3.808919     3.801276     3.793633     3.785990     3.778347
      3.770703     3.763060     3.755417     3.747774     3.740130     3.732487     3.724844     3.717201     3.709558     3.701914
      3.694271     3.686628     3.678985     3.671341     3.663698     3.656055     3.648412     3.640769     3.633125     3.625482
      3.617839     3.610196     3.602552     3.594909     3.587266     3.579623     3.571980     3.564336     3.556693     3.549050
      3.541407     3.533763     3.526120     3.518477     3.510834     3.503191     3.495547     3.487904     3.480261     3.472618
      3.464974     3.457331     3.449688     3.442045     3.434402     3.426758     3.419115     3.411472     3.403829     3.396185
      3.388542     3.380899     3.373256     3.365613     3.357969     3.350326     3.342683     3.335040     3.327396     3.319753
      3.312110     3.304467     3.296824     3.289180     3.281537     3.273894     3.266251     3.258607     3.250964     3.243321
      3.235678     3.228034     3.220391     3.212748     3.205105     3.197462     3.189818     3.182175     3.174532     3.166889
      3.159245     3.151602     3.143959     3.136316     3.128673     3.121029     3.113386     3.105743     3.098100     3.090456
      3.082813     3.075170     3.067527     3.059884     3.052240     3.044597     3.036954     3.029311     3.021667     3.014024
      3.006381     2.998738     2.991095     2.983451     2.975808     2.968165     2.960522     2.952878     2.945235     2.937592
      2.929949     2.922306     2.914662     2.907019     2.899376     2.891733     2.884089     2.876446     2.868803     2.861160
      2.853517     2.845873     2.838230     2.830587     2.822944     2.815300     2.807657     2.800014     2.792371     2.784728
      2.777084     2.769441     2.761798     2.754155     2.746511     2.738868     2.731225     2.723582     2.715939     2.708295
      2.700652     2.693009     2.685366     2.677722     2.670079     2.662436     2.654793     2.647150     2.639506     2.631863
      2.624220     2.616577     2.608933     2.601290     2.593647     2.586004     2.578361     2.570717     2.563074     2.555431
      2.547788     2.540144     2.532501     2.524858     2.517215     2.509572     2.501928     2.494285     2.486642     2.478999
      2.471355     2.463712     2.456069     2.448426     2.440783     2.433139     2.425496     2.417853     2.410210     2.402566
      2.394923     2.387280     2.379637     2.371994     2.364350     2.356707     2.349064     2.341421     2.333777     2.326134
      2.318491     2.310848     2.303205     2.295561     2.287918     2.280275     2.272632     2.264988     2.257345     2.249702
      2.242059     2.234416     2.226772     2.219129     2.211486     2.203843     2.196199     2.188556     2.180913     2.173270
      2.165627     2.157983     2.150340     2.142697     2.135054     2.127410     2.119767     2.112124     2.104481     2.096838
      2.089194     2.081551     2.073908     2.066265     2.058621     2.050978     2.043335     2.035692     2.028049     2.020405
      2.012762     2.005119     1.997476     1.989833     1.982190     1.974546     1.966903     1.959260     1.951617     1.943974
      1.936331     1.928688     1.921045     1.913402     1.905759     1.898115     1.890472     1.882829     1.875186     1.867543
      1.859900     1.852257     1.844614     1.836971     1.829327     1.821684     1.814041     1.806398     1.798755     1.791112
      1.783469     1.775826     1.768183     1.760540     1.752896     1.745253     1.737610     1.729967     1.722324     1.714681
      1.707038     1.699395     1.691752     1.684108     1.676465     1.668822     1.661179     1.653536     1.645893     1.638250
      1.630607     1.622964     1.615321     1.607677     1.600034     1.592391     1.584748     1.577105     1.569462     1.561819
      1.554176     1.546533     1.538890     1.531246     1.523603     1.515960     1.508317     1.500674     1.493031     1.485388
      1.477745     1.470102     1.462458     1.454815     1.447172     1.439529     1.431886     1.424243     1.416600     1.408957
      1.401314     1.393671     1.386027     1.378384     1.370741     1.363098     1.355455     1.347812     1.340169     1.332526
      1.324883     1.317240     1.309596     1.301953     1.294310     1.286667     1.279024     1.271381     1.263738     1.256095
      1.248452     1.240808     1.233165     1.225522     1.217879     1.210236     1.202593     1.194950     1.187307     1.179664
      1.172021     1.164377     1.156734     1.149091     1.141448     1.133805     1.126162     1.118519     1.110876     1.103233
      1.095590     1.087946     1.080303     1.072660     1.065017     1.057374     1.049731     1.042088     1.034445     1.026802
      1.019158     1.011515     1.003872     0.996229     0.988586     0.980943     0.973300     0.965657     0.958014     0.950371
      0.942727     0.935084     0.927441     0.919798     0.912155     0.904512     0.896869     0.889226     0.881583     0.873940
      0.866296     0.858653     0.851010     0.843367     0.835724     0.828081     0.820438     0.812795     0.805152     0.797508
      0.789865     0.782222     0.774579     0.766936     0.759293     0.751650     0.744007     0.736364     0.728721     0.721077
      0.713434     0.705791     0.698148     0.690505     0.682862     0.675219     0.667576     0.659933     0.652290     0.644646
      0.637003     0.629360     0.621717     0.614074     0.606431     0.598788     0.591145     0.583502     0.575858     0.568215
      0.560572     0.552929     0.545286     0.537643     0.530000     0.522357     0.514714     0.507071     0.499427     0.491784
      0.484141     0.476498     0.468855     0.461212     0.453569     0.445925     0.438282     0.430639     0.422996     0.415353
      0.407710     0.400067     0.392424     0.384780     0.377137     0.369494     0.361851     0.354208     0.346565     0.338922
      0.331278     0.323635     0.315992     0.308349     0.300706     0.293063     0.285420     0.277777     0.270133     0.262490
      0.254847     0.247204     0.239561     0.231918     0.224275     0.216631     0.208988     0.201345
 NY phased data points follow
  -2.50826E+00 -4.40006E+00 -2.32121E+00 -5.13136E-01 -2.62537E+00  2.28864E-01  1.51890E+00 -2.78906E-01  5.40439E+00  3.38338E+00
   2.54082E+00  6.62661E+00  8.60775E+00  5.25118E+00  5.27741E+00 -1.38487E-01  8.27043E-01  1.56279E+00  1.43638E+00 -2.75850E-01
  -2.21428E+00 -4.09498E+00 -2.27045E+00 -1.77643E+00 -3.28121E+00 -8.77576E-01  8.67943E-01 -1.29647E+00 -2.27563E+00 -4.44604E-01
   3.27186E+00  1.34546E+00  1.38124E+00 -4.76635E-01  2.94765E+00 -3.86476E+00  1.94970E+00  1.51530E+00 -3.44627E-01 -1.99843E+00
   7.35527E-02  2.48979E+00 -2.37519E+00 -2.74474E-01  9.60731E-01  1.10808E+00  4.23691E+00  3.50928E+00  1.40926E+00  5.15149E+00
   2.79792E+00 -3.43641E-01  3.03927E+00  1.67531E+00  4.97990E-01 -2.96500E+00 -2.60923E+00 -3.97478E+00  4.86816E-01 -1.08409E+00
   5.24113E-01 -4.73731E+00 -2.24280E+00 -2.26656E+00 -1.49313E+00 -4.23478E+00 -4.35989E+00 -4.88943E+00 -3.07046E+00 -5.36674E+00
  -3.17188E+00 -1.99632E+00 -1.79790E+00 -7.15454E+00 -2.65753E+00 -3.38202E+00 -2.04832E+00 -3.14855E+00 -3.55689E+00 -3.97856E+00
  -2.18033E+00 -1.19918E+00 -9.82633E-01 -1.92775E+00 -2.44085E+00 -1.86504E+00 -2.78323E+00  1.73545E+00 -4.68369E+00 -2.71356E+00
  -1.71871E+00 -2.13651E+00 -6.35400E-01 -3.29179E+00  9.58638E-02 -6.25817E-01  2.94654E+00  1.71214E+00  4.28825E+00  6.88295E+00
   9.93461E+00  1.02231E+01  1.34310E+01  1.23008E+01  1.34391E+01  1.47730E+01  1.19967E+01  8.59391E+00  7.75872E+00  5.00222E+00
   2.22469E+00  2.66621E+00 -1.01125E+00  2.32946E+00 -1.58371E+00 -1.02736E+00 -4.37017E-01  2.18809E-01  7.08411E-01  4.39420E-01
   6.05314E-01  5.86717E+00  2.66630E+00  8.81111E+00  8.48209E+00  1.31813E+01  1.46969E+01  2.05452E+01  2.15591E+01  1.78828E+01
   1.70199E+01  1.37886E+01  1.01835E+01  5.74617E+00  4.18077E+00 -1.44788E-01  5.56652E-01 -5.22096E-01  1.07262E+00 -8.06092E-01
   4.37391E-01 -2.00694E+00  9.92759E-01 -3.25980E+00 -3.62322E+00  4.80806E-01 -2.35005E+00 -4.38622E+00 -2.88164E+00 -3.56956E+00
  -4.92630E-02 -3.77035E+00 -2.89132E-01 -2.59468E+00 -1.55054E+00 -2.29477E+00 -5.31886E+00 -4.34150E+00 -3.45455E+00 -4.40164E+00
  -1.14554E+00 -4.52640E+00 -3.30119E+00 -2.29730E+00 -2.20465E+00 -2.26283E+00 -2.87160E+00 -8.10969E+00 -4.61444E+00 -6.39978E+00
  -6.84079E+00 -5.81707E+00 -7.28639E+00 -9.70227E+00 -8.23688E+00 -1.10066E+01 -1.07115E+01 -1.46136E+01 -1.10879E+01 -1.08170E+01
  -1.02029E+01 -9.38769E+00 -1.06258E+01 -8.40803E+00 -5.50863E+00 -8.99028E+00 -3.81175E+00 -5.69563E+00 -4.75489E+00 -4.94020E+00
  -6.31588E+00 -2.08425E+00 -5.12043E+00 -2.08088E+00 -5.06486E+00 -6.83561E+00 -4.99796E+00 -7.16095E+00 -6.12547E+00 -6.41488E+00
  -7.53001E+00 -4.34753E+00 -6.61449E+00 -3.51640E+00 -1.34638E+00 -1.71339E+00  1.42740E+00 -3.81425E+00 -3.77939E+00 -6.53643E+00
  -2.52881E+00 -3.56313E+00 -4.58408E+00  2.19277E+00  1.92328E+00  3.27624E+00  4.50628E+00  2.55026E+00  1.93257E+00  4.61453E+00
  -1.85024E+00 -1.51165E+00 -5.47880E+00 -3.86567E+00 -8.25269E-01 -1.07635E+00  3.70105E-01  1.12654E-02  5.53859E-01  5.95141E+00
   3.24367E+00  2.80062E+00  3.96600E+00  1.92640E+00  6.55909E-01  2.70140E+00  3.81247E+00  3.12262E+00  3.87817E+00  1.83057E+00
   2.63846E+00 -1.64153E-01 -1.11858E+00  1.17349E+00  2.40480E-01  3.41301E+00  5.04662E+00  5.23433E+00  7.84817E+00  3.72551E+00
   8.49093E+00  9.55646E+00  9.65972E+00  1.26207E+01  1.98172E+01  2.51543E+01  3.27362E+01  3.65133E+01  4.26034E+01  4.80703E+01
   5.36405E+01  6.06735E+01  5.12282E+01  4.42596E+01  3.65528E+01  2.61492E+01  1.70289E+01  1.41414E+01  8.93111E+00  5.79401E+00
   1.09023E+00  4.64522E+00  2.45247E+00  3.62250E+00  2.31817E+00 -1.99214E+00  1.89779E+00 -4.51620E-01  3.31234E-01  1.92441E+00
   4.25551E-01 -2.12100E+00 -1.01806E+00  8.31484E-02  1.42590E+00 -1.24533E+00 -4.24900E-01 -4.93236E-01 -1.86857E+00  5.94078E-01
  -8.46316E-01 -1.00040E+00  4.95917E-01 -3.61444E+00 -8.54780E-01 -1.04158E+00  3.94712E-01 -2.28955E-01 -1.09545E+00  3.43669E+00
   1.33305E+00  1.26169E+00  2.52425E+00  5.66003E+00  1.66189E+00  8.12481E-01  2.69536E+00  2.87151E+00  2.89330E+00  2.91734E+00
   3.26705E+00  2.76351E+00  4.27710E+00  1.87238E+00  6.05332E+00  2.19511E+00  7.72212E+00  3.95763E+00  1.68714E+00  5.34268E+00
   4.09735E+00  2.81401E+00  3.23733E+00  2.93413E+00  2.42210E+00  1.68180E+00  4.12410E+00  3.99766E+00  4.33026E+00  1.56894E+00
   3.66145E+00  1.39419E+00  3.61772E+00  1.16678E+00  3.32963E+00  2.42031E+00  4.54917E+00  5.20610E+00  5.66495E+00  4.32363E+00
   5.45451E+00  7.33217E+00  6.79902E+00  8.39985E+00  5.33794E+00  7.38906E+00  3.70827E+00  6.39626E+00  2.13447E+00  7.25984E+00
   5.66998E+00  3.78946E+00  5.23416E+00  4.69159E+00  4.68803E+00  4.69840E+00  1.79362E+00  1.78532E-01 -1.25385E+00  8.59286E-01
   2.33329E+00 -4.10392E-02  2.56640E+00 -3.30870E-02  9.01182E-01  9.14285E-01 -1.63457E+00  1.55723E+00  4.20675E-01 -2.59976E+00
   1.72099E+00  2.02529E+00 -5.53882E-01  1.89977E+00 -1.31741E+00  7.88648E-01 -1.44866E+00  1.18089E+00 -1.01459E+00  1.64093E+00
  -1.07763E+00 -2.27965E+00  1.57737E-01 -3.10058E+00  1.89596E-01 -3.14808E+00 -2.85870E+00  5.70673E-01 -2.60529E+00 -4.82613E-01
  -6.53239E-01 -7.77430E-01  7.34067E-01 -1.27640E+00  2.90777E+00  1.43822E+00  4.16262E+00  2.52527E+00  3.63345E+00  3.15150E+00
   4.21079E+00  3.12851E+00  5.56812E+00  6.10686E+00  3.74198E+00  3.98444E+00  4.03535E+00  4.75994E+00  7.53751E+00  5.18656E+00
   6.80775E+00  5.31009E+00  4.16752E+00  4.53914E+00  1.40393E+00  4.21644E+00  2.66173E+00  1.69381E+00  1.88060E+00  1.54908E+00
  -1.27212E+00  4.59078E+00  3.05002E+00  2.11013E-01  9.35934E-02  1.49803E+00 -1.29310E+00 -8.72514E-01  8.95607E-01 -2.86534E+00
   3.47612E+00 -1.51190E+00 -6.47317E-01 -1.46137E+00 -1.51208E+00  1.06070E+00 -8.38393E-01 -2.17632E+00 -9.04550E-01  5.94315E-01
   1.92834E-01 -3.26530E-01 -1.46724E+00 -7.56327E-01 -6.25415E-01 -5.34831E-02 -9.43981E-01  1.33590E+00  8.16293E-01  6.97638E-01
  -2.55550E+00  7.71546E-02 -1.30920E+00  4.74056E-01  6.97087E-01 -2.02773E-01 -1.38177E-01 -1.94971E+00  1.42153E+00 -1.18650E+00
   9.81028E-01 -1.62065E+00 -2.35342E+00 -6.72848E-01 -2.44238E+00 -1.46529E+00 -3.50042E-01 -2.19787E+00 -1.76611E+00  7.06026E-01
  -2.85090E+00  4.15736E-01  1.30284E+00 -3.23053E+00 -1.92035E+00 -1.54804E+00 -3.48451E+00 -2.88919E-01  7.06264E-01 -1.16935E+00
  -1.48117E+00 -1.64886E+00  5.08497E-01 -1.76915E+00  2.77357E+00 -5.91334E-01 -2.48942E-01 -1.86481E+00 -9.60022E-01 -1.23160E-01
   6.29118E-01 -1.58350E+00 -2.39128E-01 -6.81669E-01 -4.64890E+00 -5.88788E-01  3.52407E+00 -8.68393E-01
 NY points of the fit to the data follow
  -3.03191E+00 -3.28831E+00 -3.22098E+00 -2.75941E+00 -1.90914E+00 -7.87900E-01  5.19934E-01  1.93042E+00  3.34681E+00  4.63800E+00
   5.62027E+00  6.11539E+00  6.02642E+00  5.37117E+00  4.29274E+00  3.00469E+00  1.70170E+00  5.31698E-01 -4.31328E-01 -1.15172E+00
  -1.71171E+00 -2.11128E+00 -2.23788E+00 -2.17327E+00 -1.96869E+00 -1.65303E+00 -1.21770E+00 -6.39616E-01  6.80365E-02  8.84995E-01
   1.73684E+00  2.45721E+00  2.87428E+00  2.87302E+00  2.43167E+00  1.64185E+00  6.27611E-01 -4.60905E-01 -1.45424E+00 -2.10044E+00
  -2.20125E+00 -1.84707E+00 -1.20060E+00 -4.13354E-01  4.27342E-01  1.24731E+00  1.95627E+00  2.46344E+00  2.65080E+00  2.41216E+00
   1.73695E+00  7.59811E-01 -2.89254E-01 -1.21138E+00 -1.90002E+00 -2.33942E+00 -2.53574E+00 -2.49480E+00 -2.26671E+00 -1.96743E+00
  -1.71734E+00 -1.59264E+00 -1.62932E+00 -1.82310E+00 -2.09621E+00 -2.35933E+00 -2.55096E+00 -2.63345E+00 -2.59767E+00 -2.45833E+00
  -2.25177E+00 -2.03298E+00 -1.85177E+00 -1.75502E+00 -1.75555E+00 -1.84486E+00 -2.00627E+00 -2.20595E+00 -2.35823E+00 -2.37404E+00
  -2.29973E+00 -2.18717E+00 -2.03434E+00 -1.85098E+00 -1.65584E+00 -1.47596E+00 -1.37429E+00 -1.43888E+00 -1.70422E+00 -2.12117E+00
  -2.59621E+00 -3.02449E+00 -3.34425E+00 -3.51773E+00 -3.37273E+00 -2.45538E+00 -7.68618E-01  1.36356E+00  3.67564E+00  6.08074E+00
   8.58038E+00  1.11119E+01  1.34183E+01  1.50270E+01  1.54467E+01  1.44814E+01  1.23584E+01  9.54876E+00  6.54911E+00  3.75209E+00
   1.34891E+00 -5.84997E-01 -1.91934E+00 -2.54592E+00 -2.78670E+00 -2.90494E+00 -2.95409E+00 -2.92339E+00 -2.64701E+00 -1.62025E+00
   2.30550E-01  2.57311E+00  5.18142E+00  7.96631E+00  1.08949E+01  1.38941E+01  1.66889E+01  1.87379E+01  1.94621E+01  1.85947E+01
   1.63414E+01  1.32304E+01  9.83290E+00  6.59291E+00  3.74230E+00  1.35952E+00 -4.05922E-01 -1.35162E+00 -1.73094E+00 -1.85726E+00
  -1.83467E+00 -1.73861E+00 -1.63870E+00 -1.58002E+00 -1.59503E+00 -1.70275E+00 -1.88476E+00 -2.10979E+00 -2.34646E+00 -2.56364E+00
  -2.74627E+00 -2.88619E+00 -3.00046E+00 -3.14690E+00 -3.32590E+00 -3.50985E+00 -3.66632E+00 -3.76931E+00 -3.86266E+00 -3.98607E+00
  -4.13860E+00 -4.28401E+00 -4.37856E+00 -4.40842E+00 -4.40993E+00 -4.44757E+00 -4.57561E+00 -4.81778E+00 -5.17146E+00 -5.57399E+00
  -5.94973E+00 -6.28163E+00 -6.56286E+00 -6.82451E+00 -7.04621E+00 -7.18432E+00 -7.23503E+00 -7.20120E+00 -7.11870E+00 -7.06160E+00
  -7.02634E+00 -6.96295E+00 -6.82304E+00 -6.57734E+00 -6.22879E+00 -5.81382E+00 -5.35855E+00 -4.82157E+00 -4.18405E+00 -3.50784E+00
  -2.93706E+00 -2.56905E+00 -2.40915E+00 -2.40756E+00 -2.49570E+00 -2.58680E+00 -2.58726E+00 -2.43547E+00 -2.07445E+00 -1.52245E+00
  -8.71244E-01 -2.71258E-01  7.69120E-02  1.13715E-01 -1.96873E-01 -9.00054E-01 -1.92034E+00 -3.08110E+00 -4.11235E+00 -4.76588E+00
  -4.92652E+00 -4.53645E+00 -3.64870E+00 -2.42095E+00 -1.11409E+00 -3.86531E-02  5.92496E-01  6.84522E-01  2.07883E-01 -7.44929E-01
  -1.95461E+00 -3.07521E+00 -3.84531E+00 -4.11935E+00 -3.81836E+00 -2.98289E+00 -1.77815E+00 -5.27762E-01  4.85057E-01  1.21125E+00
   1.68191E+00  1.93761E+00  2.03341E+00  2.07077E+00  2.14639E+00  2.28393E+00  2.48007E+00  2.73443E+00  2.99794E+00  3.17975E+00
   3.22276E+00  3.10773E+00  2.89571E+00  2.72070E+00  2.69180E+00  2.85927E+00  3.23242E+00  3.80537E+00  4.51154E+00  5.27136E+00
   6.06015E+00  7.17702E+00  9.86151E+00  1.43817E+01  1.98889E+01  2.58045E+01  3.18924E+01  3.80603E+01  4.41426E+01  4.95950E+01
   5.33172E+01  5.40354E+01  5.11277E+01  4.51032E+01  3.71975E+01  2.87700E+01  2.09166E+01  1.42028E+01  8.76832E+00  4.85412E+00
   2.87166E+00  2.10684E+00  1.67219E+00  1.37261E+00  1.15780E+00  9.85285E-01  8.17932E-01  6.48573E-01  4.70600E-01  2.84258E-01
   9.63932E-02 -8.41603E-02 -2.49502E-01 -3.88623E-01 -4.93998E-01 -5.67516E-01 -6.14999E-01 -6.40057E-01 -6.43309E-01 -6.23991E-01
  -5.82153E-01 -5.17675E-01 -4.27416E-01 -3.09302E-01 -1.63178E-01  1.01700E-02  2.09397E-01  4.32418E-01  6.76207E-01  9.37206E-01
   1.21119E+00  1.49277E+00  1.77562E+00  2.05287E+00  2.31720E+00  2.56148E+00  2.77908E+00  2.96451E+00  3.11363E+00  3.22421E+00
   3.29607E+00  3.33110E+00  3.33303E+00  3.30776E+00  3.26317E+00  3.20925E+00  3.15842E+00  3.12680E+00  3.13902E+00  3.23914E+00
   3.42525E+00  3.60770E+00  3.74447E+00  3.82886E+00  3.85621E+00  3.80520E+00  3.62867E+00  3.30553E+00  2.91116E+00  2.50726E+00
   2.17128E+00  1.99531E+00  2.05006E+00  2.37096E+00  2.95187E+00  3.73418E+00  4.61271E+00  5.45451E+00  6.10642E+00  6.46253E+00
   6.54724E+00  6.42787E+00  6.17495E+00  5.84015E+00  5.45948E+00  5.09203E+00  4.80147E+00  4.56741E+00  4.36648E+00  4.18842E+00
   4.02522E+00  3.86813E+00  3.70726E+00  3.53276E+00  3.33624E+00  3.11244E+00  2.86021E+00  2.58296E+00  2.28810E+00  1.98590E+00
   1.68766E+00  1.40402E+00  1.14331E+00  9.10969E-01  7.09217E-01  5.37633E-01  3.93704E-01  2.73782E-01  1.73713E-01  8.96365E-02
   1.82678E-02 -4.27794E-02 -9.51733E-02 -1.39836E-01 -1.77213E-01 -2.07201E-01 -2.29391E-01 -2.43026E-01 -2.47271E-01 -2.41127E-01
  -2.23569E-01 -1.93373E-01 -1.49258E-01 -8.97886E-02 -1.35783E-02  8.08450E-02  1.94896E-01  3.30062E-01  4.87670E-01  6.68894E-01
   8.74474E-01  1.10476E+00  1.35945E+00  1.63766E+00  1.93753E+00  2.25630E+00  2.59003E+00  2.93377E+00  3.28152E+00  3.62641E+00
   3.96075E+00  4.27638E+00  4.56486E+00  4.81801E+00  5.02821E+00  5.18887E+00  5.29460E+00  5.34169E+00  5.32817E+00  5.25412E+00
   5.12154E+00  4.93432E+00  4.69789E+00  4.41908E+00  4.10559E+00  3.76586E+00  3.40840E+00  3.04161E+00  2.67324E+00  2.31029E+00
   1.95873E+00  1.62351E+00  1.30836E+00  1.01591E+00  7.47666E-01  5.04248E-01  2.85473E-01  9.06170E-02 -8.16067E-02 -2.32771E-01
  -3.64730E-01 -4.79329E-01 -5.78453E-01 -6.63846E-01 -7.37239E-01 -8.00178E-01 -8.54123E-01 -9.00274E-01 -9.39722E-01 -9.73358E-01
  -1.00204E+00 -1.02645E+00 -1.04724E+00 -1.06483E+00 -1.07967E+00 -1.09207E+00 -1.10241E+00 -1.11091E+00 -1.11785E+00 -1.12334E+00
  -1.12755E+00 -1.13061E+00 -1.13270E+00 -1.13389E+00 -1.13429E+00 -1.13393E+00 -1.13289E+00 -1.13123E+00 -1.12906E+00 -1.12638E+00
  -1.12326E+00 -1.11968E+00 -1.11571E+00 -1.11136E+00 -1.10673E+00 -1.10178E+00 -1.09655E+00 -1.09101E+00 -1.08522E+00 -1.07921E+00
  -1.07301E+00 -1.06659E+00 -1.05998E+00 -1.05313E+00 -1.04613E+00 -1.03897E+00 -1.03168E+00 -1.02420E+00 -1.01657E+00 -1.00877E+00
  -1.00086E+00 -9.92819E-01 -9.84666E-01 -9.76346E-01 -9.67891E-01 -9.59289E-01 -9.50596E-01 -9.41769E-01 -9.32819E-01 -9.23691E-01
  -9.14425E-01 -9.05008E-01 -8.95476E-01 -8.85771E-01 -8.75893E-01 -8.65789E-01 -8.55497E-01 -8.44987E-01
 NY background values follow
    -5.456E+00   -5.447E+00   -5.437E+00   -5.428E+00   -5.419E+00   -5.410E+00   -5.401E+00   -5.391E+00   -5.382E+00   -5.373E+00
    -5.364E+00   -5.354E+00   -5.345E+00   -5.336E+00   -5.327E+00   -5.317E+00   -5.308E+00   -5.299E+00   -5.290E+00   -5.280E+00
    -5.271E+00   -5.262E+00   -5.252E+00   -5.243E+00   -5.234E+00   -5.225E+00   -5.215E+00   -5.206E+00   -5.197E+00   -5.187E+00
    -5.178E+00   -5.169E+00   -5.160E+00   -5.150E+00   -5.141E+00   -5.132E+00   -5.122E+00   -5.113E+00   -5.104E+00   -5.094E+00
    -5.085E+00   -5.076E+00   -5.066E+00   -5.057E+00   -5.048E+00   -5.038E+00   -5.029E+00   -5.020E+00   -5.010E+00   -5.001E+00
    -4.992E+00   -4.982E+00   -4.973E+00   -4.964E+00   -4.954E+00   -4.945E+00   -4.936E+00   -4.926E+00   -4.917E+00   -4.907E+00
    -4.898E+00   -4.889E+00   -4.879E+00   -4.870E+00   -4.861E+00   -4.851E+00   -4.842E+00   -4.832E+00   -4.823E+00   -4.814E+00
    -4.804E+00   -4.795E+00   -4.785E+00   -4.776E+00   -4.767E+00   -4.757E+00   -4.748E+00   -4.738E+00   -4.729E+00   -4.720E+00
    -4.710E+00   -4.701E+00   -4.691E+00   -4.682E+00   -4.672E+00   -4.663E+00   -4.654E+00   -4.644E+00   -4.635E+00   -4.625E+00
    -4.616E+00   -4.606E+00   -4.597E+00   -4.588E+00   -4.578E+00   -4.569E+00   -4.559E+00   -4.550E+00   -4.540E+00   -4.531E+00
    -4.521E+00   -4.512E+00   -4.502E+00   -4.493E+00   -4.483E+00   -4.474E+00   -4.465E+00   -4.455E+00   -4.446E+00   -4.436E+00
    -4.427E+00   -4.417E+00   -4.408E+00   -4.398E+00   -4.389E+00   -4.379E+00   -4.370E+00   -4.360E+00   -4.351E+00   -4.341E+00
    -4.332E+00   -4.322E+00   -4.313E+00   -4.303E+00   -4.294E+00   -4.284E+00   -4.275E+00   -4.265E+00   -4.256E+00   -4.246E+00
    -4.237E+00   -4.227E+00   -4.218E+00   -4.208E+00   -4.198E+00   -4.189E+00   -4.179E+00   -4.170E+00   -4.160E+00   -4.151E+00
    -4.141E+00   -4.132E+00   -4.122E+00   -4.113E+00   -4.103E+00   -4.094E+00   -4.084E+00   -4.074E+00   -4.065E+00   -4.055E+00
    -4.046E+00   -4.036E+00   -4.027E+00   -4.017E+00   -4.008E+00   -3.998E+00   -3.988E+00   -3.979E+00   -3.969E+00   -3.960E+00
    -3.950E+00   -3.941E+00   -3.931E+00   -3.921E+00   -3.912E+00   -3.902E+00   -3.893E+00   -3.883E+00   -3.873E+00   -3.864E+00
    -3.854E+00   -3.845E+00   -3.835E+00   -3.826E+00   -3.816E+00   -3.806E+00   -3.797E+00   -3.787E+00   -3.778E+00   -3.768E+00
    -3.758E+00   -3.749E+00   -3.739E+00   -3.730E+00   -3.720E+00   -3.710E+00   -3.701E+00   -3.691E+00   -3.681E+00   -3.672E+00
    -3.662E+00   -3.653E+00   -3.643E+00   -3.633E+00   -3.624E+00   -3.614E+00   -3.604E+00   -3.595E+00   -3.585E+00   -3.576E+00
    -3.566E+00   -3.556E+00   -3.547E+00   -3.537E+00   -3.527E+00   -3.518E+00   -3.508E+00   -3.498E+00   -3.489E+00   -3.479E+00
    -3.470E+00   -3.460E+00   -3.450E+00   -3.441E+00   -3.431E+00   -3.421E+00   -3.412E+00   -3.402E+00   -3.392E+00   -3.383E+00
    -3.373E+00   -3.363E+00   -3.354E+00   -3.344E+00   -3.334E+00   -3.325E+00   -3.315E+00   -3.305E+00   -3.296E+00   -3.286E+00
    -3.276E+00   -3.267E+00   -3.257E+00   -3.247E+00   -3.238E+00   -3.228E+00   -3.218E+00   -3.209E+00   -3.199E+00   -3.189E+00
    -3.180E+00   -3.170E+00   -3.160E+00   -3.150E+00   -3.141E+00   -3.131E+00   -3.121E+00   -3.112E+00   -3.102E+00   -3.092E+00
    -3.083E+00   -3.073E+00   -3.063E+00   -3.054E+00   -3.044E+00   -3.034E+00   -3.024E+00   -3.015E+00   -3.005E+00   -2.995E+00
    -2.986E+00   -2.976E+00   -2.966E+00   -2.957E+00   -2.947E+00   -2.937E+00   -2.927E+00   -2.918E+00   -2.908E+00   -2.898E+00
    -2.889E+00   -2.879E+00   -2.869E+00   -2.859E+00   -2.850E+00   -2.840E+00   -2.830E+00   -2.821E+00   -2.811E+00   -2.801E+00
    -2.791E+00   -2.782E+00   -2.772E+00   -2.762E+00   -2.753E+00   -2.743E+00   -2.733E+00   -2.723E+00   -2.714E+00   -2.704E+00
    -2.694E+00   -2.685E+00   -2.675E+00   -2.665E+00   -2.655E+00   -2.646E+00   -2.636E+00   -2.626E+00   -2.616E+00   -2.607E+00
    -2.597E+00   -2.587E+00   -2.577E+00   -2.568E+00   -2.558E+00   -2.548E+00   -2.539E+00   -2.529E+00   -2.519E+00   -2.509E+00
    -2.500E+00   -2.490E+00   -2.480E+00   -2.470E+00   -2.461E+00   -2.451E+00   -2.441E+00   -2.431E+00   -2.422E+00   -2.412E+00
    -2.402E+00   -2.392E+00   -2.383E+00   -2.373E+00   -2.363E+00   -2.354E+00   -2.344E+00   -2.334E+00   -2.324E+00   -2.315E+00
    -2.305E+00   -2.295E+00   -2.285E+00   -2.276E+00   -2.266E+00   -2.256E+00   -2.246E+00   -2.237E+00   -2.227E+00   -2.217E+00
    -2.207E+00   -2.198E+00   -2.188E+00   -2.178E+00   -2.168E+00   -2.159E+00   -2.149E+00   -2.139E+00   -2.129E+00   -2.120E+00
    -2.110E+00   -2.100E+00   -2.090E+00   -2.081E+00   -2.071E+00   -2.061E+00   -2.051E+00   -2.042E+00   -2.032E+00   -2.022E+00
    -2.012E+00   -2.003E+00   -1.993E+00   -1.983E+00   -1.973E+00   -1.964E+00   -1.954E+00   -1.944E+00   -1.934E+00   -1.925E+00
    -1.915E+00   -1.905E+00   -1.895E+00   -1.886E+00   -1.876E+00   -1.866E+00   -1.856E+00   -1.847E+00   -1.837E+00   -1.827E+00
    -1.817E+00   -1.808E+00   -1.798E+00   -1.788E+00   -1.778E+00   -1.769E+00   -1.759E+00   -1.749E+00   -1.739E+00   -1.730E+00
    -1.720E+00   -1.710E+00   -1.700E+00   -1.691E+00   -1.681E+00   -1.671E+00   -1.661E+00   -1.652E+00   -1.642E+00   -1.632E+00
    -1.622E+00   -1.613E+00   -1.603E+00   -1.593E+00   -1.583E+00   -1.574E+00   -1.564E+00   -1.554E+00   -1.544E+00   -1.535E+00
    -1.525E+00   -1.515E+00   -1.505E+00   -1.496E+00   -1.486E+00   -1.476E+00   -1.466E+00   -1.457E+00   -1.447E+00   -1.437E+00
    -1.428E+00   -1.418E+00   -1.408E+00   -1.398E+00   -1.389E+00   -1.379E+00   -1.369E+00   -1.359E+00   -1.350E+00   -1.340E+00
    -1.330E+00   -1.320E+00   -1.311E+00   -1.301E+00   -1.291E+00   -1.281E+00   -1.272E+00   -1.262E+00   -1.252E+00   -1.243E+00
    -1.233E+00   -1.223E+00   -1.213E+00   -1.204E+00   -1.194E+00   -1.184E+00   -1.174E+00   -1.165E+00   -1.155E+00   -1.145E+00
    -1.136E+00   -1.126E+00   -1.116E+00   -1.106E+00   -1.097E+00   -1.087E+00   -1.077E+00   -1.067E+00   -1.058E+00   -1.048E+00
    -1.038E+00   -1.029E+00   -1.019E+00   -1.009E+00   -9.994E-01   -9.897E-01   -9.800E-01   -9.703E-01   -9.606E-01   -9.509E-01
    -9.412E-01   -9.315E-01   -9.217E-01   -9.120E-01   -9.023E-01   -8.926E-01   -8.829E-01   -8.732E-01   -8.635E-01   -8.538E-01
    -8.441E-01   -8.344E-01   -8.247E-01   -8.150E-01   -8.053E-01   -7.956E-01   -7.859E-01   -7.762E-01   -7.665E-01   -7.568E-01
    -7.471E-01   -7.375E-01   -7.278E-01   -7.181E-01   -7.084E-01   -6.987E-01   -6.890E-01   -6.793E-01
 Ala      Conc. = 2.43E+02
