 LCModel (Version 6.3-1L) Copyright: S.W. Provencher.          Ref.: Magn. Reson. Med. 30:672-679 (1993).                
 Slice#3 Row#5 Col#8  PD_05_press_1_raw_act
 36 lines in following concentration table = NCONC+1
    Conc.  %SD /Cr+PCr  Metabolite                                         
  120.904  99% 7.2E-02 Ala                                                 
   82.030 263% 4.9E-02 Asp                                                 
  742.932  29%   0.441 Cr                                                  
  943.373  23%   0.559 PCr                                                 
    0.000 999%   0.000 GABA                                                
    0.000 999%   0.000 Glc                                                 
 1.12E+03  22%   0.664 Gln                                                 
 1.72E+03  16%   1.019 Glu                                                 
  565.460   4%   0.335 GPC                                                 
    0.000 999%   0.000 PCh                                                 
  597.843  11%   0.355 GSH                                                 
 1.50E+03  16%   0.889 Ins                                                 
  131.101  96% 7.8E-02 Lac                                                 
 2.03E+03   3%   1.205 NAA                                                 
    0.000 999%   0.000 NAAG                                                
   55.521  43% 3.3E-02 Scyllo                                              
    0.000 999%   0.000 Tau                                                 
    0.000 999%   0.000 -CrCH2                                              
  565.460   4%   0.335 GPC+PCh                                             
 2.03E+03   3%   1.205 NAA+NAAG                                            
 1.69E+03   3%   1.000 Cr+PCr                                              
 2.84E+03  15%   1.683 Glu+Gln                                             
 2.77E+03  17%   1.644 Lip13a                                              
    0.000 999%   0.000 Lip13b                                              
    0.000 999%   0.000 Lip09                                               
  984.407  17%   0.584 MM09                                                
  463.305  39%   0.275 Lip20                                               
 2.02E+03  15%   1.200 MM20                                                
  365.712  30%   0.217 MM12                                                
 2.23E+03   8%   1.323 MM14                                                
  563.915  33%   0.334 MM17                                                
 2.77E+03  17%   1.644 Lip13a+Lip13b                                       
 5.37E+03   8%   3.184 MM14+Lip13a+Lip13b+MM12                             
  984.407  17%   0.584 MM09+Lip09                                          
 2.49E+03  12%   1.475 MM20+Lip20                                          
   6 lines in following misc. output table
  FWHM = 0.069 ppm    S/N =  11                                            
  Data shift =-0.023 ppm                                                   
  Ph:   1 deg      -4.5 deg/ppm                                            
  alphaB,S = 1.1E+00,   2.1E+02                                            
   14 spline knots.   Ns = 8(1)                                            
  (15) 4 infls.   ( 7) 1 extrs.                                            
  498 points on ppm-axis = NY
      4.000000     3.992357     3.984714     3.977070     3.969427     3.961784     3.954141     3.946497     3.938854     3.931211
      3.923568     3.915925     3.908281     3.900638     3.892995     3.885352     3.877708     3.870065     3.862422     3.854779
      3.847136     3.839492     3.831849     3.824206     3.816563     3.808919     3.801276     3.793633     3.785990     3.778347
      3.770703     3.763060     3.755417     3.747774     3.740130     3.732487     3.724844     3.717201     3.709558     3.701914
      3.694271     3.686628     3.678985     3.671341     3.663698     3.656055     3.648412     3.640769     3.633125     3.625482
      3.617839     3.610196     3.602552     3.594909     3.587266     3.579623     3.571980     3.564336     3.556693     3.549050
      3.541407     3.533763     3.526120     3.518477     3.510834     3.503191     3.495547     3.487904     3.480261     3.472618
      3.464974     3.457331     3.449688     3.442045     3.434402     3.426758     3.419115     3.411472     3.403829     3.396185
      3.388542     3.380899     3.373256     3.365613     3.357969     3.350326     3.342683     3.335040     3.327396     3.319753
      3.312110     3.304467     3.296824     3.289180     3.281537     3.273894     3.266251     3.258607     3.250964     3.243321
      3.235678     3.228034     3.220391     3.212748     3.205105     3.197462     3.189818     3.182175     3.174532     3.166889
      3.159245     3.151602     3.143959     3.136316     3.128673     3.121029     3.113386     3.105743     3.098100     3.090456
      3.082813     3.075170     3.067527     3.059884     3.052240     3.044597     3.036954     3.029311     3.021667     3.014024
      3.006381     2.998738     2.991095     2.983451     2.975808     2.968165     2.960522     2.952878     2.945235     2.937592
      2.929949     2.922306     2.914662     2.907019     2.899376     2.891733     2.884089     2.876446     2.868803     2.861160
      2.853517     2.845873     2.838230     2.830587     2.822944     2.815300     2.807657     2.800014     2.792371     2.784728
      2.777084     2.769441     2.761798     2.754155     2.746511     2.738868     2.731225     2.723582     2.715939     2.708295
      2.700652     2.693009     2.685366     2.677722     2.670079     2.662436     2.654793     2.647150     2.639506     2.631863
      2.624220     2.616577     2.608933     2.601290     2.593647     2.586004     2.578361     2.570717     2.563074     2.555431
      2.547788     2.540144     2.532501     2.524858     2.517215     2.509572     2.501928     2.494285     2.486642     2.478999
      2.471355     2.463712     2.456069     2.448426     2.440783     2.433139     2.425496     2.417853     2.410210     2.402566
      2.394923     2.387280     2.379637     2.371994     2.364350     2.356707     2.349064     2.341421     2.333777     2.326134
      2.318491     2.310848     2.303205     2.295561     2.287918     2.280275     2.272632     2.264988     2.257345     2.249702
      2.242059     2.234416     2.226772     2.219129     2.211486     2.203843     2.196199     2.188556     2.180913     2.173270
      2.165627     2.157983     2.150340     2.142697     2.135054     2.127410     2.119767     2.112124     2.104481     2.096838
      2.089194     2.081551     2.073908     2.066265     2.058621     2.050978     2.043335     2.035692     2.028049     2.020405
      2.012762     2.005119     1.997476     1.989833     1.982190     1.974546     1.966903     1.959260     1.951617     1.943974
      1.936331     1.928688     1.921045     1.913402     1.905759     1.898115     1.890472     1.882829     1.875186     1.867543
      1.859900     1.852257     1.844614     1.836971     1.829327     1.821684     1.814041     1.806398     1.798755     1.791112
      1.783469     1.775826     1.768183     1.760540     1.752896     1.745253     1.737610     1.729967     1.722324     1.714681
      1.707038     1.699395     1.691752     1.684108     1.676465     1.668822     1.661179     1.653536     1.645893     1.638250
      1.630607     1.622964     1.615321     1.607677     1.600034     1.592391     1.584748     1.577105     1.569462     1.561819
      1.554176     1.546533     1.538890     1.531246     1.523603     1.515960     1.508317     1.500674     1.493031     1.485388
      1.477745     1.470102     1.462458     1.454815     1.447172     1.439529     1.431886     1.424243     1.416600     1.408957
      1.401314     1.393671     1.386027     1.378384     1.370741     1.363098     1.355455     1.347812     1.340169     1.332526
      1.324883     1.317240     1.309596     1.301953     1.294310     1.286667     1.279024     1.271381     1.263738     1.256095
      1.248452     1.240808     1.233165     1.225522     1.217879     1.210236     1.202593     1.194950     1.187307     1.179664
      1.172021     1.164377     1.156734     1.149091     1.141448     1.133805     1.126162     1.118519     1.110876     1.103233
      1.095590     1.087946     1.080303     1.072660     1.065017     1.057374     1.049731     1.042088     1.034445     1.026802
      1.019158     1.011515     1.003872     0.996229     0.988586     0.980943     0.973300     0.965657     0.958014     0.950371
      0.942727     0.935084     0.927441     0.919798     0.912155     0.904512     0.896869     0.889226     0.881583     0.873940
      0.866296     0.858653     0.851010     0.843367     0.835724     0.828081     0.820438     0.812795     0.805152     0.797508
      0.789865     0.782222     0.774579     0.766936     0.759293     0.751650     0.744007     0.736364     0.728721     0.721077
      0.713434     0.705791     0.698148     0.690505     0.682862     0.675219     0.667576     0.659933     0.652290     0.644646
      0.637003     0.629360     0.621717     0.614074     0.606431     0.598788     0.591145     0.583502     0.575858     0.568215
      0.560572     0.552929     0.545286     0.537643     0.530000     0.522357     0.514714     0.507071     0.499427     0.491784
      0.484141     0.476498     0.468855     0.461212     0.453569     0.445925     0.438282     0.430639     0.422996     0.415353
      0.407710     0.400067     0.392424     0.384780     0.377137     0.369494     0.361851     0.354208     0.346565     0.338922
      0.331278     0.323635     0.315992     0.308349     0.300706     0.293063     0.285420     0.277777     0.270133     0.262490
      0.254847     0.247204     0.239561     0.231918     0.224275     0.216631     0.208988     0.201345
 NY phased data points follow
   7.20842E+00  1.28144E+01  8.98432E+00  1.33504E+01  1.31873E+01  1.73397E+01  2.13534E+01  3.38999E+01  3.66547E+01  4.31785E+01
   4.88962E+01  4.35299E+01  4.26674E+01  4.39641E+01  3.71401E+01  3.11422E+01  2.66609E+01  2.56980E+01  2.05807E+01  1.73502E+01
   1.62139E+01  1.68049E+01  1.42356E+01  1.37297E+01  1.47232E+01  1.73997E+01  1.50089E+01  1.85117E+01  1.94754E+01  1.82086E+01
   2.44809E+01  2.35078E+01  1.90317E+01  2.26194E+01  1.79258E+01  1.54210E+01  1.49814E+01  1.86146E+01  1.44380E+01  1.89785E+01
   1.28258E+01  1.33281E+01  1.38712E+01  1.20130E+01  1.72188E+01  1.60868E+01  1.71815E+01  2.16616E+01  2.30483E+01  2.04130E+01
   1.73991E+01  1.69304E+01  1.09999E+01  1.19888E+01  1.20224E+01  1.49993E+01  1.04986E+01  1.13447E+01  1.51088E+01  1.33659E+01
   1.13727E+01  1.07367E+01  4.09469E+00  5.12048E+00  2.32368E+00  5.25071E+00  1.17853E+00  1.95225E+00  1.90511E+00  4.39312E+00
   1.16080E+00  4.24494E+00  4.56228E+00  3.99414E+00  3.36658E+00  2.72278E+00  4.15371E+00  4.33523E+00  5.74801E-01  2.36854E-01
  -5.15723E-01  4.91413E+00  1.15762E+00  5.17123E-01  1.72111E+00  5.57396E+00  2.70123E+00  5.13457E+00 -1.48761E-01  4.83469E+00
   5.73588E+00  7.21262E-01  3.32621E+00  1.21387E+00  3.44244E+00  5.74711E+00  3.21171E+00  1.75892E+00  8.61559E+00  1.46826E+01
   2.31185E+01  3.33133E+01  4.26657E+01  4.43991E+01  4.59602E+01  4.43391E+01  3.70967E+01  3.10455E+01  2.51702E+01  1.99830E+01
   1.82667E+01  1.42127E+01  8.83766E+00  1.25103E+01  6.35104E+00  4.00598E+00  2.38774E+00 -1.38808E+00  2.60390E+00  4.94372E+00
   1.90890E+00  4.01829E+00  9.02565E+00  1.66134E+01  2.57078E+01  3.85411E+01  4.36932E+01  4.95976E+01  4.40438E+01  4.41882E+01
   4.02431E+01  3.42253E+01  2.88974E+01  2.17702E+01  1.99479E+01  1.18096E+01  7.99508E+00  5.89425E+00  4.88961E+00  4.04958E+00
   1.87632E-01 -1.92676E-01  1.75512E+00  2.19163E+00 -7.21613E-01 -1.96632E-01 -1.45281E+00  9.14451E-01  9.66973E-01 -2.02378E+00
  -1.99769E+00  9.19630E-02  8.30653E-02  1.65970E-01  1.09715E-01 -1.50809E+00 -4.94232E+00 -1.93418E+00 -1.66710E+00 -4.58712E+00
  -6.45481E+00 -5.65888E+00 -3.62882E+00 -2.03939E+00 -6.60320E-01 -3.77155E-01 -8.97769E-01  2.38084E+00 -4.35160E+00 -1.19360E+00
  -1.73187E+00  1.07793E+00 -7.88840E+00 -5.48671E+00 -9.44887E+00 -1.03664E+01 -1.16891E+01 -5.91499E+00 -6.76394E+00 -9.90870E+00
  -9.19991E+00 -1.01700E+01 -1.09617E+01 -1.12535E+01 -1.27315E+01 -1.47258E+01 -6.47151E+00 -5.88529E+00 -6.92699E+00 -6.21889E+00
   5.40736E-01 -9.88062E-01  1.80755E+00  2.36912E+00  1.13591E+00  9.61812E-01 -4.17413E-01  2.64761E+00 -1.09172E+00 -6.47591E-01
   2.57995E-03 -8.27707E-01  2.98739E+00  1.03339E+00  2.71959E-01  8.18591E-01 -3.65324E+00  3.03480E-01 -6.22879E+00 -4.31427E+00
  -5.16558E+00 -3.58294E+00  1.49635E-01  4.41946E+00  2.95329E+00  7.36077E+00  4.50913E+00  8.88262E+00  3.03710E+00 -5.03779E-01
   5.27853E-01 -9.79147E-01 -2.85489E+00 -4.30239E-01  1.66033E+00  3.04122E+00  3.91103E-01 -5.98780E-01  8.85965E+00  5.65934E+00
   4.86798E+00  8.13690E+00  6.48364E+00  4.37849E+00  6.39526E+00  3.41535E+00  5.07899E+00  4.56095E+00  4.45978E+00  5.46364E+00
   5.13931E+00  3.05694E+00  2.29752E+00  1.46258E+00  4.52996E+00  5.58925E+00  3.09623E+00  5.47056E+00  7.92821E+00  4.24273E+00
   4.53294E+00  8.98435E+00  8.22573E+00  1.12933E+01  1.02562E+01  1.35400E+01  2.22690E+01  3.58523E+01  5.10007E+01  6.22033E+01
   6.42285E+01  6.50686E+01  5.61070E+01  5.12065E+01  4.05686E+01  3.66554E+01  3.17610E+01  2.29678E+01  1.57907E+01  1.76489E+01
   6.94152E+00  8.61054E+00  4.34946E+00  6.92557E+00  6.18170E+00  6.38295E+00  1.90948E+00  3.07149E+00 -9.27013E-02  1.47592E+00
   1.52977E+00  5.78259E-01  9.72056E-01 -7.19672E-01 -1.20192E+00 -1.57560E+00  5.71161E-01  1.00212E+00 -1.09321E+00  2.11854E-01
  -4.50766E-01  2.19477E+00 -1.93802E+00  3.06567E-01 -3.39318E+00 -9.39040E-02 -2.38398E+00 -4.47746E+00 -1.11115E+00 -1.84359E+00
   5.19288E-01  2.28913E+00 -3.16751E-01  2.11679E-01 -9.70976E-01  2.40541E+00  2.71620E+00  2.33673E+00  2.75836E+00  4.10145E+00
   6.28613E+00  7.34668E+00  4.16507E+00  4.99282E+00  3.12032E+00  5.31722E+00  6.81633E+00  7.84462E+00  6.57878E+00  5.49474E+00
   1.00914E+01  9.84031E+00  1.15507E+01  9.29419E+00  1.13667E+01  9.44495E+00  1.14372E+01  1.23379E+01  1.38615E+01  1.27176E+01
   1.74057E+01  1.60426E+01  1.82857E+01  2.03347E+01  2.14178E+01  1.99673E+01  2.12505E+01  2.21794E+01  2.31247E+01  2.12590E+01
   2.38222E+01  2.02626E+01  1.98857E+01  1.70078E+01  1.63554E+01  1.93420E+01  1.87853E+01  1.63493E+01  1.62057E+01  1.40399E+01
   1.41526E+01  1.16274E+01  1.02214E+01  1.38247E+01  1.32297E+01  1.12029E+01  1.02216E+01  7.35269E+00  1.11581E+01  9.36912E+00
   1.47751E+01  1.02339E+01  1.18389E+01  1.13176E+01  1.35423E+01  8.76966E+00  1.16034E+01  9.22076E+00  1.24642E+01  4.94483E+00
   1.18645E+01  9.58066E+00  7.36866E+00  1.09597E+01  1.23057E+01  8.96882E+00  1.01885E+01  1.14145E+01  5.80357E+00  1.69736E+00
   8.02521E+00  6.95591E+00  6.44631E+00  4.35834E+00  4.17746E+00  6.63994E+00  3.18511E+00  6.41517E+00  5.96466E+00  4.33369E-01
   4.37031E+00  2.46058E+00  4.07201E+00  2.03539E+00  8.13602E-01  4.31909E+00  4.68845E+00  2.82558E+00  7.10890E+00  2.73432E+00
   5.35573E+00  5.29956E+00  7.82254E+00  3.85452E+00  1.14560E+00  4.90891E+00  5.90314E+00  7.63008E+00  5.68024E+00  5.33241E+00
   4.68949E+00  6.21963E+00  6.16784E+00  6.69587E+00  4.88355E+00  3.95254E+00  4.23061E+00  4.74729E+00  4.22226E+00  2.17978E-01
   5.01841E+00  3.52722E+00  4.06694E+00  1.51838E+00  3.77491E+00 -4.75821E-01  2.82791E+00  1.68856E+00  1.39264E+00  2.90153E+00
   3.99562E+00  2.88973E+00  8.97638E-01  4.41629E+00  2.28338E+00  1.28125E-01  4.25656E+00  5.42088E+00  5.01100E+00  3.30399E+00
   4.35262E+00  1.97858E+00 -1.26486E+00  2.75362E+00  2.62282E+00  5.01505E+00  8.65703E-01  2.24761E+00 -1.26562E+00  2.56631E+00
   3.60299E+00  9.30775E-01 -4.28496E-01  1.85997E+00  2.74993E+00  2.27816E+00 -2.68230E+00 -1.27796E+00  8.36632E-01  2.01821E+00
  -2.93994E-01  1.00024E+00  4.89220E-01  1.62925E+00 -1.40486E+00  3.49979E-01  3.51226E+00  3.52570E+00  1.22135E+00  1.03818E+00
   3.25439E+00  2.79768E+00  2.07788E+00 -8.65225E-01  4.96697E+00 -2.55832E-01 -2.11849E+00  5.92493E-01  2.39107E+00  7.10364E-01
   5.80781E-01  6.27258E-01  1.12602E+00 -8.58189E-01 -1.79382E-01  1.50635E+00  4.24201E-02 -6.42603E-01 -1.75112E-01  1.47986E+00
  -5.42696E-01  4.75394E-01 -7.70758E-01  1.08330E-01  1.63700E+00  3.89724E+00 -3.46295E-01  9.81893E-01
 NY points of the fit to the data follow
   1.30286E+01  1.24338E+01  1.22655E+01  1.28852E+01  1.45855E+01  1.78854E+01  2.30955E+01  2.96200E+01  3.61187E+01  4.10962E+01
   4.35782E+01  4.34412E+01  4.12647E+01  3.79282E+01  3.42461E+01  3.07365E+01  2.75314E+01  2.44574E+01  2.12479E+01  1.79675E+01
   1.53572E+01  1.38476E+01  1.30233E+01  1.23609E+01  1.20191E+01  1.24109E+01  1.38460E+01  1.62463E+01  1.91057E+01  2.17010E+01
   2.33862E+01  2.38041E+01  2.29661E+01  2.11906E+01  1.89870E+01  1.69145E+01  1.52081E+01  1.37900E+01  1.24323E+01  1.12857E+01
   1.08145E+01  1.09599E+01  1.18081E+01  1.34174E+01  1.54728E+01  1.73797E+01  1.85079E+01  1.86026E+01  1.77356E+01  1.62185E+01
   1.45199E+01  1.29479E+01  1.15947E+01  1.05386E+01  9.79227E+00  9.21545E+00  8.79734E+00  8.77736E+00  9.11063E+00  9.35253E+00
   9.19463E+00  8.70019E+00  8.02062E+00  7.32518E+00  6.75759E+00  6.39804E+00  6.27191E+00  6.30124E+00  6.37881E+00  6.48926E+00
   6.61236E+00  6.69303E+00  6.71009E+00  6.62547E+00  6.44737E+00  6.19647E+00  5.89775E+00  5.59550E+00  5.31223E+00  5.06110E+00
   4.83845E+00  4.67854E+00  4.61417E+00  4.52828E+00  4.28577E+00  3.83036E+00  3.22320E+00  2.60410E+00  2.11829E+00  1.85823E+00
   1.83618E+00  1.99361E+00  2.21227E+00  2.36083E+00  2.37814E+00  2.41462E+00  2.98299E+00  4.69859E+00  8.47694E+00  1.50680E+01
   2.40841E+01  3.37483E+01  4.16427E+01  4.59514E+01  4.62368E+01  4.32350E+01  3.82974E+01  3.27265E+01  2.74086E+01  2.26704E+01
   1.82778E+01  1.37270E+01  8.81836E+00  4.49727E+00  2.49438E+00  1.90317E+00  1.65228E+00  1.53533E+00  1.56640E+00  1.94892E+00
   3.09669E+00  5.63359E+00  1.04969E+01  1.81784E+01  2.79127E+01  3.77200E+01  4.52850E+01  4.91060E+01  4.90386E+01  4.59357E+01
   4.09987E+01  3.53072E+01  2.95648E+01  2.40200E+01  1.85632E+01  1.29993E+01  7.58061E+00  3.63591E+00  2.22290E+00  2.17155E+00
   2.34465E+00  2.41534E+00  2.34246E+00  2.24308E+00  2.20058E+00  2.13133E+00  1.97851E+00  1.72392E+00  1.34483E+00  8.89347E-01
   4.33548E-01  4.29020E-02 -2.21783E-01 -4.03348E-01 -5.42256E-01 -6.88675E-01 -9.07388E-01 -1.23237E+00 -1.62670E+00 -1.98094E+00
  -2.18401E+00 -2.20142E+00 -2.09695E+00 -1.99353E+00 -2.00389E+00 -2.17363E+00 -2.46593E+00 -2.81150E+00 -3.14851E+00 -3.44665E+00
  -3.72908E+00 -4.11264E+00 -4.64972E+00 -5.22505E+00 -5.69586E+00 -5.93383E+00 -5.98041E+00 -5.99584E+00 -6.04071E+00 -6.12292E+00
  -6.22972E+00 -6.34960E+00 -6.46909E+00 -6.51003E+00 -6.33839E+00 -5.84093E+00 -5.01598E+00 -3.97120E+00 -2.80868E+00 -1.75238E+00
  -1.06175E+00 -9.11223E-01 -1.29258E+00 -1.95644E+00 -2.61415E+00 -3.02845E+00 -3.02633E+00 -2.57581E+00 -1.72471E+00 -4.95339E-01
   9.49717E-01  2.35357E+00  3.37971E+00  3.70676E+00  3.09540E+00  1.57061E+00 -5.75966E-01 -2.81959E+00 -4.60292E+00 -5.45767E+00
  -5.12871E+00 -3.62626E+00 -1.31538E+00  1.15225E+00  3.13631E+00  4.20005E+00  4.13187E+00  2.96874E+00  1.04765E+00 -1.13355E+00
  -3.13954E+00 -4.28559E+00 -4.30190E+00 -3.52858E+00 -2.37391E+00 -1.06292E+00  3.27006E-01  1.46705E+00  2.18647E+00  2.67118E+00
   3.12121E+00  3.57825E+00  3.92440E+00  4.18086E+00  4.56067E+00  5.09240E+00  5.53574E+00  5.69080E+00  5.45339E+00  4.87562E+00
   4.15291E+00  3.47131E+00  3.01442E+00  2.95049E+00  3.23748E+00  3.64265E+00  3.94688E+00  4.25527E+00  4.68545E+00  5.23127E+00
   5.91574E+00  6.78572E+00  7.86880E+00  9.37047E+00  1.19984E+01  1.72143E+01  2.59869E+01  3.75922E+01  4.96428E+01  5.90723E+01
   6.37251E+01  6.32509E+01  5.87178E+01  5.18810E+01  4.43929E+01  3.73700E+01  3.11186E+01  2.52266E+01  1.89871E+01  1.22949E+01
   6.77064E+00  4.48868E+00  3.70643E+00  3.27469E+00  2.99072E+00  2.74687E+00  2.47269E+00  2.19447E+00  1.92318E+00  1.66983E+00
   1.44069E+00  1.22766E+00  1.01352E+00  8.08972E-01  6.34471E-01  4.90147E-01  3.69001E-01  2.69604E-01  1.94003E-01  1.42801E-01
   1.10209E-01  8.99479E-02  8.68808E-02  1.04006E-01  1.42571E-01  2.03782E-01  2.89037E-01  3.99498E-01  5.34823E-01  6.94662E-01
   8.79538E-01  1.08793E+00  1.31705E+00  1.56448E+00  1.82734E+00  2.10229E+00  2.38597E+00  2.67538E+00  2.96805E+00  3.26221E+00
   3.55720E+00  3.85383E+00  4.15493E+00  4.46589E+00  4.79403E+00  5.14835E+00  5.54000E+00  5.98230E+00  6.49205E+00  7.08989E+00
   7.79132E+00  8.61040E+00  9.53284E+00  1.04982E+01  1.14232E+01  1.22418E+01  1.29373E+01  1.35473E+01  1.41280E+01  1.47432E+01
   1.54589E+01  1.63108E+01  1.72740E+01  1.82593E+01  1.91522E+01  1.98699E+01  2.03962E+01  2.07511E+01  2.08943E+01  2.08385E+01
   2.06484E+01  2.03732E+01  2.00301E+01  1.95737E+01  1.89359E+01  1.81288E+01  1.71773E+01  1.61110E+01  1.50142E+01  1.39949E+01
   1.31692E+01  1.26186E+01  1.23530E+01  1.23011E+01  1.23467E+01  1.23916E+01  1.24017E+01  1.24037E+01  1.23832E+01  1.22817E+01
   1.21202E+01  1.19176E+01  1.16663E+01  1.13396E+01  1.09236E+01  1.04859E+01  1.00803E+01  9.68365E+00  9.28467E+00  8.88163E+00
   8.47617E+00  8.07142E+00  7.67121E+00  7.27956E+00  6.90047E+00  6.53771E+00  6.19469E+00  5.87440E+00  5.57941E+00  5.31185E+00
   5.07341E+00  4.86537E+00  4.68862E+00  4.54374E+00  4.43096E+00  4.35030E+00  4.30145E+00  4.28384E+00  4.29662E+00  4.33864E+00
   4.40840E+00  4.50407E+00  4.62336E+00  4.76357E+00  4.92151E+00  5.09352E+00  5.27553E+00  5.46305E+00  5.65124E+00  5.83502E+00
   6.00921E+00  6.16871E+00  6.30860E+00  6.42436E+00  6.51201E+00  6.56826E+00  6.59068E+00  6.57775E+00  6.52897E+00  6.44478E+00
   6.32659E+00  6.17671E+00  5.99818E+00  5.79469E+00  5.57037E+00  5.32961E+00  5.07688E+00  4.81659E+00  4.55297E+00  4.28990E+00
   4.03080E+00  3.77864E+00  3.53585E+00  3.30432E+00  3.08547E+00  2.88023E+00  2.68910E+00  2.51222E+00  2.34941E+00  2.20029E+00
   2.06428E+00  1.94067E+00  1.82866E+00  1.72739E+00  1.63602E+00  1.55372E+00  1.47969E+00  1.41315E+00  1.35339E+00  1.29975E+00
   1.25163E+00  1.20850E+00  1.16986E+00  1.13527E+00  1.10432E+00  1.07665E+00  1.05197E+00  1.02998E+00  1.01043E+00  9.93103E-01
   9.77784E-01  9.64299E-01  9.52498E-01  9.42242E-01  9.33402E-01  9.25856E-01  9.19500E-01  9.14246E-01  9.10018E-01  9.06738E-01
   9.04334E-01  9.02742E-01  9.01908E-01  9.01787E-01  9.02334E-01  9.03500E-01  9.05238E-01  9.07512E-01  9.10295E-01  9.13561E-01
   9.17284E-01  9.21434E-01  9.25984E-01  9.30912E-01  9.36206E-01  9.41849E-01  9.47821E-01  9.54099E-01  9.60668E-01  9.67517E-01
   9.74639E-01  9.82021E-01  9.89651E-01  9.97512E-01  1.00560E+00  1.01390E+00  1.02243E+00  1.03116E+00  1.04008E+00  1.04920E+00
   1.05850E+00  1.06799E+00  1.07767E+00  1.08752E+00  1.09755E+00  1.10775E+00  1.11814E+00  1.12870E+00
 NY background values follow
     8.096E+00    8.014E+00    7.932E+00    7.850E+00    7.768E+00    7.686E+00    7.604E+00    7.522E+00    7.440E+00    7.357E+00
     7.275E+00    7.193E+00    7.111E+00    7.029E+00    6.946E+00    6.864E+00    6.782E+00    6.700E+00    6.617E+00    6.535E+00
     6.453E+00    6.371E+00    6.289E+00    6.207E+00    6.125E+00    6.042E+00    5.960E+00    5.878E+00    5.797E+00    5.715E+00
     5.633E+00    5.551E+00    5.469E+00    5.388E+00    5.306E+00    5.225E+00    5.143E+00    5.062E+00    4.981E+00    4.899E+00
     4.818E+00    4.737E+00    4.656E+00    4.576E+00    4.495E+00    4.414E+00    4.334E+00    4.253E+00    4.173E+00    4.093E+00
     4.013E+00    3.933E+00    3.853E+00    3.774E+00    3.695E+00    3.615E+00    3.536E+00    3.458E+00    3.379E+00    3.301E+00
     3.223E+00    3.145E+00    3.067E+00    2.990E+00    2.913E+00    2.836E+00    2.759E+00    2.683E+00    2.607E+00    2.532E+00
     2.456E+00    2.381E+00    2.307E+00    2.232E+00    2.158E+00    2.085E+00    2.011E+00    1.938E+00    1.866E+00    1.794E+00
     1.722E+00    1.651E+00    1.580E+00    1.510E+00    1.440E+00    1.370E+00    1.301E+00    1.232E+00    1.164E+00    1.096E+00
     1.029E+00    9.624E-01    8.962E-01    8.305E-01    7.653E-01    7.006E-01    6.364E-01    5.727E-01    5.096E-01    4.470E-01
     3.849E-01    3.233E-01    2.622E-01    2.017E-01    1.417E-01    8.221E-02    2.328E-02   -3.511E-02   -9.296E-02   -1.503E-01
    -2.070E-01   -2.632E-01   -3.189E-01   -3.740E-01   -4.286E-01   -4.825E-01   -5.360E-01   -5.888E-01   -6.411E-01   -6.929E-01
    -7.440E-01   -7.946E-01   -8.446E-01   -8.941E-01   -9.429E-01   -9.912E-01   -1.039E+00   -1.086E+00   -1.132E+00   -1.178E+00
    -1.224E+00   -1.268E+00   -1.313E+00   -1.356E+00   -1.399E+00   -1.441E+00   -1.483E+00   -1.524E+00   -1.564E+00   -1.604E+00
    -1.644E+00   -1.682E+00   -1.720E+00   -1.758E+00   -1.795E+00   -1.831E+00   -1.866E+00   -1.901E+00   -1.936E+00   -1.970E+00
    -2.003E+00   -2.036E+00   -2.068E+00   -2.099E+00   -2.130E+00   -2.160E+00   -2.190E+00   -2.219E+00   -2.247E+00   -2.275E+00
    -2.303E+00   -2.330E+00   -2.356E+00   -2.381E+00   -2.406E+00   -2.431E+00   -2.455E+00   -2.478E+00   -2.501E+00   -2.523E+00
    -2.544E+00   -2.565E+00   -2.586E+00   -2.606E+00   -2.625E+00   -2.644E+00   -2.662E+00   -2.679E+00   -2.696E+00   -2.713E+00
    -2.729E+00   -2.744E+00   -2.759E+00   -2.773E+00   -2.787E+00   -2.800E+00   -2.813E+00   -2.825E+00   -2.836E+00   -2.847E+00
    -2.858E+00   -2.868E+00   -2.878E+00   -2.887E+00   -2.896E+00   -2.904E+00   -2.912E+00   -2.920E+00   -2.927E+00   -2.934E+00
    -2.940E+00   -2.946E+00   -2.951E+00   -2.957E+00   -2.961E+00   -2.966E+00   -2.970E+00   -2.974E+00   -2.977E+00   -2.980E+00
    -2.983E+00   -2.986E+00   -2.988E+00   -2.990E+00   -2.991E+00   -2.993E+00   -2.994E+00   -2.995E+00   -2.996E+00   -2.996E+00
    -2.996E+00   -2.996E+00   -2.996E+00   -2.996E+00   -2.995E+00   -2.994E+00   -2.994E+00   -2.993E+00   -2.991E+00   -2.990E+00
    -2.988E+00   -2.987E+00   -2.985E+00   -2.983E+00   -2.981E+00   -2.978E+00   -2.976E+00   -2.973E+00   -2.971E+00   -2.968E+00
    -2.964E+00   -2.961E+00   -2.958E+00   -2.954E+00   -2.950E+00   -2.947E+00   -2.943E+00   -2.938E+00   -2.934E+00   -2.929E+00
    -2.925E+00   -2.920E+00   -2.915E+00   -2.910E+00   -2.904E+00   -2.899E+00   -2.893E+00   -2.888E+00   -2.882E+00   -2.875E+00
    -2.869E+00   -2.863E+00   -2.856E+00   -2.849E+00   -2.843E+00   -2.835E+00   -2.828E+00   -2.821E+00   -2.813E+00   -2.806E+00
    -2.798E+00   -2.790E+00   -2.782E+00   -2.773E+00   -2.765E+00   -2.756E+00   -2.747E+00   -2.738E+00   -2.729E+00   -2.720E+00
    -2.710E+00   -2.701E+00   -2.691E+00   -2.681E+00   -2.671E+00   -2.661E+00   -2.651E+00   -2.641E+00   -2.630E+00   -2.619E+00
    -2.608E+00   -2.598E+00   -2.586E+00   -2.575E+00   -2.564E+00   -2.552E+00   -2.541E+00   -2.529E+00   -2.517E+00   -2.505E+00
    -2.493E+00   -2.481E+00   -2.468E+00   -2.456E+00   -2.443E+00   -2.431E+00   -2.418E+00   -2.405E+00   -2.392E+00   -2.379E+00
    -2.366E+00   -2.352E+00   -2.339E+00   -2.325E+00   -2.311E+00   -2.298E+00   -2.284E+00   -2.270E+00   -2.256E+00   -2.242E+00
    -2.227E+00   -2.213E+00   -2.198E+00   -2.184E+00   -2.169E+00   -2.155E+00   -2.140E+00   -2.125E+00   -2.110E+00   -2.095E+00
    -2.080E+00   -2.065E+00   -2.049E+00   -2.034E+00   -2.019E+00   -2.003E+00   -1.988E+00   -1.972E+00   -1.957E+00   -1.941E+00
    -1.925E+00   -1.910E+00   -1.894E+00   -1.878E+00   -1.862E+00   -1.846E+00   -1.830E+00   -1.814E+00   -1.798E+00   -1.782E+00
    -1.766E+00   -1.750E+00   -1.734E+00   -1.718E+00   -1.701E+00   -1.685E+00   -1.669E+00   -1.653E+00   -1.636E+00   -1.620E+00
    -1.604E+00   -1.587E+00   -1.571E+00   -1.555E+00   -1.538E+00   -1.522E+00   -1.506E+00   -1.489E+00   -1.473E+00   -1.457E+00
    -1.440E+00   -1.424E+00   -1.408E+00   -1.391E+00   -1.375E+00   -1.358E+00   -1.342E+00   -1.325E+00   -1.309E+00   -1.292E+00
    -1.276E+00   -1.259E+00   -1.243E+00   -1.226E+00   -1.210E+00   -1.193E+00   -1.176E+00   -1.160E+00   -1.143E+00   -1.126E+00
    -1.109E+00   -1.093E+00   -1.076E+00   -1.059E+00   -1.042E+00   -1.025E+00   -1.008E+00   -9.914E-01   -9.744E-01   -9.574E-01
    -9.403E-01   -9.232E-01   -9.061E-01   -8.889E-01   -8.717E-01   -8.545E-01   -8.372E-01   -8.198E-01   -8.025E-01   -7.851E-01
    -7.676E-01   -7.502E-01   -7.327E-01   -7.151E-01   -6.976E-01   -6.800E-01   -6.624E-01   -6.447E-01   -6.271E-01   -6.094E-01
    -5.917E-01   -5.740E-01   -5.563E-01   -5.386E-01   -5.209E-01   -5.031E-01   -4.854E-01   -4.677E-01   -4.499E-01   -4.322E-01
    -4.145E-01   -3.967E-01   -3.790E-01   -3.613E-01   -3.437E-01   -3.260E-01   -3.083E-01   -2.907E-01   -2.731E-01   -2.555E-01
    -2.380E-01   -2.204E-01   -2.029E-01   -1.855E-01   -1.680E-01   -1.506E-01   -1.333E-01   -1.159E-01   -9.866E-02   -8.143E-02
    -6.424E-02   -4.710E-02   -3.001E-02   -1.297E-02    4.013E-03    2.095E-02    3.784E-02    5.468E-02    7.148E-02    8.823E-02
     1.049E-01    1.216E-01    1.382E-01    1.548E-01    1.714E-01    1.879E-01    2.044E-01    2.209E-01    2.373E-01    2.537E-01
     2.700E-01    2.864E-01    3.027E-01    3.190E-01    3.352E-01    3.515E-01    3.677E-01    3.839E-01    4.001E-01    4.163E-01
     4.324E-01    4.486E-01    4.647E-01    4.808E-01    4.969E-01    5.130E-01    5.291E-01    5.452E-01    5.613E-01    5.774E-01
     5.934E-01    6.095E-01    6.256E-01    6.417E-01    6.578E-01    6.739E-01    6.900E-01    7.061E-01
 Ala      Conc. = 1.21E+02
