 LCModel (Version 6.3-1L) Copyright: S.W. Provencher.          Ref.: Magn. Reson. Med. 30:672-679 (1993).                
 Slice#3 Row#6 Col#14  PD_05_press_1_raw_act
 36 lines in following concentration table = NCONC+1
    Conc.  %SD /Cr+PCr  Metabolite                                         
 3.91E+03  11%  77.427 Ala                                                 
   10.852  21%   0.215 Asp                                                 
    0.000 999%   0.000 Cr                                                  
   50.525  47%   1.000 PCr                                                 
    6.514  21%   0.129 GABA                                                
    6.513  21%   0.129 Glc                                                 
    0.000 999%   0.000 Gln                                                 
  424.624  60%   8.404 Glu                                                 
    0.000 999%   0.000 GPC                                                 
   17.582  48%   0.348 PCh                                                 
    0.000 999%   0.000 GSH                                                 
   38.245 255%   0.757 Ins                                                 
  828.227  72%  16.392 Lac                                                 
  113.870  24%   2.254 NAA                                                 
    0.000 999%   0.000 NAAG                                                
    2.172  21% 4.3E-02 Scyllo                                              
   10.855  21%   0.215 Tau                                                 
    5.066  49%   0.100 -CrCH2                                              
   17.582  48%   0.348 GPC+PCh                                             
  113.870  24%   2.254 NAA+NAAG                                            
   50.525  47%   1.000 Cr+PCr                                              
  424.624  60%   8.404 Glu+Gln                                             
 1.35E+04   9% 267.538 Lip13a                                              
  431.099  30%   8.532 Lip13b                                              
 2.75E+03   8%  54.469 Lip09                                               
 1.03E+03  11%  20.337 MM09                                                
    0.000 999%   0.000 Lip20                                               
    0.000 999%   0.000 MM20                                                
  152.199 257%   3.012 MM12                                                
 6.15E+03   9% 121.663 MM14                                                
 1.56E+03  12%  30.827 MM17                                                
 1.39E+04   8% 276.071 Lip13a+Lip13b                                       
 2.02E+04   3% 400.746 MM14+Lip13a+Lip13b+MM12                             
 3.78E+03   5%  74.806 MM09+Lip09                                          
    0.000 999%   0.000 MM20+Lip20                                          
   6 lines in following misc. output table
  FWHM = 0.138 ppm    S/N =  38                                            
  Data shift =-0.061 ppm                                                   
  Ph:   0 deg      -9.2 deg/ppm                                            
  alphaB,S = 8.5E+01,   2.3E+02                                            
    7 spline knots.   Ns = 9(2)                                            
  (11) 5 infls.   ( 3) 1 extrs.                                            
  498 points on ppm-axis = NY
      4.000000     3.992357     3.984714     3.977070     3.969427     3.961784     3.954141     3.946497     3.938854     3.931211
      3.923568     3.915925     3.908281     3.900638     3.892995     3.885352     3.877708     3.870065     3.862422     3.854779
      3.847136     3.839492     3.831849     3.824206     3.816563     3.808919     3.801276     3.793633     3.785990     3.778347
      3.770703     3.763060     3.755417     3.747774     3.740130     3.732487     3.724844     3.717201     3.709558     3.701914
      3.694271     3.686628     3.678985     3.671341     3.663698     3.656055     3.648412     3.640769     3.633125     3.625482
      3.617839     3.610196     3.602552     3.594909     3.587266     3.579623     3.571980     3.564336     3.556693     3.549050
      3.541407     3.533763     3.526120     3.518477     3.510834     3.503191     3.495547     3.487904     3.480261     3.472618
      3.464974     3.457331     3.449688     3.442045     3.434402     3.426758     3.419115     3.411472     3.403829     3.396185
      3.388542     3.380899     3.373256     3.365613     3.357969     3.350326     3.342683     3.335040     3.327396     3.319753
      3.312110     3.304467     3.296824     3.289180     3.281537     3.273894     3.266251     3.258607     3.250964     3.243321
      3.235678     3.228034     3.220391     3.212748     3.205105     3.197462     3.189818     3.182175     3.174532     3.166889
      3.159245     3.151602     3.143959     3.136316     3.128673     3.121029     3.113386     3.105743     3.098100     3.090456
      3.082813     3.075170     3.067527     3.059884     3.052240     3.044597     3.036954     3.029311     3.021667     3.014024
      3.006381     2.998738     2.991095     2.983451     2.975808     2.968165     2.960522     2.952878     2.945235     2.937592
      2.929949     2.922306     2.914662     2.907019     2.899376     2.891733     2.884089     2.876446     2.868803     2.861160
      2.853517     2.845873     2.838230     2.830587     2.822944     2.815300     2.807657     2.800014     2.792371     2.784728
      2.777084     2.769441     2.761798     2.754155     2.746511     2.738868     2.731225     2.723582     2.715939     2.708295
      2.700652     2.693009     2.685366     2.677722     2.670079     2.662436     2.654793     2.647150     2.639506     2.631863
      2.624220     2.616577     2.608933     2.601290     2.593647     2.586004     2.578361     2.570717     2.563074     2.555431
      2.547788     2.540144     2.532501     2.524858     2.517215     2.509572     2.501928     2.494285     2.486642     2.478999
      2.471355     2.463712     2.456069     2.448426     2.440783     2.433139     2.425496     2.417853     2.410210     2.402566
      2.394923     2.387280     2.379637     2.371994     2.364350     2.356707     2.349064     2.341421     2.333777     2.326134
      2.318491     2.310848     2.303205     2.295561     2.287918     2.280275     2.272632     2.264988     2.257345     2.249702
      2.242059     2.234416     2.226772     2.219129     2.211486     2.203843     2.196199     2.188556     2.180913     2.173270
      2.165627     2.157983     2.150340     2.142697     2.135054     2.127410     2.119767     2.112124     2.104481     2.096838
      2.089194     2.081551     2.073908     2.066265     2.058621     2.050978     2.043335     2.035692     2.028049     2.020405
      2.012762     2.005119     1.997476     1.989833     1.982190     1.974546     1.966903     1.959260     1.951617     1.943974
      1.936331     1.928688     1.921045     1.913402     1.905759     1.898115     1.890472     1.882829     1.875186     1.867543
      1.859900     1.852257     1.844614     1.836971     1.829327     1.821684     1.814041     1.806398     1.798755     1.791112
      1.783469     1.775826     1.768183     1.760540     1.752896     1.745253     1.737610     1.729967     1.722324     1.714681
      1.707038     1.699395     1.691752     1.684108     1.676465     1.668822     1.661179     1.653536     1.645893     1.638250
      1.630607     1.622964     1.615321     1.607677     1.600034     1.592391     1.584748     1.577105     1.569462     1.561819
      1.554176     1.546533     1.538890     1.531246     1.523603     1.515960     1.508317     1.500674     1.493031     1.485388
      1.477745     1.470102     1.462458     1.454815     1.447172     1.439529     1.431886     1.424243     1.416600     1.408957
      1.401314     1.393671     1.386027     1.378384     1.370741     1.363098     1.355455     1.347812     1.340169     1.332526
      1.324883     1.317240     1.309596     1.301953     1.294310     1.286667     1.279024     1.271381     1.263738     1.256095
      1.248452     1.240808     1.233165     1.225522     1.217879     1.210236     1.202593     1.194950     1.187307     1.179664
      1.172021     1.164377     1.156734     1.149091     1.141448     1.133805     1.126162     1.118519     1.110876     1.103233
      1.095590     1.087946     1.080303     1.072660     1.065017     1.057374     1.049731     1.042088     1.034445     1.026802
      1.019158     1.011515     1.003872     0.996229     0.988586     0.980943     0.973300     0.965657     0.958014     0.950371
      0.942727     0.935084     0.927441     0.919798     0.912155     0.904512     0.896869     0.889226     0.881583     0.873940
      0.866296     0.858653     0.851010     0.843367     0.835724     0.828081     0.820438     0.812795     0.805152     0.797508
      0.789865     0.782222     0.774579     0.766936     0.759293     0.751650     0.744007     0.736364     0.728721     0.721077
      0.713434     0.705791     0.698148     0.690505     0.682862     0.675219     0.667576     0.659933     0.652290     0.644646
      0.637003     0.629360     0.621717     0.614074     0.606431     0.598788     0.591145     0.583502     0.575858     0.568215
      0.560572     0.552929     0.545286     0.537643     0.530000     0.522357     0.514714     0.507071     0.499427     0.491784
      0.484141     0.476498     0.468855     0.461212     0.453569     0.445925     0.438282     0.430639     0.422996     0.415353
      0.407710     0.400067     0.392424     0.384780     0.377137     0.369494     0.361851     0.354208     0.346565     0.338922
      0.331278     0.323635     0.315992     0.308349     0.300706     0.293063     0.285420     0.277777     0.270133     0.262490
      0.254847     0.247204     0.239561     0.231918     0.224275     0.216631     0.208988     0.201345
 NY phased data points follow
   3.75694E+00  3.03962E+00  3.99543E+00  4.56321E+00  2.52787E+00  5.44847E+00  3.29292E+00  3.85289E+00  3.88930E+00  3.34639E+00
   2.92213E+00  2.90457E+00  3.65010E+00  4.22102E+00  2.48099E+00  5.28532E+00  3.58763E+00  3.05378E+00  1.42588E+00  2.90150E+00
   2.36159E+00  3.65483E+00  3.86679E+00  3.33876E+00  3.50263E+00  1.73930E+00  2.78860E+00  1.40044E+00  2.65884E+00  3.36931E+00
   2.15686E+00  1.85542E+00  3.81746E+00  3.02458E+00  1.07819E+00  3.98776E+00  2.54121E+00  9.60121E-01  2.89597E+00  3.94471E+00
   2.04463E+00  1.45567E+00  1.67896E+00  2.71382E+00  3.02249E+00  1.57554E+00  3.54208E+00  2.81760E+00  3.46416E+00  3.45796E+00
   3.46461E+00  3.48758E+00  3.58177E+00  3.32401E+00  2.80108E+00  2.21168E+00  4.09609E+00  3.14452E+00  2.21345E+00  2.68813E+00
   2.55039E+00  4.79447E+00  2.65028E+00  2.50040E+00  3.92899E+00  2.32481E+00  1.65929E+00  3.21908E+00  3.75536E+00  4.53929E+00
   8.39458E-01  2.86376E+00  2.93237E+00  2.91463E+00  3.11285E+00  1.58206E+00  2.62319E+00  2.99032E+00  3.55398E+00  3.26592E+00
   3.24638E+00  3.25263E+00  2.88890E+00  4.30384E+00  3.29499E+00  3.52601E+00  1.48273E+00  3.13652E+00  4.23343E+00  3.57219E+00
   3.65057E+00  2.50083E+00  2.86350E+00  3.48912E+00  3.60264E+00  1.85033E+00  2.86078E+00  3.55203E+00  3.58339E+00  3.63852E+00
   3.45151E+00  4.58563E+00  3.84620E+00  3.31298E+00  4.52422E+00  2.67549E+00  5.08945E+00  2.82630E+00  4.65264E+00  3.69091E+00
   3.47490E+00  3.34963E+00  3.10098E+00  4.46150E+00  3.25802E+00  1.96711E+00  4.70213E+00  3.23744E+00  3.56119E+00  2.89919E+00
   2.82129E+00  3.11605E+00  2.30373E+00  3.79854E+00  2.48769E+00  4.77411E+00  2.59303E+00  4.96407E+00  3.38412E+00  3.68621E+00
   3.77162E+00  3.46541E+00  3.52234E+00  3.75350E+00  4.82940E+00  5.93996E+00  4.66426E+00  2.93440E+00  3.53266E+00  4.01552E+00
   4.21987E+00  5.39973E+00  5.10211E+00  3.39888E+00  2.97324E+00  2.34172E+00  3.44278E+00  2.40706E+00  2.72270E+00  4.44298E+00
   3.06682E+00  3.42559E+00  3.05847E+00  4.12594E+00  3.90562E+00  3.96570E+00  3.49303E+00  4.70839E+00  3.72175E+00  4.09532E+00
   4.42903E+00  3.89533E+00  4.73750E+00  4.30703E+00  3.84089E+00  3.46756E+00  4.25439E+00  3.51710E+00  6.02061E+00  4.90014E+00
   4.15840E+00  2.61426E+00  4.97838E+00  2.42770E+00  3.71584E+00  3.55645E+00  2.86961E+00  4.39028E+00  3.76394E+00  4.13582E+00
   4.65871E+00  4.96908E+00  4.37316E+00  5.25511E+00  4.47044E+00  5.87678E+00  5.30765E+00  3.18175E+00  4.35345E+00  4.08744E+00
   4.35716E+00  3.74145E+00  5.28235E+00  4.27735E+00  2.86836E+00  6.01518E+00  4.83098E+00  4.52386E+00  4.88292E+00  5.93783E+00
   3.92816E+00  4.62202E+00  3.95825E+00  4.64633E+00  4.56816E+00  5.56557E+00  5.16186E+00  4.01752E+00  4.57871E+00  5.45971E+00
   4.71960E+00  5.24585E+00  5.17679E+00  5.32748E+00  5.03126E+00  5.23468E+00  6.69354E+00  4.12964E+00  6.64515E+00  4.76983E+00
   5.15231E+00  6.72106E+00  4.75350E+00  5.55859E+00  4.05939E+00  5.67391E+00  4.87392E+00  6.41598E+00  5.32760E+00  6.24409E+00
   4.77501E+00  4.89603E+00  5.71977E+00  4.71150E+00  5.29116E+00  6.82385E+00  5.24862E+00  6.49107E+00  6.20519E+00  6.47912E+00
   7.27234E+00  7.67333E+00  7.07255E+00  8.47633E+00  7.19102E+00  7.57162E+00  7.16839E+00  8.70502E+00  9.18619E+00  8.49319E+00
   9.42367E+00  9.67242E+00  9.82542E+00  1.00668E+01  1.06081E+01  1.02808E+01  8.46031E+00  1.01299E+01  9.92514E+00  1.09995E+01
   1.20280E+01  1.07042E+01  1.20605E+01  1.27375E+01  1.48980E+01  1.24789E+01  1.31573E+01  1.37263E+01  1.37486E+01  1.25760E+01
   1.25587E+01  1.37753E+01  1.42561E+01  1.40937E+01  1.54149E+01  1.31954E+01  1.53684E+01  1.56114E+01  1.43463E+01  1.59098E+01
   1.59271E+01  1.74042E+01  1.60249E+01  1.66130E+01  1.69205E+01  1.81267E+01  1.81938E+01  1.97221E+01  1.83073E+01  1.98074E+01
   2.03022E+01  1.97445E+01  1.97932E+01  1.89156E+01  2.11995E+01  2.30443E+01  2.08179E+01  2.37703E+01  2.47915E+01  2.51172E+01
   2.50111E+01  2.45555E+01  2.73611E+01  2.76870E+01  2.84139E+01  2.85162E+01  2.90977E+01  3.12356E+01  3.02057E+01  3.05990E+01
   3.46312E+01  3.35884E+01  3.63109E+01  3.63083E+01  3.70229E+01  3.79223E+01  3.97312E+01  4.32149E+01  4.29091E+01  4.47099E+01
   4.61342E+01  4.74878E+01  5.05590E+01  5.11565E+01  5.19907E+01  5.13840E+01  5.44108E+01  5.71996E+01  5.82729E+01  6.10244E+01
   6.07057E+01  6.25754E+01  6.61899E+01  6.62944E+01  7.05082E+01  7.13250E+01  7.18609E+01  7.44334E+01  7.47834E+01  7.50728E+01
   7.64152E+01  7.43695E+01  7.50370E+01  7.28994E+01  7.28127E+01  7.04789E+01  6.89011E+01  6.68424E+01  6.32634E+01  6.10944E+01
   5.85769E+01  5.64174E+01  5.15204E+01  4.80758E+01  4.44926E+01  4.14117E+01  3.84850E+01  3.39860E+01  3.25297E+01  2.86219E+01
   2.50407E+01  2.23725E+01  1.81066E+01  1.80411E+01  1.53310E+01  1.37376E+01  1.28877E+01  9.94012E+00  1.02402E+01  8.82587E+00
   6.53192E+00  7.02895E+00  4.38570E+00  4.31360E+00  3.04542E+00  3.53313E+00  2.86760E+00  1.69087E+00  9.11040E-01  2.46082E+00
   1.46809E+00  2.36704E+00  2.75448E+00  2.69384E+00  2.72391E+00  1.12572E+00  1.81681E+00  2.17741E+00  2.67747E+00  3.33723E+00
   2.97023E+00  3.39110E+00  2.18443E+00  2.34229E+00  1.17676E+00  1.47554E+00  9.93966E-01  1.14617E+00  1.85698E-01 -1.12375E+00
  -1.38546E+00 -1.62304E+00 -1.30054E+00 -1.97126E+00 -1.79860E+00 -4.95462E+00 -4.45394E+00 -6.22545E+00 -5.94809E+00 -5.35350E+00
  -7.14978E+00 -7.47979E+00 -7.54088E+00 -6.81257E+00 -7.73738E+00 -9.19117E+00 -8.72055E+00 -9.05289E+00 -1.02818E+01 -1.02797E+01
  -1.15120E+01 -1.18279E+01 -1.20978E+01 -9.96060E+00 -1.30714E+01 -1.11093E+01 -1.26831E+01 -1.23588E+01 -1.23795E+01 -1.12901E+01
  -1.31269E+01 -1.23182E+01 -1.29198E+01 -1.32188E+01 -1.18928E+01 -1.29531E+01 -1.36274E+01 -1.28807E+01 -1.25568E+01 -1.09150E+01
  -1.22453E+01 -1.31838E+01 -1.26992E+01 -1.59837E+01 -1.48449E+01 -1.40772E+01 -1.41335E+01 -1.32620E+01 -1.38146E+01 -1.37196E+01
  -1.34608E+01 -1.36716E+01 -1.25713E+01 -1.34709E+01 -1.43379E+01 -1.30913E+01 -1.35791E+01 -1.09271E+01 -1.35627E+01 -1.25656E+01
  -1.35175E+01 -1.26689E+01 -1.42390E+01 -1.26225E+01 -1.37950E+01 -1.19068E+01 -1.30883E+01 -1.23372E+01 -1.37154E+01 -1.22773E+01
  -1.13263E+01 -1.22748E+01 -1.23700E+01 -1.21105E+01 -1.31571E+01 -1.29792E+01 -1.21679E+01 -1.19817E+01 -1.11711E+01 -1.18732E+01
  -1.12170E+01 -1.07912E+01 -1.19836E+01 -1.14598E+01 -1.20873E+01 -1.19420E+01 -1.17669E+01 -1.25783E+01 -1.04037E+01 -1.10177E+01
  -1.01691E+01 -1.16931E+01 -1.27756E+01 -1.01937E+01 -1.12559E+01 -1.08746E+01 -1.13286E+01 -1.00009E+01
 NY points of the fit to the data follow
   3.13388E+00  3.19371E+00  3.17326E+00  3.25823E+00  3.22802E+00  3.35374E+00  3.33347E+00  3.48088E+00  3.42830E+00  3.53951E+00
   3.45951E+00  3.52952E+00  3.42836E+00  3.43997E+00  3.35745E+00  3.40251E+00  3.45029E+00  3.46504E+00  3.59529E+00  3.50879E+00
   3.72120E+00  3.49541E+00  3.71460E+00  3.25262E+00  3.57822E+00  2.95322E+00  3.41107E+00  2.61857E+00  3.21688E+00  2.30470E+00
   3.12006E+00  2.13104E+00  3.08764E+00  2.08408E+00  3.16141E+00  2.12473E+00  3.25581E+00  2.18395E+00  3.26751E+00  2.22522E+00
   3.17493E+00  2.22401E+00  3.15253E+00  2.37932E+00  3.24334E+00  2.66827E+00  3.40738E+00  3.02545E+00  3.55145E+00  3.14542E+00
   3.41678E+00  3.04061E+00  3.13306E+00  2.83824E+00  2.83416E+00  2.70062E+00  2.79443E+00  2.79077E+00  2.88846E+00  2.93868E+00
   3.00744E+00  3.06238E+00  3.08519E+00  3.09214E+00  3.09587E+00  3.09410E+00  3.09471E+00  3.09168E+00  3.09449E+00  3.09305E+00
   3.09842E+00  3.09563E+00  3.10083E+00  3.09498E+00  3.09948E+00  3.09203E+00  3.09691E+00  3.08816E+00  3.09314E+00  3.08267E+00
   3.08719E+00  3.07603E+00  3.08093E+00  3.06904E+00  3.07348E+00  3.06735E+00  3.08002E+00  3.07608E+00  3.09775E+00  3.09578E+00
   3.12817E+00  3.12313E+00  3.16595E+00  3.16874E+00  3.23696E+00  3.23957E+00  3.33191E+00  3.32584E+00  3.44104E+00  3.42389E+00
   3.56139E+00  3.51768E+00  3.66271E+00  3.59455E+00  3.74304E+00  3.65013E+00  3.79247E+00  3.67308E+00  3.80185E+00  3.67544E+00
   3.78047E+00  3.66352E+00  3.74642E+00  3.64372E+00  3.69429E+00  3.61152E+00  3.63856E+00  3.60207E+00  3.60419E+00  3.61700E+00
   3.59051E+00  3.65567E+00  3.60697E+00  3.72560E+00  3.65177E+00  3.80915E+00  3.72323E+00  3.88714E+00  3.77819E+00  3.93516E+00
   3.80222E+00  3.93641E+00  3.79014E+00  3.89727E+00  3.75291E+00  3.83729E+00  3.69759E+00  3.75340E+00  3.62575E+00  3.65421E+00
   3.54849E+00  3.55690E+00  3.47546E+00  3.46773E+00  3.41497E+00  3.40108E+00  3.37778E+00  3.36874E+00  3.37448E+00  3.38234E+00
   3.39176E+00  3.40075E+00  3.41087E+00  3.42008E+00  3.43104E+00  3.44100E+00  3.45163E+00  3.46172E+00  3.47172E+00  3.48303E+00
   3.49310E+00  3.50600E+00  3.51536E+00  3.52868E+00  3.53849E+00  3.55306E+00  3.56289E+00  3.57842E+00  3.58925E+00  3.60430E+00
   3.61784E+00  3.63251E+00  3.65018E+00  3.66561E+00  3.68920E+00  3.70534E+00  3.73412E+00  3.75025E+00  3.78637E+00  3.80522E+00
   3.84855E+00  3.87008E+00  3.91859E+00  3.94270E+00  3.99663E+00  4.02800E+00  4.08793E+00  4.12740E+00  4.19006E+00  4.23415E+00
   4.29672E+00  4.34612E+00  4.40187E+00  4.45598E+00  4.50193E+00  4.56161E+00  4.60295E+00  4.67175E+00  4.71912E+00  4.79496E+00
   4.83641E+00  4.91339E+00  4.94207E+00  5.01115E+00  5.01721E+00  5.08544E+00  5.09587E+00  5.16610E+00  5.17729E+00  5.24597E+00
   5.26004E+00  5.32573E+00  5.32844E+00  5.36977E+00  5.35906E+00  5.38947E+00  5.37796E+00  5.40841E+00  5.39098E+00  5.42930E+00
   5.41657E+00  5.47954E+00  5.47611E+00  5.56885E+00  5.59121E+00  5.71225E+00  5.76025E+00  5.90711E+00  5.97099E+00  6.12880E+00
   6.19915E+00  6.35876E+00  6.43730E+00  6.59616E+00  6.69980E+00  6.85648E+00  6.99395E+00  7.13551E+00  7.31347E+00  7.41501E+00
   7.58951E+00  7.65251E+00  7.84307E+00  7.88130E+00  8.08405E+00  8.12557E+00  8.36889E+00  8.44435E+00  8.69997E+00  8.81866E+00
   9.11117E+00  9.27302E+00  9.57433E+00  9.77447E+00  1.00638E+01  1.02999E+01  1.05758E+01  1.08335E+01  1.10496E+01  1.13149E+01
   1.14770E+01  1.17422E+01  1.18465E+01  1.20995E+01  1.21447E+01  1.23812E+01  1.23970E+01  1.26343E+01  1.26559E+01  1.28938E+01
   1.29213E+01  1.31608E+01  1.32078E+01  1.34604E+01  1.35593E+01  1.38438E+01  1.40060E+01  1.43282E+01  1.45688E+01  1.49355E+01
   1.52598E+01  1.56792E+01  1.61032E+01  1.65570E+01  1.70160E+01  1.74908E+01  1.79794E+01  1.84714E+01  1.89797E+01  1.94883E+01
   2.00100E+01  2.05292E+01  2.10583E+01  2.15838E+01  2.21152E+01  2.26444E+01  2.31771E+01  2.37080E+01  2.42418E+01  2.47780E+01
   2.53209E+01  2.58747E+01  2.64450E+01  2.70410E+01  2.76723E+01  2.83533E+01  2.91022E+01  2.99471E+01  3.09319E+01  3.20507E+01
   3.30435E+01  3.42617E+01  3.52436E+01  3.65601E+01  3.74710E+01  3.88667E+01  3.99445E+01  4.18778E+01  4.29463E+01  4.50483E+01
   4.59887E+01  4.81649E+01  4.90130E+01  5.10384E+01  5.15313E+01  5.36113E+01  5.44099E+01  5.66761E+01  5.78221E+01  6.00629E+01
   6.14718E+01  6.36418E+01  6.55905E+01  6.73729E+01  6.95704E+01  7.08858E+01  7.29796E+01  7.35950E+01  7.53238E+01  7.48984E+01
   7.59665E+01  7.46017E+01  7.48610E+01  7.28724E+01  7.24842E+01  7.00350E+01  6.89772E+01  6.62569E+01  6.44579E+01  6.16009E+01
   5.86834E+01  5.54284E+01  5.18874E+01  4.85702E+01  4.46707E+01  4.15128E+01  3.74943E+01  3.48568E+01  3.11376E+01  2.85396E+01
   2.50942E+01  2.27064E+01  1.97547E+01  1.77955E+01  1.54577E+01  1.39066E+01  1.21038E+01  1.08490E+01  9.44379E+00  8.39127E+00
   7.15635E+00  6.13757E+00  5.14391E+00  4.26459E+00  3.53943E+00  2.88459E+00  2.45186E+00  2.15054E+00  1.94770E+00  1.82888E+00
   1.78286E+00  1.79871E+00  1.86496E+00  1.96935E+00  2.09891E+00  2.24011E+00  2.37922E+00  2.50260E+00  2.59727E+00  2.65124E+00
   2.65413E+00  2.59741E+00  2.47493E+00  2.28301E+00  2.02065E+00  1.68945E+00  1.29345E+00  8.38814E-01  3.33440E-01 -2.13605E-01
  -7.92524E-01 -1.39343E+00 -2.00672E+00 -2.62364E+00 -3.23646E+00 -3.83883E+00 -4.42571E+00 -4.99359E+00 -5.54012E+00 -6.06423E+00
  -6.56564E+00 -7.04487E+00 -7.50281E+00 -7.94066E+00 -8.35960E+00 -8.76081E+00 -9.14521E+00 -9.51356E+00 -9.86629E+00 -1.02036E+01
  -1.05256E+01 -1.08320E+01 -1.11226E+01 -1.13970E+01 -1.16549E+01 -1.18960E+01 -1.21202E+01 -1.23273E+01 -1.25173E+01 -1.26904E+01
  -1.28468E+01 -1.29869E+01 -1.31113E+01 -1.32205E+01 -1.33151E+01 -1.33960E+01 -1.34639E+01 -1.35195E+01 -1.35637E+01 -1.35973E+01
  -1.36210E+01 -1.36357E+01 -1.36421E+01 -1.36409E+01 -1.36327E+01 -1.36182E+01 -1.35980E+01 -1.35727E+01 -1.35427E+01 -1.35085E+01
  -1.34705E+01 -1.34293E+01 -1.33850E+01 -1.33380E+01 -1.32887E+01 -1.32373E+01 -1.31841E+01 -1.31292E+01 -1.30729E+01 -1.30154E+01
  -1.29568E+01 -1.28973E+01 -1.28369E+01 -1.27759E+01 -1.27142E+01 -1.26521E+01 -1.25896E+01 -1.25268E+01 -1.24636E+01 -1.24003E+01
  -1.23368E+01 -1.22733E+01 -1.22096E+01 -1.21459E+01 -1.20821E+01 -1.20184E+01 -1.19547E+01 -1.18911E+01 -1.18275E+01 -1.17640E+01
  -1.17005E+01 -1.16371E+01 -1.15737E+01 -1.15105E+01 -1.14472E+01 -1.13840E+01 -1.13208E+01 -1.12576E+01 -1.11944E+01 -1.11311E+01
  -1.10677E+01 -1.10041E+01 -1.09404E+01 -1.08764E+01 -1.08120E+01 -1.07473E+01 -1.06819E+01 -1.06159E+01
 NY background values follow
     5.616E+00    5.605E+00    5.594E+00    5.583E+00    5.572E+00    5.561E+00    5.549E+00    5.538E+00    5.526E+00    5.514E+00
     5.503E+00    5.491E+00    5.479E+00    5.467E+00    5.454E+00    5.442E+00    5.429E+00    5.417E+00    5.404E+00    5.391E+00
     5.379E+00    5.366E+00    5.353E+00    5.339E+00    5.326E+00    5.313E+00    5.299E+00    5.286E+00    5.272E+00    5.258E+00
     5.244E+00    5.230E+00    5.216E+00    5.202E+00    5.188E+00    5.173E+00    5.159E+00    5.144E+00    5.129E+00    5.115E+00
     5.100E+00    5.085E+00    5.070E+00    5.055E+00    5.039E+00    5.024E+00    5.009E+00    4.993E+00    4.977E+00    4.962E+00
     4.946E+00    4.930E+00    4.914E+00    4.898E+00    4.882E+00    4.866E+00    4.849E+00    4.833E+00    4.816E+00    4.800E+00
     4.783E+00    4.766E+00    4.749E+00    4.733E+00    4.715E+00    4.698E+00    4.681E+00    4.664E+00    4.647E+00    4.629E+00
     4.612E+00    4.594E+00    4.576E+00    4.559E+00    4.541E+00    4.523E+00    4.505E+00    4.487E+00    4.469E+00    4.451E+00
     4.432E+00    4.414E+00    4.396E+00    4.377E+00    4.359E+00    4.340E+00    4.321E+00    4.302E+00    4.284E+00    4.265E+00
     4.246E+00    4.227E+00    4.207E+00    4.188E+00    4.169E+00    4.150E+00    4.130E+00    4.111E+00    4.091E+00    4.072E+00
     4.052E+00    4.032E+00    4.013E+00    3.993E+00    3.973E+00    3.953E+00    3.933E+00    3.913E+00    3.892E+00    3.872E+00
     3.852E+00    3.832E+00    3.811E+00    3.791E+00    3.770E+00    3.750E+00    3.729E+00    3.709E+00    3.688E+00    3.667E+00
     3.646E+00    3.625E+00    3.604E+00    3.583E+00    3.562E+00    3.541E+00    3.520E+00    3.499E+00    3.478E+00    3.456E+00
     3.435E+00    3.414E+00    3.392E+00    3.371E+00    3.349E+00    3.328E+00    3.306E+00    3.285E+00    3.263E+00    3.241E+00
     3.219E+00    3.198E+00    3.176E+00    3.154E+00    3.132E+00    3.110E+00    3.088E+00    3.066E+00    3.044E+00    3.022E+00
     3.000E+00    2.977E+00    2.955E+00    2.933E+00    2.911E+00    2.888E+00    2.866E+00    2.844E+00    2.821E+00    2.799E+00
     2.777E+00    2.754E+00    2.732E+00    2.709E+00    2.687E+00    2.664E+00    2.641E+00    2.619E+00    2.596E+00    2.573E+00
     2.551E+00    2.528E+00    2.505E+00    2.483E+00    2.460E+00    2.437E+00    2.414E+00    2.391E+00    2.369E+00    2.346E+00
     2.323E+00    2.300E+00    2.277E+00    2.254E+00    2.231E+00    2.208E+00    2.185E+00    2.163E+00    2.140E+00    2.117E+00
     2.094E+00    2.071E+00    2.048E+00    2.025E+00    2.002E+00    1.979E+00    1.956E+00    1.933E+00    1.910E+00    1.887E+00
     1.864E+00    1.841E+00    1.818E+00    1.795E+00    1.772E+00    1.749E+00    1.726E+00    1.703E+00    1.680E+00    1.657E+00
     1.634E+00    1.611E+00    1.588E+00    1.565E+00    1.542E+00    1.519E+00    1.496E+00    1.473E+00    1.450E+00    1.427E+00
     1.404E+00    1.381E+00    1.359E+00    1.336E+00    1.313E+00    1.290E+00    1.267E+00    1.244E+00    1.222E+00    1.199E+00
     1.176E+00    1.153E+00    1.131E+00    1.108E+00    1.085E+00    1.063E+00    1.040E+00    1.017E+00    9.949E-01    9.724E-01
     9.498E-01    9.274E-01    9.049E-01    8.824E-01    8.600E-01    8.376E-01    8.153E-01    7.930E-01    7.707E-01    7.484E-01
     7.262E-01    7.040E-01    6.818E-01    6.597E-01    6.376E-01    6.155E-01    5.935E-01    5.715E-01    5.495E-01    5.276E-01
     5.057E-01    4.839E-01    4.620E-01    4.403E-01    4.185E-01    3.969E-01    3.752E-01    3.536E-01    3.321E-01    3.105E-01
     2.891E-01    2.676E-01    2.462E-01    2.249E-01    2.036E-01    1.824E-01    1.612E-01    1.400E-01    1.189E-01    9.787E-02
     7.686E-02    5.591E-02    3.501E-02    1.416E-02   -6.632E-03   -2.738E-02   -4.806E-02   -6.870E-02   -8.928E-02   -1.098E-01
    -1.303E-01   -1.507E-01   -1.710E-01   -1.913E-01   -2.116E-01   -2.318E-01   -2.519E-01   -2.719E-01   -2.920E-01   -3.119E-01
    -3.318E-01   -3.516E-01   -3.713E-01   -3.910E-01   -4.107E-01   -4.302E-01   -4.497E-01   -4.691E-01   -4.885E-01   -5.078E-01
    -5.270E-01   -5.462E-01   -5.653E-01   -5.843E-01   -6.032E-01   -6.221E-01   -6.409E-01   -6.597E-01   -6.783E-01   -6.969E-01
    -7.155E-01   -7.339E-01   -7.523E-01   -7.706E-01   -7.888E-01   -8.070E-01   -8.250E-01   -8.430E-01   -8.609E-01   -8.788E-01
    -8.965E-01   -9.142E-01   -9.318E-01   -9.493E-01   -9.668E-01   -9.841E-01   -1.001E+00   -1.019E+00   -1.036E+00   -1.053E+00
    -1.070E+00   -1.087E+00   -1.103E+00   -1.120E+00   -1.137E+00   -1.153E+00   -1.170E+00   -1.186E+00   -1.202E+00   -1.218E+00
    -1.234E+00   -1.250E+00   -1.266E+00   -1.282E+00   -1.298E+00   -1.313E+00   -1.329E+00   -1.344E+00   -1.360E+00   -1.375E+00
    -1.390E+00   -1.405E+00   -1.420E+00   -1.435E+00   -1.450E+00   -1.464E+00   -1.479E+00   -1.493E+00   -1.508E+00   -1.522E+00
    -1.536E+00   -1.550E+00   -1.564E+00   -1.578E+00   -1.592E+00   -1.606E+00   -1.619E+00   -1.633E+00   -1.646E+00   -1.659E+00
    -1.672E+00   -1.685E+00   -1.698E+00   -1.711E+00   -1.724E+00   -1.737E+00   -1.749E+00   -1.762E+00   -1.774E+00   -1.786E+00
    -1.798E+00   -1.810E+00   -1.822E+00   -1.834E+00   -1.845E+00   -1.857E+00   -1.868E+00   -1.880E+00   -1.891E+00   -1.902E+00
    -1.913E+00   -1.924E+00   -1.934E+00   -1.945E+00   -1.956E+00   -1.966E+00   -1.976E+00   -1.986E+00   -1.997E+00   -2.006E+00
    -2.016E+00   -2.026E+00   -2.036E+00   -2.045E+00   -2.054E+00   -2.064E+00   -2.073E+00   -2.082E+00   -2.091E+00   -2.099E+00
    -2.108E+00   -2.116E+00   -2.125E+00   -2.133E+00   -2.141E+00   -2.149E+00   -2.157E+00   -2.165E+00   -2.172E+00   -2.180E+00
    -2.187E+00   -2.194E+00   -2.202E+00   -2.209E+00   -2.215E+00   -2.222E+00   -2.229E+00   -2.235E+00   -2.242E+00   -2.248E+00
    -2.254E+00   -2.260E+00   -2.266E+00   -2.272E+00   -2.277E+00   -2.283E+00   -2.288E+00   -2.293E+00   -2.298E+00   -2.303E+00
    -2.308E+00   -2.313E+00   -2.317E+00   -2.321E+00   -2.326E+00   -2.330E+00   -2.334E+00   -2.338E+00   -2.341E+00   -2.345E+00
    -2.348E+00   -2.352E+00   -2.355E+00   -2.358E+00   -2.361E+00   -2.364E+00   -2.366E+00   -2.369E+00   -2.371E+00   -2.373E+00
    -2.375E+00   -2.377E+00   -2.379E+00   -2.381E+00   -2.382E+00   -2.384E+00   -2.385E+00   -2.386E+00   -2.387E+00   -2.388E+00
    -2.388E+00   -2.389E+00   -2.389E+00   -2.390E+00   -2.390E+00   -2.390E+00   -2.390E+00   -2.389E+00   -2.389E+00   -2.388E+00
    -2.387E+00   -2.387E+00   -2.385E+00   -2.384E+00   -2.383E+00   -2.382E+00   -2.380E+00   -2.378E+00
 Ala      Conc. = 3.91E+03
