 LCModel (Version 6.3-1L) Copyright: S.W. Provencher.          Ref.: Magn. Reson. Med. 30:672-679 (1993).                
 Slice#2 Row#6 Col#12  PD_05_press_1_raw_act
 36 lines in following concentration table = NCONC+1
    Conc.  %SD /Cr+PCr  Metabolite                                         
  335.194  25%   1.185 Ala                                                 
   32.642 280%   0.115 Asp                                                 
   50.967 199%   0.180 Cr                                                  
  231.935  44%   0.820 PCr                                                 
   28.498 209%   0.101 GABA                                                
   73.884  78%   0.261 Glc                                                 
  206.207  72%   0.729 Gln                                                 
  857.769  21%   3.032 Glu                                                 
   71.550  14%   0.253 GPC                                                 
    0.000 999%   0.000 PCh                                                 
   66.405  63%   0.235 GSH                                                 
    0.000 999%   0.000 Ins                                                 
  103.752  82%   0.367 Lac                                                 
 1.26E+03   4%   4.447 NAA                                                 
    0.000 999%   0.000 NAAG                                                
   31.224  40%   0.110 Scyllo                                              
  186.193  48%   0.658 Tau                                                 
  155.571  35%   0.550 -CrCH2                                              
   71.550  14%   0.253 GPC+PCh                                             
 1.26E+03   4%   4.447 NAA+NAAG                                            
  282.902  11%   1.000 Cr+PCr                                              
 1.06E+03  24%   3.761 Glu+Gln                                             
 2.47E+03  21%   8.745 Lip13a                                              
    0.000 999%   0.000 Lip13b                                              
    0.000 999%   0.000 Lip09                                               
  938.708  16%   3.318 MM09                                                
  212.885  92%   0.753 Lip20                                               
 1.38E+03  21%   4.864 MM20                                                
  382.554  32%   1.352 MM12                                                
 2.48E+03  14%   8.764 MM14                                                
 1.61E+03  17%   5.696+MM17                                                
 2.47E+03  21%   8.745 Lip13a+Lip13b                                       
 5.34E+03  10%  18.861 MM14+Lip13a+Lip13b+MM12                             
  938.708  16%   3.318 MM09+Lip09                                          
 1.59E+03  17%   5.617 MM20+Lip20                                          
   6 lines in following misc. output table
  FWHM = 0.054 ppm    S/N =  12                                            
  Data shift = 0.015 ppm                                                   
  Ph: -73 deg     -29.9 deg/ppm                                            
  alphaB,S = 4.3E-01,   1.0E+02                                            
   14 spline knots.   Ns =10(1)                                            
  (16) 4 infls.   (15) 3 extrs.                                            
  498 points on ppm-axis = NY
      4.000000     3.992357     3.984714     3.977070     3.969427     3.961784     3.954141     3.946497     3.938854     3.931211
      3.923568     3.915925     3.908281     3.900638     3.892995     3.885352     3.877708     3.870065     3.862422     3.854779
      3.847136     3.839492     3.831849     3.824206     3.816563     3.808919     3.801276     3.793633     3.785990     3.778347
      3.770703     3.763060     3.755417     3.747774     3.740130     3.732487     3.724844     3.717201     3.709558     3.701914
      3.694271     3.686628     3.678985     3.671341     3.663698     3.656055     3.648412     3.640769     3.633125     3.625482
      3.617839     3.610196     3.602552     3.594909     3.587266     3.579623     3.571980     3.564336     3.556693     3.549050
      3.541407     3.533763     3.526120     3.518477     3.510834     3.503191     3.495547     3.487904     3.480261     3.472618
      3.464974     3.457331     3.449688     3.442045     3.434402     3.426758     3.419115     3.411472     3.403829     3.396185
      3.388542     3.380899     3.373256     3.365613     3.357969     3.350326     3.342683     3.335040     3.327396     3.319753
      3.312110     3.304467     3.296824     3.289180     3.281537     3.273894     3.266251     3.258607     3.250964     3.243321
      3.235678     3.228034     3.220391     3.212748     3.205105     3.197462     3.189818     3.182175     3.174532     3.166889
      3.159245     3.151602     3.143959     3.136316     3.128673     3.121029     3.113386     3.105743     3.098100     3.090456
      3.082813     3.075170     3.067527     3.059884     3.052240     3.044597     3.036954     3.029311     3.021667     3.014024
      3.006381     2.998738     2.991095     2.983451     2.975808     2.968165     2.960522     2.952878     2.945235     2.937592
      2.929949     2.922306     2.914662     2.907019     2.899376     2.891733     2.884089     2.876446     2.868803     2.861160
      2.853517     2.845873     2.838230     2.830587     2.822944     2.815300     2.807657     2.800014     2.792371     2.784728
      2.777084     2.769441     2.761798     2.754155     2.746511     2.738868     2.731225     2.723582     2.715939     2.708295
      2.700652     2.693009     2.685366     2.677722     2.670079     2.662436     2.654793     2.647150     2.639506     2.631863
      2.624220     2.616577     2.608933     2.601290     2.593647     2.586004     2.578361     2.570717     2.563074     2.555431
      2.547788     2.540144     2.532501     2.524858     2.517215     2.509572     2.501928     2.494285     2.486642     2.478999
      2.471355     2.463712     2.456069     2.448426     2.440783     2.433139     2.425496     2.417853     2.410210     2.402566
      2.394923     2.387280     2.379637     2.371994     2.364350     2.356707     2.349064     2.341421     2.333777     2.326134
      2.318491     2.310848     2.303205     2.295561     2.287918     2.280275     2.272632     2.264988     2.257345     2.249702
      2.242059     2.234416     2.226772     2.219129     2.211486     2.203843     2.196199     2.188556     2.180913     2.173270
      2.165627     2.157983     2.150340     2.142697     2.135054     2.127410     2.119767     2.112124     2.104481     2.096838
      2.089194     2.081551     2.073908     2.066265     2.058621     2.050978     2.043335     2.035692     2.028049     2.020405
      2.012762     2.005119     1.997476     1.989833     1.982190     1.974546     1.966903     1.959260     1.951617     1.943974
      1.936331     1.928688     1.921045     1.913402     1.905759     1.898115     1.890472     1.882829     1.875186     1.867543
      1.859900     1.852257     1.844614     1.836971     1.829327     1.821684     1.814041     1.806398     1.798755     1.791112
      1.783469     1.775826     1.768183     1.760540     1.752896     1.745253     1.737610     1.729967     1.722324     1.714681
      1.707038     1.699395     1.691752     1.684108     1.676465     1.668822     1.661179     1.653536     1.645893     1.638250
      1.630607     1.622964     1.615321     1.607677     1.600034     1.592391     1.584748     1.577105     1.569462     1.561819
      1.554176     1.546533     1.538890     1.531246     1.523603     1.515960     1.508317     1.500674     1.493031     1.485388
      1.477745     1.470102     1.462458     1.454815     1.447172     1.439529     1.431886     1.424243     1.416600     1.408957
      1.401314     1.393671     1.386027     1.378384     1.370741     1.363098     1.355455     1.347812     1.340169     1.332526
      1.324883     1.317240     1.309596     1.301953     1.294310     1.286667     1.279024     1.271381     1.263738     1.256095
      1.248452     1.240808     1.233165     1.225522     1.217879     1.210236     1.202593     1.194950     1.187307     1.179664
      1.172021     1.164377     1.156734     1.149091     1.141448     1.133805     1.126162     1.118519     1.110876     1.103233
      1.095590     1.087946     1.080303     1.072660     1.065017     1.057374     1.049731     1.042088     1.034445     1.026802
      1.019158     1.011515     1.003872     0.996229     0.988586     0.980943     0.973300     0.965657     0.958014     0.950371
      0.942727     0.935084     0.927441     0.919798     0.912155     0.904512     0.896869     0.889226     0.881583     0.873940
      0.866296     0.858653     0.851010     0.843367     0.835724     0.828081     0.820438     0.812795     0.805152     0.797508
      0.789865     0.782222     0.774579     0.766936     0.759293     0.751650     0.744007     0.736364     0.728721     0.721077
      0.713434     0.705791     0.698148     0.690505     0.682862     0.675219     0.667576     0.659933     0.652290     0.644646
      0.637003     0.629360     0.621717     0.614074     0.606431     0.598788     0.591145     0.583502     0.575858     0.568215
      0.560572     0.552929     0.545286     0.537643     0.530000     0.522357     0.514714     0.507071     0.499427     0.491784
      0.484141     0.476498     0.468855     0.461212     0.453569     0.445925     0.438282     0.430639     0.422996     0.415353
      0.407710     0.400067     0.392424     0.384780     0.377137     0.369494     0.361851     0.354208     0.346565     0.338922
      0.331278     0.323635     0.315992     0.308349     0.300706     0.293063     0.285420     0.277777     0.270133     0.262490
      0.254847     0.247204     0.239561     0.231918     0.224275     0.216631     0.208988     0.201345
 NY phased data points follow
   7.70090E+00  6.60566E+00  7.66085E+00  8.22014E+00  8.02859E+00  8.89082E+00  6.57786E+00  8.60098E+00  9.11906E+00  8.65392E+00
   9.43703E+00  9.85267E+00  7.55474E+00  7.20266E+00  8.11488E+00  6.44049E+00  8.21087E+00  8.35055E+00  9.87439E+00  9.12748E+00
   8.55561E+00  9.55415E+00  7.64157E+00  8.59557E+00  8.73050E+00  1.03766E+01  8.01942E+00  7.48483E+00  6.82879E+00  7.46760E+00
   8.79054E+00  1.00779E+01  7.85448E+00  7.51499E+00  8.23216E+00  9.09907E+00  8.46834E+00  7.92896E+00  6.58027E+00  7.20194E+00
   8.26807E+00  6.71369E+00  6.02230E+00  7.90854E+00  8.31272E+00  5.81409E+00  8.59603E+00  5.35505E+00  5.48298E+00  7.46537E+00
   5.39072E+00  3.43930E+00  8.30914E+00  5.41971E+00  7.76533E+00  9.93829E+00  7.68383E+00  7.83226E+00  7.22319E+00  7.06858E+00
   7.72563E+00  5.59214E+00  6.88649E+00  7.28255E+00  7.06461E+00  7.05126E+00  8.78821E+00  7.39790E+00  6.63308E+00  7.23241E+00
   7.90725E+00  6.92796E+00  1.00522E+01  5.38259E+00  7.68458E+00  6.46272E+00  6.43164E+00  6.87270E+00  6.74176E+00  7.29591E+00
   5.27115E+00  7.34114E+00  6.43021E+00  7.59253E+00  8.20827E+00  8.76890E+00  6.56728E+00  8.50918E+00  5.71898E+00  7.78267E+00
   7.68208E+00  8.85651E+00  6.34132E+00  7.95736E+00  8.48150E+00  6.75459E+00  6.16459E+00  1.13188E+01  8.72884E+00  9.49113E+00
   1.13048E+01  1.40845E+01  1.25330E+01  1.21601E+01  1.03346E+01  7.87758E+00  4.86329E+00  5.26541E+00  5.93760E+00  5.28472E+00
   5.38443E+00  6.68883E+00  7.94477E+00  9.80706E+00  7.99084E+00  7.06529E+00  8.64332E+00  7.07129E+00  7.47305E+00  7.66271E+00
   9.55335E+00  9.89813E+00  1.12804E+01  1.00527E+01  1.33102E+01  1.47771E+01  1.53361E+01  1.51744E+01  1.11742E+01  9.30962E+00
   6.98922E+00  4.64125E+00  4.93420E+00  7.20378E+00  6.00975E+00  8.24881E+00  7.37745E+00  3.61921E+00  4.07248E+00  4.80050E+00
   5.48378E+00  6.03071E+00  5.18445E+00  7.05744E+00  6.68160E+00  5.66767E+00  6.11872E+00  5.60678E+00  5.03376E+00  4.65415E+00
   4.84433E+00  5.61218E+00  4.57652E+00  6.91749E+00  4.85878E+00  7.13186E+00  6.45376E+00  5.47325E+00  6.58830E+00  4.20100E+00
   4.91117E+00  4.43551E+00  4.86961E+00  5.00719E+00  4.07491E+00  5.51312E+00  7.16884E+00  3.80643E+00  3.56717E+00  3.58414E+00
   2.80034E+00 -4.07783E-01  5.29387E+00  2.64230E+00  2.85977E+00  2.31431E+00  8.13692E-01  2.09188E+00  4.88357E+00  3.57318E+00
   3.76059E+00  5.03765E+00  3.55605E+00  6.81159E+00  5.35951E+00  3.20510E+00  4.39800E+00  5.33187E+00  6.65901E+00  8.06418E+00
   6.12156E+00  7.95890E+00  7.51616E+00  8.78445E+00  7.30079E+00  6.77199E+00  7.30817E+00  5.70363E+00  8.78903E+00  5.70337E+00
   6.61226E+00  7.73897E+00  7.34715E+00  9.11143E+00  1.10010E+01  9.07561E+00  7.80158E+00  1.10325E+01  1.05923E+01  6.37772E+00
   1.05153E+01  9.94426E+00  1.11827E+01  1.34742E+01  1.28274E+01  1.43886E+01  1.48683E+01  1.58503E+01  1.20754E+01  1.15110E+01
   1.08210E+01  9.09007E+00  8.37621E+00  1.06679E+01  9.76060E+00  1.26158E+01  1.19425E+01  1.41901E+01  1.34354E+01  1.21685E+01
   1.35250E+01  1.42324E+01  1.46686E+01  1.28949E+01  1.23850E+01  1.42714E+01  1.38290E+01  1.39653E+01  1.65044E+01  1.61482E+01
   1.26740E+01  1.43771E+01  1.65905E+01  1.70238E+01  1.84846E+01  1.63908E+01  1.97879E+01  1.96687E+01  2.03044E+01  2.17053E+01
   2.07999E+01  2.44698E+01  2.50129E+01  2.85005E+01  2.89714E+01  3.39896E+01  3.94012E+01  4.16920E+01  4.48363E+01  5.60782E+01
   5.57911E+01  5.29704E+01  4.58257E+01  3.93071E+01  3.60479E+01  3.34589E+01  2.91364E+01  2.79764E+01  2.45864E+01  2.35924E+01
   2.37736E+01  2.23097E+01  2.11772E+01  2.12184E+01  2.21779E+01  1.96444E+01  2.00475E+01  1.94607E+01  2.01988E+01  1.83341E+01
   1.96635E+01  1.68713E+01  2.10047E+01  1.97366E+01  1.96687E+01  1.86485E+01  2.19854E+01  1.97540E+01  2.15422E+01  2.14186E+01
   2.23564E+01  2.26770E+01  2.19835E+01  2.16045E+01  2.30916E+01  2.13684E+01  2.41319E+01  2.22869E+01  2.45470E+01  2.50993E+01
   2.44750E+01  2.45065E+01  2.36708E+01  2.57137E+01  2.57458E+01  2.34031E+01  2.67169E+01  2.75407E+01  3.07836E+01  2.72021E+01
   2.94478E+01  3.14320E+01  2.94297E+01  3.06348E+01  2.93727E+01  3.25942E+01  2.89023E+01  2.95822E+01  3.08953E+01  2.96221E+01
   3.24999E+01  3.32377E+01  3.30888E+01  3.20968E+01  3.23910E+01  3.07119E+01  3.18264E+01  3.14962E+01  3.14124E+01  3.05875E+01
   3.21399E+01  3.30571E+01  3.17095E+01  3.43461E+01  3.17783E+01  3.41274E+01  3.73395E+01  3.63058E+01  3.62492E+01  3.71478E+01
   3.29447E+01  3.47115E+01  3.23370E+01  3.00378E+01  3.34451E+01  3.16512E+01  3.01864E+01  2.78882E+01  2.77060E+01  2.75383E+01
   2.75401E+01  2.51549E+01  2.73164E+01  2.68881E+01  2.74942E+01  2.78974E+01  2.59189E+01  2.51124E+01  2.49809E+01  2.41630E+01
   2.27634E+01  2.04327E+01  2.03742E+01  2.10910E+01  2.11253E+01  2.30239E+01  2.44098E+01  2.19929E+01  2.26538E+01  2.40849E+01
   2.34971E+01  2.31593E+01  2.14068E+01  2.03344E+01  2.39209E+01  2.10780E+01  2.06547E+01  2.04438E+01  2.30095E+01  1.52272E+01
   1.80685E+01  1.69759E+01  1.87630E+01  1.77440E+01  1.76465E+01  1.48121E+01  1.63588E+01  1.82311E+01  1.67793E+01  1.54449E+01
   1.75251E+01  1.47221E+01  1.72333E+01  1.81095E+01  1.64913E+01  1.64092E+01  1.84639E+01  1.80256E+01  1.59468E+01  1.73486E+01
   1.66516E+01  1.76956E+01  1.65858E+01  1.78848E+01  1.38880E+01  1.45902E+01  1.43256E+01  1.64981E+01  1.50236E+01  1.53777E+01
   1.44461E+01  1.23640E+01  1.44694E+01  1.25852E+01  1.19846E+01  1.37755E+01  1.29038E+01  1.02630E+01  1.31323E+01  1.27058E+01
   1.14988E+01  1.06356E+01  9.63009E+00  9.64715E+00  7.92972E+00  6.98256E+00  8.86029E+00  8.76868E+00  8.44086E+00  7.61827E+00
   6.37175E+00  7.12366E+00  7.27521E+00  5.94062E+00  6.77362E+00  7.63146E+00  6.41194E+00  6.25307E+00  3.72179E+00  6.11422E+00
   5.10085E+00  6.18485E+00  6.75037E+00  6.46739E+00  2.52968E+00  7.09404E+00  3.92632E+00  6.54703E+00  7.72655E+00  4.91554E+00
   7.61008E+00  3.98593E+00  5.93787E+00  4.54605E+00  3.42065E+00  4.65306E+00  3.30548E+00  4.54708E+00  4.06765E+00  3.84349E+00
   3.09382E+00  4.76694E+00  5.45391E+00  5.15549E+00  3.01310E+00  4.08157E+00  3.70474E+00  5.84877E+00  3.38328E+00  6.28863E+00
   3.34294E+00  3.51435E+00  4.75430E+00  3.94457E+00  3.00532E+00  5.09987E+00  3.77240E+00  5.23142E+00  4.69643E+00  5.50668E+00
   4.64713E+00  4.56732E+00  3.03743E+00  2.26268E+00  4.56994E+00  3.75556E+00  2.84306E+00  3.92612E+00  5.54087E+00  5.18163E+00
   4.30014E+00  2.23857E+00  4.03971E+00  4.46674E+00  2.42213E+00  3.00175E+00  3.83024E+00  3.38789E+00
 NY points of the fit to the data follow
   7.27177E+00  7.47121E+00  7.73545E+00  8.02597E+00  8.33636E+00  8.71147E+00  9.10452E+00  9.34286E+00  9.34013E+00  9.18048E+00
   8.96587E+00  8.73452E+00  8.47925E+00  8.22547E+00  8.02625E+00  7.91716E+00  7.86389E+00  7.84394E+00  7.83887E+00  7.84326E+00
   7.97694E+00  8.13899E+00  8.20675E+00  8.22947E+00  8.21930E+00  8.11801E+00  7.89831E+00  7.67123E+00  7.64795E+00  7.87615E+00
   8.25753E+00  8.74031E+00  9.22611E+00  9.50627E+00  9.37237E+00  8.82698E+00  8.10351E+00  7.45919E+00  7.05209E+00  6.97773E+00
   7.16662E+00  7.40006E+00  7.59470E+00  7.68246E+00  7.61987E+00  7.45070E+00  7.28247E+00  7.18782E+00  7.16006E+00  7.16071E+00
   7.17524E+00  7.16826E+00  7.09513E+00  6.99346E+00  6.90421E+00  6.82845E+00  6.75681E+00  6.70562E+00  6.68252E+00  6.68115E+00
   6.67738E+00  6.66657E+00  6.66527E+00  6.68130E+00  6.70062E+00  6.72212E+00  6.74752E+00  6.73989E+00  6.69310E+00  6.64821E+00
   6.63889E+00  6.66957E+00  6.75319E+00  6.88582E+00  7.00089E+00  7.01584E+00  6.93874E+00  6.80978E+00  6.66803E+00  6.60772E+00
   6.68924E+00  6.90268E+00  7.16743E+00  7.43808E+00  7.70226E+00  7.86362E+00  7.78904E+00  7.49261E+00  7.12869E+00  6.82919E+00
   6.60526E+00  6.43378E+00  6.43925E+00  6.66676E+00  6.94791E+00  7.33041E+00  7.90570E+00  8.61292E+00  9.36961E+00  1.02067E+01
   1.11276E+01  1.18423E+01  1.19155E+01  1.12556E+01  1.01973E+01  9.18290E+00  8.42205E+00  7.87694E+00  7.44223E+00  7.06540E+00
   6.80678E+00  6.69372E+00  6.53152E+00  6.18923E+00  5.89211E+00  5.86355E+00  6.16193E+00  6.68538E+00  7.15300E+00  7.59781E+00
   8.21914E+00  9.05378E+00  1.00430E+01  1.12563E+01  1.26510E+01  1.37130E+01  1.38564E+01  1.30143E+01  1.16484E+01  1.03273E+01
   9.31709E+00  8.57831E+00  8.00080E+00  7.53763E+00  7.23489E+00  7.05529E+00  6.79434E+00  6.36824E+00  6.07146E+00  6.02794E+00
   6.04979E+00  6.05361E+00  6.02637E+00  5.97277E+00  5.90168E+00  5.82986E+00  5.77273E+00  5.72807E+00  5.69560E+00  5.67198E+00
   5.64542E+00  5.58883E+00  5.50015E+00  5.42521E+00  5.38293E+00  5.36401E+00  5.33503E+00  5.25318E+00  5.12235E+00  4.96034E+00
   4.81984E+00  4.77899E+00  4.87877E+00  5.06160E+00  5.17804E+00  5.11627E+00  4.88806E+00  4.58836E+00  4.35828E+00  4.21130E+00
   4.07905E+00  3.93626E+00  3.81812E+00  3.74551E+00  3.67652E+00  3.62563E+00  3.65897E+00  3.80588E+00  3.98434E+00  4.10567E+00
   4.17288E+00  4.27235E+00  4.46205E+00  4.71342E+00  4.94676E+00  5.15884E+00  5.47296E+00  5.99797E+00  6.62013E+00  7.12646E+00
   7.46451E+00  7.68575E+00  7.85783E+00  7.99995E+00  8.14972E+00  8.33684E+00  8.52157E+00  8.71824E+00  8.95253E+00  9.20558E+00
   9.43601E+00  9.66904E+00  9.89415E+00  9.99340E+00  9.88068E+00  9.60122E+00  9.22376E+00  8.88923E+00  8.60146E+00  8.47978E+00
   8.65923E+00  9.13605E+00  9.82693E+00  1.06208E+01  1.14528E+01  1.21664E+01  1.24052E+01  1.19231E+01  1.09212E+01  9.83657E+00
   8.95329E+00  8.38873E+00  8.30382E+00  8.91368E+00  1.01653E+01  1.16066E+01  1.27525E+01  1.34453E+01  1.37965E+01  1.40371E+01
   1.41946E+01  1.42993E+01  1.44409E+01  1.47143E+01  1.51242E+01  1.55667E+01  1.59413E+01  1.62325E+01  1.64188E+01  1.64836E+01
   1.64766E+01  1.64589E+01  1.65396E+01  1.68374E+01  1.73438E+01  1.79387E+01  1.85055E+01  1.89773E+01  1.93550E+01  1.97463E+01
   2.07859E+01  2.31961E+01  2.57986E+01  2.81144E+01  3.07867E+01  3.42642E+01  3.82182E+01  4.26908E+01  4.81031E+01  5.32289E+01
   5.52532E+01  5.27783E+01  4.70440E+01  4.06298E+01  3.53303E+01  3.14012E+01  2.84649E+01  2.62630E+01  2.48650E+01  2.43023E+01
   2.37580E+01  2.22330E+01  2.03319E+01  1.95572E+01  1.93902E+01  1.93132E+01  1.92370E+01  1.91734E+01  1.91140E+01  1.90541E+01
   1.90195E+01  1.90205E+01  1.90651E+01  1.91580E+01  1.92865E+01  1.94299E+01  1.95874E+01  1.97692E+01  1.99810E+01  2.02242E+01
   2.04987E+01  2.08071E+01  2.11521E+01  2.15302E+01  2.19371E+01  2.23711E+01  2.28278E+01  2.33020E+01  2.37888E+01  2.42822E+01
   2.47758E+01  2.52620E+01  2.57339E+01  2.61848E+01  2.66081E+01  2.69991E+01  2.73543E+01  2.76726E+01  2.79550E+01  2.82042E+01
   2.84255E+01  2.86263E+01  2.88164E+01  2.90081E+01  2.92165E+01  2.94630E+01  2.97871E+01  3.02402E+01  3.06880E+01  3.10323E+01
   3.13888E+01  3.18219E+01  3.22578E+01  3.26110E+01  3.28555E+01  3.29796E+01  3.28190E+01  3.22047E+01  3.13983E+01  3.08661E+01
   3.08419E+01  3.12200E+01  3.19077E+01  3.29575E+01  3.42417E+01  3.53540E+01  3.58883E+01  3.57393E+01  3.51593E+01  3.45572E+01
   3.40173E+01  3.34370E+01  3.28093E+01  3.21908E+01  3.16503E+01  3.10948E+01  3.02650E+01  2.92162E+01  2.82428E+01  2.74726E+01
   2.69305E+01  2.65743E+01  2.63903E+01  2.63641E+01  2.63965E+01  2.63526E+01  2.61411E+01  2.57742E+01  2.53625E+01  2.50087E+01
   2.46853E+01  2.43532E+01  2.40205E+01  2.37094E+01  2.34115E+01  2.30749E+01  2.26771E+01  2.22794E+01  2.18959E+01  2.15159E+01
   2.11370E+01  2.07600E+01  2.03870E+01  2.00207E+01  1.96639E+01  1.93196E+01  1.89907E+01  1.86800E+01  1.83903E+01  1.81241E+01
   1.78833E+01  1.76698E+01  1.74848E+01  1.73293E+01  1.72037E+01  1.71080E+01  1.70413E+01  1.70023E+01  1.69888E+01  1.69982E+01
   1.70270E+01  1.70710E+01  1.71253E+01  1.71844E+01  1.72426E+01  1.72937E+01  1.73316E+01  1.73499E+01  1.73430E+01  1.73057E+01
   1.72336E+01  1.71234E+01  1.69729E+01  1.67810E+01  1.65481E+01  1.62758E+01  1.59667E+01  1.56247E+01  1.52543E+01  1.48607E+01
   1.44494E+01  1.40261E+01  1.35964E+01  1.31656E+01  1.27385E+01  1.23192E+01  1.19114E+01  1.15180E+01  1.11411E+01  1.07821E+01
   1.04420E+01  1.01209E+01  9.81885E+00  9.53531E+00  9.26952E+00  9.02045E+00  8.78698E+00  8.56793E+00  8.36215E+00  8.16849E+00
   7.98585E+00  7.81312E+00  7.64934E+00  7.49365E+00  7.34531E+00  7.20362E+00  7.06793E+00  6.93766E+00  6.81234E+00  6.69158E+00
   6.57504E+00  6.46240E+00  6.35336E+00  6.24765E+00  6.14509E+00  6.04551E+00  5.94879E+00  5.85475E+00  5.76326E+00  5.67420E+00
   5.58751E+00  5.50313E+00  5.42100E+00  5.34101E+00  5.26305E+00  5.18703E+00  5.11289E+00  5.04055E+00  4.96993E+00  4.90092E+00
   4.83344E+00  4.76743E+00  4.70287E+00  4.63969E+00  4.57781E+00  4.51715E+00  4.45765E+00  4.39929E+00  4.34203E+00  4.28582E+00
   4.23057E+00  4.17623E+00  4.12277E+00  4.07016E+00  4.01837E+00  3.96733E+00  3.91699E+00  3.86728E+00  3.81820E+00  3.76973E+00
   3.72182E+00  3.67440E+00  3.62743E+00  3.58086E+00  3.53471E+00  3.48893E+00  3.44348E+00  3.39828E+00  3.35332E+00  3.30857E+00
   3.26402E+00  3.21964E+00  3.17538E+00  3.13118E+00  3.08703E+00  3.04292E+00  2.99885E+00  2.95478E+00
 NY background values follow
     7.116E+00    7.108E+00    7.099E+00    7.090E+00    7.081E+00    7.072E+00    7.063E+00    7.054E+00    7.045E+00    7.036E+00
     7.027E+00    7.018E+00    7.008E+00    6.999E+00    6.990E+00    6.980E+00    6.971E+00    6.961E+00    6.951E+00    6.941E+00
     6.931E+00    6.921E+00    6.911E+00    6.901E+00    6.890E+00    6.880E+00    6.869E+00    6.858E+00    6.847E+00    6.836E+00
     6.824E+00    6.813E+00    6.801E+00    6.789E+00    6.777E+00    6.764E+00    6.752E+00    6.739E+00    6.726E+00    6.713E+00
     6.699E+00    6.686E+00    6.672E+00    6.657E+00    6.643E+00    6.628E+00    6.613E+00    6.598E+00    6.583E+00    6.567E+00
     6.551E+00    6.534E+00    6.518E+00    6.501E+00    6.484E+00    6.466E+00    6.449E+00    6.431E+00    6.412E+00    6.394E+00
     6.375E+00    6.356E+00    6.337E+00    6.317E+00    6.297E+00    6.277E+00    6.256E+00    6.235E+00    6.214E+00    6.193E+00
     6.171E+00    6.149E+00    6.127E+00    6.104E+00    6.081E+00    6.058E+00    6.035E+00    6.011E+00    5.987E+00    5.963E+00
     5.938E+00    5.913E+00    5.888E+00    5.862E+00    5.836E+00    5.810E+00    5.784E+00    5.757E+00    5.730E+00    5.703E+00
     5.675E+00    5.647E+00    5.619E+00    5.590E+00    5.561E+00    5.532E+00    5.503E+00    5.474E+00    5.445E+00    5.415E+00
     5.386E+00    5.357E+00    5.328E+00    5.299E+00    5.270E+00    5.241E+00    5.212E+00    5.184E+00    5.156E+00    5.128E+00
     5.101E+00    5.074E+00    5.047E+00    5.021E+00    4.996E+00    4.971E+00    4.946E+00    4.923E+00    4.899E+00    4.877E+00
     4.855E+00    4.834E+00    4.814E+00    4.794E+00    4.776E+00    4.758E+00    4.741E+00    4.726E+00    4.711E+00    4.697E+00
     4.685E+00    4.673E+00    4.663E+00    4.653E+00    4.645E+00    4.639E+00    4.633E+00    4.629E+00    4.626E+00    4.625E+00
     4.625E+00    4.626E+00    4.629E+00    4.633E+00    4.638E+00    4.645E+00    4.654E+00    4.663E+00    4.675E+00    4.687E+00
     4.701E+00    4.717E+00    4.734E+00    4.753E+00    4.773E+00    4.794E+00    4.818E+00    4.842E+00    4.869E+00    4.897E+00
     4.926E+00    4.957E+00    4.990E+00    5.025E+00    5.061E+00    5.098E+00    5.138E+00    5.179E+00    5.221E+00    5.266E+00
     5.312E+00    5.360E+00    5.410E+00    5.461E+00    5.514E+00    5.569E+00    5.626E+00    5.684E+00    5.744E+00    5.807E+00
     5.871E+00    5.936E+00    6.004E+00    6.074E+00    6.145E+00    6.218E+00    6.292E+00    6.369E+00    6.447E+00    6.526E+00
     6.607E+00    6.690E+00    6.774E+00    6.859E+00    6.946E+00    7.034E+00    7.123E+00    7.214E+00    7.306E+00    7.399E+00
     7.493E+00    7.588E+00    7.685E+00    7.782E+00    7.881E+00    7.980E+00    8.080E+00    8.181E+00    8.283E+00    8.386E+00
     8.490E+00    8.594E+00    8.699E+00    8.804E+00    8.910E+00    9.017E+00    9.124E+00    9.232E+00    9.340E+00    9.449E+00
     9.557E+00    9.667E+00    9.776E+00    9.886E+00    9.996E+00    1.011E+01    1.022E+01    1.033E+01    1.044E+01    1.055E+01
     1.066E+01    1.077E+01    1.088E+01    1.099E+01    1.110E+01    1.121E+01    1.132E+01    1.143E+01    1.153E+01    1.164E+01
     1.175E+01    1.186E+01    1.196E+01    1.207E+01    1.217E+01    1.228E+01    1.238E+01    1.249E+01    1.259E+01    1.269E+01
     1.279E+01    1.289E+01    1.299E+01    1.309E+01    1.319E+01    1.328E+01    1.338E+01    1.347E+01    1.356E+01    1.365E+01
     1.374E+01    1.383E+01    1.392E+01    1.400E+01    1.409E+01    1.417E+01    1.425E+01    1.433E+01    1.441E+01    1.448E+01
     1.456E+01    1.463E+01    1.470E+01    1.477E+01    1.484E+01    1.490E+01    1.497E+01    1.503E+01    1.509E+01    1.515E+01
     1.520E+01    1.526E+01    1.531E+01    1.536E+01    1.541E+01    1.546E+01    1.550E+01    1.555E+01    1.559E+01    1.563E+01
     1.566E+01    1.570E+01    1.573E+01    1.577E+01    1.580E+01    1.582E+01    1.585E+01    1.587E+01    1.590E+01    1.592E+01
     1.594E+01    1.595E+01    1.597E+01    1.598E+01    1.599E+01    1.600E+01    1.601E+01    1.601E+01    1.601E+01    1.602E+01
     1.601E+01    1.601E+01    1.601E+01    1.600E+01    1.599E+01    1.598E+01    1.597E+01    1.595E+01    1.594E+01    1.592E+01
     1.590E+01    1.587E+01    1.585E+01    1.582E+01    1.579E+01    1.576E+01    1.573E+01    1.570E+01    1.566E+01    1.563E+01
     1.559E+01    1.555E+01    1.550E+01    1.546E+01    1.541E+01    1.537E+01    1.532E+01    1.527E+01    1.521E+01    1.516E+01
     1.510E+01    1.505E+01    1.499E+01    1.493E+01    1.487E+01    1.480E+01    1.474E+01    1.467E+01    1.460E+01    1.454E+01
     1.447E+01    1.439E+01    1.432E+01    1.425E+01    1.417E+01    1.410E+01    1.402E+01    1.394E+01    1.386E+01    1.378E+01
     1.369E+01    1.361E+01    1.353E+01    1.344E+01    1.335E+01    1.326E+01    1.318E+01    1.309E+01    1.299E+01    1.290E+01
     1.281E+01    1.272E+01    1.262E+01    1.253E+01    1.243E+01    1.233E+01    1.224E+01    1.214E+01    1.204E+01    1.194E+01
     1.184E+01    1.174E+01    1.164E+01    1.154E+01    1.144E+01    1.134E+01    1.123E+01    1.113E+01    1.103E+01    1.093E+01
     1.082E+01    1.072E+01    1.062E+01    1.051E+01    1.041E+01    1.031E+01    1.020E+01    1.010E+01    9.996E+00    9.892E+00
     9.789E+00    9.686E+00    9.583E+00    9.481E+00    9.378E+00    9.276E+00    9.175E+00    9.073E+00    8.972E+00    8.872E+00
     8.772E+00    8.672E+00    8.573E+00    8.475E+00    8.377E+00    8.279E+00    8.182E+00    8.086E+00    7.990E+00    7.894E+00
     7.800E+00    7.706E+00    7.612E+00    7.520E+00    7.428E+00    7.337E+00    7.246E+00    7.156E+00    7.067E+00    6.979E+00
     6.892E+00    6.805E+00    6.719E+00    6.635E+00    6.551E+00    6.467E+00    6.385E+00    6.304E+00    6.224E+00    6.144E+00
     6.066E+00    5.989E+00    5.912E+00    5.837E+00    5.763E+00    5.690E+00    5.618E+00    5.547E+00    5.477E+00    5.409E+00
     5.341E+00    5.275E+00    5.210E+00    5.146E+00    5.084E+00    5.022E+00    4.962E+00    4.902E+00    4.844E+00    4.787E+00
     4.731E+00    4.676E+00    4.621E+00    4.568E+00    4.515E+00    4.464E+00    4.413E+00    4.362E+00    4.313E+00    4.264E+00
     4.216E+00    4.169E+00    4.122E+00    4.076E+00    4.030E+00    3.985E+00    3.940E+00    3.895E+00    3.852E+00    3.808E+00
     3.765E+00    3.722E+00    3.679E+00    3.637E+00    3.595E+00    3.553E+00    3.511E+00    3.469E+00    3.427E+00    3.386E+00
     3.344E+00    3.303E+00    3.261E+00    3.219E+00    3.177E+00    3.135E+00    3.093E+00    3.051E+00
 Ala      Conc. = 3.35E+02
