 LCModel (Version 6.3-1L) Copyright: S.W. Provencher.          Ref.: Magn. Reson. Med. 30:672-679 (1993).                
 Slice#1 Row#7 Col#2  PD_05_press_1_raw_act
 36 lines in following concentration table = NCONC+1
    Conc.  %SD /Cr+PCr  Metabolite                                         
    0.000 999%   0.000 Ala                                                 
   26.261 110%   0.171 Asp                                                 
   97.953  70%   0.639 Cr                                                  
   55.263 128%   0.361 PCr                                                 
   13.696 128% 8.9E-02 GABA                                                
   15.491 113%   0.101 Glc                                                 
    0.000 999%   0.000 Gln                                                 
  170.011  67%   1.110 Glu                                                 
    0.000 999%   0.000 GPC                                                 
   50.540  16%   0.330 PCh                                                 
   43.792  69%   0.286 GSH                                                 
  300.611  35%   1.962 Ins                                                 
  125.971  44%   0.822 Lac                                                 
  173.234  13%   1.131 NAA                                                 
    0.000 999%   0.000 NAAG                                                
   10.779  49% 7.0E-02 Scyllo                                              
   36.224  79%   0.236 Tau                                                 
  211.061  18%   1.378 -CrCH2                                              
   50.540  16%   0.330 GPC+PCh                                             
  173.234  13%   1.131 NAA+NAAG                                            
  153.216  14%   1.000 Cr+PCr                                              
  170.011  67%   1.110 Glu+Gln                                             
    0.000 999%   0.000 Lip13a                                              
    0.000 999%   0.000 Lip13b                                              
    0.000 999%   0.000 Lip09                                               
  173.885  32%   1.135 MM09                                                
 2.08E-04 999% 1.4E-06 Lip20                                               
  303.266  31%   1.979 MM20                                                
   46.449  53%   0.303 MM12                                                
   32.422 228%   0.212 MM14                                                
  135.209  36%   0.882 MM17                                                
    0.000 999%   0.000 Lip13a+Lip13b                                       
   78.871 110%   0.515 MM14+Lip13a+Lip13b+MM12                             
  173.885  32%   1.135 MM09+Lip09                                          
  303.266  31%   1.979 MM20+Lip20                                          
   6 lines in following misc. output table
  FWHM = 0.038 ppm    S/N =   2                                            
  Data shift = 0.023 ppm                                                   
  Ph: -50 deg     -15.6 deg/ppm                                            
  alphaB,S = 1.1E+00,   2.3E+01                                            
   14 spline knots.   Ns = 6(1)                                            
  ( 8) 5 infls.   ( 9) 3 extrs.                                            
  498 points on ppm-axis = NY
      4.000000     3.992357     3.984714     3.977070     3.969427     3.961784     3.954141     3.946497     3.938854     3.931211
      3.923568     3.915925     3.908281     3.900638     3.892995     3.885352     3.877708     3.870065     3.862422     3.854779
      3.847136     3.839492     3.831849     3.824206     3.816563     3.808919     3.801276     3.793633     3.785990     3.778347
      3.770703     3.763060     3.755417     3.747774     3.740130     3.732487     3.724844     3.717201     3.709558     3.701914
      3.694271     3.686628     3.678985     3.671341     3.663698     3.656055     3.648412     3.640769     3.633125     3.625482
      3.617839     3.610196     3.602552     3.594909     3.587266     3.579623     3.571980     3.564336     3.556693     3.549050
      3.541407     3.533763     3.526120     3.518477     3.510834     3.503191     3.495547     3.487904     3.480261     3.472618
      3.464974     3.457331     3.449688     3.442045     3.434402     3.426758     3.419115     3.411472     3.403829     3.396185
      3.388542     3.380899     3.373256     3.365613     3.357969     3.350326     3.342683     3.335040     3.327396     3.319753
      3.312110     3.304467     3.296824     3.289180     3.281537     3.273894     3.266251     3.258607     3.250964     3.243321
      3.235678     3.228034     3.220391     3.212748     3.205105     3.197462     3.189818     3.182175     3.174532     3.166889
      3.159245     3.151602     3.143959     3.136316     3.128673     3.121029     3.113386     3.105743     3.098100     3.090456
      3.082813     3.075170     3.067527     3.059884     3.052240     3.044597     3.036954     3.029311     3.021667     3.014024
      3.006381     2.998738     2.991095     2.983451     2.975808     2.968165     2.960522     2.952878     2.945235     2.937592
      2.929949     2.922306     2.914662     2.907019     2.899376     2.891733     2.884089     2.876446     2.868803     2.861160
      2.853517     2.845873     2.838230     2.830587     2.822944     2.815300     2.807657     2.800014     2.792371     2.784728
      2.777084     2.769441     2.761798     2.754155     2.746511     2.738868     2.731225     2.723582     2.715939     2.708295
      2.700652     2.693009     2.685366     2.677722     2.670079     2.662436     2.654793     2.647150     2.639506     2.631863
      2.624220     2.616577     2.608933     2.601290     2.593647     2.586004     2.578361     2.570717     2.563074     2.555431
      2.547788     2.540144     2.532501     2.524858     2.517215     2.509572     2.501928     2.494285     2.486642     2.478999
      2.471355     2.463712     2.456069     2.448426     2.440783     2.433139     2.425496     2.417853     2.410210     2.402566
      2.394923     2.387280     2.379637     2.371994     2.364350     2.356707     2.349064     2.341421     2.333777     2.326134
      2.318491     2.310848     2.303205     2.295561     2.287918     2.280275     2.272632     2.264988     2.257345     2.249702
      2.242059     2.234416     2.226772     2.219129     2.211486     2.203843     2.196199     2.188556     2.180913     2.173270
      2.165627     2.157983     2.150340     2.142697     2.135054     2.127410     2.119767     2.112124     2.104481     2.096838
      2.089194     2.081551     2.073908     2.066265     2.058621     2.050978     2.043335     2.035692     2.028049     2.020405
      2.012762     2.005119     1.997476     1.989833     1.982190     1.974546     1.966903     1.959260     1.951617     1.943974
      1.936331     1.928688     1.921045     1.913402     1.905759     1.898115     1.890472     1.882829     1.875186     1.867543
      1.859900     1.852257     1.844614     1.836971     1.829327     1.821684     1.814041     1.806398     1.798755     1.791112
      1.783469     1.775826     1.768183     1.760540     1.752896     1.745253     1.737610     1.729967     1.722324     1.714681
      1.707038     1.699395     1.691752     1.684108     1.676465     1.668822     1.661179     1.653536     1.645893     1.638250
      1.630607     1.622964     1.615321     1.607677     1.600034     1.592391     1.584748     1.577105     1.569462     1.561819
      1.554176     1.546533     1.538890     1.531246     1.523603     1.515960     1.508317     1.500674     1.493031     1.485388
      1.477745     1.470102     1.462458     1.454815     1.447172     1.439529     1.431886     1.424243     1.416600     1.408957
      1.401314     1.393671     1.386027     1.378384     1.370741     1.363098     1.355455     1.347812     1.340169     1.332526
      1.324883     1.317240     1.309596     1.301953     1.294310     1.286667     1.279024     1.271381     1.263738     1.256095
      1.248452     1.240808     1.233165     1.225522     1.217879     1.210236     1.202593     1.194950     1.187307     1.179664
      1.172021     1.164377     1.156734     1.149091     1.141448     1.133805     1.126162     1.118519     1.110876     1.103233
      1.095590     1.087946     1.080303     1.072660     1.065017     1.057374     1.049731     1.042088     1.034445     1.026802
      1.019158     1.011515     1.003872     0.996229     0.988586     0.980943     0.973300     0.965657     0.958014     0.950371
      0.942727     0.935084     0.927441     0.919798     0.912155     0.904512     0.896869     0.889226     0.881583     0.873940
      0.866296     0.858653     0.851010     0.843367     0.835724     0.828081     0.820438     0.812795     0.805152     0.797508
      0.789865     0.782222     0.774579     0.766936     0.759293     0.751650     0.744007     0.736364     0.728721     0.721077
      0.713434     0.705791     0.698148     0.690505     0.682862     0.675219     0.667576     0.659933     0.652290     0.644646
      0.637003     0.629360     0.621717     0.614074     0.606431     0.598788     0.591145     0.583502     0.575858     0.568215
      0.560572     0.552929     0.545286     0.537643     0.530000     0.522357     0.514714     0.507071     0.499427     0.491784
      0.484141     0.476498     0.468855     0.461212     0.453569     0.445925     0.438282     0.430639     0.422996     0.415353
      0.407710     0.400067     0.392424     0.384780     0.377137     0.369494     0.361851     0.354208     0.346565     0.338922
      0.331278     0.323635     0.315992     0.308349     0.300706     0.293063     0.285420     0.277777     0.270133     0.262490
      0.254847     0.247204     0.239561     0.231918     0.224275     0.216631     0.208988     0.201345
 NY phased data points follow
  -2.08201E+01 -1.97341E+01 -2.20864E+01 -2.02178E+01 -2.00796E+01 -1.82981E+01 -1.76923E+01 -1.87493E+01 -1.86463E+01 -1.93628E+01
  -1.75095E+01 -1.61566E+01 -1.77682E+01 -1.60737E+01 -1.56667E+01 -1.60053E+01 -1.59955E+01 -1.47828E+01 -1.71260E+01 -1.88622E+01
  -1.77042E+01 -1.51310E+01 -1.53754E+01 -1.26893E+01 -1.49292E+01 -1.29474E+01 -1.49344E+01 -1.27334E+01 -1.23006E+01 -1.30821E+01
  -1.33892E+01 -1.34206E+01 -1.18512E+01 -1.04853E+01 -1.15719E+01 -1.33497E+01 -1.14231E+01 -1.30115E+01 -1.09533E+01 -1.22996E+01
  -1.10439E+01 -1.26163E+01 -1.44967E+01 -6.95855E+00 -1.18057E+01 -1.07101E+01 -9.60226E+00 -9.74934E+00 -9.94094E+00 -8.95106E+00
  -9.59643E+00 -7.41135E+00 -1.03989E+01 -7.16991E+00 -1.14296E+01 -8.91267E+00 -1.14868E+01 -1.06257E+01 -9.95874E+00 -9.03711E+00
  -1.03712E+01 -1.03023E+01 -9.08292E+00 -9.39920E+00 -9.90689E+00 -1.05008E+01 -9.05086E+00 -9.37797E+00 -9.46113E+00 -8.77578E+00
  -8.08499E+00 -9.81081E+00 -1.12466E+01 -9.22048E+00 -1.03994E+01 -5.90372E+00 -6.60959E+00 -1.02728E+01 -8.20822E+00 -8.15448E+00
  -5.90574E+00 -7.56849E+00 -7.72905E+00 -7.60953E+00 -3.80069E+00 -7.69756E+00 -6.83938E+00 -5.94806E+00 -8.11554E+00 -5.49083E+00
  -8.80615E+00 -8.69669E+00 -5.92427E+00 -6.01433E+00 -4.04512E+00 -6.18735E+00 -5.14849E+00 -3.34173E+00 -5.17392E+00 -5.20634E+00
  -3.92749E+00 -1.89768E+00 -1.92839E+00 -1.07362E+00 -3.55965E+00 -5.48441E+00 -5.14142E+00 -2.86597E+00 -4.56104E+00 -5.37471E+00
  -3.49807E+00 -2.56189E+00 -4.49550E+00 -5.33000E+00 -5.39899E+00 -2.69547E+00 -6.29602E+00 -5.02265E+00 -4.98463E+00 -2.25381E+00
  -4.66751E+00 -4.39558E+00 -1.22331E+00 -3.59633E+00 -2.87038E+00 -7.75622E-01  8.51722E-01 -1.17446E-01  2.94271E+00 -1.11135E+00
  -8.30300E-01 -5.40344E-01 -8.44837E-01 -1.64566E+00 -1.86933E+00 -4.75025E+00 -2.60340E+00 -4.05129E+00 -3.04040E+00 -1.84604E+00
  -2.86388E+00 -2.40783E+00 -3.91127E+00 -1.81087E+00 -2.18321E+00 -3.55454E+00 -3.84190E+00 -3.60886E+00 -3.59503E+00 -1.15710E+00
  -2.90419E+00 -3.29228E+00 -1.95623E+00 -5.22548E+00 -2.10926E+00 -1.84457E+00 -2.92287E+00 -2.01576E+00 -3.05137E+00 -3.22434E+00
  -3.09756E+00 -3.02050E+00 -3.97588E+00 -4.06007E+00 -2.27987E+00 -2.08519E+00 -1.15315E+00 -4.15426E+00 -2.16741E+00 -2.81588E+00
   1.04397E-01 -3.26448E+00 -4.79038E+00 -3.90754E+00 -3.45840E+00 -2.17124E+00 -8.42415E-01 -2.75926E+00 -7.46054E-01 -1.23549E+00
  -1.45202E+00 -2.00611E+00 -1.62202E+00 -5.96570E-02 -2.57877E+00 -3.89635E+00 -1.91930E+00 -9.25334E-01 -3.14423E+00 -1.14770E+00
  -1.87804E+00 -2.71699E+00  2.86001E-01 -2.17870E+00 -1.18810E+00  6.50490E-01  2.42463E-01 -2.25647E+00 -2.31396E+00 -1.10722E+00
  -2.95126E-01  9.31008E-01  3.15597E-01 -6.26679E-01 -8.30297E-02  1.32890E-01 -2.15454E+00 -6.28272E-01 -1.28164E+00  3.24832E+00
   8.42837E-01 -1.06788E+00 -8.81023E-01 -7.61664E-01 -5.83545E-01  1.64091E+00  7.41221E-02 -1.94279E+00  9.68466E-01  9.53612E-01
  -1.27873E+00  7.83020E-01 -3.70940E+00  1.19233E+00  9.36549E-01  7.19414E-01  1.33607E+00  1.21887E+00  3.61009E-01  7.79165E-01
   1.43728E+00  1.18277E+00  2.46633E+00  4.14423E+00  9.34369E-01  1.08265E+00  7.75078E-01  3.85931E-01 -4.56040E-01  1.07504E+00
   2.71518E+00  2.60854E+00  5.46081E+00  4.42792E-01  2.61564E+00  2.62064E+00  3.06090E+00  9.90855E-01  1.47235E+00  5.59336E-01
   4.39874E-01  3.47695E+00  3.29515E+00  1.43259E+00  4.48243E+00  4.52641E+00  3.93495E+00  3.54242E+00  6.34912E+00  7.22482E+00
   1.04248E+01  8.53970E+00  4.92521E+00  4.33318E+00  5.00557E+00  3.82280E+00  1.81848E+00  5.38318E+00  2.71288E+00  2.31545E+00
   2.96210E+00  2.09442E+00  2.15929E+00  4.97922E+00  4.98831E+00  1.15606E+00  2.32431E+00  2.54462E+00  5.44132E-01  3.61293E+00
   1.97726E+00  1.17848E+00  2.72245E+00  3.20348E+00  4.91065E+00  1.58681E+00  1.52319E+00  3.50739E+00  4.55604E+00  2.72844E+00
   2.50084E+00  2.86647E+00  2.27652E+00  4.26122E+00  2.12293E+00  2.38658E+00  4.40492E+00  4.04924E+00  2.51436E+00  1.61640E+00
   4.11725E+00  1.13582E-01  3.13478E+00  3.83100E+00  4.85429E+00  4.57714E+00  3.46981E+00  3.84314E+00  4.56294E+00  2.92605E+00
   2.91706E+00  1.44972E+00  2.38551E+00  2.37760E+00  2.25121E+00 -3.55713E-01  3.30481E+00  2.86298E+00  1.85174E+00  1.82756E+00
   9.34402E-02  1.48717E+00  2.13515E+00  8.47109E-01  1.31980E+00  5.92098E+00  2.61510E+00  1.92425E+00  3.10869E+00  2.72910E-01
   1.05380E+00  4.05333E+00  3.11751E+00  4.18276E-01  3.11698E+00  3.91693E+00  4.15431E+00  2.34799E+00  3.62247E+00  2.50640E+00
   2.95442E-01  1.74241E+00  2.28987E+00  2.76925E+00  4.07293E+00  3.01435E+00  1.69667E+00  2.20430E+00  1.79645E+00  9.92821E-01
   7.00283E-01  1.99156E+00 -1.08644E+00  1.17055E+00  1.52410E-01 -6.40961E-02  2.53398E+00 -4.73629E-01  3.82979E+00  4.14027E+00
   5.45877E+00  4.08217E+00  1.05432E+00  2.13915E+00  1.30907E+00  3.62619E+00  9.66762E-01  3.62513E-01  3.30108E+00  1.30733E+00
  -5.95556E-01  1.29454E+00  3.22863E+00  2.97289E+00  4.17907E+00  2.00450E+00  5.25667E+00  5.40671E+00  2.15441E+00  2.17596E+00
   2.81052E+00  1.84937E+00  2.98592E+00  4.11975E+00  2.31119E+00  1.71939E+00  1.22582E+00  2.60253E+00  1.78883E+00  3.52034E+00
   4.44140E+00  2.94493E+00  1.72091E+00  2.23978E+00  4.36026E+00  2.75435E+00  4.27990E+00  4.48829E+00  3.01736E+00  4.21253E+00
   4.51743E+00  3.12105E+00  3.83045E+00  4.37294E+00  2.13480E+00  2.95125E+00  2.66902E+00  3.60933E+00  4.17255E+00  2.52026E+00
   2.16502E+00  1.43665E+00  3.22417E+00  3.65403E+00  2.92757E+00  3.74902E+00  2.46077E+00  3.69602E+00  3.10468E+00  3.12651E+00
   2.51133E+00  1.38512E+00  4.96575E+00  2.48860E+00  2.94940E-01  5.08050E+00  2.59157E+00  2.06316E+00  1.45084E+00  2.82867E+00
   6.55843E-01  2.43417E+00  2.29289E+00  3.06386E+00  1.82932E+00  3.92884E+00  3.61375E+00  2.29927E+00  2.45081E+00  2.40286E+00
   2.23198E+00  3.82312E-01  3.61107E+00  1.42191E+00  2.79189E+00 -6.31663E-01  1.52118E+00  2.17778E+00  2.84985E+00  2.32277E+00
   3.76230E+00  2.86011E+00  2.56589E+00  2.73339E+00  1.88933E+00  1.71210E+00  3.45452E+00  3.98517E+00  3.33636E+00  3.55768E+00
   9.43400E-01  3.08921E+00  3.50546E+00  1.60507E+00  3.79553E+00  4.39874E+00  2.98508E+00  1.58269E+00  2.95602E+00  1.46954E+00
   2.32994E+00  1.79480E+00  2.26338E+00  2.11466E+00  2.83393E+00  2.80649E+00  2.72511E+00  9.36520E-01  2.04118E+00  7.90962E-01
   2.99066E+00  3.00618E+00  2.40667E+00  3.51204E+00  3.49054E+00  3.07362E+00  5.86461E+00  2.76758E+00  1.57292E+00  2.38333E+00
   2.82939E+00  3.43582E+00  2.77321E+00  3.00166E+00  2.59004E+00  3.36339E+00  2.99442E+00  3.06337E+00
 NY points of the fit to the data follow
  -1.70698E+01 -1.71678E+01 -1.76000E+01 -1.82771E+01 -1.83447E+01 -1.80232E+01 -1.80432E+01 -1.86414E+01 -1.89560E+01 -1.82775E+01
  -1.69374E+01 -1.59857E+01 -1.58137E+01 -1.58620E+01 -1.55974E+01 -1.50743E+01 -1.47484E+01 -1.48240E+01 -1.50073E+01 -1.50681E+01
  -1.49268E+01 -1.47731E+01 -1.46798E+01 -1.45263E+01 -1.41808E+01 -1.38996E+01 -1.37544E+01 -1.35504E+01 -1.31752E+01 -1.27751E+01
  -1.25256E+01 -1.24483E+01 -1.24046E+01 -1.23497E+01 -1.23501E+01 -1.24229E+01 -1.25174E+01 -1.25820E+01 -1.26008E+01 -1.26270E+01
  -1.25922E+01 -1.23486E+01 -1.18883E+01 -1.14975E+01 -1.12956E+01 -1.10133E+01 -1.04657E+01 -9.94116E+00 -9.81762E+00 -1.01228E+01
  -1.05082E+01 -1.06807E+01 -1.07240E+01 -1.07901E+01 -1.08440E+01 -1.08370E+01 -1.06954E+01 -1.04538E+01 -1.01637E+01 -9.85733E+00
  -9.60912E+00 -9.49993E+00 -9.50081E+00 -9.52542E+00 -9.52221E+00 -9.48718E+00 -9.37778E+00 -9.23952E+00 -9.12294E+00 -8.97996E+00
  -8.76268E+00 -8.53981E+00 -8.35899E+00 -8.23900E+00 -8.17017E+00 -8.11148E+00 -8.05987E+00 -8.04629E+00 -8.04533E+00 -8.00417E+00
  -7.84718E+00 -7.72907E+00 -7.73491E+00 -7.72553E+00 -7.60219E+00 -7.46969E+00 -7.46920E+00 -7.62042E+00 -7.75484E+00 -7.72061E+00
  -7.56553E+00 -7.41476E+00 -7.33020E+00 -7.24187E+00 -7.07984E+00 -6.81882E+00 -6.23193E+00 -5.20788E+00 -4.72430E+00 -4.60908E+00
  -3.97970E+00 -2.83150E+00 -1.91244E+00 -1.87726E+00 -2.63917E+00 -3.36835E+00 -3.63134E+00 -3.84425E+00 -4.32594E+00 -4.94550E+00
  -5.42319E+00 -5.53650E+00 -5.49787E+00 -5.43929E+00 -5.37810E+00 -5.31012E+00 -5.22853E+00 -5.14713E+00 -5.05944E+00 -4.93431E+00
  -4.64146E+00 -3.75763E+00 -2.82055E+00 -2.50801E+00 -2.11064E+00 -1.06149E+00  1.77760E-01  7.89581E-01  3.97913E-01 -5.13722E-01
  -1.10342E+00 -1.35183E+00 -1.76708E+00 -2.44847E+00 -3.17570E+00 -3.61751E+00 -3.72220E+00 -3.70937E+00 -3.64446E+00 -3.54875E+00
  -3.44622E+00 -3.36223E+00 -3.29186E+00 -3.22368E+00 -3.15466E+00 -3.09887E+00 -3.07123E+00 -3.06273E+00 -3.05390E+00 -3.03596E+00
  -3.00495E+00 -2.97091E+00 -2.93579E+00 -2.90008E+00 -2.86746E+00 -2.84864E+00 -2.81670E+00 -2.76747E+00 -2.72735E+00 -2.69739E+00
  -2.68567E+00 -2.65614E+00 -2.57470E+00 -2.47554E+00 -2.40493E+00 -2.36726E+00 -2.33908E+00 -2.29602E+00 -2.24044E+00 -2.20634E+00
  -2.20714E+00 -2.20520E+00 -2.16207E+00 -2.11753E+00 -2.10828E+00 -2.11818E+00 -2.08175E+00 -1.98633E+00 -1.89478E+00 -1.86659E+00
  -1.87422E+00 -1.85562E+00 -1.76326E+00 -1.63606E+00 -1.55203E+00 -1.50339E+00 -1.42401E+00 -1.29259E+00 -1.12044E+00 -9.58937E-01
  -8.46703E-01 -7.84685E-01 -7.70715E-01 -7.41110E-01 -6.86375E-01 -6.61708E-01 -6.76118E-01 -6.72902E-01 -6.04226E-01 -5.01015E-01
  -4.02267E-01 -3.33471E-01 -2.41257E-01 -1.36268E-01 -9.03883E-02 -9.90777E-02 -1.37375E-01 -1.83610E-01 -1.84660E-01 -1.22846E-01
   8.38087E-03  7.09422E-02  1.22954E-01  2.90305E-01  5.33541E-01  6.44616E-01  4.90559E-01  2.20963E-01  7.50757E-02  9.87192E-03
  -1.54648E-01 -3.40507E-01 -3.50000E-01 -1.30366E-01  1.94043E-01  4.13204E-01  5.50486E-01  7.37803E-01  9.42339E-01  1.06778E+00
   1.10653E+00  1.13868E+00  1.22422E+00  1.31468E+00  1.36153E+00  1.41199E+00  1.47937E+00  1.50424E+00  1.48730E+00  1.46336E+00
   1.45764E+00  1.48251E+00  1.55724E+00  1.67055E+00  1.79648E+00  1.91799E+00  2.03098E+00  2.13344E+00  2.19930E+00  2.22240E+00
   2.22921E+00  2.25593E+00  2.31473E+00  2.53404E+00  3.39696E+00  4.42943E+00  4.71665E+00  4.99663E+00  6.04265E+00  7.40317E+00
   8.10428E+00  7.64782E+00  6.53607E+00  5.73669E+00  5.34296E+00  4.79482E+00  3.95088E+00  3.06799E+00  2.49989E+00  2.29430E+00
   2.19942E+00  2.15691E+00  2.15169E+00  2.15846E+00  2.16070E+00  2.15625E+00  2.15238E+00  2.14938E+00  2.14008E+00  2.12509E+00
   2.11085E+00  2.10169E+00  2.09987E+00  2.10590E+00  2.12164E+00  2.14645E+00  2.17772E+00  2.21373E+00  2.25373E+00  2.29729E+00
   2.34384E+00  2.39132E+00  2.43943E+00  2.48822E+00  2.53724E+00  2.58503E+00  2.63051E+00  2.67243E+00  2.70987E+00  2.74123E+00
   2.76579E+00  2.78293E+00  2.79231E+00  2.79348E+00  2.78668E+00  2.77212E+00  2.75086E+00  2.72366E+00  2.69182E+00  2.65632E+00
   2.61853E+00  2.57945E+00  2.54038E+00  2.50216E+00  2.46598E+00  2.43237E+00  2.40201E+00  2.37499E+00  2.35176E+00  2.33231E+00
   2.31692E+00  2.30522E+00  2.29712E+00  2.29214E+00  2.29026E+00  2.29114E+00  2.29473E+00  2.30052E+00  2.30839E+00  2.31804E+00
   2.32969E+00  2.34333E+00  2.35930E+00  2.37768E+00  2.39920E+00  2.42485E+00  2.45670E+00  2.49767E+00  2.55334E+00  2.63496E+00
   2.77412E+00  3.04416E+00  3.26139E+00  3.15278E+00  3.06983E+00  3.19017E+00  3.22089E+00  2.84882E+00  2.10054E+00  1.54865E+00
   1.50918E+00  1.49886E+00  1.32403E+00  1.32412E+00  1.71770E+00  2.34595E+00  2.82990E+00  2.95602E+00  2.98649E+00  3.10114E+00
   3.18993E+00  3.14470E+00  2.96808E+00  2.78039E+00  2.67469E+00  2.61273E+00  2.57157E+00  2.54205E+00  2.51984E+00  2.50242E+00
   2.48866E+00  2.47777E+00  2.46942E+00  2.46318E+00  2.45905E+00  2.45698E+00  2.45737E+00  2.46040E+00  2.46642E+00  2.47554E+00
   2.48820E+00  2.50469E+00  2.52558E+00  2.55113E+00  2.58171E+00  2.61739E+00  2.65847E+00  2.70500E+00  2.75706E+00  2.81431E+00
   2.87635E+00  2.94241E+00  3.01178E+00  3.08334E+00  3.15593E+00  3.22793E+00  3.29778E+00  3.36369E+00  3.42412E+00  3.47737E+00
   3.52206E+00  3.55673E+00  3.58047E+00  3.59255E+00  3.59284E+00  3.58137E+00  3.55869E+00  3.52548E+00  3.48295E+00  3.43244E+00
   3.37561E+00  3.31398E+00  3.24922E+00  3.18277E+00  3.11620E+00  3.05075E+00  2.98762E+00  2.92757E+00  2.87130E+00  2.81915E+00
   2.77151E+00  2.72844E+00  2.68997E+00  2.65582E+00  2.62581E+00  2.59958E+00  2.57693E+00  2.55749E+00  2.54097E+00  2.52693E+00
   2.51514E+00  2.50528E+00  2.49723E+00  2.49069E+00  2.48550E+00  2.48140E+00  2.47831E+00  2.47608E+00  2.47471E+00  2.47401E+00
   2.47393E+00  2.47433E+00  2.47523E+00  2.47656E+00  2.47835E+00  2.48046E+00  2.48290E+00  2.48557E+00  2.48856E+00  2.49180E+00
   2.49532E+00  2.49901E+00  2.50290E+00  2.50693E+00  2.51118E+00  2.51561E+00  2.52022E+00  2.52492E+00  2.52974E+00  2.53468E+00
   2.53978E+00  2.54500E+00  2.55033E+00  2.55571E+00  2.56118E+00  2.56675E+00  2.57245E+00  2.57821E+00  2.58405E+00  2.58990E+00
   2.59585E+00  2.60187E+00  2.60799E+00  2.61414E+00  2.62034E+00  2.62654E+00  2.63283E+00  2.63918E+00  2.64560E+00  2.65203E+00
   2.65847E+00  2.66493E+00  2.67147E+00  2.67805E+00  2.68466E+00  2.69126E+00  2.69788E+00  2.70451E+00  2.71122E+00  2.71794E+00
   2.72467E+00  2.73137E+00  2.73809E+00  2.74483E+00  2.75162E+00  2.75840E+00  2.76517E+00  2.77191E+00
 NY background values follow
    -1.770E+01   -1.758E+01   -1.746E+01   -1.734E+01   -1.722E+01   -1.710E+01   -1.698E+01   -1.686E+01   -1.674E+01   -1.662E+01
    -1.650E+01   -1.638E+01   -1.626E+01   -1.614E+01   -1.602E+01   -1.590E+01   -1.578E+01   -1.566E+01   -1.554E+01   -1.543E+01
    -1.531E+01   -1.519E+01   -1.507E+01   -1.495E+01   -1.483E+01   -1.471E+01   -1.460E+01   -1.448E+01   -1.436E+01   -1.424E+01
    -1.413E+01   -1.401E+01   -1.389E+01   -1.378E+01   -1.366E+01   -1.354E+01   -1.343E+01   -1.331E+01   -1.320E+01   -1.308E+01
    -1.297E+01   -1.285E+01   -1.274E+01   -1.262E+01   -1.251E+01   -1.240E+01   -1.228E+01   -1.217E+01   -1.206E+01   -1.195E+01
    -1.183E+01   -1.172E+01   -1.161E+01   -1.150E+01   -1.139E+01   -1.128E+01   -1.117E+01   -1.106E+01   -1.096E+01   -1.085E+01
    -1.074E+01   -1.063E+01   -1.053E+01   -1.042E+01   -1.031E+01   -1.021E+01   -1.010E+01   -9.997E+00   -9.893E+00   -9.789E+00
    -9.686E+00   -9.583E+00   -9.480E+00   -9.378E+00   -9.277E+00   -9.176E+00   -9.075E+00   -8.975E+00   -8.875E+00   -8.776E+00
    -8.678E+00   -8.580E+00   -8.482E+00   -8.385E+00   -8.289E+00   -8.193E+00   -8.097E+00   -8.003E+00   -7.908E+00   -7.815E+00
    -7.721E+00   -7.629E+00   -7.537E+00   -7.445E+00   -7.354E+00   -7.264E+00   -7.174E+00   -7.085E+00   -6.997E+00   -6.909E+00
    -6.821E+00   -6.734E+00   -6.648E+00   -6.562E+00   -6.477E+00   -6.392E+00   -6.308E+00   -6.225E+00   -6.142E+00   -6.059E+00
    -5.978E+00   -5.896E+00   -5.816E+00   -5.735E+00   -5.656E+00   -5.577E+00   -5.498E+00   -5.421E+00   -5.343E+00   -5.266E+00
    -5.190E+00   -5.115E+00   -5.040E+00   -4.965E+00   -4.891E+00   -4.818E+00   -4.745E+00   -4.673E+00   -4.601E+00   -4.530E+00
    -4.459E+00   -4.389E+00   -4.320E+00   -4.251E+00   -4.182E+00   -4.114E+00   -4.047E+00   -3.980E+00   -3.914E+00   -3.849E+00
    -3.784E+00   -3.719E+00   -3.655E+00   -3.591E+00   -3.528E+00   -3.466E+00   -3.404E+00   -3.343E+00   -3.282E+00   -3.221E+00
    -3.161E+00   -3.102E+00   -3.043E+00   -2.984E+00   -2.926E+00   -2.868E+00   -2.811E+00   -2.754E+00   -2.698E+00   -2.642E+00
    -2.587E+00   -2.532E+00   -2.477E+00   -2.423E+00   -2.370E+00   -2.316E+00   -2.263E+00   -2.211E+00   -2.159E+00   -2.107E+00
    -2.056E+00   -2.005E+00   -1.955E+00   -1.904E+00   -1.855E+00   -1.805E+00   -1.756E+00   -1.707E+00   -1.659E+00   -1.611E+00
    -1.563E+00   -1.516E+00   -1.469E+00   -1.422E+00   -1.376E+00   -1.330E+00   -1.284E+00   -1.238E+00   -1.193E+00   -1.149E+00
    -1.104E+00   -1.060E+00   -1.016E+00   -9.729E-01   -9.298E-01   -8.870E-01   -8.446E-01   -8.024E-01   -7.606E-01   -7.192E-01
    -6.780E-01   -6.372E-01   -5.967E-01   -5.565E-01   -5.166E-01   -4.771E-01   -4.379E-01   -3.990E-01   -3.604E-01   -3.222E-01
    -2.843E-01   -2.467E-01   -2.095E-01   -1.725E-01   -1.359E-01   -9.964E-02   -6.368E-02   -2.804E-02    7.268E-03    4.226E-02
     7.692E-02    1.113E-01    1.453E-01    1.790E-01    2.124E-01    2.454E-01    2.781E-01    3.105E-01    3.426E-01    3.744E-01
     4.058E-01    4.369E-01    4.677E-01    4.981E-01    5.283E-01    5.580E-01    5.875E-01    6.166E-01    6.454E-01    6.739E-01
     7.020E-01    7.298E-01    7.573E-01    7.844E-01    8.112E-01    8.377E-01    8.638E-01    8.896E-01    9.150E-01    9.401E-01
     9.648E-01    9.893E-01    1.013E+00    1.037E+00    1.060E+00    1.083E+00    1.106E+00    1.128E+00    1.150E+00    1.172E+00
     1.193E+00    1.214E+00    1.235E+00    1.255E+00    1.275E+00    1.295E+00    1.314E+00    1.333E+00    1.351E+00    1.369E+00
     1.387E+00    1.404E+00    1.421E+00    1.438E+00    1.454E+00    1.470E+00    1.486E+00    1.501E+00    1.516E+00    1.531E+00
     1.545E+00    1.559E+00    1.573E+00    1.586E+00    1.599E+00    1.612E+00    1.624E+00    1.636E+00    1.648E+00    1.660E+00
     1.671E+00    1.682E+00    1.693E+00    1.703E+00    1.713E+00    1.723E+00    1.733E+00    1.742E+00    1.751E+00    1.760E+00
     1.769E+00    1.777E+00    1.785E+00    1.793E+00    1.801E+00    1.808E+00    1.815E+00    1.822E+00    1.829E+00    1.836E+00
     1.842E+00    1.848E+00    1.854E+00    1.860E+00    1.866E+00    1.871E+00    1.877E+00    1.882E+00    1.887E+00    1.891E+00
     1.896E+00    1.900E+00    1.905E+00    1.909E+00    1.913E+00    1.917E+00    1.920E+00    1.924E+00    1.927E+00    1.931E+00
     1.934E+00    1.937E+00    1.940E+00    1.943E+00    1.946E+00    1.949E+00    1.951E+00    1.954E+00    1.956E+00    1.959E+00
     1.961E+00    1.964E+00    1.966E+00    1.968E+00    1.970E+00    1.973E+00    1.975E+00    1.977E+00    1.979E+00    1.981E+00
     1.983E+00    1.985E+00    1.987E+00    1.989E+00    1.991E+00    1.993E+00    1.995E+00    1.997E+00    1.999E+00    2.001E+00
     2.004E+00    2.006E+00    2.008E+00    2.010E+00    2.013E+00    2.015E+00    2.017E+00    2.020E+00    2.023E+00    2.025E+00
     2.028E+00    2.030E+00    2.033E+00    2.036E+00    2.039E+00    2.042E+00    2.044E+00    2.047E+00    2.050E+00    2.053E+00
     2.057E+00    2.060E+00    2.063E+00    2.066E+00    2.069E+00    2.073E+00    2.076E+00    2.080E+00    2.083E+00    2.087E+00
     2.090E+00    2.094E+00    2.097E+00    2.101E+00    2.105E+00    2.109E+00    2.113E+00    2.116E+00    2.120E+00    2.124E+00
     2.128E+00    2.132E+00    2.137E+00    2.141E+00    2.145E+00    2.149E+00    2.154E+00    2.158E+00    2.162E+00    2.167E+00
     2.171E+00    2.176E+00    2.181E+00    2.185E+00    2.190E+00    2.195E+00    2.200E+00    2.204E+00    2.209E+00    2.214E+00
     2.219E+00    2.224E+00    2.229E+00    2.235E+00    2.240E+00    2.245E+00    2.250E+00    2.256E+00    2.261E+00    2.266E+00
     2.272E+00    2.277E+00    2.283E+00    2.289E+00    2.294E+00    2.300E+00    2.306E+00    2.312E+00    2.317E+00    2.323E+00
     2.329E+00    2.335E+00    2.341E+00    2.347E+00    2.353E+00    2.359E+00    2.366E+00    2.372E+00    2.378E+00    2.385E+00
     2.391E+00    2.397E+00    2.404E+00    2.410E+00    2.417E+00    2.424E+00    2.430E+00    2.437E+00    2.444E+00    2.450E+00
     2.457E+00    2.464E+00    2.471E+00    2.478E+00    2.485E+00    2.492E+00    2.499E+00    2.506E+00    2.513E+00    2.520E+00
     2.527E+00    2.534E+00    2.541E+00    2.548E+00    2.556E+00    2.563E+00    2.570E+00    2.577E+00    2.585E+00    2.592E+00
     2.599E+00    2.606E+00    2.614E+00    2.621E+00    2.628E+00    2.636E+00    2.643E+00    2.650E+00    2.658E+00    2.665E+00
     2.673E+00    2.680E+00    2.687E+00    2.695E+00    2.702E+00    2.709E+00    2.717E+00    2.724E+00
 Asp      Conc. = 2.63E+01
