 LCModel (Version 6.3-1L) Copyright: S.W. Provencher.          Ref.: Magn. Reson. Med. 30:672-679 (1993).                
 Slice#1 Row#12 Col#9  PD_05_press_1_raw_act
 36 lines in following concentration table = NCONC+1
    Conc.  %SD /Cr+PCr  Metabolite                                         
  152.662  35%   0.283 Ala                                                 
    0.000 999%   0.000 Asp                                                 
  413.149  21%   0.767 Cr                                                  
  125.451  72%   0.233 PCr                                                 
   49.694 131% 9.2E-02 GABA                                                
   15.847 404% 2.9E-02 Glc                                                 
  336.460  32%   0.625 Gln                                                 
  825.598  15%   1.533 Glu                                                 
  166.824   6%   0.310 GPC                                                 
    0.000 999%   0.000 PCh                                                 
  157.932  22%   0.293 GSH                                                 
  584.364  19%   1.085 Ins                                                 
   95.589  60%   0.177 Lac                                                 
 1.16E+03   5%   2.152 NAA                                                 
  117.589  49%   0.218 NAAG                                                
   24.034  49% 4.5E-02 Scyllo                                              
    0.000 999%   0.000 Tau                                                 
   49.494  97% 9.2E-02 -CrCH2                                              
  166.824   6%   0.310 GPC+PCh                                             
 1.28E+03   3%   2.370 NAA+NAAG                                            
  538.600   5%   1.000 Cr+PCr                                              
 1.16E+03  15%   2.158 Glu+Gln                                             
  690.626  38%   1.282 Lip13a                                              
    0.000 999%   0.000 Lip13b                                              
   32.171 358% 6.0E-02 Lip09                                               
  763.864  18%   1.418 MM09                                                
  122.973  64%   0.228 Lip20                                               
 1.70E+03  10%   3.160 MM20                                                
  276.887  31%   0.514 MM12                                                
  708.436  27%   1.315 MM14                                                
  548.891  20%   1.019 MM17                                                
  690.626  38%   1.282 Lip13a+Lip13b                                       
 1.68E+03  10%   3.112 MM14+Lip13a+Lip13b+MM12                             
  796.035  11%   1.478 MM09+Lip09                                          
 1.83E+03   9%   3.389 MM20+Lip20                                          
   6 lines in following misc. output table
  FWHM = 0.046 ppm    S/N =  13                                            
  Data shift = 0.023 ppm                                                   
  Ph: -31 deg       0.1 deg/ppm                                            
  alphaB,S = 8.5E+01,   2.0E+02                                            
   14 spline knots.   Ns = 6(1)                                            
   2 inflections.     1 extrema                                            
  498 points on ppm-axis = NY
      4.000000     3.992357     3.984714     3.977070     3.969427     3.961784     3.954141     3.946497     3.938854     3.931211
      3.923568     3.915925     3.908281     3.900638     3.892995     3.885352     3.877708     3.870065     3.862422     3.854779
      3.847136     3.839492     3.831849     3.824206     3.816563     3.808919     3.801276     3.793633     3.785990     3.778347
      3.770703     3.763060     3.755417     3.747774     3.740130     3.732487     3.724844     3.717201     3.709558     3.701914
      3.694271     3.686628     3.678985     3.671341     3.663698     3.656055     3.648412     3.640769     3.633125     3.625482
      3.617839     3.610196     3.602552     3.594909     3.587266     3.579623     3.571980     3.564336     3.556693     3.549050
      3.541407     3.533763     3.526120     3.518477     3.510834     3.503191     3.495547     3.487904     3.480261     3.472618
      3.464974     3.457331     3.449688     3.442045     3.434402     3.426758     3.419115     3.411472     3.403829     3.396185
      3.388542     3.380899     3.373256     3.365613     3.357969     3.350326     3.342683     3.335040     3.327396     3.319753
      3.312110     3.304467     3.296824     3.289180     3.281537     3.273894     3.266251     3.258607     3.250964     3.243321
      3.235678     3.228034     3.220391     3.212748     3.205105     3.197462     3.189818     3.182175     3.174532     3.166889
      3.159245     3.151602     3.143959     3.136316     3.128673     3.121029     3.113386     3.105743     3.098100     3.090456
      3.082813     3.075170     3.067527     3.059884     3.052240     3.044597     3.036954     3.029311     3.021667     3.014024
      3.006381     2.998738     2.991095     2.983451     2.975808     2.968165     2.960522     2.952878     2.945235     2.937592
      2.929949     2.922306     2.914662     2.907019     2.899376     2.891733     2.884089     2.876446     2.868803     2.861160
      2.853517     2.845873     2.838230     2.830587     2.822944     2.815300     2.807657     2.800014     2.792371     2.784728
      2.777084     2.769441     2.761798     2.754155     2.746511     2.738868     2.731225     2.723582     2.715939     2.708295
      2.700652     2.693009     2.685366     2.677722     2.670079     2.662436     2.654793     2.647150     2.639506     2.631863
      2.624220     2.616577     2.608933     2.601290     2.593647     2.586004     2.578361     2.570717     2.563074     2.555431
      2.547788     2.540144     2.532501     2.524858     2.517215     2.509572     2.501928     2.494285     2.486642     2.478999
      2.471355     2.463712     2.456069     2.448426     2.440783     2.433139     2.425496     2.417853     2.410210     2.402566
      2.394923     2.387280     2.379637     2.371994     2.364350     2.356707     2.349064     2.341421     2.333777     2.326134
      2.318491     2.310848     2.303205     2.295561     2.287918     2.280275     2.272632     2.264988     2.257345     2.249702
      2.242059     2.234416     2.226772     2.219129     2.211486     2.203843     2.196199     2.188556     2.180913     2.173270
      2.165627     2.157983     2.150340     2.142697     2.135054     2.127410     2.119767     2.112124     2.104481     2.096838
      2.089194     2.081551     2.073908     2.066265     2.058621     2.050978     2.043335     2.035692     2.028049     2.020405
      2.012762     2.005119     1.997476     1.989833     1.982190     1.974546     1.966903     1.959260     1.951617     1.943974
      1.936331     1.928688     1.921045     1.913402     1.905759     1.898115     1.890472     1.882829     1.875186     1.867543
      1.859900     1.852257     1.844614     1.836971     1.829327     1.821684     1.814041     1.806398     1.798755     1.791112
      1.783469     1.775826     1.768183     1.760540     1.752896     1.745253     1.737610     1.729967     1.722324     1.714681
      1.707038     1.699395     1.691752     1.684108     1.676465     1.668822     1.661179     1.653536     1.645893     1.638250
      1.630607     1.622964     1.615321     1.607677     1.600034     1.592391     1.584748     1.577105     1.569462     1.561819
      1.554176     1.546533     1.538890     1.531246     1.523603     1.515960     1.508317     1.500674     1.493031     1.485388
      1.477745     1.470102     1.462458     1.454815     1.447172     1.439529     1.431886     1.424243     1.416600     1.408957
      1.401314     1.393671     1.386027     1.378384     1.370741     1.363098     1.355455     1.347812     1.340169     1.332526
      1.324883     1.317240     1.309596     1.301953     1.294310     1.286667     1.279024     1.271381     1.263738     1.256095
      1.248452     1.240808     1.233165     1.225522     1.217879     1.210236     1.202593     1.194950     1.187307     1.179664
      1.172021     1.164377     1.156734     1.149091     1.141448     1.133805     1.126162     1.118519     1.110876     1.103233
      1.095590     1.087946     1.080303     1.072660     1.065017     1.057374     1.049731     1.042088     1.034445     1.026802
      1.019158     1.011515     1.003872     0.996229     0.988586     0.980943     0.973300     0.965657     0.958014     0.950371
      0.942727     0.935084     0.927441     0.919798     0.912155     0.904512     0.896869     0.889226     0.881583     0.873940
      0.866296     0.858653     0.851010     0.843367     0.835724     0.828081     0.820438     0.812795     0.805152     0.797508
      0.789865     0.782222     0.774579     0.766936     0.759293     0.751650     0.744007     0.736364     0.728721     0.721077
      0.713434     0.705791     0.698148     0.690505     0.682862     0.675219     0.667576     0.659933     0.652290     0.644646
      0.637003     0.629360     0.621717     0.614074     0.606431     0.598788     0.591145     0.583502     0.575858     0.568215
      0.560572     0.552929     0.545286     0.537643     0.530000     0.522357     0.514714     0.507071     0.499427     0.491784
      0.484141     0.476498     0.468855     0.461212     0.453569     0.445925     0.438282     0.430639     0.422996     0.415353
      0.407710     0.400067     0.392424     0.384780     0.377137     0.369494     0.361851     0.354208     0.346565     0.338922
      0.331278     0.323635     0.315992     0.308349     0.300706     0.293063     0.285420     0.277777     0.270133     0.262490
      0.254847     0.247204     0.239561     0.231918     0.224275     0.216631     0.208988     0.201345
 NY phased data points follow
   7.69256E-01  1.71661E+00 -7.04200E-01  8.12161E-01 -8.14911E-01  4.35809E-01  4.87387E+00  6.46916E+00  5.48235E+00  6.03905E+00
   9.39166E+00  1.00339E+01  1.17137E+01  9.46538E+00  6.30329E+00  4.78639E+00  5.96630E+00  3.78966E+00  2.98225E-01  1.61771E+00
   3.36919E+00  9.04789E-01  3.00551E-01  8.57934E-01  1.56714E+00  3.41484E-01 -1.69971E+00  2.44810E+00  8.27801E-01  3.91896E+00
   3.25454E+00  3.16034E+00  4.35143E+00  5.15178E+00  3.65735E+00  2.64547E+00  2.88081E-01 -6.46437E-01  2.88047E+00 -2.07909E-01
   1.31725E+00  1.23628E+00  1.81086E+00  1.37702E+00  1.71436E+00  2.87108E+00  4.28574E+00  5.33931E+00  7.09514E+00  3.15390E+00
   2.99386E+00 -1.33917E-01  9.35184E-01  3.27808E+00 -1.27369E+00  1.60168E+00  1.57590E+00  1.43258E+00  3.57465E-01  1.17261E+00
   4.12206E-01 -4.23400E-01 -5.59989E-01 -2.14350E+00  5.47910E-01 -4.81396E-01 -8.91187E-01 -2.04003E+00 -3.82079E-01 -2.60034E+00
  -1.42568E+00 -2.45650E+00 -1.29252E+00 -4.58529E-01  1.16542E+00  3.18292E-01 -1.34600E+00 -2.40599E+00  2.20149E-01 -1.77292E+00
  -1.48155E+00 -4.57019E-01  1.39879E+00  1.38730E-01 -4.86213E-01 -3.16993E-01 -2.41679E+00  2.80288E-01 -2.55136E+00 -2.32531E+00
  -1.21799E+00 -1.70305E+00  3.45978E+00  2.53612E+00  7.70733E-01 -4.21958E-01 -2.78184E-01  6.65792E-01 -8.25621E-01  3.57536E+00
   5.91541E+00  9.02593E+00  1.61200E+01  1.54235E+01  1.42546E+01  9.65835E+00  9.00641E+00  6.36104E+00  6.80947E+00  2.36962E+00
   2.50556E+00  9.66264E-01  1.12753E+00 -3.36006E+00  2.89243E+00  6.55228E-01  1.62269E+00  1.81275E+00  1.79612E-01 -4.00699E-01
   2.42517E+00 -3.55822E-01  2.79634E-01  4.47899E+00  8.22796E+00  1.60323E+01  1.84037E+01  1.91408E+01  1.82441E+01  1.33517E+01
   1.24138E+01  9.56984E+00  8.75565E+00  4.85920E+00  4.49889E+00 -1.12723E+00  7.93271E-01  4.76292E-01 -3.53039E-01 -1.77587E-01
   3.14065E+00 -3.51549E-01 -2.89831E-01  3.51073E-01  9.68131E-01 -7.06547E-01 -7.80286E-01 -1.30364E-01 -5.39208E-01  2.72885E-01
  -8.87669E-01 -2.29487E-01 -1.50663E+00 -3.44342E+00 -5.57499E-01  1.64581E+00 -4.05463E-01 -2.05680E+00 -8.19156E-01  2.10139E+00
   1.78987E-01  1.81042E+00  1.17578E-01  1.73358E-01 -3.50533E+00 -1.13162E-01 -3.85003E+00 -2.24438E+00 -4.15349E+00 -6.67285E+00
  -5.01163E+00 -5.87225E+00 -3.21819E+00 -4.70317E+00 -5.50277E+00 -4.88339E+00 -9.32846E+00 -6.59730E+00 -7.00433E+00 -7.15800E+00
  -4.87290E+00 -1.96422E+00 -4.61024E+00 -3.45355E+00 -3.33214E+00  2.52263E-01 -3.23809E+00 -4.94818E+00 -2.26804E+00 -2.57367E+00
  -1.23588E+00 -3.55522E+00 -2.69855E+00  1.16462E-01 -3.21534E+00 -2.35082E+00 -3.99722E+00 -2.66101E+00 -3.65520E+00 -2.98672E+00
  -1.16452E+00 -2.35017E+00 -7.80031E-01 -6.69030E-01 -1.06752E+00 -2.67483E+00 -4.76468E-01 -7.16353E-01  1.20310E+00 -7.41079E+00
  -4.95748E+00 -8.78216E-01 -2.74991E-01  2.17332E+00  3.73590E+00  5.54637E+00  6.07462E+00  3.71492E+00  1.85256E+00  5.52055E-01
  -2.61532E+00 -2.71775E+00 -7.91234E-01 -3.08250E+00  1.26661E+00  9.06483E-01  5.75554E-01 -3.94559E-01  3.24831E+00  2.70641E+00
   5.02756E+00  2.15607E+00  3.96912E+00  3.53512E+00  3.81512E+00  3.03416E+00  3.89512E+00  4.95263E+00  3.83789E+00  2.27079E+00
   1.05160E+00  2.79300E+00  1.54204E+00  4.31624E+00  4.00075E+00  3.80764E+00  4.93186E+00  6.14104E+00  7.31952E+00  5.29453E+00
   8.40429E+00  7.99393E+00  9.20610E+00  1.20045E+01  1.28855E+01  1.64124E+01  2.43512E+01  3.09543E+01  4.25967E+01  5.10910E+01
   4.98174E+01  4.22580E+01  3.22480E+01  2.58427E+01  2.20645E+01  1.67633E+01  1.13056E+01  9.13745E+00  6.24604E+00  3.59580E+00
   2.42523E+00  2.19846E+00  5.90456E-01  3.90526E+00  3.15833E+00  2.65319E+00  4.18851E-01  1.94813E+00  1.20414E+00  4.31666E+00
   2.05797E+00  1.01178E+00 -9.25331E-01  2.48806E+00  1.25304E-01  4.83449E-01  8.84880E-01 -1.44668E+00 -1.03649E+00  9.91121E-02
   1.95658E+00  2.03530E+00  1.84035E+00  1.69125E+00  2.02140E+00 -5.85480E-01  2.55210E+00  1.70790E+00  1.94153E+00  1.41480E+00
   2.19171E+00  1.75127E+00  5.72928E+00  1.43036E+00 -1.41058E+00  9.19268E-02  2.41956E+00  2.33839E+00  2.51453E+00  3.22469E+00
   4.54970E+00  3.42376E+00  4.84998E+00  3.54611E+00  5.01835E+00  4.13907E+00  4.85568E+00  2.71052E+00  4.98022E+00  3.46180E+00
   1.89441E+00  4.64095E+00  3.28967E+00  2.38202E+00  4.88980E-01  2.62941E+00  1.10364E+00  3.47220E+00 -1.52058E-01  2.64782E+00
  -6.90899E-02 -9.84173E-01  3.13598E-01  2.79101E+00  2.44371E+00  3.41281E+00  5.61358E+00  4.03852E+00  3.39196E+00  3.31605E+00
   5.25442E+00  6.26668E+00  5.83258E+00  7.16736E+00  6.28947E+00  8.94561E+00  8.42515E+00  4.91907E+00  6.37952E+00  3.05279E+00
   2.77856E+00  5.35598E+00  5.46489E+00  3.25807E+00  2.70505E+00  2.57310E+00  1.30066E+00  3.90892E+00  1.43943E+00  3.84275E+00
   2.21521E+00  3.13408E+00  4.94434E+00  3.10121E+00  3.74225E+00  8.41838E+00  3.70736E+00  7.54349E+00  5.77651E+00  6.06991E+00
   3.40154E+00  3.10221E+00  2.46183E+00  2.55703E+00  2.38281E-01  3.21004E+00  4.05712E+00 -1.76665E+00  4.50001E+00  1.16421E+00
  -4.80141E-01  1.74667E+00  1.66415E+00  3.59547E-01  5.39732E-01  8.77710E-01 -3.77145E-02  8.25948E-01  1.41830E+00  1.39975E+00
   2.45274E+00  1.66878E+00  1.37201E+00  2.77902E+00  2.69386E+00  8.66967E-01  1.29924E+00  2.05825E+00  3.53870E+00  3.65915E+00
   4.53437E+00  3.14434E+00  4.20585E+00  2.16206E+00  6.41171E+00  4.53716E+00  5.25053E+00  5.96808E+00  3.79543E+00  6.59097E+00
   4.44255E+00  3.86901E+00  1.98719E+00  5.87062E+00  2.51620E+00  1.86041E+00  1.98294E+00  3.07983E+00  1.84612E+00  9.49950E-01
   3.33393E-01  1.83172E+00  2.19788E+00  1.28221E+00 -1.17027E+00  3.49008E-01  5.21850E-01  1.87868E-01 -4.67538E-01 -2.00860E+00
  -6.40244E-01 -7.60201E-01 -2.70917E-01  4.92739E-01  1.39020E+00  3.66205E-01 -1.94641E+00 -1.80909E+00 -7.33930E-01  1.24298E+00
   5.93854E-01 -7.38056E-01 -3.02380E+00  5.39065E-01 -1.74750E+00 -6.87256E-02  2.19258E+00 -1.89733E+00 -1.02876E+00  1.53372E+00
   1.37753E+00 -1.07618E+00 -1.07333E+00 -5.02641E-01 -1.86660E-01  1.69614E-01 -1.55388E-01 -2.65753E+00 -1.67457E+00 -7.87666E-01
  -1.18201E+00 -4.89758E-01 -4.57230E-01 -5.18106E+00  3.50029E-02  4.07504E-01 -1.33361E+00  2.10937E-02 -3.13387E-01 -1.17212E+00
  -1.51827E+00 -3.35804E+00  6.99455E-03 -8.07177E-01  1.61927E-01 -7.81195E-01 -4.82324E-01 -8.40695E-02 -5.27141E-01 -2.43837E-01
  -1.35582E+00 -1.65017E+00 -9.44390E-01  1.32316E+00 -2.23634E+00 -3.27400E+00 -2.61521E+00  7.50182E-01 -1.77044E+00 -4.22630E+00
  -1.05055E+00 -2.50877E+00  1.03588E-01 -1.87264E+00 -1.95328E+00  2.15212E+00 -8.08719E-01 -1.65541E+00
 NY points of the fit to the data follow
  -1.08680E-01 -2.82724E-01 -3.13475E-01 -1.55428E-01  2.63149E-01  1.00033E+00  2.29868E+00  4.17272E+00  6.36282E+00  8.47576E+00
   1.00409E+01  1.06490E+01  1.01732E+01  8.87120E+00  7.22234E+00  5.61643E+00  4.20477E+00  2.99829E+00  1.98598E+00  1.29183E+00
   1.06421E+00  1.04231E+00  9.35485E-01  6.64135E-01  3.70957E-01  2.26487E-01  3.86414E-01  9.73546E-01  1.95433E+00  3.10201E+00
   4.06953E+00  4.60198E+00  4.61873E+00  4.16107E+00  3.33571E+00  2.32894E+00  1.30286E+00  4.63137E-01 -1.38855E-02 -2.08309E-01
  -2.03684E-01  6.31531E-02  6.79053E-01  1.61044E+00  2.67323E+00  3.65636E+00  4.30452E+00  4.39811E+00  3.92374E+00  3.07340E+00
   2.11441E+00  1.25777E+00  5.58092E-01 -2.83604E-03 -3.66845E-01 -4.24820E-01 -1.66922E-01  2.48074E-01  6.36088E-01  8.72244E-01
   8.75880E-01  6.50685E-01  2.84884E-01 -9.45584E-02 -3.85617E-01 -5.55264E-01 -5.98839E-01 -5.17392E-01 -3.33791E-01 -1.03313E-01
   1.20118E-01  2.73538E-01  3.22242E-01  2.71031E-01  1.55361E-01  2.16461E-02 -1.04107E-01 -2.18894E-01 -3.23616E-01 -4.03901E-01
  -3.96105E-01 -2.95619E-01 -1.66847E-01 -9.05789E-02 -1.39620E-01 -3.57798E-01 -7.22471E-01 -1.12875E+00 -1.43992E+00 -1.57639E+00
  -1.54648E+00 -1.41233E+00 -1.24854E+00 -1.09603E+00 -9.61853E-01 -8.80445E-01 -8.23257E-01 -4.05422E-01  1.06851E+00  3.71810E+00
   7.20805E+00  1.08343E+01  1.36261E+01  1.47460E+01  1.40086E+01  1.19713E+01  9.47360E+00  7.07642E+00  4.89284E+00  2.86130E+00
   1.07483E+00 -1.05784E-01 -4.89482E-01 -5.61903E-01 -5.66139E-01 -5.53742E-01 -5.36228E-01 -5.14752E-01 -4.75025E-01 -3.78545E-01
  -1.13699E-01  7.17855E-01  2.72134E+00  5.95757E+00  1.00080E+01  1.40895E+01  1.71691E+01  1.84048E+01  1.76484E+01  1.54919E+01
   1.27917E+01  1.00808E+01  7.43566E+00  4.81400E+00  2.41405E+00  7.22041E-01  3.46300E-03 -1.68743E-01 -1.05727E-01  5.56850E-02
   2.19912E-01  3.38162E-01  3.91037E-01  3.65060E-01  2.77315E-01  1.48809E-01 -9.57398E-03 -1.78720E-01 -3.44745E-01 -5.03419E-01
  -6.40547E-01 -7.57301E-01 -8.44994E-01 -8.90712E-01 -9.06470E-01 -9.58358E-01 -1.09279E+00 -1.31633E+00 -1.58360E+00 -1.78309E+00
  -1.84116E+00 -1.75572E+00 -1.60666E+00 -1.52307E+00 -1.59621E+00 -1.81479E+00 -2.08484E+00 -2.31614E+00 -2.50090E+00 -2.70606E+00
  -2.97613E+00 -3.30383E+00 -3.60868E+00 -3.80994E+00 -3.89306E+00 -3.87053E+00 -3.77255E+00 -3.66946E+00 -3.62307E+00 -3.62829E+00
  -3.63013E+00 -3.60968E+00 -3.56715E+00 -3.51653E+00 -3.43420E+00 -3.18845E+00 -2.66039E+00 -1.90960E+00 -1.12724E+00 -5.15841E-01
  -1.51322E-01 -9.67505E-03 -7.08160E-02 -2.91178E-01 -6.09148E-01 -9.45969E-01 -1.16411E+00 -1.14568E+00 -8.22608E-01 -2.16151E-01
   5.54391E-01  1.29787E+00  1.80771E+00  1.93584E+00  1.54447E+00  6.64434E-01 -5.57650E-01 -1.87883E+00 -2.99002E+00 -3.60474E+00
  -3.49465E+00 -2.58826E+00 -1.08125E+00  6.75467E-01  2.25660E+00  3.22791E+00  3.26781E+00  2.32704E+00  6.80072E-01 -1.11565E+00
  -2.62303E+00 -3.55940E+00 -3.69069E+00 -3.00461E+00 -1.72811E+00 -3.00420E-01  8.66586E-01  1.68486E+00  2.20365E+00  2.46493E+00
   2.47921E+00  2.36567E+00  2.34333E+00  2.53250E+00  2.88927E+00  3.34327E+00  3.79165E+00  4.06728E+00  4.06861E+00  3.81393E+00
   3.45307E+00  3.18937E+00  3.16730E+00  3.41001E+00  3.83430E+00  4.33693E+00  4.80205E+00  5.17831E+00  5.50471E+00  5.88539E+00
   6.49031E+00  7.36756E+00  8.49646E+00  9.97915E+00  1.29525E+01  1.83354E+01  2.57593E+01  3.42095E+01  4.18864E+01  4.65217E+01
   4.65763E+01  4.23854E+01  3.58674E+01  2.90589E+01  2.28999E+01  1.72282E+01  1.18571E+01  7.30575E+00  4.69911E+00  3.70098E+00
   3.16443E+00  2.83248E+00  2.63910E+00  2.51722E+00  2.39304E+00  2.24234E+00  2.05762E+00  1.84458E+00  1.61565E+00  1.38577E+00
   1.16680E+00  9.75498E-01  8.26914E-01  7.19757E-01  6.42733E-01  5.86453E-01  5.48019E-01  5.28458E-01  5.27899E-01  5.44310E-01
   5.80107E-01  6.36696E-01  7.11730E-01  8.02916E-01  9.10830E-01  1.03540E+00  1.17576E+00  1.33133E+00  1.50132E+00  1.68385E+00
   1.87625E+00  2.07318E+00  2.26766E+00  2.45366E+00  2.62581E+00  2.77930E+00  2.90972E+00  3.01357E+00  3.08949E+00  3.13712E+00
   3.15690E+00  3.15077E+00  3.12193E+00  3.07469E+00  3.01447E+00  2.94771E+00  2.88184E+00  2.82570E+00  2.79044E+00  2.79256E+00
   2.86408E+00  3.05544E+00  3.32864E+00  3.57402E+00  3.67806E+00  3.53994E+00  3.11750E+00  2.46897E+00  1.73406E+00  1.12319E+00
   8.14024E-01  8.59719E-01  1.25005E+00  1.93445E+00  2.80160E+00  3.67910E+00  4.35811E+00  4.77848E+00  5.02467E+00  5.17771E+00
   5.27271E+00  5.33192E+00  5.38998E+00  5.47923E+00  5.57206E+00  5.56023E+00  5.36888E+00  4.98690E+00  4.47488E+00  3.96414E+00
   3.60371E+00  3.45781E+00  3.52476E+00  3.76799E+00  4.12086E+00  4.49324E+00  4.78089E+00  4.90473E+00  4.89712E+00  4.81126E+00
   4.66901E+00  4.46920E+00  4.21820E+00  3.96255E+00  3.74468E+00  3.54638E+00  3.35475E+00  3.16568E+00  2.97815E+00  2.79257E+00
   2.60999E+00  2.43179E+00  2.25954E+00  2.09493E+00  1.93970E+00  1.79556E+00  1.66409E+00  1.54676E+00  1.44492E+00  1.35990E+00
   1.29292E+00  1.24517E+00  1.21766E+00  1.21133E+00  1.22704E+00  1.26562E+00  1.32772E+00  1.41380E+00  1.52401E+00  1.65816E+00
   1.81568E+00  1.99552E+00  2.19600E+00  2.41476E+00  2.64867E+00  2.89391E+00  3.14594E+00  3.39961E+00  3.64919E+00  3.88856E+00
   4.11142E+00  4.31158E+00  4.48318E+00  4.62101E+00  4.72059E+00  4.77854E+00  4.79267E+00  4.76218E+00  4.68762E+00  4.57085E+00
   4.41492E+00  4.22392E+00  4.00275E+00  3.75698E+00  3.49244E+00  3.21502E+00  2.93040E+00  2.64389E+00  2.36024E+00  2.08362E+00
   1.81741E+00  1.56423E+00  1.32594E+00  1.10378E+00  8.98358E-01  7.09805E-01  5.37783E-01  3.81631E-01  2.40425E-01  1.13143E-01
  -1.33428E-03 -1.04133E-01 -1.96424E-01 -2.79315E-01 -3.53862E-01 -4.20982E-01 -4.81528E-01 -5.36253E-01 -5.85876E-01 -6.31007E-01
  -6.72190E-01 -7.09850E-01 -7.44387E-01 -7.76143E-01 -8.05463E-01 -8.32609E-01 -8.57816E-01 -8.81246E-01 -9.03084E-01 -9.23485E-01
  -9.42621E-01 -9.60595E-01 -9.77507E-01 -9.93417E-01 -1.00842E+00 -1.02261E+00 -1.03607E+00 -1.04884E+00 -1.06097E+00 -1.07249E+00
  -1.08345E+00 -1.09392E+00 -1.10393E+00 -1.11350E+00 -1.12265E+00 -1.13139E+00 -1.13978E+00 -1.14785E+00 -1.15562E+00 -1.16308E+00
  -1.17026E+00 -1.17715E+00 -1.18382E+00 -1.19026E+00 -1.19649E+00 -1.20249E+00 -1.20829E+00 -1.21389E+00 -1.21934E+00 -1.22463E+00
  -1.22976E+00 -1.23472E+00 -1.23953E+00 -1.24421E+00 -1.24878E+00 -1.25323E+00 -1.25756E+00 -1.26175E+00 -1.26584E+00 -1.26984E+00
  -1.27377E+00 -1.27759E+00 -1.28132E+00 -1.28494E+00 -1.28850E+00 -1.29199E+00 -1.29542E+00 -1.29876E+00
 NY background values follow
    -1.641E+00   -1.641E+00   -1.641E+00   -1.641E+00   -1.640E+00   -1.640E+00   -1.640E+00   -1.640E+00   -1.640E+00   -1.640E+00
    -1.640E+00   -1.640E+00   -1.639E+00   -1.639E+00   -1.639E+00   -1.639E+00   -1.639E+00   -1.639E+00   -1.639E+00   -1.639E+00
    -1.638E+00   -1.638E+00   -1.638E+00   -1.638E+00   -1.638E+00   -1.638E+00   -1.638E+00   -1.638E+00   -1.637E+00   -1.637E+00
    -1.637E+00   -1.637E+00   -1.637E+00   -1.637E+00   -1.637E+00   -1.637E+00   -1.637E+00   -1.636E+00   -1.636E+00   -1.636E+00
    -1.636E+00   -1.636E+00   -1.636E+00   -1.636E+00   -1.636E+00   -1.635E+00   -1.635E+00   -1.635E+00   -1.635E+00   -1.635E+00
    -1.635E+00   -1.635E+00   -1.635E+00   -1.634E+00   -1.634E+00   -1.634E+00   -1.634E+00   -1.634E+00   -1.634E+00   -1.634E+00
    -1.634E+00   -1.633E+00   -1.633E+00   -1.633E+00   -1.633E+00   -1.633E+00   -1.633E+00   -1.633E+00   -1.633E+00   -1.632E+00
    -1.632E+00   -1.632E+00   -1.632E+00   -1.632E+00   -1.632E+00   -1.632E+00   -1.632E+00   -1.631E+00   -1.631E+00   -1.631E+00
    -1.631E+00   -1.631E+00   -1.631E+00   -1.631E+00   -1.631E+00   -1.630E+00   -1.630E+00   -1.630E+00   -1.630E+00   -1.630E+00
    -1.630E+00   -1.630E+00   -1.630E+00   -1.629E+00   -1.629E+00   -1.629E+00   -1.629E+00   -1.629E+00   -1.629E+00   -1.629E+00
    -1.629E+00   -1.628E+00   -1.628E+00   -1.628E+00   -1.628E+00   -1.628E+00   -1.628E+00   -1.628E+00   -1.628E+00   -1.627E+00
    -1.627E+00   -1.627E+00   -1.627E+00   -1.627E+00   -1.627E+00   -1.627E+00   -1.627E+00   -1.626E+00   -1.626E+00   -1.626E+00
    -1.626E+00   -1.626E+00   -1.626E+00   -1.626E+00   -1.626E+00   -1.625E+00   -1.625E+00   -1.625E+00   -1.625E+00   -1.625E+00
    -1.625E+00   -1.625E+00   -1.625E+00   -1.624E+00   -1.624E+00   -1.624E+00   -1.624E+00   -1.624E+00   -1.624E+00   -1.624E+00
    -1.624E+00   -1.623E+00   -1.623E+00   -1.623E+00   -1.623E+00   -1.623E+00   -1.623E+00   -1.623E+00   -1.623E+00   -1.622E+00
    -1.622E+00   -1.622E+00   -1.622E+00   -1.622E+00   -1.622E+00   -1.622E+00   -1.622E+00   -1.621E+00   -1.621E+00   -1.621E+00
    -1.621E+00   -1.621E+00   -1.621E+00   -1.621E+00   -1.620E+00   -1.620E+00   -1.620E+00   -1.620E+00   -1.620E+00   -1.620E+00
    -1.620E+00   -1.620E+00   -1.619E+00   -1.619E+00   -1.619E+00   -1.619E+00   -1.619E+00   -1.619E+00   -1.619E+00   -1.619E+00
    -1.618E+00   -1.618E+00   -1.618E+00   -1.618E+00   -1.618E+00   -1.618E+00   -1.618E+00   -1.618E+00   -1.617E+00   -1.617E+00
    -1.617E+00   -1.617E+00   -1.617E+00   -1.617E+00   -1.617E+00   -1.617E+00   -1.616E+00   -1.616E+00   -1.616E+00   -1.616E+00
    -1.616E+00   -1.616E+00   -1.616E+00   -1.615E+00   -1.615E+00   -1.615E+00   -1.615E+00   -1.615E+00   -1.615E+00   -1.615E+00
    -1.615E+00   -1.614E+00   -1.614E+00   -1.614E+00   -1.614E+00   -1.614E+00   -1.614E+00   -1.614E+00   -1.614E+00   -1.613E+00
    -1.613E+00   -1.613E+00   -1.613E+00   -1.613E+00   -1.613E+00   -1.613E+00   -1.612E+00   -1.612E+00   -1.612E+00   -1.612E+00
    -1.612E+00   -1.612E+00   -1.612E+00   -1.612E+00   -1.611E+00   -1.611E+00   -1.611E+00   -1.611E+00   -1.611E+00   -1.611E+00
    -1.611E+00   -1.611E+00   -1.610E+00   -1.610E+00   -1.610E+00   -1.610E+00   -1.610E+00   -1.610E+00   -1.610E+00   -1.609E+00
    -1.609E+00   -1.609E+00   -1.609E+00   -1.609E+00   -1.609E+00   -1.609E+00   -1.609E+00   -1.608E+00   -1.608E+00   -1.608E+00
    -1.608E+00   -1.608E+00   -1.608E+00   -1.608E+00   -1.607E+00   -1.607E+00   -1.607E+00   -1.607E+00   -1.607E+00   -1.607E+00
    -1.607E+00   -1.607E+00   -1.606E+00   -1.606E+00   -1.606E+00   -1.606E+00   -1.606E+00   -1.606E+00   -1.606E+00   -1.605E+00
    -1.605E+00   -1.605E+00   -1.605E+00   -1.605E+00   -1.605E+00   -1.605E+00   -1.605E+00   -1.604E+00   -1.604E+00   -1.604E+00
    -1.604E+00   -1.604E+00   -1.604E+00   -1.604E+00   -1.603E+00   -1.603E+00   -1.603E+00   -1.603E+00   -1.603E+00   -1.603E+00
    -1.603E+00   -1.603E+00   -1.602E+00   -1.602E+00   -1.602E+00   -1.602E+00   -1.602E+00   -1.602E+00   -1.602E+00   -1.601E+00
    -1.601E+00   -1.601E+00   -1.601E+00   -1.601E+00   -1.601E+00   -1.601E+00   -1.601E+00   -1.600E+00   -1.600E+00   -1.600E+00
    -1.600E+00   -1.600E+00   -1.600E+00   -1.600E+00   -1.599E+00   -1.599E+00   -1.599E+00   -1.599E+00   -1.599E+00   -1.599E+00
    -1.599E+00   -1.598E+00   -1.598E+00   -1.598E+00   -1.598E+00   -1.598E+00   -1.598E+00   -1.598E+00   -1.598E+00   -1.597E+00
    -1.597E+00   -1.597E+00   -1.597E+00   -1.597E+00   -1.597E+00   -1.597E+00   -1.596E+00   -1.596E+00   -1.596E+00   -1.596E+00
    -1.596E+00   -1.596E+00   -1.596E+00   -1.596E+00   -1.595E+00   -1.595E+00   -1.595E+00   -1.595E+00   -1.595E+00   -1.595E+00
    -1.595E+00   -1.594E+00   -1.594E+00   -1.594E+00   -1.594E+00   -1.594E+00   -1.594E+00   -1.594E+00   -1.593E+00   -1.593E+00
    -1.593E+00   -1.593E+00   -1.593E+00   -1.593E+00   -1.593E+00   -1.593E+00   -1.592E+00   -1.592E+00   -1.592E+00   -1.592E+00
    -1.592E+00   -1.592E+00   -1.592E+00   -1.591E+00   -1.591E+00   -1.591E+00   -1.591E+00   -1.591E+00   -1.591E+00   -1.591E+00
    -1.590E+00   -1.590E+00   -1.590E+00   -1.590E+00   -1.590E+00   -1.590E+00   -1.590E+00   -1.590E+00   -1.589E+00   -1.589E+00
    -1.589E+00   -1.589E+00   -1.589E+00   -1.589E+00   -1.589E+00   -1.588E+00   -1.588E+00   -1.588E+00   -1.588E+00   -1.588E+00
    -1.588E+00   -1.588E+00   -1.587E+00   -1.587E+00   -1.587E+00   -1.587E+00   -1.587E+00   -1.587E+00   -1.587E+00   -1.587E+00
    -1.586E+00   -1.586E+00   -1.586E+00   -1.586E+00   -1.586E+00   -1.586E+00   -1.586E+00   -1.585E+00   -1.585E+00   -1.585E+00
    -1.585E+00   -1.585E+00   -1.585E+00   -1.585E+00   -1.584E+00   -1.584E+00   -1.584E+00   -1.584E+00   -1.584E+00   -1.584E+00
    -1.584E+00   -1.583E+00   -1.583E+00   -1.583E+00   -1.583E+00   -1.583E+00   -1.583E+00   -1.583E+00   -1.583E+00   -1.582E+00
    -1.582E+00   -1.582E+00   -1.582E+00   -1.582E+00   -1.582E+00   -1.582E+00   -1.581E+00   -1.581E+00   -1.581E+00   -1.581E+00
    -1.581E+00   -1.581E+00   -1.581E+00   -1.580E+00   -1.580E+00   -1.580E+00   -1.580E+00   -1.580E+00   -1.580E+00   -1.580E+00
    -1.579E+00   -1.579E+00   -1.579E+00   -1.579E+00   -1.579E+00   -1.579E+00   -1.579E+00   -1.579E+00   -1.578E+00   -1.578E+00
    -1.578E+00   -1.578E+00   -1.578E+00   -1.578E+00   -1.578E+00   -1.577E+00   -1.577E+00   -1.577E+00   -1.577E+00   -1.577E+00
    -1.577E+00   -1.577E+00   -1.576E+00   -1.576E+00   -1.576E+00   -1.576E+00   -1.576E+00   -1.576E+00
 Ala      Conc. = 1.53E+02
