 LCModel (Version 6.3-1L) Copyright: S.W. Provencher.          Ref.: Magn. Reson. Med. 30:672-679 (1993).                
 Slice#1 Row#11 Col#6  PD_05_press_1_raw_act
 36 lines in following concentration table = NCONC+1
    Conc.  %SD /Cr+PCr  Metabolite                                         
  290.762  34%   0.335 Ala                                                 
    0.000 999%   0.000 Asp                                                 
  210.225  84%   0.242 Cr                                                  
  657.390  28%   0.758 PCr                                                 
    0.000 999%   0.000 GABA                                                
    0.000 999%   0.000 Glc                                                 
  910.901  23%   1.050 Gln                                                 
 1.38E+03  17%   1.592 Glu                                                 
  323.698   5%   0.373 GPC                                                 
    0.000 999%   0.000 PCh                                                 
  255.831  23%   0.295 GSH                                                 
  880.774  23%   1.015 Ins                                                 
    0.000 999%   0.000 Lac                                                 
 2.03E+03   6%   2.338 NAA                                                 
  177.143  77%   0.204 NAAG                                                
   91.483  23%   0.105 Scyllo                                              
  111.716 135%   0.129 Tau                                                 
  129.335  64%   0.149 -CrCH2                                              
  323.698   5%   0.373 GPC+PCh                                             
 2.21E+03   3%   2.542 NAA+NAAG                                            
  867.615   5%   1.000 Cr+PCr                                              
 2.29E+03  15%   2.642 Glu+Gln                                             
    0.000 999%   0.000 Lip13a                                              
  313.916  65%   0.362 Lip13b                                              
   78.355  72% 9.0E-02 Lip09                                               
  988.961  14%   1.140 MM09                                                
   48.088  68% 5.5E-02 Lip20                                               
 2.23E+03  11%   2.565 MM20                                                
  246.024  35%   0.284 MM12                                                
 1.47E+03  17%   1.690 MM14                                                
  927.361  18%   1.069 MM17                                                
  313.916  65%   0.362 Lip13a+Lip13b                                       
 2.03E+03  12%   2.335 MM14+Lip13a+Lip13b+MM12                             
 1.07E+03  12%   1.230 MM09+Lip09                                          
 2.27E+03  11%   2.621 MM20+Lip20                                          
   6 lines in following misc. output table
  FWHM = 0.054 ppm    S/N =  14                                            
  Data shift = 0.015 ppm                                                   
  Ph: -34 deg      -4.0 deg/ppm                                            
  alphaB,S = 9.4E-01,   2.0E+02                                            
   14 spline knots.   Ns = 8(1)                                            
  (13) 4 infls.   (11) 1 extrs.                                            
  498 points on ppm-axis = NY
      4.000000     3.992357     3.984714     3.977070     3.969427     3.961784     3.954141     3.946497     3.938854     3.931211
      3.923568     3.915925     3.908281     3.900638     3.892995     3.885352     3.877708     3.870065     3.862422     3.854779
      3.847136     3.839492     3.831849     3.824206     3.816563     3.808919     3.801276     3.793633     3.785990     3.778347
      3.770703     3.763060     3.755417     3.747774     3.740130     3.732487     3.724844     3.717201     3.709558     3.701914
      3.694271     3.686628     3.678985     3.671341     3.663698     3.656055     3.648412     3.640769     3.633125     3.625482
      3.617839     3.610196     3.602552     3.594909     3.587266     3.579623     3.571980     3.564336     3.556693     3.549050
      3.541407     3.533763     3.526120     3.518477     3.510834     3.503191     3.495547     3.487904     3.480261     3.472618
      3.464974     3.457331     3.449688     3.442045     3.434402     3.426758     3.419115     3.411472     3.403829     3.396185
      3.388542     3.380899     3.373256     3.365613     3.357969     3.350326     3.342683     3.335040     3.327396     3.319753
      3.312110     3.304467     3.296824     3.289180     3.281537     3.273894     3.266251     3.258607     3.250964     3.243321
      3.235678     3.228034     3.220391     3.212748     3.205105     3.197462     3.189818     3.182175     3.174532     3.166889
      3.159245     3.151602     3.143959     3.136316     3.128673     3.121029     3.113386     3.105743     3.098100     3.090456
      3.082813     3.075170     3.067527     3.059884     3.052240     3.044597     3.036954     3.029311     3.021667     3.014024
      3.006381     2.998738     2.991095     2.983451     2.975808     2.968165     2.960522     2.952878     2.945235     2.937592
      2.929949     2.922306     2.914662     2.907019     2.899376     2.891733     2.884089     2.876446     2.868803     2.861160
      2.853517     2.845873     2.838230     2.830587     2.822944     2.815300     2.807657     2.800014     2.792371     2.784728
      2.777084     2.769441     2.761798     2.754155     2.746511     2.738868     2.731225     2.723582     2.715939     2.708295
      2.700652     2.693009     2.685366     2.677722     2.670079     2.662436     2.654793     2.647150     2.639506     2.631863
      2.624220     2.616577     2.608933     2.601290     2.593647     2.586004     2.578361     2.570717     2.563074     2.555431
      2.547788     2.540144     2.532501     2.524858     2.517215     2.509572     2.501928     2.494285     2.486642     2.478999
      2.471355     2.463712     2.456069     2.448426     2.440783     2.433139     2.425496     2.417853     2.410210     2.402566
      2.394923     2.387280     2.379637     2.371994     2.364350     2.356707     2.349064     2.341421     2.333777     2.326134
      2.318491     2.310848     2.303205     2.295561     2.287918     2.280275     2.272632     2.264988     2.257345     2.249702
      2.242059     2.234416     2.226772     2.219129     2.211486     2.203843     2.196199     2.188556     2.180913     2.173270
      2.165627     2.157983     2.150340     2.142697     2.135054     2.127410     2.119767     2.112124     2.104481     2.096838
      2.089194     2.081551     2.073908     2.066265     2.058621     2.050978     2.043335     2.035692     2.028049     2.020405
      2.012762     2.005119     1.997476     1.989833     1.982190     1.974546     1.966903     1.959260     1.951617     1.943974
      1.936331     1.928688     1.921045     1.913402     1.905759     1.898115     1.890472     1.882829     1.875186     1.867543
      1.859900     1.852257     1.844614     1.836971     1.829327     1.821684     1.814041     1.806398     1.798755     1.791112
      1.783469     1.775826     1.768183     1.760540     1.752896     1.745253     1.737610     1.729967     1.722324     1.714681
      1.707038     1.699395     1.691752     1.684108     1.676465     1.668822     1.661179     1.653536     1.645893     1.638250
      1.630607     1.622964     1.615321     1.607677     1.600034     1.592391     1.584748     1.577105     1.569462     1.561819
      1.554176     1.546533     1.538890     1.531246     1.523603     1.515960     1.508317     1.500674     1.493031     1.485388
      1.477745     1.470102     1.462458     1.454815     1.447172     1.439529     1.431886     1.424243     1.416600     1.408957
      1.401314     1.393671     1.386027     1.378384     1.370741     1.363098     1.355455     1.347812     1.340169     1.332526
      1.324883     1.317240     1.309596     1.301953     1.294310     1.286667     1.279024     1.271381     1.263738     1.256095
      1.248452     1.240808     1.233165     1.225522     1.217879     1.210236     1.202593     1.194950     1.187307     1.179664
      1.172021     1.164377     1.156734     1.149091     1.141448     1.133805     1.126162     1.118519     1.110876     1.103233
      1.095590     1.087946     1.080303     1.072660     1.065017     1.057374     1.049731     1.042088     1.034445     1.026802
      1.019158     1.011515     1.003872     0.996229     0.988586     0.980943     0.973300     0.965657     0.958014     0.950371
      0.942727     0.935084     0.927441     0.919798     0.912155     0.904512     0.896869     0.889226     0.881583     0.873940
      0.866296     0.858653     0.851010     0.843367     0.835724     0.828081     0.820438     0.812795     0.805152     0.797508
      0.789865     0.782222     0.774579     0.766936     0.759293     0.751650     0.744007     0.736364     0.728721     0.721077
      0.713434     0.705791     0.698148     0.690505     0.682862     0.675219     0.667576     0.659933     0.652290     0.644646
      0.637003     0.629360     0.621717     0.614074     0.606431     0.598788     0.591145     0.583502     0.575858     0.568215
      0.560572     0.552929     0.545286     0.537643     0.530000     0.522357     0.514714     0.507071     0.499427     0.491784
      0.484141     0.476498     0.468855     0.461212     0.453569     0.445925     0.438282     0.430639     0.422996     0.415353
      0.407710     0.400067     0.392424     0.384780     0.377137     0.369494     0.361851     0.354208     0.346565     0.338922
      0.331278     0.323635     0.315992     0.308349     0.300706     0.293063     0.285420     0.277777     0.270133     0.262490
      0.254847     0.247204     0.239561     0.231918     0.224275     0.216631     0.208988     0.201345
 NY phased data points follow
  -1.82019E-01  3.74312E+00 -1.41221E+00  4.66087E+00  1.86973E+00  3.52671E+00  6.98608E+00  1.00504E+01  1.03008E+01  1.28955E+01
   1.27783E+01  1.24521E+01  1.11420E+01  1.38764E+01  8.18342E+00  8.86732E+00  2.23042E+00  2.52288E+00  1.33549E+00  3.92279E+00
  -2.73696E+00  2.17761E+00 -3.18451E+00  2.99465E+00  1.65932E+00 -1.67552E+00  2.57637E-01  1.87588E+00  2.56695E+00  5.26048E+00
   2.96318E+00  7.54191E+00  8.18638E-01  5.97861E+00  1.71308E+00  4.03326E+00  1.26810E+00  3.86912E+00  3.98198E-01  3.73918E+00
   1.78243E+00  3.92366E+00  3.41823E+00  2.24855E-01  5.50721E+00  2.76351E+00  4.63525E+00  6.43788E+00  5.09098E+00  7.48143E+00
   4.67565E+00  3.17170E+00  1.29234E-01  5.13777E+00  1.09185E+00  1.24925E+00  9.67743E-01 -2.51956E+00  2.14452E-01  2.88135E+00
  -1.58826E+00  2.74311E+00 -1.57117E+00  2.14162E-01 -1.01569E+00 -2.22030E+00 -3.42016E+00 -3.03974E+00 -2.56978E+00 -1.31365E+00
  -4.65240E+00 -9.99543E-01  4.64611E-01 -3.64317E+00 -1.31803E+00 -8.79866E-01 -1.46821E+00 -1.33980E+00 -3.27769E+00 -2.35030E+00
  -2.05338E+00 -2.55972E-01  1.89696E-01 -1.74326E-01 -2.52865E+00  1.15254E+00  9.95544E-01  6.30817E-01  1.11390E-01 -1.43951E+00
   2.16744E+00  2.04119E+00  5.01916E-01  1.81724E+00 -3.20624E-01  3.87483E+00  1.77083E-03  3.46786E+00  3.49951E+00  9.99409E+00
   1.43402E+01  1.70152E+01  2.32777E+01  2.40692E+01  2.49761E+01  2.01874E+01  1.49407E+01  1.18295E+01  5.54011E+00  6.50766E+00
   4.19509E+00  1.02629E+00  7.68450E-01  1.14365E+00  1.36199E+00  6.09435E-01  3.77839E+00  3.65008E+00  4.29101E-01  2.64722E+00
   9.50766E-01  4.88281E+00  6.26432E+00  8.32716E+00  1.09171E+01  1.43181E+01  2.05692E+01  2.85424E+01  2.59363E+01  2.16271E+01
   1.35587E+01  1.47663E+01  1.14808E+01  4.39466E+00  2.59473E+00  2.88098E+00 -2.78811E+00  2.61803E+00 -2.25564E+00 -1.73994E+00
   3.51630E-01 -4.53974E-01 -2.92953E+00 -1.27852E+00 -4.60700E+00 -2.12350E+00 -3.02595E+00 -3.79045E+00 -4.48565E+00 -2.77384E+00
  -4.81073E+00 -6.94447E-01 -5.03395E+00 -1.35748E+00 -4.73913E+00  3.65569E-01 -5.17687E+00 -2.79951E+00 -3.44888E+00 -1.06186E+00
  -3.27744E+00 -2.94829E+00 -4.32834E+00 -2.31559E+00 -3.31459E+00 -6.65227E-01 -2.88086E+00 -7.19700E+00 -7.98373E+00 -7.20217E+00
  -8.80774E+00 -5.78257E+00 -8.52398E+00 -1.18660E+01 -1.17464E+01 -1.26879E+01 -1.30641E+01 -1.56343E+01 -1.26017E+01 -1.06675E+01
  -1.02792E+01 -9.56978E+00 -9.69573E+00 -9.79428E+00 -8.01507E+00 -9.22307E+00 -6.63997E+00 -3.85314E+00 -3.32713E+00 -6.81465E+00
  -5.26105E+00 -4.35522E+00 -5.09983E+00 -5.42015E+00 -4.44719E+00 -5.05343E+00 -6.47469E+00 -5.18542E+00 -7.44826E+00 -8.07980E+00
  -6.70211E+00 -6.54277E+00 -3.12190E+00 -5.78200E+00 -5.94347E-01 -2.61645E-02 -3.92709E+00 -2.45376E+00 -5.42395E+00 -4.15384E+00
  -6.38171E+00 -1.71405E+00 -3.32540E+00  3.21535E+00  2.34666E+00  7.78705E+00  6.42176E+00  8.62370E+00  4.85686E+00  2.33920E-01
  -8.02349E-01 -5.81930E+00 -3.17087E+00 -3.71383E+00 -2.73578E+00  4.47960E-01  2.75815E+00  7.52153E-01  2.52918E+00  3.90048E+00
   5.84237E+00  3.66817E+00  2.62101E+00  1.89060E+00  1.72184E+00  3.54836E+00  2.29922E+00  5.18169E+00  5.21906E+00  1.28231E+00
   5.54221E+00 -3.00342E+00 -1.90014E+00  2.52904E+00  9.14525E-01  2.34651E+00  6.65787E+00  6.00414E+00  6.40867E+00  7.38179E+00
   7.46513E+00  1.00547E+01  8.71604E+00  1.80202E+01  2.46121E+01  3.43907E+01  3.73826E+01  4.27180E+01  4.84027E+01  6.20177E+01
   6.88077E+01  6.97924E+01  5.98440E+01  4.66924E+01  3.71320E+01  2.71118E+01  1.99497E+01  1.26563E+01  6.97357E+00  6.36745E+00
   3.30068E+00  2.59015E+00  3.10528E+00  6.89871E+00  7.76449E-01  1.42623E+00 -1.32987E-02  1.60431E+00  1.11098E+00  1.98346E+00
  -7.12562E-01  3.60809E+00 -2.63984E+00 -4.65207E-01 -7.16130E-01  9.27001E-02 -2.24382E+00  1.63907E+00 -5.49598E-01 -2.14020E+00
   6.07904E-01 -8.22118E-01  1.53654E+00 -6.28642E-01  5.48898E-01  2.30117E+00 -8.41662E-01  1.40343E+00  8.60943E-01  2.27734E+00
   3.30734E+00  2.34397E+00  1.18634E+00  4.59717E+00  4.22920E+00  2.33362E+00  2.61984E+00  1.50936E+00  5.09114E+00 -1.75941E-01
   3.95208E+00  6.73734E+00  2.66545E+00  5.45584E+00  6.48380E+00  5.69410E+00  5.03623E+00  7.20823E+00  2.92167E+00  4.53298E+00
   4.70188E+00  3.77376E+00  2.14174E+00  2.46257E+00  3.78130E+00  2.83997E+00  5.85679E+00  5.96709E+00  5.90872E+00  3.94144E+00
   1.73288E+00  4.77454E+00  1.84120E+00  1.50619E+00  2.02646E+00  3.40712E+00  3.30617E+00  5.55183E+00  4.17893E+00  7.65196E+00
   5.02994E+00  6.16033E+00  5.66037E+00  7.37414E+00  6.49606E+00  5.16151E+00  8.43139E+00  6.78552E+00  4.70454E+00  6.84817E+00
   4.29440E+00  5.87245E+00  4.13813E+00  4.52907E+00  6.57404E+00  3.54081E-01  3.39347E+00 -7.49376E-01 -2.11128E+00  1.85137E+00
  -1.45790E+00  2.08992E+00 -7.40674E-01  6.42887E-01  7.38666E-02 -1.28109E+00 -1.90435E+00 -2.75790E+00  1.30744E+00 -4.69118E+00
  -5.38802E+00  5.75986E-01 -1.50987E+00 -3.01446E+00 -2.61368E-01 -3.37632E+00 -2.35121E+00 -3.45182E+00 -4.88039E+00 -3.60892E+00
  -3.82251E+00 -3.88020E+00 -4.39039E+00 -4.30630E+00 -4.96423E+00 -3.74893E+00 -7.87426E+00 -2.37734E+00 -3.08604E+00 -3.70296E+00
  -2.71146E+00 -1.17057E+00 -8.61288E-01  7.77967E-01 -2.31608E+00  1.05910E+00  7.26477E-01  5.88691E+00  1.59773E+00  2.17992E+00
   1.98292E-01  5.57401E+00  5.00377E+00  5.60687E+00  6.20956E+00  5.58146E-01  4.81183E+00  1.65914E+00  4.98510E+00  5.97916E+00
   1.88764E+00  5.84025E+00  4.32264E+00  3.90362E+00 -1.39977E+00  2.74871E+00  1.45352E-01  1.46296E+00 -1.09976E+00  2.88797E+00
   1.16957E+00 -1.58495E+00  2.90955E+00 -2.15721E-01 -7.44719E-01 -1.29243E+00 -6.06991E-01 -2.24675E+00 -6.37430E-01 -2.25641E+00
  -3.50869E+00 -2.39774E+00 -3.38324E+00 -1.21033E-01 -3.62670E+00 -2.60994E+00 -1.21563E+00 -3.64642E+00 -4.79945E+00 -1.68771E+00
  -9.81309E-01 -1.92839E+00 -3.92012E+00 -3.67322E-01 -2.56933E+00 -1.24916E+00 -4.13202E+00 -1.47364E+00  2.97426E-01 -3.96205E+00
  -4.36944E+00 -3.20545E+00 -3.55290E+00 -2.84780E+00 -2.63450E+00  1.03311E+00 -4.69185E+00 -1.11725E+00 -1.62180E+00 -3.13459E+00
  -1.35297E+00 -1.99396E+00 -3.06629E+00 -2.44713E-01 -2.17041E+00 -4.18784E+00 -2.08092E+00 -3.54865E+00 -3.90767E+00 -2.84881E+00
  -1.27317E+00 -1.45681E+00  4.05511E-01  4.95909E-02 -4.67708E+00 -3.41856E+00 -1.76704E-02 -4.72669E+00 -1.17776E+00 -5.44374E-01
   1.22808E+00 -2.45087E+00 -1.72228E+00 -1.19831E+00 -1.72575E+00  1.97881E-01 -2.87033E+00 -2.84142E+00 -3.95757E+00 -4.85802E-01
  -2.59988E+00 -3.81895E-01 -2.97795E+00 -2.69908E+00 -1.67176E+00 -4.46845E+00  2.90656E-01  5.58228E-01
 NY points of the fit to the data follow
  -1.89652E-01 -1.05994E-01  4.73125E-01  1.45003E+00  2.74714E+00  4.33430E+00  6.28843E+00  8.59314E+00  1.09720E+01  1.28923E+01
   1.38140E+01  1.35167E+01  1.22152E+01  1.03548E+01  8.36559E+00  6.53529E+00  4.96829E+00  3.65433E+00  2.60484E+00  1.90511E+00
   1.41267E+00  1.06236E+00  9.61185E-01  1.02074E+00  1.11294E+00  1.15680E+00  1.25375E+00  1.61957E+00  2.39904E+00  3.57168E+00
   4.88421E+00  5.90986E+00  6.34327E+00  6.09428E+00  5.25289E+00  4.04179E+00  2.72281E+00  1.54452E+00  6.78604E-01  2.85139E-01
   4.27569E-01  9.20299E-01  1.55736E+00  2.23457E+00  2.99454E+00  3.86021E+00  4.71069E+00  5.30454E+00  5.37478E+00  4.79651E+00
   3.71480E+00  2.44922E+00  1.31416E+00  4.69952E-01 -8.65401E-02 -4.26191E-01 -5.75887E-01 -5.22621E-01 -2.88470E-01  1.66207E-02
   2.39853E-01  2.62832E-01  5.08836E-02 -3.32791E-01 -7.38260E-01 -1.04092E+00 -1.19346E+00 -1.20551E+00 -1.11303E+00 -9.51919E-01
  -7.55804E-01 -5.68976E-01 -4.35529E-01 -3.95717E-01 -4.51687E-01 -5.85985E-01 -7.82594E-01 -1.01366E+00 -1.19692E+00 -1.19334E+00
  -1.04609E+00 -8.45350E-01 -5.95423E-01 -2.60380E-01  1.91802E-01  7.08981E-01  1.10261E+00  1.13503E+00  7.33229E-01  5.07936E-02
  -6.61932E-01 -1.22470E+00 -1.60262E+00 -1.79735E+00 -1.55823E+00 -2.85892E-01  1.79304E+00  4.19806E+00  6.74565E+00  9.71642E+00
   1.35163E+01  1.80097E+01  2.21493E+01  2.43980E+01  2.38080E+01  2.07149E+01  1.63949E+01  1.20411E+01  8.22694E+00  5.06544E+00
   2.46390E+00  3.64400E-01 -1.09613E+00 -1.73378E+00 -1.95685E+00 -2.05767E+00 -2.08696E+00 -2.02805E+00 -1.67156E+00 -4.31516E-01
   1.61592E+00  3.98347E+00  6.49946E+00  9.39262E+00  1.30201E+01  1.73442E+01  2.15014E+01  2.40452E+01  2.39468E+01  2.13552E+01
   1.74013E+01  1.32809E+01  9.59422E+00  6.42799E+00  3.67363E+00  1.28671E+00 -5.38120E-01 -1.46994E+00 -1.74913E+00 -1.72984E+00
  -1.57680E+00 -1.41906E+00 -1.34371E+00 -1.37059E+00 -1.48356E+00 -1.66193E+00 -1.87690E+00 -2.10823E+00 -2.34066E+00 -2.55661E+00
  -2.74765E+00 -2.90608E+00 -3.04756E+00 -3.23027E+00 -3.43863E+00 -3.62081E+00 -3.74466E+00 -3.81714E+00 -3.94443E+00 -4.19920E+00
  -4.52864E+00 -4.78712E+00 -4.85738E+00 -4.75626E+00 -4.64128E+00 -4.68821E+00 -4.95951E+00 -5.39904E+00 -5.90996E+00 -6.38304E+00
  -6.74113E+00 -7.02259E+00 -7.28927E+00 -7.61927E+00 -7.97531E+00 -8.21381E+00 -8.24064E+00 -8.06964E+00 -7.83928E+00 -7.73247E+00
  -7.74615E+00 -7.72249E+00 -7.53998E+00 -7.20034E+00 -6.78867E+00 -6.37624E+00 -5.92241E+00 -5.30418E+00 -4.47609E+00 -3.57034E+00
  -2.85472E+00 -2.50099E+00 -2.47755E+00 -2.63640E+00 -2.83396E+00 -2.95621E+00 -2.88009E+00 -2.56652E+00 -1.98063E+00 -1.17021E+00
  -2.96694E-01  3.94575E-01  7.16939E-01  6.45458E-01  9.45071E-02 -1.06270E+00 -2.73590E+00 -4.57934E+00 -6.04843E+00 -6.72596E+00
  -6.49536E+00 -5.45679E+00 -3.83967E+00 -1.88959E+00  6.94100E-02  1.56118E+00  2.19420E+00  1.81569E+00  5.07438E-01 -1.41189E+00
  -3.47970E+00 -5.16571E+00 -6.05018E+00 -5.92362E+00 -4.83374E+00 -3.11944E+00 -1.23906E+00  3.20826E-01  1.34968E+00  1.93332E+00
   2.20209E+00  2.27005E+00  2.22726E+00  2.17417E+00  2.22148E+00  2.45882E+00  2.89912E+00  3.44761E+00  3.88130E+00  3.96412E+00
   3.62513E+00  2.98306E+00  2.33153E+00  1.98731E+00  2.08764E+00  2.57282E+00  3.31550E+00  4.23313E+00  5.31790E+00  6.49535E+00
   7.69964E+00  9.25284E+00  1.25848E+01  1.81080E+01  2.44705E+01  3.07852E+01  3.71606E+01  4.43944E+01  5.28701E+01  6.13066E+01
   6.66884E+01  6.62403E+01  5.96742E+01  4.93783E+01  3.83872E+01  2.85579E+01  2.04631E+01  1.39067E+01  8.56006E+00  4.48413E+00
   2.24597E+00  1.43394E+00  1.04209E+00  8.13372E-01  6.65583E-01  5.26629E-01  3.52145E-01  1.51289E-01 -6.28446E-02 -2.75515E-01
  -4.72679E-01 -6.42094E-01 -7.77918E-01 -8.76157E-01 -9.36913E-01 -9.67759E-01 -9.75935E-01 -9.62856E-01 -9.24075E-01 -8.53866E-01
  -7.49556E-01 -6.11521E-01 -4.38567E-01 -2.32546E-01  1.79757E-03  2.59472E-01  5.37010E-01  8.31031E-01  1.13811E+00  1.45481E+00
   1.77636E+00  2.09597E+00  2.40573E+00  2.69649E+00  2.95952E+00  3.18761E+00  3.37539E+00  3.51968E+00  3.61929E+00  3.67514E+00
   3.69100E+00  3.67240E+00  3.62636E+00  3.56189E+00  3.48960E+00  3.42162E+00  3.37157E+00  3.35562E+00  3.39653E+00  3.53665E+00
   3.80167E+00  4.07916E+00  4.30168E+00  4.48666E+00  4.66776E+00  4.81825E+00  4.80698E+00  4.46983E+00  3.83564E+00  3.06063E+00
   2.34771E+00  1.88203E+00  1.76170E+00  2.03227E+00  2.71158E+00  3.72138E+00  4.84256E+00  5.80316E+00  6.40834E+00  6.58775E+00
   6.45936E+00  6.17247E+00  5.82175E+00  5.45405E+00  5.09199E+00  4.77201E+00  4.57501E+00  4.49771E+00  4.48992E+00  4.51335E+00
   4.53122E+00  4.50687E+00  4.40737E+00  4.20843E+00  3.89834E+00  3.48003E+00  2.97036E+00  2.39719E+00  1.79447E+00  1.19679E+00
   6.34223E-01  1.28903E-01 -3.06557E-01 -6.68437E-01 -9.60169E-01 -1.18985E+00 -1.36802E+00 -1.50561E+00 -1.61259E+00 -1.69702E+00
  -1.76490E+00 -1.82025E+00 -1.86566E+00 -1.90254E+00 -1.93146E+00 -1.95224E+00 -1.96425E+00 -1.96655E+00 -1.95818E+00 -1.93802E+00
  -1.90485E+00 -1.85722E+00 -1.79360E+00 -1.71237E+00 -1.61202E+00 -1.49093E+00 -1.34748E+00 -1.17998E+00 -9.86916E-01 -7.67071E-01
  -5.19710E-01 -2.44543E-01  5.80930E-02  3.87124E-01  7.40410E-01  1.11467E+00  1.50536E+00  1.90684E+00  2.31232E+00  2.71402E+00
   3.10318E+00  3.47045E+00  3.80623E+00  4.10123E+00  4.34681E+00  4.53537E+00  4.66068E+00  4.71833E+00  4.70594E+00  4.62349E+00
   4.47312E+00  4.25911E+00  3.98747E+00  3.66586E+00  3.30308E+00  2.90879E+00  2.49285E+00  2.06492E+00  1.63400E+00  1.20832E+00
   7.95036E-01  4.00100E-01  2.80759E-02 -3.17808E-01 -6.35602E-01 -9.24353E-01 -1.18402E+00 -1.41530E+00 -1.61956E+00 -1.79860E+00
  -1.95451E+00 -2.08938E+00 -2.20533E+00 -2.30444E+00 -2.38877E+00 -2.46022E+00 -2.52050E+00 -2.57103E+00 -2.61311E+00 -2.64785E+00
  -2.67635E+00 -2.69948E+00 -2.71797E+00 -2.73236E+00 -2.74318E+00 -2.75088E+00 -2.75593E+00 -2.75867E+00 -2.75934E+00 -2.75811E+00
  -2.75520E+00 -2.75082E+00 -2.74519E+00 -2.73842E+00 -2.73058E+00 -2.72172E+00 -2.71196E+00 -2.70141E+00 -2.69022E+00 -2.67836E+00
  -2.66587E+00 -2.65276E+00 -2.63913E+00 -2.62505E+00 -2.61058E+00 -2.59569E+00 -2.58037E+00 -2.56464E+00 -2.54861E+00 -2.53231E+00
  -2.51575E+00 -2.49887E+00 -2.48169E+00 -2.46423E+00 -2.44659E+00 -2.42875E+00 -2.41072E+00 -2.39242E+00 -2.37389E+00 -2.35519E+00
  -2.33636E+00 -2.31737E+00 -2.29820E+00 -2.27880E+00 -2.25923E+00 -2.23952E+00 -2.21970E+00 -2.19972E+00 -2.17955E+00 -2.15915E+00
  -2.13859E+00 -2.11790E+00 -2.09708E+00 -2.07603E+00 -2.05473E+00 -2.03318E+00 -2.01143E+00 -1.98946E+00
 NY background values follow
    -2.493E+00   -2.503E+00   -2.514E+00   -2.524E+00   -2.535E+00   -2.545E+00   -2.556E+00   -2.566E+00   -2.577E+00   -2.587E+00
    -2.598E+00   -2.608E+00   -2.618E+00   -2.629E+00   -2.639E+00   -2.650E+00   -2.660E+00   -2.671E+00   -2.681E+00   -2.692E+00
    -2.702E+00   -2.712E+00   -2.723E+00   -2.733E+00   -2.744E+00   -2.754E+00   -2.764E+00   -2.775E+00   -2.785E+00   -2.795E+00
    -2.806E+00   -2.816E+00   -2.826E+00   -2.837E+00   -2.847E+00   -2.857E+00   -2.868E+00   -2.878E+00   -2.888E+00   -2.899E+00
    -2.909E+00   -2.919E+00   -2.930E+00   -2.940E+00   -2.950E+00   -2.961E+00   -2.971E+00   -2.981E+00   -2.991E+00   -3.002E+00
    -3.012E+00   -3.022E+00   -3.032E+00   -3.043E+00   -3.053E+00   -3.063E+00   -3.073E+00   -3.084E+00   -3.094E+00   -3.104E+00
    -3.114E+00   -3.124E+00   -3.135E+00   -3.145E+00   -3.155E+00   -3.165E+00   -3.175E+00   -3.186E+00   -3.196E+00   -3.206E+00
    -3.216E+00   -3.226E+00   -3.237E+00   -3.247E+00   -3.257E+00   -3.267E+00   -3.277E+00   -3.288E+00   -3.298E+00   -3.308E+00
    -3.318E+00   -3.328E+00   -3.339E+00   -3.349E+00   -3.359E+00   -3.369E+00   -3.380E+00   -3.390E+00   -3.400E+00   -3.410E+00
    -3.420E+00   -3.431E+00   -3.441E+00   -3.451E+00   -3.461E+00   -3.471E+00   -3.482E+00   -3.492E+00   -3.502E+00   -3.512E+00
    -3.523E+00   -3.533E+00   -3.543E+00   -3.553E+00   -3.563E+00   -3.573E+00   -3.583E+00   -3.593E+00   -3.604E+00   -3.614E+00
    -3.624E+00   -3.634E+00   -3.644E+00   -3.654E+00   -3.664E+00   -3.673E+00   -3.683E+00   -3.693E+00   -3.703E+00   -3.713E+00
    -3.722E+00   -3.732E+00   -3.742E+00   -3.751E+00   -3.761E+00   -3.771E+00   -3.780E+00   -3.790E+00   -3.799E+00   -3.808E+00
    -3.818E+00   -3.827E+00   -3.836E+00   -3.845E+00   -3.854E+00   -3.864E+00   -3.873E+00   -3.881E+00   -3.890E+00   -3.899E+00
    -3.908E+00   -3.917E+00   -3.925E+00   -3.934E+00   -3.942E+00   -3.950E+00   -3.959E+00   -3.967E+00   -3.975E+00   -3.982E+00
    -3.990E+00   -3.998E+00   -4.005E+00   -4.013E+00   -4.020E+00   -4.027E+00   -4.034E+00   -4.041E+00   -4.047E+00   -4.054E+00
    -4.060E+00   -4.066E+00   -4.072E+00   -4.078E+00   -4.083E+00   -4.089E+00   -4.094E+00   -4.099E+00   -4.104E+00   -4.108E+00
    -4.113E+00   -4.117E+00   -4.121E+00   -4.125E+00   -4.128E+00   -4.131E+00   -4.134E+00   -4.137E+00   -4.140E+00   -4.142E+00
    -4.144E+00   -4.145E+00   -4.147E+00   -4.148E+00   -4.149E+00   -4.150E+00   -4.150E+00   -4.150E+00   -4.150E+00   -4.150E+00
    -4.150E+00   -4.149E+00   -4.148E+00   -4.147E+00   -4.146E+00   -4.144E+00   -4.143E+00   -4.141E+00   -4.139E+00   -4.137E+00
    -4.134E+00   -4.132E+00   -4.129E+00   -4.126E+00   -4.124E+00   -4.120E+00   -4.117E+00   -4.114E+00   -4.111E+00   -4.107E+00
    -4.104E+00   -4.100E+00   -4.096E+00   -4.093E+00   -4.089E+00   -4.085E+00   -4.081E+00   -4.077E+00   -4.073E+00   -4.068E+00
    -4.064E+00   -4.060E+00   -4.056E+00   -4.051E+00   -4.047E+00   -4.043E+00   -4.039E+00   -4.034E+00   -4.030E+00   -4.026E+00
    -4.022E+00   -4.017E+00   -4.013E+00   -4.009E+00   -4.005E+00   -4.000E+00   -3.996E+00   -3.992E+00   -3.988E+00   -3.984E+00
    -3.980E+00   -3.976E+00   -3.972E+00   -3.968E+00   -3.964E+00   -3.960E+00   -3.956E+00   -3.952E+00   -3.949E+00   -3.945E+00
    -3.941E+00   -3.937E+00   -3.934E+00   -3.930E+00   -3.927E+00   -3.923E+00   -3.920E+00   -3.916E+00   -3.913E+00   -3.910E+00
    -3.906E+00   -3.903E+00   -3.900E+00   -3.897E+00   -3.894E+00   -3.891E+00   -3.888E+00   -3.885E+00   -3.883E+00   -3.880E+00
    -3.877E+00   -3.875E+00   -3.872E+00   -3.870E+00   -3.868E+00   -3.865E+00   -3.863E+00   -3.861E+00   -3.859E+00   -3.857E+00
    -3.855E+00   -3.853E+00   -3.852E+00   -3.850E+00   -3.848E+00   -3.847E+00   -3.845E+00   -3.844E+00   -3.842E+00   -3.841E+00
    -3.840E+00   -3.838E+00   -3.837E+00   -3.836E+00   -3.835E+00   -3.834E+00   -3.833E+00   -3.832E+00   -3.831E+00   -3.830E+00
    -3.830E+00   -3.829E+00   -3.828E+00   -3.827E+00   -3.827E+00   -3.826E+00   -3.826E+00   -3.825E+00   -3.825E+00   -3.824E+00
    -3.824E+00   -3.824E+00   -3.823E+00   -3.823E+00   -3.823E+00   -3.823E+00   -3.822E+00   -3.822E+00   -3.822E+00   -3.822E+00
    -3.822E+00   -3.822E+00   -3.822E+00   -3.822E+00   -3.822E+00   -3.821E+00   -3.821E+00   -3.821E+00   -3.821E+00   -3.821E+00
    -3.821E+00   -3.821E+00   -3.820E+00   -3.820E+00   -3.820E+00   -3.819E+00   -3.819E+00   -3.818E+00   -3.818E+00   -3.817E+00
    -3.816E+00   -3.816E+00   -3.815E+00   -3.814E+00   -3.813E+00   -3.811E+00   -3.810E+00   -3.809E+00   -3.807E+00   -3.806E+00
    -3.804E+00   -3.802E+00   -3.800E+00   -3.798E+00   -3.796E+00   -3.793E+00   -3.791E+00   -3.788E+00   -3.785E+00   -3.782E+00
    -3.779E+00   -3.776E+00   -3.772E+00   -3.768E+00   -3.764E+00   -3.760E+00   -3.756E+00   -3.752E+00   -3.747E+00   -3.742E+00
    -3.737E+00   -3.732E+00   -3.727E+00   -3.721E+00   -3.715E+00   -3.709E+00   -3.703E+00   -3.697E+00   -3.690E+00   -3.684E+00
    -3.677E+00   -3.669E+00   -3.662E+00   -3.655E+00   -3.647E+00   -3.639E+00   -3.631E+00   -3.622E+00   -3.614E+00   -3.605E+00
    -3.596E+00   -3.587E+00   -3.577E+00   -3.568E+00   -3.558E+00   -3.548E+00   -3.537E+00   -3.527E+00   -3.516E+00   -3.505E+00
    -3.494E+00   -3.482E+00   -3.471E+00   -3.459E+00   -3.447E+00   -3.434E+00   -3.422E+00   -3.409E+00   -3.396E+00   -3.383E+00
    -3.369E+00   -3.355E+00   -3.341E+00   -3.327E+00   -3.313E+00   -3.298E+00   -3.284E+00   -3.269E+00   -3.253E+00   -3.238E+00
    -3.223E+00   -3.207E+00   -3.191E+00   -3.175E+00   -3.159E+00   -3.142E+00   -3.126E+00   -3.109E+00   -3.092E+00   -3.075E+00
    -3.058E+00   -3.040E+00   -3.023E+00   -3.005E+00   -2.988E+00   -2.970E+00   -2.952E+00   -2.934E+00   -2.915E+00   -2.897E+00
    -2.879E+00   -2.860E+00   -2.841E+00   -2.823E+00   -2.804E+00   -2.785E+00   -2.766E+00   -2.747E+00   -2.728E+00   -2.708E+00
    -2.689E+00   -2.670E+00   -2.650E+00   -2.631E+00   -2.611E+00   -2.592E+00   -2.572E+00   -2.552E+00   -2.533E+00   -2.513E+00
    -2.493E+00   -2.473E+00   -2.453E+00   -2.433E+00   -2.413E+00   -2.393E+00   -2.373E+00   -2.353E+00   -2.333E+00   -2.313E+00
    -2.293E+00   -2.272E+00   -2.252E+00   -2.232E+00   -2.211E+00   -2.191E+00   -2.171E+00   -2.150E+00   -2.130E+00   -2.110E+00
    -2.089E+00   -2.069E+00   -2.048E+00   -2.028E+00   -2.007E+00   -1.987E+00   -1.966E+00   -1.946E+00   -1.925E+00   -1.905E+00
    -1.885E+00   -1.864E+00   -1.844E+00   -1.823E+00   -1.803E+00   -1.782E+00   -1.762E+00   -1.741E+00
 Ala      Conc. = 2.91E+02
