 LCModel (Version 6.3-1L) Copyright: S.W. Provencher.          Ref.: Magn. Reson. Med. 30:672-679 (1993).                
 Slice#3 Row#14 Col#1  PD_05_press_1_raw_act
 36 lines in following concentration table = NCONC+1
    Conc.  %SD /Cr+PCr  Metabolite                                         
    4.926 107%   0.980 Ala                                                 
    0.354 100% 7.0E-02 Asp                                                 
    5.028  42%   1.000 Cr                                                  
    0.000 999%   0.000 PCr                                                 
    0.214  99% 4.3E-02 GABA                                                
    0.217  98% 4.3E-02 Glc                                                 
   15.947  72%   3.172 Gln                                                 
   20.892  60%   4.155 Glu                                                 
    0.456 178% 9.1E-02 GPC                                                 
    0.000 999%   0.000 PCh                                                 
    3.304 102%   0.657 GSH                                                 
   31.637  31%   6.292 Ins                                                 
    0.000 999%   0.000 Lac                                                 
    0.791 306%   0.157 NAA                                                 
    0.000 999%   0.000 NAAG                                                
 7.15E-02 100% 1.4E-02 Scyllo                                              
    0.359  99% 7.1E-02 Tau                                                 
    0.236 326% 4.7E-02 -CrCH2                                              
    0.456 178% 9.1E-02 GPC+PCh                                             
    0.791 306%   0.157 NAA+NAAG                                            
    5.028  42%   1.000 Cr+PCr                                              
   36.839  51%   7.326 Glu+Gln                                             
   18.002  62%   3.580 Lip13a                                              
    0.000 999%   0.000 Lip13b                                              
    4.804  64%   0.956 Lip09                                               
   12.293  46%   2.445 MM09                                                
    2.709  64%   0.539 Lip20                                               
   18.439  46%   3.667 MM20                                                
    3.688  46%   0.733 MM12                                                
    9.220  46%   1.834 MM14                                                
    4.610  46%   0.917 MM17                                                
   18.002  62%   3.580 Lip13a+Lip13b                                       
   30.910  31%   6.147 MM14+Lip13a+Lip13b+MM12                             
   17.097  29%   3.400 MM09+Lip09                                          
   21.148  37%   4.206 MM20+Lip20                                          
   6 lines in following misc. output table
  FWHM = 0.061 ppm    S/N =   1                                            
  Data shift =-0.115 ppm                                                   
  Ph: 146 deg     -17.5 deg/ppm                                            
  alphaB,S = 8.5E+01,   5.1E+01                                            
   14 spline knots.   Ns = 6(1)                                            
   2 inflections.     1 extrema                                            
  498 points on ppm-axis = NY
      4.000000     3.992357     3.984714     3.977070     3.969427     3.961784     3.954141     3.946497     3.938854     3.931211
      3.923568     3.915925     3.908281     3.900638     3.892995     3.885352     3.877708     3.870065     3.862422     3.854779
      3.847136     3.839492     3.831849     3.824206     3.816563     3.808919     3.801276     3.793633     3.785990     3.778347
      3.770703     3.763060     3.755417     3.747774     3.740130     3.732487     3.724844     3.717201     3.709558     3.701914
      3.694271     3.686628     3.678985     3.671341     3.663698     3.656055     3.648412     3.640769     3.633125     3.625482
      3.617839     3.610196     3.602552     3.594909     3.587266     3.579623     3.571980     3.564336     3.556693     3.549050
      3.541407     3.533763     3.526120     3.518477     3.510834     3.503191     3.495547     3.487904     3.480261     3.472618
      3.464974     3.457331     3.449688     3.442045     3.434402     3.426758     3.419115     3.411472     3.403829     3.396185
      3.388542     3.380899     3.373256     3.365613     3.357969     3.350326     3.342683     3.335040     3.327396     3.319753
      3.312110     3.304467     3.296824     3.289180     3.281537     3.273894     3.266251     3.258607     3.250964     3.243321
      3.235678     3.228034     3.220391     3.212748     3.205105     3.197462     3.189818     3.182175     3.174532     3.166889
      3.159245     3.151602     3.143959     3.136316     3.128673     3.121029     3.113386     3.105743     3.098100     3.090456
      3.082813     3.075170     3.067527     3.059884     3.052240     3.044597     3.036954     3.029311     3.021667     3.014024
      3.006381     2.998738     2.991095     2.983451     2.975808     2.968165     2.960522     2.952878     2.945235     2.937592
      2.929949     2.922306     2.914662     2.907019     2.899376     2.891733     2.884089     2.876446     2.868803     2.861160
      2.853517     2.845873     2.838230     2.830587     2.822944     2.815300     2.807657     2.800014     2.792371     2.784728
      2.777084     2.769441     2.761798     2.754155     2.746511     2.738868     2.731225     2.723582     2.715939     2.708295
      2.700652     2.693009     2.685366     2.677722     2.670079     2.662436     2.654793     2.647150     2.639506     2.631863
      2.624220     2.616577     2.608933     2.601290     2.593647     2.586004     2.578361     2.570717     2.563074     2.555431
      2.547788     2.540144     2.532501     2.524858     2.517215     2.509572     2.501928     2.494285     2.486642     2.478999
      2.471355     2.463712     2.456069     2.448426     2.440783     2.433139     2.425496     2.417853     2.410210     2.402566
      2.394923     2.387280     2.379637     2.371994     2.364350     2.356707     2.349064     2.341421     2.333777     2.326134
      2.318491     2.310848     2.303205     2.295561     2.287918     2.280275     2.272632     2.264988     2.257345     2.249702
      2.242059     2.234416     2.226772     2.219129     2.211486     2.203843     2.196199     2.188556     2.180913     2.173270
      2.165627     2.157983     2.150340     2.142697     2.135054     2.127410     2.119767     2.112124     2.104481     2.096838
      2.089194     2.081551     2.073908     2.066265     2.058621     2.050978     2.043335     2.035692     2.028049     2.020405
      2.012762     2.005119     1.997476     1.989833     1.982190     1.974546     1.966903     1.959260     1.951617     1.943974
      1.936331     1.928688     1.921045     1.913402     1.905759     1.898115     1.890472     1.882829     1.875186     1.867543
      1.859900     1.852257     1.844614     1.836971     1.829327     1.821684     1.814041     1.806398     1.798755     1.791112
      1.783469     1.775826     1.768183     1.760540     1.752896     1.745253     1.737610     1.729967     1.722324     1.714681
      1.707038     1.699395     1.691752     1.684108     1.676465     1.668822     1.661179     1.653536     1.645893     1.638250
      1.630607     1.622964     1.615321     1.607677     1.600034     1.592391     1.584748     1.577105     1.569462     1.561819
      1.554176     1.546533     1.538890     1.531246     1.523603     1.515960     1.508317     1.500674     1.493031     1.485388
      1.477745     1.470102     1.462458     1.454815     1.447172     1.439529     1.431886     1.424243     1.416600     1.408957
      1.401314     1.393671     1.386027     1.378384     1.370741     1.363098     1.355455     1.347812     1.340169     1.332526
      1.324883     1.317240     1.309596     1.301953     1.294310     1.286667     1.279024     1.271381     1.263738     1.256095
      1.248452     1.240808     1.233165     1.225522     1.217879     1.210236     1.202593     1.194950     1.187307     1.179664
      1.172021     1.164377     1.156734     1.149091     1.141448     1.133805     1.126162     1.118519     1.110876     1.103233
      1.095590     1.087946     1.080303     1.072660     1.065017     1.057374     1.049731     1.042088     1.034445     1.026802
      1.019158     1.011515     1.003872     0.996229     0.988586     0.980943     0.973300     0.965657     0.958014     0.950371
      0.942727     0.935084     0.927441     0.919798     0.912155     0.904512     0.896869     0.889226     0.881583     0.873940
      0.866296     0.858653     0.851010     0.843367     0.835724     0.828081     0.820438     0.812795     0.805152     0.797508
      0.789865     0.782222     0.774579     0.766936     0.759293     0.751650     0.744007     0.736364     0.728721     0.721077
      0.713434     0.705791     0.698148     0.690505     0.682862     0.675219     0.667576     0.659933     0.652290     0.644646
      0.637003     0.629360     0.621717     0.614074     0.606431     0.598788     0.591145     0.583502     0.575858     0.568215
      0.560572     0.552929     0.545286     0.537643     0.530000     0.522357     0.514714     0.507071     0.499427     0.491784
      0.484141     0.476498     0.468855     0.461212     0.453569     0.445925     0.438282     0.430639     0.422996     0.415353
      0.407710     0.400067     0.392424     0.384780     0.377137     0.369494     0.361851     0.354208     0.346565     0.338922
      0.331278     0.323635     0.315992     0.308349     0.300706     0.293063     0.285420     0.277777     0.270133     0.262490
      0.254847     0.247204     0.239561     0.231918     0.224275     0.216631     0.208988     0.201345
 NY phased data points follow
   3.87152E-01  2.53678E-01  2.60137E-01  1.83072E-01  1.13101E-01  2.40608E-01  9.67949E-02  2.65430E-01  3.95479E-01  4.66008E-01
   3.81761E-01  1.87091E-01  1.54938E-01  3.96048E-01  3.80625E-01  2.87167E-01  4.95565E-01  2.23454E-01  1.40409E-01  5.12541E-01
   1.09071E-01  4.83063E-01  1.97976E-01  4.04270E-01  3.45279E-01  3.26007E-01  1.27870E-01  2.26274E-01  2.92152E-01  3.45878E-01
   5.76832E-02  3.05551E-01  1.98036E-01  2.76954E-01  4.24330E-01  2.93613E-01  7.85701E-02  2.41594E-01  3.70674E-01  2.00571E-01
   1.90919E-01  2.21635E-01  1.58549E-01 -1.14770E-01 -8.14248E-02  2.89373E-01  1.73433E-01  2.75891E-01  2.68136E-01  6.87754E-02
   4.17979E-01  4.80438E-01  3.31831E-01  4.03555E-02  5.50634E-02 -1.76558E-01  1.65108E-01  1.84140E-01  1.99471E-01  1.48912E-01
   9.16371E-02  2.66987E-01  3.92742E-01  2.95902E-01  2.98538E-01 -8.27578E-02  1.51096E-01  1.25452E-01  1.78595E-01  3.95800E-01
   2.75993E-02  2.30288E-01  1.13370E-01  2.44485E-01  3.39093E-01  6.10406E-02  4.52093E-01  1.43293E-01  4.13952E-02  3.64897E-01
   9.81818E-02  2.28002E-02  1.59942E-01  2.36355E-01  4.21351E-01  9.77791E-02 -1.20962E-01  2.67274E-01  1.16639E-01 -1.58582E-01
  -7.30446E-02  1.16170E-01  1.73581E-01  2.47824E-01  1.18509E-01  1.08027E-01  1.61411E-01  1.74009E-01  3.63396E-01 -8.90819E-02
   3.65550E-02  3.87566E-01  2.79147E-01  2.64695E-01 -4.85791E-02  1.90249E-02 -6.89494E-02  9.07050E-03  8.92878E-02  3.02348E-01
   1.81936E-01 -1.66229E-01  1.17527E-01  2.05081E-02  1.32418E-01  1.77442E-01 -1.10765E-01  1.21378E-01  9.29349E-02 -1.17348E-01
   3.39313E-01  2.08671E-01  1.04521E-01 -4.67827E-02  3.73373E-01  3.21498E-01  5.26546E-02  3.21376E-01 -1.55161E-01  3.89293E-01
   1.07089E-01  3.12994E-01  1.57662E-01  1.92382E-01  1.70847E-01  6.69966E-02 -7.86288E-02  2.24017E-01  1.48164E-01  1.48960E-01
   6.63312E-02  5.47039E-02  1.21408E-01  1.59637E-01  4.84262E-01 -8.12962E-02  1.83628E-03  2.87110E-02  2.53233E-02  2.50285E-01
   2.06033E-02 -5.31606E-02  3.10439E-01  1.61025E-01  2.37903E-01  4.09095E-01 -5.05642E-02  4.23578E-01  4.62708E-02  1.12539E-01
   1.30532E-01  2.71308E-01  6.14512E-02  1.64866E-01  1.39929E-01 -1.03234E-01  6.93720E-02  3.05082E-01  5.67326E-02  7.37474E-02
  -1.92495E-01  2.60014E-01  1.08778E-01  2.84411E-01 -2.61984E-01 -7.81702E-02 -5.21662E-02  1.21710E-01  3.16141E-02  2.64748E-02
   2.65314E-01  5.10347E-01  6.63563E-03  2.72619E-02  4.64033E-01  1.21109E-01  1.28560E-01  4.99842E-02  3.08860E-01  5.98986E-03
  -1.19126E-01  3.45831E-02  1.91404E-01  8.58221E-02  2.39085E-01  1.93029E-02  1.30812E-01  1.49365E-01  3.00580E-01  2.50031E-01
   1.07774E-01 -1.11681E-01  2.25274E-01 -1.06741E-02  1.99840E-01  3.14784E-01  6.40704E-02  8.18559E-02 -1.64413E-01  2.85197E-01
   9.06227E-02  3.53085E-01 -4.55768E-02  2.18071E-03  1.69674E-01  2.38234E-01  5.74354E-01  2.20397E-01  1.18733E-01  1.41932E-01
   4.24002E-01  3.57714E-02 -1.85346E-01  2.78354E-01  1.15748E-01  1.86628E-01  4.04957E-01  1.26297E-01  1.32800E-01  1.65603E-01
  -6.49399E-02  6.23319E-01  4.76191E-02  2.78832E-01  7.66162E-02  3.00036E-01  3.85022E-01  7.46325E-02  2.31478E-01  2.05432E-01
   3.09092E-01  9.82946E-02  2.89039E-02  2.54956E-01  3.16305E-01  2.05750E-01  3.11934E-04  3.02799E-01 -1.83262E-01  1.37850E-01
  -8.71556E-02  3.29069E-01 -2.12059E-01  2.66828E-02 -2.18848E-01  2.60789E-01  3.83810E-01  1.24544E-01  3.14237E-01  7.19805E-02
   8.64667E-02  3.05856E-01  6.81372E-02  2.24312E-01  2.24568E-01  1.16725E-01  3.78080E-01  1.66756E-01  2.68955E-01  1.93772E-01
  -6.33951E-03  4.18189E-01  5.92024E-02 -1.00254E-01  3.16422E-01  1.63143E-01  1.52909E-01  2.02665E-01  1.16784E-01  1.16720E-01
   3.54803E-01  1.51753E-01  1.92540E-02  5.14264E-02  2.32303E-01  1.83764E-01  4.30604E-01  9.36638E-02  9.19365E-02  2.29044E-01
   1.06896E-01  3.25158E-01  9.86655E-02  5.13565E-01  1.20189E-01  5.96915E-02  4.83389E-02  2.52251E-01  4.03727E-01  1.80659E-01
   2.74295E-01 -1.11787E-01  1.01543E-01  3.34440E-01 -4.89393E-02  3.57343E-01  2.25855E-01  1.45719E-01  1.63046E-01  1.08179E-01
   1.27854E-01 -1.19943E-01  4.70395E-01  2.16510E-01  2.59356E-01 -8.51194E-02 -9.25454E-02 -2.85102E-01  1.11274E-01  1.08025E-02
   1.41553E-01  2.43323E-01  8.41300E-02 -4.22628E-02 -6.03955E-02  1.36028E-01 -3.25363E-02 -2.55778E-02 -6.19825E-02  2.02116E-01
   1.48778E-01  1.21132E-01  1.16198E-01  2.65087E-02 -1.24659E-02 -2.80289E-02  2.67510E-01  1.42212E-01  5.90684E-01  3.02606E-01
   2.10734E-01  1.94597E-02  2.07211E-01  5.01038E-01  2.54679E-01  2.01435E-01  4.73154E-01  2.79811E-01  1.46735E-01  9.90304E-02
   2.55512E-01  9.07089E-02  8.02632E-03  3.37150E-01  3.21257E-01  4.65176E-01  2.04059E-01 -2.07573E-01  9.83286E-02  1.61244E-01
  -1.25700E-01  2.69102E-01  2.65482E-01  1.00790E-01  8.56312E-02  1.03204E-01 -1.31737E-02  4.25354E-01  4.17976E-01 -7.75533E-02
   3.87047E-01  1.83765E-01 -4.18753E-03  2.74185E-01  2.45263E-01 -2.69250E-02  2.41240E-01  1.72762E-02  1.20491E-01  3.47527E-01
   1.82488E-01  1.82264E-01  2.20575E-01  3.67721E-01  1.03756E-01  2.30357E-01  3.57990E-01  7.19967E-02  2.54966E-01  4.95085E-01
   1.64523E-01 -3.82421E-03 -1.19742E-01  1.76970E-01  2.05512E-01  1.47767E-01  3.52868E-01  1.02870E-01  9.55937E-02  4.64557E-01
   2.34394E-01  2.79724E-01  3.39785E-01  1.69035E-01  2.37977E-01  2.33054E-01  1.73759E-01  2.53803E-01  1.93290E-01  7.45242E-02
   2.72725E-01  1.23352E-01  2.41973E-01  1.55094E-01  1.71513E-01  1.32583E-01 -4.59172E-02  2.41408E-02 -6.04653E-03  1.84705E-01
  -2.30841E-02  1.46864E-03  1.05869E-01  2.92024E-01  1.56288E-01  8.44471E-02  1.68848E-01  1.56921E-02 -5.35428E-02 -4.66053E-02
   2.68031E-02  1.00029E-02  1.04517E-01  9.52557E-02  3.14188E-01  5.63510E-02 -7.20422E-02  3.71448E-01  2.65574E-01 -1.79075E-01
   2.27701E-01  8.69745E-02 -1.19607E-01  2.20538E-01  2.42636E-02  1.29282E-01  4.71136E-01 -1.39272E-02 -9.04220E-04  1.23190E-01
   1.81574E-01  2.65830E-01  6.30205E-02  1.83359E-01  1.53241E-01  1.05431E-01  3.60912E-01  1.96201E-01  3.30808E-01  8.67479E-02
   1.92607E-01  4.74884E-02  3.40675E-01  1.90277E-01  3.57040E-01  3.47154E-02  1.42512E-01 -2.62559E-01 -6.26221E-02  3.65951E-01
   3.74508E-02  8.29562E-02  1.37890E-01  2.01376E-01 -6.11443E-02  1.63196E-01  2.83922E-01 -1.30038E-01 -3.45545E-01  1.05786E-01
  -2.06950E-01  9.77216E-02 -1.63350E-02  1.02649E-01 -2.74271E-01 -2.00070E-02 -1.51002E-01 -1.59393E-01  3.16491E-01  5.11084E-02
   8.06486E-02  6.14513E-02  1.81227E-01  1.51000E-01  1.12302E-01  1.47346E-01  2.29588E-01  9.28547E-02
 NY points of the fit to the data follow
   2.22914E-01  2.00290E-01  1.81794E-01  1.66789E-01  1.58786E-01  1.59291E-01  1.67318E-01  1.80198E-01  1.95533E-01  2.10807E-01
   2.24104E-01  2.34805E-01  2.42736E-01  2.46737E-01  2.44081E-01  2.32705E-01  2.13838E-01  1.92422E-01  1.75834E-01  1.70909E-01
   1.74942E-01  1.79846E-01  1.81787E-01  1.80281E-01  1.77798E-01  1.75917E-01  1.77122E-01  1.83521E-01  1.94150E-01  2.07396E-01
   2.22837E-01  2.41108E-01  2.61321E-01  2.80067E-01  2.89805E-01  2.83291E-01  2.59529E-01  2.25145E-01  1.89721E-01  1.59539E-01
   1.42095E-01  1.42853E-01  1.62351E-01  1.95528E-01  2.34050E-01  2.71041E-01  3.01611E-01  3.23607E-01  3.36766E-01  3.40436E-01
   3.31565E-01  3.05388E-01  2.60539E-01  2.05028E-01  1.55484E-01  1.29028E-01  1.32219E-01  1.53835E-01  1.78790E-01  1.99438E-01
   2.13864E-01  2.22000E-01  2.24152E-01  2.20188E-01  2.10274E-01  1.95191E-01  1.78646E-01  1.67065E-01  1.65140E-01  1.72248E-01
   1.85267E-01  1.98871E-01  2.09229E-01  2.14805E-01  2.15444E-01  2.11947E-01  2.05325E-01  1.96426E-01  1.86721E-01  1.77829E-01
   1.71981E-01  1.67221E-01  1.60503E-01  1.50302E-01  1.36846E-01  1.21419E-01  1.05662E-01  9.11318E-02  7.90330E-02  7.03804E-02
   6.67662E-02  7.01647E-02  8.07617E-02  9.67650E-02  1.14148E-01  1.27422E-01  1.34057E-01  1.35105E-01  1.32391E-01  1.27007E-01
   1.20235E-01  1.13646E-01  1.09425E-01  1.09061E-01  1.12655E-01  1.18245E-01  1.21875E-01  1.21994E-01  1.19274E-01  1.15765E-01
   1.13741E-01  1.14425E-01  1.15864E-01  1.17014E-01  1.18155E-01  1.19000E-01  1.19481E-01  1.19608E-01  1.19644E-01  1.20122E-01
   1.22569E-01  1.31776E-01  1.49391E-01  1.72670E-01  1.98560E-01  2.23683E-01  2.45503E-01  2.63413E-01  2.77132E-01  2.83739E-01
   2.78191E-01  2.57440E-01  2.23747E-01  1.85179E-01  1.52843E-01  1.35498E-01  1.28639E-01  1.24075E-01  1.20349E-01  1.18057E-01
   1.18231E-01  1.21425E-01  1.26583E-01  1.31233E-01  1.33719E-01  1.33480E-01  1.30776E-01  1.26823E-01  1.22886E-01  1.19623E-01
   1.17357E-01  1.15591E-01  1.14078E-01  1.12750E-01  1.11582E-01  1.10552E-01  1.09705E-01  1.09128E-01  1.08754E-01  1.08490E-01
   1.08212E-01  1.07812E-01  1.07248E-01  1.06593E-01  1.06054E-01  1.05713E-01  1.05511E-01  1.05377E-01  1.05238E-01  1.05042E-01
   1.04767E-01  1.04402E-01  1.03940E-01  1.03376E-01  1.02695E-01  1.01910E-01  1.01032E-01  1.00066E-01  9.91041E-02  9.81499E-02
   9.72360E-02  9.64249E-02  9.57278E-02  9.52144E-02  9.51906E-02  9.60403E-02  9.79269E-02  1.00533E-01  1.03047E-01  1.04878E-01
   1.05358E-01  1.03646E-01  9.94452E-02  9.30011E-02  8.50569E-02  7.72964E-02  7.21754E-02  7.17507E-02  7.71653E-02  8.94012E-02
   1.07949E-01  1.29637E-01  1.50378E-01  1.65488E-01  1.67738E-01  1.54576E-01  1.30044E-01  9.99176E-02  7.05073E-02  4.83957E-02
   3.96917E-02  4.46705E-02  6.27781E-02  9.46615E-02  1.36067E-01  1.77096E-01  2.06385E-01  2.14044E-01  1.96139E-01  1.60793E-01
   1.18988E-01  7.89306E-02  4.88881E-02  3.56407E-02  4.26803E-02  6.44749E-02  9.56895E-02  1.31122E-01  1.63210E-01  1.83801E-01
   1.87504E-01  1.78681E-01  1.66692E-01  1.56557E-01  1.49919E-01  1.49125E-01  1.53797E-01  1.59894E-01  1.65340E-01  1.69130E-01
   1.71095E-01  1.71552E-01  1.69876E-01  1.63767E-01  1.51797E-01  1.38711E-01  1.29994E-01  1.27752E-01  1.32551E-01  1.43544E-01
   1.56522E-01  1.66046E-01  1.72888E-01  1.77987E-01  1.82076E-01  1.86087E-01  1.90022E-01  1.92300E-01  1.91913E-01  1.89648E-01
   1.87255E-01  1.86876E-01  1.88832E-01  1.91465E-01  1.91913E-01  1.87836E-01  1.78615E-01  1.66772E-01  1.56369E-01  1.49047E-01
   1.43860E-01  1.40561E-01  1.38933E-01  1.37975E-01  1.37405E-01  1.37601E-01  1.38093E-01  1.38218E-01  1.37425E-01  1.35481E-01
   1.32637E-01  1.29709E-01  1.27306E-01  1.25526E-01  1.24376E-01  1.23849E-01  1.23829E-01  1.24118E-01  1.24480E-01  1.24824E-01
   1.25242E-01  1.25770E-01  1.26420E-01  1.27199E-01  1.28094E-01  1.29065E-01  1.30056E-01  1.31041E-01  1.32009E-01  1.32912E-01
   1.33712E-01  1.34393E-01  1.34931E-01  1.35316E-01  1.35544E-01  1.35623E-01  1.35562E-01  1.35379E-01  1.35102E-01  1.34770E-01
   1.34433E-01  1.34151E-01  1.33977E-01  1.33967E-01  1.34182E-01  1.34694E-01  1.35583E-01  1.36958E-01  1.38979E-01  1.41935E-01
   1.46500E-01  1.53760E-01  1.62233E-01  1.69353E-01  1.73586E-01  1.73909E-01  1.70118E-01  1.62503E-01  1.50985E-01  1.36773E-01
   1.22148E-01  1.09470E-01  1.02390E-01  1.04238E-01  1.16373E-01  1.37138E-01  1.60575E-01  1.82841E-01  2.02323E-01  2.16039E-01
   2.21467E-01  2.18418E-01  2.10030E-01  2.02671E-01  1.99355E-01  1.98103E-01  1.97804E-01  1.98000E-01  1.98449E-01  1.99001E-01
   1.99546E-01  2.00002E-01  2.00297E-01  2.00375E-01  2.00188E-01  1.99696E-01  1.98871E-01  1.97694E-01  1.96154E-01  1.94254E-01
   1.92005E-01  1.89429E-01  1.86556E-01  1.83423E-01  1.80073E-01  1.76556E-01  1.72923E-01  1.69226E-01  1.65519E-01  1.61855E-01
   1.58283E-01  1.54850E-01  1.51602E-01  1.48580E-01  1.45822E-01  1.43362E-01  1.41233E-01  1.39466E-01  1.38088E-01  1.37127E-01
   1.36610E-01  1.36561E-01  1.37004E-01  1.37961E-01  1.39451E-01  1.41488E-01  1.44079E-01  1.47223E-01  1.50910E-01  1.55113E-01
   1.59792E-01  1.64888E-01  1.70326E-01  1.76009E-01  1.81824E-01  1.87641E-01  1.93319E-01  1.98708E-01  2.03654E-01  2.08009E-01
   2.11636E-01  2.14413E-01  2.16243E-01  2.17056E-01  2.16812E-01  2.15509E-01  2.13173E-01  2.09865E-01  2.05674E-01  2.00708E-01
   1.95098E-01  1.88981E-01  1.82500E-01  1.75796E-01  1.69002E-01  1.62239E-01  1.55613E-01  1.49212E-01  1.43106E-01  1.37348E-01
   1.31971E-01  1.26994E-01  1.22425E-01  1.18256E-01  1.14475E-01  1.11060E-01  1.07986E-01  1.05226E-01  1.02752E-01  1.00536E-01
   9.85493E-02  9.67669E-02  9.51648E-02  9.37214E-02  9.24173E-02  9.12353E-02  9.01603E-02  8.91788E-02  8.82793E-02  8.74519E-02
   8.66880E-02  8.59800E-02  8.53215E-02  8.47070E-02  8.41314E-02  8.35908E-02  8.30814E-02  8.26002E-02  8.21441E-02  8.17108E-02
   8.12980E-02  8.09041E-02  8.05274E-02  8.01663E-02  7.98195E-02  7.94859E-02  7.91644E-02  7.88542E-02  7.85543E-02  7.82639E-02
   7.79823E-02  7.77089E-02  7.74431E-02  7.71846E-02  7.69327E-02  7.66870E-02  7.64471E-02  7.62127E-02  7.59835E-02  7.57592E-02
   7.55393E-02  7.53236E-02  7.51119E-02  7.49040E-02  7.46998E-02  7.44992E-02  7.43017E-02  7.41073E-02  7.39157E-02  7.37271E-02
   7.35412E-02  7.33577E-02  7.31766E-02  7.29977E-02  7.28210E-02  7.26467E-02  7.24744E-02  7.23040E-02  7.21354E-02  7.19687E-02
   7.18039E-02  7.16409E-02  7.14797E-02  7.13200E-02  7.11619E-02  7.10056E-02  7.08511E-02  7.06984E-02
 NY background values follow
     1.237E-01    1.236E-01    1.234E-01    1.233E-01    1.232E-01    1.231E-01    1.230E-01    1.229E-01    1.228E-01    1.227E-01
     1.225E-01    1.224E-01    1.223E-01    1.222E-01    1.221E-01    1.220E-01    1.219E-01    1.218E-01    1.216E-01    1.215E-01
     1.214E-01    1.213E-01    1.212E-01    1.211E-01    1.210E-01    1.209E-01    1.207E-01    1.206E-01    1.205E-01    1.204E-01
     1.203E-01    1.202E-01    1.201E-01    1.200E-01    1.198E-01    1.197E-01    1.196E-01    1.195E-01    1.194E-01    1.193E-01
     1.192E-01    1.191E-01    1.189E-01    1.188E-01    1.187E-01    1.186E-01    1.185E-01    1.184E-01    1.183E-01    1.182E-01
     1.180E-01    1.179E-01    1.178E-01    1.177E-01    1.176E-01    1.175E-01    1.174E-01    1.173E-01    1.171E-01    1.170E-01
     1.169E-01    1.168E-01    1.167E-01    1.166E-01    1.165E-01    1.164E-01    1.163E-01    1.161E-01    1.160E-01    1.159E-01
     1.158E-01    1.157E-01    1.156E-01    1.155E-01    1.154E-01    1.152E-01    1.151E-01    1.150E-01    1.149E-01    1.148E-01
     1.147E-01    1.146E-01    1.145E-01    1.143E-01    1.142E-01    1.141E-01    1.140E-01    1.139E-01    1.138E-01    1.137E-01
     1.136E-01    1.134E-01    1.133E-01    1.132E-01    1.131E-01    1.130E-01    1.129E-01    1.128E-01    1.127E-01    1.125E-01
     1.124E-01    1.123E-01    1.122E-01    1.121E-01    1.120E-01    1.119E-01    1.118E-01    1.116E-01    1.115E-01    1.114E-01
     1.113E-01    1.112E-01    1.111E-01    1.110E-01    1.109E-01    1.107E-01    1.106E-01    1.105E-01    1.104E-01    1.103E-01
     1.102E-01    1.101E-01    1.100E-01    1.098E-01    1.097E-01    1.096E-01    1.095E-01    1.094E-01    1.093E-01    1.092E-01
     1.091E-01    1.089E-01    1.088E-01    1.087E-01    1.086E-01    1.085E-01    1.084E-01    1.083E-01    1.082E-01    1.080E-01
     1.079E-01    1.078E-01    1.077E-01    1.076E-01    1.075E-01    1.074E-01    1.073E-01    1.071E-01    1.070E-01    1.069E-01
     1.068E-01    1.067E-01    1.066E-01    1.065E-01    1.064E-01    1.062E-01    1.061E-01    1.060E-01    1.059E-01    1.058E-01
     1.057E-01    1.056E-01    1.055E-01    1.053E-01    1.052E-01    1.051E-01    1.050E-01    1.049E-01    1.048E-01    1.047E-01
     1.046E-01    1.044E-01    1.043E-01    1.042E-01    1.041E-01    1.040E-01    1.039E-01    1.038E-01    1.037E-01    1.036E-01
     1.034E-01    1.033E-01    1.032E-01    1.031E-01    1.030E-01    1.029E-01    1.028E-01    1.027E-01    1.025E-01    1.024E-01
     1.023E-01    1.022E-01    1.021E-01    1.020E-01    1.019E-01    1.018E-01    1.016E-01    1.015E-01    1.014E-01    1.013E-01
     1.012E-01    1.011E-01    1.010E-01    1.009E-01    1.007E-01    1.006E-01    1.005E-01    1.004E-01    1.003E-01    1.002E-01
     1.001E-01    9.995E-02    9.984E-02    9.973E-02    9.962E-02    9.950E-02    9.939E-02    9.928E-02    9.917E-02    9.906E-02
     9.894E-02    9.883E-02    9.872E-02    9.861E-02    9.849E-02    9.838E-02    9.827E-02    9.816E-02    9.804E-02    9.793E-02
     9.782E-02    9.771E-02    9.759E-02    9.748E-02    9.737E-02    9.726E-02    9.714E-02    9.703E-02    9.692E-02    9.681E-02
     9.670E-02    9.658E-02    9.647E-02    9.636E-02    9.625E-02    9.613E-02    9.602E-02    9.591E-02    9.580E-02    9.568E-02
     9.557E-02    9.546E-02    9.535E-02    9.523E-02    9.512E-02    9.501E-02    9.490E-02    9.478E-02    9.467E-02    9.456E-02
     9.445E-02    9.434E-02    9.422E-02    9.411E-02    9.400E-02    9.389E-02    9.377E-02    9.366E-02    9.355E-02    9.344E-02
     9.332E-02    9.321E-02    9.310E-02    9.299E-02    9.287E-02    9.276E-02    9.265E-02    9.254E-02    9.242E-02    9.231E-02
     9.220E-02    9.209E-02    9.198E-02    9.186E-02    9.175E-02    9.164E-02    9.153E-02    9.141E-02    9.130E-02    9.119E-02
     9.108E-02    9.096E-02    9.085E-02    9.074E-02    9.063E-02    9.051E-02    9.040E-02    9.029E-02    9.018E-02    9.006E-02
     8.995E-02    8.984E-02    8.973E-02    8.962E-02    8.950E-02    8.939E-02    8.928E-02    8.917E-02    8.905E-02    8.894E-02
     8.883E-02    8.872E-02    8.860E-02    8.849E-02    8.838E-02    8.827E-02    8.815E-02    8.804E-02    8.793E-02    8.782E-02
     8.770E-02    8.759E-02    8.748E-02    8.737E-02    8.726E-02    8.714E-02    8.703E-02    8.692E-02    8.681E-02    8.669E-02
     8.658E-02    8.647E-02    8.636E-02    8.624E-02    8.613E-02    8.602E-02    8.591E-02    8.579E-02    8.568E-02    8.557E-02
     8.546E-02    8.535E-02    8.523E-02    8.512E-02    8.501E-02    8.490E-02    8.478E-02    8.467E-02    8.456E-02    8.445E-02
     8.433E-02    8.422E-02    8.411E-02    8.400E-02    8.388E-02    8.377E-02    8.366E-02    8.355E-02    8.343E-02    8.332E-02
     8.321E-02    8.310E-02    8.299E-02    8.287E-02    8.276E-02    8.265E-02    8.254E-02    8.242E-02    8.231E-02    8.220E-02
     8.209E-02    8.197E-02    8.186E-02    8.175E-02    8.164E-02    8.152E-02    8.141E-02    8.130E-02    8.119E-02    8.108E-02
     8.096E-02    8.085E-02    8.074E-02    8.063E-02    8.051E-02    8.040E-02    8.029E-02    8.018E-02    8.006E-02    7.995E-02
     7.984E-02    7.973E-02    7.961E-02    7.950E-02    7.939E-02    7.928E-02    7.916E-02    7.905E-02    7.894E-02    7.883E-02
     7.872E-02    7.860E-02    7.849E-02    7.838E-02    7.827E-02    7.815E-02    7.804E-02    7.793E-02    7.782E-02    7.770E-02
     7.759E-02    7.748E-02    7.737E-02    7.725E-02    7.714E-02    7.703E-02    7.692E-02    7.680E-02    7.669E-02    7.658E-02
     7.647E-02    7.636E-02    7.624E-02    7.613E-02    7.602E-02    7.591E-02    7.579E-02    7.568E-02    7.557E-02    7.546E-02
     7.534E-02    7.523E-02    7.512E-02    7.501E-02    7.489E-02    7.478E-02    7.467E-02    7.456E-02    7.445E-02    7.433E-02
     7.422E-02    7.411E-02    7.400E-02    7.388E-02    7.377E-02    7.366E-02    7.355E-02    7.343E-02    7.332E-02    7.321E-02
     7.310E-02    7.298E-02    7.287E-02    7.276E-02    7.265E-02    7.253E-02    7.242E-02    7.231E-02    7.220E-02    7.209E-02
     7.197E-02    7.186E-02    7.175E-02    7.164E-02    7.152E-02    7.141E-02    7.130E-02    7.119E-02    7.107E-02    7.096E-02
     7.085E-02    7.074E-02    7.062E-02    7.051E-02    7.040E-02    7.029E-02    7.018E-02    7.006E-02    6.995E-02    6.984E-02
     6.973E-02    6.961E-02    6.950E-02    6.939E-02    6.928E-02    6.916E-02    6.905E-02    6.894E-02    6.883E-02    6.871E-02
     6.860E-02    6.849E-02    6.838E-02    6.826E-02    6.815E-02    6.804E-02    6.793E-02    6.782E-02
 Ala      Conc. = 4.93E+00
