 LCModel (Version 6.3-1L) Copyright: S.W. Provencher.          Ref.: Magn. Reson. Med. 30:672-679 (1993).                
 Slice#1 Row#14 Col#11  PD_05_press_1_raw_act
 36 lines in following concentration table = NCONC+1
    Conc.  %SD /Cr+PCr  Metabolite                                         
   26.757  91%   0.000 Ala                                                 
    3.636 109%   0.000 Asp                                                 
    0.000 999%   0.000 Cr                                                  
    0.000 999%   0.000 PCr                                                 
    2.083 114%   0.000 GABA                                                
    2.185 109%   0.000 Glc                                                 
   55.538  89%   0.000 Gln                                                 
    0.000 999%   0.000 Glu                                                 
    0.000 999%   0.000 GPC                                                 
    0.000 999%   0.000 PCh                                                 
    0.000 999%   0.000 GSH                                                 
    0.000 999%   0.000 Ins                                                 
    0.000 999%   0.000 Lac                                                 
   72.603  32%   0.000 NAA                                                 
    3.752 684%   0.000 NAAG                                                
    0.760 103%   0.000 Scyllo                                              
    3.425 115%   0.000 Tau                                                 
    1.217 298%   0.000 -CrCH2                                              
    0.000 999%   0.000 GPC+PCh                                             
   76.355  18%   0.000 NAA+NAAG                                            
    0.000 999%   0.000 Cr+PCr                                              
   55.538  89%   0.000 Glu+Gln                                             
    0.000 999%   0.000 Lip13a                                              
    0.000 999%   0.000 Lip13b                                              
    0.000 999%   0.000 Lip09                                               
    0.000 999%   0.000 MM09                                                
    1.874 346%   0.000 Lip20                                               
 2.02E-03 999%   0.000 MM20                                                
 5.72E-05 999%   0.000 MM12                                                
    0.000 999%   0.000 MM14                                                
 2.14E-03 999%   0.000 MM17                                                
    0.000 999%   0.000 Lip13a+Lip13b                                       
 5.72E-05 999%   0.000 MM14+Lip13a+Lip13b+MM12                             
    0.000 999%   0.000 MM09+Lip09                                          
    1.876 346%   0.000 MM20+Lip20                                          
   6 lines in following misc. output table
  FWHM = 0.046 ppm    S/N =   1                                            
  Data shift =-0.031 ppm                                                   
  Ph:-132 deg      41.9 deg/ppm                                            
  alphaB,S = 8.5E+01,   3.7E+01                                            
   14 spline knots.   Ns = 6(1)                                            
   2 inflections.     1 extrema                                            
  498 points on ppm-axis = NY
      4.000000     3.992357     3.984714     3.977070     3.969427     3.961784     3.954141     3.946497     3.938854     3.931211
      3.923568     3.915925     3.908281     3.900638     3.892995     3.885352     3.877708     3.870065     3.862422     3.854779
      3.847136     3.839492     3.831849     3.824206     3.816563     3.808919     3.801276     3.793633     3.785990     3.778347
      3.770703     3.763060     3.755417     3.747774     3.740130     3.732487     3.724844     3.717201     3.709558     3.701914
      3.694271     3.686628     3.678985     3.671341     3.663698     3.656055     3.648412     3.640769     3.633125     3.625482
      3.617839     3.610196     3.602552     3.594909     3.587266     3.579623     3.571980     3.564336     3.556693     3.549050
      3.541407     3.533763     3.526120     3.518477     3.510834     3.503191     3.495547     3.487904     3.480261     3.472618
      3.464974     3.457331     3.449688     3.442045     3.434402     3.426758     3.419115     3.411472     3.403829     3.396185
      3.388542     3.380899     3.373256     3.365613     3.357969     3.350326     3.342683     3.335040     3.327396     3.319753
      3.312110     3.304467     3.296824     3.289180     3.281537     3.273894     3.266251     3.258607     3.250964     3.243321
      3.235678     3.228034     3.220391     3.212748     3.205105     3.197462     3.189818     3.182175     3.174532     3.166889
      3.159245     3.151602     3.143959     3.136316     3.128673     3.121029     3.113386     3.105743     3.098100     3.090456
      3.082813     3.075170     3.067527     3.059884     3.052240     3.044597     3.036954     3.029311     3.021667     3.014024
      3.006381     2.998738     2.991095     2.983451     2.975808     2.968165     2.960522     2.952878     2.945235     2.937592
      2.929949     2.922306     2.914662     2.907019     2.899376     2.891733     2.884089     2.876446     2.868803     2.861160
      2.853517     2.845873     2.838230     2.830587     2.822944     2.815300     2.807657     2.800014     2.792371     2.784728
      2.777084     2.769441     2.761798     2.754155     2.746511     2.738868     2.731225     2.723582     2.715939     2.708295
      2.700652     2.693009     2.685366     2.677722     2.670079     2.662436     2.654793     2.647150     2.639506     2.631863
      2.624220     2.616577     2.608933     2.601290     2.593647     2.586004     2.578361     2.570717     2.563074     2.555431
      2.547788     2.540144     2.532501     2.524858     2.517215     2.509572     2.501928     2.494285     2.486642     2.478999
      2.471355     2.463712     2.456069     2.448426     2.440783     2.433139     2.425496     2.417853     2.410210     2.402566
      2.394923     2.387280     2.379637     2.371994     2.364350     2.356707     2.349064     2.341421     2.333777     2.326134
      2.318491     2.310848     2.303205     2.295561     2.287918     2.280275     2.272632     2.264988     2.257345     2.249702
      2.242059     2.234416     2.226772     2.219129     2.211486     2.203843     2.196199     2.188556     2.180913     2.173270
      2.165627     2.157983     2.150340     2.142697     2.135054     2.127410     2.119767     2.112124     2.104481     2.096838
      2.089194     2.081551     2.073908     2.066265     2.058621     2.050978     2.043335     2.035692     2.028049     2.020405
      2.012762     2.005119     1.997476     1.989833     1.982190     1.974546     1.966903     1.959260     1.951617     1.943974
      1.936331     1.928688     1.921045     1.913402     1.905759     1.898115     1.890472     1.882829     1.875186     1.867543
      1.859900     1.852257     1.844614     1.836971     1.829327     1.821684     1.814041     1.806398     1.798755     1.791112
      1.783469     1.775826     1.768183     1.760540     1.752896     1.745253     1.737610     1.729967     1.722324     1.714681
      1.707038     1.699395     1.691752     1.684108     1.676465     1.668822     1.661179     1.653536     1.645893     1.638250
      1.630607     1.622964     1.615321     1.607677     1.600034     1.592391     1.584748     1.577105     1.569462     1.561819
      1.554176     1.546533     1.538890     1.531246     1.523603     1.515960     1.508317     1.500674     1.493031     1.485388
      1.477745     1.470102     1.462458     1.454815     1.447172     1.439529     1.431886     1.424243     1.416600     1.408957
      1.401314     1.393671     1.386027     1.378384     1.370741     1.363098     1.355455     1.347812     1.340169     1.332526
      1.324883     1.317240     1.309596     1.301953     1.294310     1.286667     1.279024     1.271381     1.263738     1.256095
      1.248452     1.240808     1.233165     1.225522     1.217879     1.210236     1.202593     1.194950     1.187307     1.179664
      1.172021     1.164377     1.156734     1.149091     1.141448     1.133805     1.126162     1.118519     1.110876     1.103233
      1.095590     1.087946     1.080303     1.072660     1.065017     1.057374     1.049731     1.042088     1.034445     1.026802
      1.019158     1.011515     1.003872     0.996229     0.988586     0.980943     0.973300     0.965657     0.958014     0.950371
      0.942727     0.935084     0.927441     0.919798     0.912155     0.904512     0.896869     0.889226     0.881583     0.873940
      0.866296     0.858653     0.851010     0.843367     0.835724     0.828081     0.820438     0.812795     0.805152     0.797508
      0.789865     0.782222     0.774579     0.766936     0.759293     0.751650     0.744007     0.736364     0.728721     0.721077
      0.713434     0.705791     0.698148     0.690505     0.682862     0.675219     0.667576     0.659933     0.652290     0.644646
      0.637003     0.629360     0.621717     0.614074     0.606431     0.598788     0.591145     0.583502     0.575858     0.568215
      0.560572     0.552929     0.545286     0.537643     0.530000     0.522357     0.514714     0.507071     0.499427     0.491784
      0.484141     0.476498     0.468855     0.461212     0.453569     0.445925     0.438282     0.430639     0.422996     0.415353
      0.407710     0.400067     0.392424     0.384780     0.377137     0.369494     0.361851     0.354208     0.346565     0.338922
      0.331278     0.323635     0.315992     0.308349     0.300706     0.293063     0.285420     0.277777     0.270133     0.262490
      0.254847     0.247204     0.239561     0.231918     0.224275     0.216631     0.208988     0.201345
 NY phased data points follow
  -4.59950E-01 -6.63918E-01  3.52310E-01 -1.57079E+00 -4.63337E-01 -2.68880E-01 -6.66778E-01 -1.71563E-01 -3.42155E-01 -7.09200E-01
  -9.75340E-01  1.01018E+00 -1.21578E+00 -7.29619E-01 -8.56750E-01 -6.61871E-01 -9.81895E-01  3.33074E-01 -8.89406E-01  8.04459E-01
   1.58766E-01 -4.56998E-01 -1.86314E+00 -1.64672E-01 -9.25224E-01 -5.03051E-01 -9.08474E-01  4.47386E-01  1.14498E-01 -2.57084E-01
   1.08040E-01 -1.64982E+00 -9.67476E-01  3.57827E-02  2.56670E-01  4.80712E-01 -1.88159E-02 -2.39044E-01  5.76545E-01 -5.83451E-01
  -1.13002E+00  3.25443E-01  9.57033E-01 -7.78618E-02 -2.89895E-01 -1.81923E-01 -1.41514E+00 -1.40314E+00  4.36636E-01  1.12517E+00
  -1.81588E-01  3.30622E-02  1.79062E+00  6.99756E-01  3.15465E-02 -2.41682E+00 -6.08621E-01 -6.49525E-01 -4.39167E-01  8.00700E-02
  -2.26691E-01 -7.15774E-01  1.16979E+00 -2.49685E-01  1.54144E-01  1.10622E+00 -9.17592E-02 -3.07090E-01 -1.14194E+00  7.59069E-01
   2.60231E-01 -7.65423E-01 -5.41712E-01 -7.58211E-01 -9.01648E-01  4.58706E-01 -1.16488E+00  1.30082E+00 -1.20487E+00  9.99973E-01
  -1.81604E-01  2.79307E-01 -4.12223E-02  6.99084E-01 -6.35843E-01 -7.69369E-01 -1.00215E-01  8.06476E-01 -1.09599E-01 -6.77556E-01
   5.27870E-01 -8.26342E-02  9.63128E-02 -1.59917E+00  1.16712E-01 -7.07455E-01 -1.11880E+00 -5.28811E-01 -1.19458E+00 -8.68794E-01
  -1.26451E+00 -4.14794E-01 -3.34252E-01  2.04630E-01 -5.14333E-01 -6.23810E-02 -6.04773E-01 -1.23933E+00 -3.65342E-01  5.46560E-01
  -3.44433E-01  2.58747E-01 -8.86483E-02  5.42489E-01 -6.14787E-01 -4.15356E-01  2.71339E-01  2.44053E-01  5.58116E-02 -1.18397E+00
   9.20212E-01  1.02975E+00  7.36986E-01 -9.30442E-01  1.05750E+00 -7.37490E-01 -2.05665E-01 -7.44249E-01 -5.95152E-01  1.32931E+00
   5.32829E-01  3.06711E-01  1.83882E-01 -8.92727E-01 -8.04992E-01  7.12105E-01  3.58778E-01  7.55280E-01  9.43350E-02  9.14256E-01
   3.84656E-01 -2.18289E-01 -1.02379E+00 -6.36961E-01 -3.92820E-01  9.98916E-01 -1.63475E+00  1.64917E+00  7.30799E-01  1.52463E+00
   3.21836E-01 -2.24688E-01 -8.79518E-01 -7.83418E-01  5.31741E-01 -9.11538E-01 -1.45408E+00  1.49700E+00  4.29699E-02  1.40033E-01
  -1.64590E+00  3.38331E-01  5.77647E-01 -4.81321E-02 -8.36298E-01 -2.15165E-01  7.06657E-01  5.22047E-01  1.27159E+00 -9.86983E-01
  -2.63355E-01 -9.02171E-01 -1.54736E+00 -7.52702E-01 -3.70580E-01  1.29265E+00 -7.82161E-01 -1.76029E-01 -4.15944E-01 -6.31468E-01
  -4.05984E-01 -4.84728E-01  7.56680E-01  6.66889E-01 -5.90059E-01  3.04408E-01 -1.60429E+00 -3.85214E-01 -5.96087E-01 -1.49542E+00
   8.86594E-01 -9.61712E-01 -5.44402E-01  1.19107E+00  7.15623E-01  6.07875E-01 -1.13692E-01  2.01837E-01 -1.25500E+00 -2.32849E-02
  -1.11884E-02 -1.89488E+00 -2.27356E-01 -9.44784E-01  1.41649E+00  1.15552E+00 -1.53936E+00  9.64794E-01 -1.30506E+00 -5.93764E-01
  -6.46530E-01 -1.00869E+00 -9.07591E-01  6.98493E-01  9.96590E-01 -9.84373E-02  6.19469E-01  6.65315E-01  3.41557E-01  2.79399E-01
   1.67389E-01 -2.22213E-01  1.64414E+00  3.83899E-01  1.30295E+00 -9.54933E-01  5.27668E-01  8.68982E-01 -1.26910E+00  1.74799E+00
   2.24019E-01  1.22576E+00  2.66814E-01  5.33051E-01  4.51289E-01  7.92898E-01 -1.56480E-01 -9.49228E-02 -1.56177E+00  7.04435E-01
  -6.40509E-01 -7.91228E-01 -1.11972E+00 -1.26332E+00  6.66076E-01 -7.35366E-02 -5.18959E-02 -1.54643E+00 -7.25899E-01  4.89134E-01
   8.00420E-02  1.29347E+00 -1.18213E+00  1.41382E-02  1.26967E+00  3.03932E-02  4.87453E-01  3.21124E-01 -3.60198E-01  3.69653E+00
   8.51886E-03  2.38100E+00  3.04267E+00  2.21511E+00  1.84408E+00  8.99610E-01  8.18278E-01  3.74486E-01  1.32852E+00  2.65844E-01
   1.56734E+00  1.06217E+00  7.97832E-01  1.23113E-01 -8.38880E-02 -2.45980E-01 -1.17694E+00  1.02855E+00 -5.25044E-01  2.65272E-01
  -1.11082E+00  1.21994E+00  2.18123E-01  5.16958E-01 -1.91263E+00 -7.09961E-02  9.43585E-01  1.27100E+00  2.67805E-01 -4.17207E-01
  -8.08233E-01  4.90052E-01  4.58107E-01  3.54914E-01 -8.32297E-02 -5.52426E-03  4.45534E-01  3.31381E-01  3.36713E-01 -6.58971E-01
   5.61199E-01  1.31678E-01 -4.50676E-01  1.02141E+00  7.85991E-01 -3.28070E-01 -1.75950E-01  7.32189E-03  7.68018E-01 -1.52857E-01
   1.75175E-01 -4.09483E-01  1.13163E+00  8.85356E-01  1.05770E-01 -1.17730E+00  7.33208E-01 -9.44149E-01  6.07043E-01  6.17001E-02
   6.97376E-01 -6.42930E-01  6.26567E-01  5.83723E-02 -4.52750E-01 -1.15393E+00 -1.44811E+00 -4.51280E-01  1.35694E+00  5.19528E-01
  -1.47879E-01 -5.54636E-01 -1.04091E+00 -8.19870E-01 -1.64553E+00 -1.15984E+00 -7.17800E-01 -6.04772E-01  7.88935E-02  3.33722E-01
  -6.00114E-01  6.08554E-01 -2.62717E+00  1.15024E-01 -9.43707E-01 -1.60367E+00 -1.15551E+00 -7.73597E-01 -3.86252E-01 -1.18580E+00
  -1.84914E-01 -5.57702E-01 -7.21072E-01  7.87490E-02 -1.10813E+00  1.12442E+00 -1.54479E+00  2.51126E-01 -4.21696E-01  2.28869E-01
  -2.33982E-01 -1.26827E+00 -6.67932E-01  1.98211E-01 -7.90907E-01 -2.70876E-01 -6.83762E-01 -3.29209E-01  3.77826E-02  1.30066E+00
   1.79067E+00  1.53546E+00 -5.38553E-01 -7.04071E-01  5.75170E-01  8.69435E-01  1.55111E+00  7.51160E-01  1.54563E-01  9.51602E-01
  -1.83400E-01 -5.32370E-01 -1.72286E+00  5.75908E-01  7.15749E-02  7.03715E-01 -1.90723E+00  1.86445E-01 -2.93469E-01  1.58706E+00
  -3.54800E-01 -1.06178E+00  1.38437E-01 -1.06055E+00 -1.07404E+00 -1.01173E+00 -1.51078E+00 -1.91142E+00 -1.78431E+00 -6.88919E-01
   5.22461E-02 -1.48029E+00 -5.12304E-01 -4.38604E-01 -9.41007E-01 -9.71839E-01 -1.68866E+00 -4.93134E-01 -1.40589E+00 -8.40145E-01
  -1.00389E+00 -1.74480E-01 -4.77452E-01 -1.11097E+00 -1.20686E+00 -1.48157E+00 -1.31124E+00 -2.20771E+00 -9.34506E-01  2.61670E-01
  -3.36992E-01 -9.60038E-01  1.51392E+00  4.64414E-01 -1.09722E+00 -1.15681E+00 -9.45568E-01  3.88508E-01  6.95640E-01 -4.45831E-01
   1.40057E+00 -5.97375E-01 -2.74373E-01 -1.46150E+00  3.35917E-01 -2.42329E-01 -5.91917E-01 -7.44025E-01 -2.19348E+00 -9.53386E-01
  -1.01076E+00 -5.72543E-02 -1.37151E+00 -1.18948E+00  7.21719E-01 -5.57653E-01 -5.91387E-01 -3.44379E-01 -1.03016E+00 -1.37775E-01
   2.25572E-02 -1.07652E+00 -8.37686E-01  2.96439E-01  1.13836E+00 -9.87250E-01 -1.77752E+00  5.01906E-01  1.72435E-02 -1.56978E+00
  -1.35917E-01 -4.86699E-01  9.32214E-02 -3.91186E-01 -1.63650E+00 -7.24103E-01 -8.98993E-01  6.81242E-01 -1.33533E+00 -7.35208E-01
  -1.09331E+00 -1.96267E-01  9.90982E-01  6.14979E-01 -3.22894E-01  5.31085E-01 -5.46858E-01 -6.83689E-02 -1.85596E+00 -1.27418E+00
  -5.44608E-01  7.40412E-01 -1.53998E-01 -6.02634E-01 -7.20702E-01 -1.36861E+00 -3.00956E-02 -7.89656E-01  6.19161E-01  4.07436E-01
  -1.69456E+00 -1.83637E+00 -2.30534E-02 -9.43956E-02  1.03569E+00 -2.24177E-02  1.18659E+00  1.64090E-01
 NY points of the fit to the data follow
  -4.39497E-02 -4.35305E-02 -4.35047E-02 -4.44259E-02 -4.59873E-02 -4.81215E-02 -5.14433E-02 -5.66381E-02 -6.34615E-02 -7.08213E-02
  -7.67738E-02 -7.93695E-02 -7.81107E-02 -7.31921E-02 -6.63091E-02 -6.03383E-02 -5.75146E-02 -5.72255E-02 -5.53017E-02 -4.70396E-02
  -3.42467E-02 -1.89528E-02  3.31877E-04  1.95439E-02  2.84647E-02  1.90318E-02 -9.19222E-03 -5.48013E-02 -1.08247E-01 -1.48600E-01
  -1.55853E-01 -1.24007E-01 -5.95034E-02  2.01081E-02  7.88542E-02  9.26148E-02  6.47626E-02  1.06095E-02 -4.98876E-02 -9.44639E-02
  -1.06933E-01 -9.49285E-02 -7.48471E-02 -5.78541E-02 -4.89581E-02 -4.91849E-02 -5.42574E-02 -5.70212E-02 -5.85676E-02 -6.12201E-02
  -6.36236E-02 -6.53084E-02 -6.65569E-02 -6.76826E-02 -6.89320E-02 -7.04832E-02 -7.22586E-02 -7.40247E-02 -7.57037E-02 -7.72112E-02
  -7.83151E-02 -7.88433E-02 -7.89429E-02 -7.85525E-02 -7.78970E-02 -7.73323E-02 -7.69754E-02 -7.68548E-02 -7.73045E-02 -7.81180E-02
  -7.88882E-02 -7.96518E-02 -7.99044E-02 -7.87142E-02 -7.58656E-02 -7.21952E-02 -6.88833E-02 -6.72029E-02 -6.88645E-02 -7.36648E-02
  -7.88504E-02 -8.24445E-02 -8.33313E-02 -7.95350E-02 -7.09739E-02 -6.03800E-02 -5.03043E-02 -4.30642E-02 -4.13484E-02 -4.64039E-02
  -5.70310E-02 -7.08866E-02 -8.50395E-02 -9.64609E-02 -1.03544E-01 -1.07546E-01 -1.09591E-01 -1.09259E-01 -1.06553E-01 -1.01891E-01
  -9.69035E-02 -9.41729E-02 -9.48320E-02 -9.82262E-02 -1.02943E-01 -1.07302E-01 -1.09697E-01 -1.09991E-01 -1.09635E-01 -1.09315E-01
  -1.09369E-01 -1.10321E-01 -1.12070E-01 -1.14035E-01 -1.16088E-01 -1.18031E-01 -1.19578E-01 -1.21159E-01 -1.22945E-01 -1.24839E-01
  -1.26766E-01 -1.28644E-01 -1.30263E-01 -1.31420E-01 -1.31878E-01 -1.31454E-01 -1.30208E-01 -1.28434E-01 -1.26592E-01 -1.25074E-01
  -1.24288E-01 -1.24836E-01 -1.26835E-01 -1.29884E-01 -1.33441E-01 -1.36972E-01 -1.40055E-01 -1.42203E-01 -1.43050E-01 -1.42830E-01
  -1.42087E-01 -1.41421E-01 -1.41254E-01 -1.41441E-01 -1.41420E-01 -1.41079E-01 -1.40461E-01 -1.39705E-01 -1.39490E-01 -1.40352E-01
  -1.42258E-01 -1.44514E-01 -1.46304E-01 -1.47230E-01 -1.47784E-01 -1.49987E-01 -1.53778E-01 -1.58140E-01 -1.63665E-01 -1.70864E-01
  -1.80963E-01 -1.93485E-01 -2.04714E-01 -2.09547E-01 -2.05548E-01 -1.94507E-01 -1.82084E-01 -1.76189E-01 -1.82731E-01 -2.02173E-01
  -2.27849E-01 -2.51532E-01 -2.67120E-01 -2.75232E-01 -2.82673E-01 -2.92697E-01 -3.02097E-01 -3.06947E-01 -3.04741E-01 -2.95317E-01
  -2.82530E-01 -2.72465E-01 -2.67035E-01 -2.64302E-01 -2.62826E-01 -2.58513E-01 -2.46729E-01 -2.30283E-01 -2.13158E-01 -1.95484E-01
  -1.75848E-01 -1.55857E-01 -1.42359E-01 -1.41244E-01 -1.54367E-01 -1.76344E-01 -1.95464E-01 -2.03613E-01 -1.97738E-01 -1.74703E-01
  -1.34832E-01 -8.20106E-02 -2.25847E-02  3.16212E-02  5.95607E-02  5.26449E-02  5.99549E-03 -8.73791E-02 -2.17322E-01 -3.54051E-01
  -4.68272E-01 -5.36822E-01 -5.39393E-01 -4.73587E-01 -3.64151E-01 -2.44298E-01 -1.41274E-01 -7.49135E-02 -4.99677E-02 -4.44833E-02
  -4.30313E-02 -4.71505E-02 -5.37413E-02 -5.87812E-02 -6.27338E-02 -6.71868E-02 -7.35992E-02 -8.22843E-02 -9.30326E-02 -1.07118E-01
  -1.27174E-01 -1.48707E-01 -1.68343E-01 -1.88119E-01 -2.08277E-01 -2.23509E-01 -2.31295E-01 -2.28906E-01 -2.04616E-01 -1.55381E-01
  -9.48551E-02 -4.37379E-02 -2.27346E-02 -5.10623E-02 -1.29590E-01 -2.27636E-01 -3.13836E-01 -3.68495E-01 -3.79156E-01 -3.44471E-01
  -2.78730E-01 -2.01554E-01 -1.19102E-01 -3.21135E-02  9.25793E-02  2.70983E-01  4.65473E-01  6.92536E-01  9.96329E-01  1.37845E+00
   1.78866E+00  2.15474E+00  2.36022E+00  2.29090E+00  1.93278E+00  1.37704E+00  7.69872E-01  2.63508E-01 -1.91525E-02 -1.06876E-01
  -1.37833E-01 -1.54644E-01 -1.65096E-01 -1.71616E-01 -1.75602E-01 -1.78208E-01 -1.80329E-01 -1.82623E-01 -1.85433E-01 -1.88626E-01
  -1.91905E-01 -1.95019E-01 -1.97731E-01 -1.99819E-01 -2.01140E-01 -2.01854E-01 -2.02174E-01 -2.02232E-01 -2.02197E-01 -2.02283E-01
  -2.02538E-01 -2.02899E-01 -2.03349E-01 -2.03848E-01 -2.04326E-01 -2.04875E-01 -2.05574E-01 -2.06387E-01 -2.07258E-01 -2.08114E-01
  -2.08796E-01 -2.09227E-01 -2.09439E-01 -2.09447E-01 -2.09277E-01 -2.08970E-01 -2.08572E-01 -2.08112E-01 -2.07549E-01 -2.06837E-01
  -2.05945E-01 -2.04820E-01 -2.03403E-01 -2.01605E-01 -1.99310E-01 -1.96367E-01 -1.92556E-01 -1.87531E-01 -1.80726E-01 -1.71080E-01
  -1.56158E-01 -1.31669E-01 -1.03665E-01 -7.91739E-02 -5.42964E-02 -2.98847E-02 -1.82860E-02 -3.48169E-02 -9.26084E-02 -1.94260E-01
  -3.25092E-01 -4.62240E-01 -5.71831E-01 -6.19830E-01 -5.87237E-01 -4.79475E-01 -3.31022E-01 -1.80104E-01 -5.49122E-02  2.01977E-02
   3.65434E-02  2.00074E-03 -6.18495E-02 -1.20350E-01 -1.54398E-01 -1.74935E-01 -1.88965E-01 -1.99263E-01 -2.07182E-01 -2.13480E-01
  -2.18624E-01 -2.22918E-01 -2.26572E-01 -2.29730E-01 -2.32499E-01 -2.34955E-01 -2.37155E-01 -2.39145E-01 -2.40964E-01 -2.42640E-01
  -2.44194E-01 -2.45642E-01 -2.47001E-01 -2.48282E-01 -2.49498E-01 -2.50657E-01 -2.51766E-01 -2.52829E-01 -2.53851E-01 -2.54838E-01
  -2.55795E-01 -2.56725E-01 -2.57630E-01 -2.58511E-01 -2.59371E-01 -2.60213E-01 -2.61039E-01 -2.61851E-01 -2.62649E-01 -2.63432E-01
  -2.64204E-01 -2.64965E-01 -2.65719E-01 -2.66463E-01 -2.67197E-01 -2.67923E-01 -2.68643E-01 -2.69356E-01 -2.70065E-01 -2.70766E-01
  -2.71462E-01 -2.72152E-01 -2.72838E-01 -2.73521E-01 -2.74200E-01 -2.74873E-01 -2.75543E-01 -2.76209E-01 -2.76873E-01 -2.77535E-01
  -2.78194E-01 -2.78849E-01 -2.79500E-01 -2.80150E-01 -2.80799E-01 -2.81446E-01 -2.82090E-01 -2.82731E-01 -2.83370E-01 -2.84009E-01
  -2.84646E-01 -2.85282E-01 -2.85915E-01 -2.86546E-01 -2.87176E-01 -2.87805E-01 -2.88434E-01 -2.89061E-01 -2.89686E-01 -2.90310E-01
  -2.90933E-01 -2.91557E-01 -2.92179E-01 -2.92799E-01 -2.93417E-01 -2.94035E-01 -2.94653E-01 -2.95271E-01 -2.95887E-01 -2.96501E-01
  -2.97115E-01 -2.97729E-01 -2.98344E-01 -2.98957E-01 -2.99570E-01 -3.00181E-01 -3.00791E-01 -3.01402E-01 -3.02013E-01 -3.02622E-01
  -3.03231E-01 -3.03838E-01 -3.04446E-01 -3.05053E-01 -3.05660E-01 -3.06266E-01 -3.06871E-01 -3.07476E-01 -3.08081E-01 -3.08686E-01
  -3.09290E-01 -3.09894E-01 -3.10497E-01 -3.11099E-01 -3.11703E-01 -3.12306E-01 -3.12909E-01 -3.13510E-01 -3.14111E-01 -3.14712E-01
  -3.15314E-01 -3.15916E-01 -3.16516E-01 -3.17116E-01 -3.17715E-01 -3.18315E-01 -3.18914E-01 -3.19513E-01 -3.20110E-01 -3.20707E-01
  -3.21304E-01 -3.21902E-01 -3.22500E-01 -3.23097E-01 -3.23693E-01 -3.24288E-01 -3.24885E-01 -3.25481E-01 -3.26077E-01 -3.26671E-01
  -3.27266E-01 -3.27860E-01 -3.28454E-01 -3.29049E-01 -3.29642E-01 -3.30235E-01 -3.30827E-01 -3.31419E-01 -3.32011E-01 -3.32603E-01
  -3.33193E-01 -3.33783E-01 -3.34372E-01 -3.34961E-01 -3.35550E-01 -3.36137E-01 -3.36722E-01 -3.37307E-01
 NY background values follow
    -5.236E-02   -5.294E-02   -5.351E-02   -5.409E-02   -5.466E-02   -5.524E-02   -5.582E-02   -5.639E-02   -5.697E-02   -5.755E-02
    -5.812E-02   -5.870E-02   -5.928E-02   -5.985E-02   -6.043E-02   -6.100E-02   -6.158E-02   -6.216E-02   -6.273E-02   -6.331E-02
    -6.389E-02   -6.446E-02   -6.504E-02   -6.562E-02   -6.619E-02   -6.677E-02   -6.734E-02   -6.792E-02   -6.850E-02   -6.907E-02
    -6.965E-02   -7.023E-02   -7.080E-02   -7.138E-02   -7.196E-02   -7.253E-02   -7.311E-02   -7.369E-02   -7.426E-02   -7.484E-02
    -7.541E-02   -7.599E-02   -7.657E-02   -7.714E-02   -7.772E-02   -7.830E-02   -7.887E-02   -7.945E-02   -8.003E-02   -8.060E-02
    -8.118E-02   -8.175E-02   -8.233E-02   -8.291E-02   -8.348E-02   -8.406E-02   -8.464E-02   -8.521E-02   -8.579E-02   -8.637E-02
    -8.694E-02   -8.752E-02   -8.810E-02   -8.867E-02   -8.925E-02   -8.982E-02   -9.040E-02   -9.098E-02   -9.155E-02   -9.213E-02
    -9.271E-02   -9.328E-02   -9.386E-02   -9.444E-02   -9.501E-02   -9.559E-02   -9.616E-02   -9.674E-02   -9.732E-02   -9.789E-02
    -9.847E-02   -9.905E-02   -9.962E-02   -1.002E-01   -1.008E-01   -1.014E-01   -1.019E-01   -1.025E-01   -1.031E-01   -1.037E-01
    -1.042E-01   -1.048E-01   -1.054E-01   -1.060E-01   -1.065E-01   -1.071E-01   -1.077E-01   -1.083E-01   -1.088E-01   -1.094E-01
    -1.100E-01   -1.106E-01   -1.112E-01   -1.117E-01   -1.123E-01   -1.129E-01   -1.135E-01   -1.140E-01   -1.146E-01   -1.152E-01
    -1.158E-01   -1.163E-01   -1.169E-01   -1.175E-01   -1.181E-01   -1.186E-01   -1.192E-01   -1.198E-01   -1.204E-01   -1.210E-01
    -1.215E-01   -1.221E-01   -1.227E-01   -1.233E-01   -1.238E-01   -1.244E-01   -1.250E-01   -1.256E-01   -1.261E-01   -1.267E-01
    -1.273E-01   -1.279E-01   -1.284E-01   -1.290E-01   -1.296E-01   -1.302E-01   -1.308E-01   -1.313E-01   -1.319E-01   -1.325E-01
    -1.331E-01   -1.336E-01   -1.342E-01   -1.348E-01   -1.354E-01   -1.359E-01   -1.365E-01   -1.371E-01   -1.377E-01   -1.382E-01
    -1.388E-01   -1.394E-01   -1.400E-01   -1.406E-01   -1.411E-01   -1.417E-01   -1.423E-01   -1.429E-01   -1.434E-01   -1.440E-01
    -1.446E-01   -1.452E-01   -1.457E-01   -1.463E-01   -1.469E-01   -1.475E-01   -1.480E-01   -1.486E-01   -1.492E-01   -1.498E-01
    -1.504E-01   -1.509E-01   -1.515E-01   -1.521E-01   -1.527E-01   -1.532E-01   -1.538E-01   -1.544E-01   -1.550E-01   -1.555E-01
    -1.561E-01   -1.567E-01   -1.573E-01   -1.578E-01   -1.584E-01   -1.590E-01   -1.596E-01   -1.602E-01   -1.607E-01   -1.613E-01
    -1.619E-01   -1.625E-01   -1.630E-01   -1.636E-01   -1.642E-01   -1.648E-01   -1.653E-01   -1.659E-01   -1.665E-01   -1.671E-01
    -1.677E-01   -1.682E-01   -1.688E-01   -1.694E-01   -1.700E-01   -1.705E-01   -1.711E-01   -1.717E-01   -1.723E-01   -1.728E-01
    -1.734E-01   -1.740E-01   -1.746E-01   -1.751E-01   -1.757E-01   -1.763E-01   -1.769E-01   -1.775E-01   -1.780E-01   -1.786E-01
    -1.792E-01   -1.798E-01   -1.803E-01   -1.809E-01   -1.815E-01   -1.821E-01   -1.826E-01   -1.832E-01   -1.838E-01   -1.844E-01
    -1.850E-01   -1.855E-01   -1.861E-01   -1.867E-01   -1.873E-01   -1.878E-01   -1.884E-01   -1.890E-01   -1.896E-01   -1.901E-01
    -1.907E-01   -1.913E-01   -1.919E-01   -1.924E-01   -1.930E-01   -1.936E-01   -1.942E-01   -1.948E-01   -1.953E-01   -1.959E-01
    -1.965E-01   -1.971E-01   -1.976E-01   -1.982E-01   -1.988E-01   -1.994E-01   -1.999E-01   -2.005E-01   -2.011E-01   -2.017E-01
    -2.023E-01   -2.028E-01   -2.034E-01   -2.040E-01   -2.046E-01   -2.051E-01   -2.057E-01   -2.063E-01   -2.069E-01   -2.074E-01
    -2.080E-01   -2.086E-01   -2.092E-01   -2.097E-01   -2.103E-01   -2.109E-01   -2.115E-01   -2.121E-01   -2.126E-01   -2.132E-01
    -2.138E-01   -2.144E-01   -2.149E-01   -2.155E-01   -2.161E-01   -2.167E-01   -2.172E-01   -2.178E-01   -2.184E-01   -2.190E-01
    -2.196E-01   -2.201E-01   -2.207E-01   -2.213E-01   -2.219E-01   -2.224E-01   -2.230E-01   -2.236E-01   -2.242E-01   -2.247E-01
    -2.253E-01   -2.259E-01   -2.265E-01   -2.271E-01   -2.276E-01   -2.282E-01   -2.288E-01   -2.294E-01   -2.299E-01   -2.305E-01
    -2.311E-01   -2.317E-01   -2.322E-01   -2.328E-01   -2.334E-01   -2.340E-01   -2.346E-01   -2.351E-01   -2.357E-01   -2.363E-01
    -2.369E-01   -2.374E-01   -2.380E-01   -2.386E-01   -2.392E-01   -2.397E-01   -2.403E-01   -2.409E-01   -2.415E-01   -2.421E-01
    -2.426E-01   -2.432E-01   -2.438E-01   -2.444E-01   -2.449E-01   -2.455E-01   -2.461E-01   -2.467E-01   -2.472E-01   -2.478E-01
    -2.484E-01   -2.490E-01   -2.496E-01   -2.501E-01   -2.507E-01   -2.513E-01   -2.519E-01   -2.524E-01   -2.530E-01   -2.536E-01
    -2.542E-01   -2.547E-01   -2.553E-01   -2.559E-01   -2.565E-01   -2.571E-01   -2.576E-01   -2.582E-01   -2.588E-01   -2.594E-01
    -2.599E-01   -2.605E-01   -2.611E-01   -2.617E-01   -2.622E-01   -2.628E-01   -2.634E-01   -2.640E-01   -2.646E-01   -2.651E-01
    -2.657E-01   -2.663E-01   -2.669E-01   -2.674E-01   -2.680E-01   -2.686E-01   -2.692E-01   -2.697E-01   -2.703E-01   -2.709E-01
    -2.715E-01   -2.721E-01   -2.726E-01   -2.732E-01   -2.738E-01   -2.744E-01   -2.749E-01   -2.755E-01   -2.761E-01   -2.767E-01
    -2.772E-01   -2.778E-01   -2.784E-01   -2.790E-01   -2.796E-01   -2.801E-01   -2.807E-01   -2.813E-01   -2.819E-01   -2.824E-01
    -2.830E-01   -2.836E-01   -2.842E-01   -2.847E-01   -2.853E-01   -2.859E-01   -2.865E-01   -2.871E-01   -2.876E-01   -2.882E-01
    -2.888E-01   -2.894E-01   -2.899E-01   -2.905E-01   -2.911E-01   -2.917E-01   -2.922E-01   -2.928E-01   -2.934E-01   -2.940E-01
    -2.946E-01   -2.951E-01   -2.957E-01   -2.963E-01   -2.969E-01   -2.974E-01   -2.980E-01   -2.986E-01   -2.992E-01   -2.997E-01
    -3.003E-01   -3.009E-01   -3.015E-01   -3.021E-01   -3.026E-01   -3.032E-01   -3.038E-01   -3.044E-01   -3.049E-01   -3.055E-01
    -3.061E-01   -3.067E-01   -3.072E-01   -3.078E-01   -3.084E-01   -3.090E-01   -3.096E-01   -3.101E-01   -3.107E-01   -3.113E-01
    -3.119E-01   -3.124E-01   -3.130E-01   -3.136E-01   -3.142E-01   -3.147E-01   -3.153E-01   -3.159E-01   -3.165E-01   -3.171E-01
    -3.176E-01   -3.182E-01   -3.188E-01   -3.194E-01   -3.199E-01   -3.205E-01   -3.211E-01   -3.217E-01   -3.222E-01   -3.228E-01
    -3.234E-01   -3.240E-01   -3.246E-01   -3.251E-01   -3.257E-01   -3.263E-01   -3.269E-01   -3.274E-01   -3.280E-01   -3.286E-01
    -3.292E-01   -3.297E-01   -3.303E-01   -3.309E-01   -3.315E-01   -3.321E-01   -3.326E-01   -3.332E-01   -3.338E-01   -3.344E-01
    -3.349E-01   -3.355E-01   -3.361E-01   -3.367E-01   -3.373E-01   -3.378E-01   -3.384E-01   -3.390E-01
 Ala      Conc. = 2.68E+01
