 LCModel (Version 6.3-1L) Copyright: S.W. Provencher.          Ref.: Magn. Reson. Med. 30:672-679 (1993).                
 Slice#3 Row#13 Col#14  PD_05_press_1_raw_act
 36 lines in following concentration table = NCONC+1
    Conc.  %SD /Cr+PCr  Metabolite                                         
 1.68E+03   9%  30.707 Ala                                                 
    4.115  43% 7.5E-02 Asp                                                 
   54.856  33%   1.000 Cr                                                  
    0.000 999%   0.000 PCr                                                 
    2.473  43% 4.5E-02 GABA                                                
    2.478  43% 4.5E-02 Glc                                                 
  472.165  32%   8.607 Gln                                                 
  525.739  35%   9.584 Glu                                                 
    9.221  72%   0.168 GPC                                                 
    0.000 999%   0.000 PCh                                                 
    0.000 999%   0.000 GSH                                                 
   98.338  74%   1.793 Ins                                                 
  295.595  52%   5.389 Lac                                                 
    0.000 999%   0.000 NAA                                                 
    0.000 999%   0.000 NAAG                                                
    0.829  43% 1.5E-02 Scyllo                                              
    4.129  43% 7.5E-02 Tau                                                 
    5.271  47% 9.6E-02 -CrCH2                                              
    9.221  72%   0.168 GPC+PCh                                             
    0.000 999%   0.000 NAA+NAAG                                            
   54.856  33%   1.000 Cr+PCr                                              
  997.904  24%  18.191 Glu+Gln                                             
    0.000 999%   0.000 Lip13a                                              
    0.000 999%   0.000 Lip13b                                              
 4.28E-02 999% 7.8E-04 Lip09                                               
  187.183  14%   3.412 MM09                                                
    0.000 999%   0.000 Lip20                                               
    0.000 999%   0.000-MM20                                                
   50.664  39%   0.924 MM12                                                
  633.305   9%  11.545+MM14                                                
  298.379  16%   5.439+MM17                                                
    0.000 999%   0.000 Lip13a+Lip13b                                       
  683.969   9%  12.468 MM14+Lip13a+Lip13b+MM12                             
  187.226  14%   3.413 MM09+Lip09                                          
    0.000 999%   0.000 MM20+Lip20                                          
   6 lines in following misc. output table
  FWHM = 0.153 ppm    S/N =   6                                            
  Data shift = 0.054 ppm                                                   
  Ph:  73 deg       0.6 deg/ppm                                            
  alphaB,S = 8.5E+01,   3.1E+02                                            
    7 spline knots.   Ns = 9(2)                                            
   2 inflections.     1 extrema                                            
  498 points on ppm-axis = NY
      4.000000     3.992357     3.984714     3.977070     3.969427     3.961784     3.954141     3.946497     3.938854     3.931211
      3.923568     3.915925     3.908281     3.900638     3.892995     3.885352     3.877708     3.870065     3.862422     3.854779
      3.847136     3.839492     3.831849     3.824206     3.816563     3.808919     3.801276     3.793633     3.785990     3.778347
      3.770703     3.763060     3.755417     3.747774     3.740130     3.732487     3.724844     3.717201     3.709558     3.701914
      3.694271     3.686628     3.678985     3.671341     3.663698     3.656055     3.648412     3.640769     3.633125     3.625482
      3.617839     3.610196     3.602552     3.594909     3.587266     3.579623     3.571980     3.564336     3.556693     3.549050
      3.541407     3.533763     3.526120     3.518477     3.510834     3.503191     3.495547     3.487904     3.480261     3.472618
      3.464974     3.457331     3.449688     3.442045     3.434402     3.426758     3.419115     3.411472     3.403829     3.396185
      3.388542     3.380899     3.373256     3.365613     3.357969     3.350326     3.342683     3.335040     3.327396     3.319753
      3.312110     3.304467     3.296824     3.289180     3.281537     3.273894     3.266251     3.258607     3.250964     3.243321
      3.235678     3.228034     3.220391     3.212748     3.205105     3.197462     3.189818     3.182175     3.174532     3.166889
      3.159245     3.151602     3.143959     3.136316     3.128673     3.121029     3.113386     3.105743     3.098100     3.090456
      3.082813     3.075170     3.067527     3.059884     3.052240     3.044597     3.036954     3.029311     3.021667     3.014024
      3.006381     2.998738     2.991095     2.983451     2.975808     2.968165     2.960522     2.952878     2.945235     2.937592
      2.929949     2.922306     2.914662     2.907019     2.899376     2.891733     2.884089     2.876446     2.868803     2.861160
      2.853517     2.845873     2.838230     2.830587     2.822944     2.815300     2.807657     2.800014     2.792371     2.784728
      2.777084     2.769441     2.761798     2.754155     2.746511     2.738868     2.731225     2.723582     2.715939     2.708295
      2.700652     2.693009     2.685366     2.677722     2.670079     2.662436     2.654793     2.647150     2.639506     2.631863
      2.624220     2.616577     2.608933     2.601290     2.593647     2.586004     2.578361     2.570717     2.563074     2.555431
      2.547788     2.540144     2.532501     2.524858     2.517215     2.509572     2.501928     2.494285     2.486642     2.478999
      2.471355     2.463712     2.456069     2.448426     2.440783     2.433139     2.425496     2.417853     2.410210     2.402566
      2.394923     2.387280     2.379637     2.371994     2.364350     2.356707     2.349064     2.341421     2.333777     2.326134
      2.318491     2.310848     2.303205     2.295561     2.287918     2.280275     2.272632     2.264988     2.257345     2.249702
      2.242059     2.234416     2.226772     2.219129     2.211486     2.203843     2.196199     2.188556     2.180913     2.173270
      2.165627     2.157983     2.150340     2.142697     2.135054     2.127410     2.119767     2.112124     2.104481     2.096838
      2.089194     2.081551     2.073908     2.066265     2.058621     2.050978     2.043335     2.035692     2.028049     2.020405
      2.012762     2.005119     1.997476     1.989833     1.982190     1.974546     1.966903     1.959260     1.951617     1.943974
      1.936331     1.928688     1.921045     1.913402     1.905759     1.898115     1.890472     1.882829     1.875186     1.867543
      1.859900     1.852257     1.844614     1.836971     1.829327     1.821684     1.814041     1.806398     1.798755     1.791112
      1.783469     1.775826     1.768183     1.760540     1.752896     1.745253     1.737610     1.729967     1.722324     1.714681
      1.707038     1.699395     1.691752     1.684108     1.676465     1.668822     1.661179     1.653536     1.645893     1.638250
      1.630607     1.622964     1.615321     1.607677     1.600034     1.592391     1.584748     1.577105     1.569462     1.561819
      1.554176     1.546533     1.538890     1.531246     1.523603     1.515960     1.508317     1.500674     1.493031     1.485388
      1.477745     1.470102     1.462458     1.454815     1.447172     1.439529     1.431886     1.424243     1.416600     1.408957
      1.401314     1.393671     1.386027     1.378384     1.370741     1.363098     1.355455     1.347812     1.340169     1.332526
      1.324883     1.317240     1.309596     1.301953     1.294310     1.286667     1.279024     1.271381     1.263738     1.256095
      1.248452     1.240808     1.233165     1.225522     1.217879     1.210236     1.202593     1.194950     1.187307     1.179664
      1.172021     1.164377     1.156734     1.149091     1.141448     1.133805     1.126162     1.118519     1.110876     1.103233
      1.095590     1.087946     1.080303     1.072660     1.065017     1.057374     1.049731     1.042088     1.034445     1.026802
      1.019158     1.011515     1.003872     0.996229     0.988586     0.980943     0.973300     0.965657     0.958014     0.950371
      0.942727     0.935084     0.927441     0.919798     0.912155     0.904512     0.896869     0.889226     0.881583     0.873940
      0.866296     0.858653     0.851010     0.843367     0.835724     0.828081     0.820438     0.812795     0.805152     0.797508
      0.789865     0.782222     0.774579     0.766936     0.759293     0.751650     0.744007     0.736364     0.728721     0.721077
      0.713434     0.705791     0.698148     0.690505     0.682862     0.675219     0.667576     0.659933     0.652290     0.644646
      0.637003     0.629360     0.621717     0.614074     0.606431     0.598788     0.591145     0.583502     0.575858     0.568215
      0.560572     0.552929     0.545286     0.537643     0.530000     0.522357     0.514714     0.507071     0.499427     0.491784
      0.484141     0.476498     0.468855     0.461212     0.453569     0.445925     0.438282     0.430639     0.422996     0.415353
      0.407710     0.400067     0.392424     0.384780     0.377137     0.369494     0.361851     0.354208     0.346565     0.338922
      0.331278     0.323635     0.315992     0.308349     0.300706     0.293063     0.285420     0.277777     0.270133     0.262490
      0.254847     0.247204     0.239561     0.231918     0.224275     0.216631     0.208988     0.201345
 NY phased data points follow
   1.49516E-01  2.02596E+00  1.58174E+00  1.15530E+00  1.01414E+00  7.93480E-01  3.13598E-01  1.81953E+00  1.18577E+00  1.89335E-01
   1.50957E+00  1.70693E+00  1.46012E+00  3.67502E-02  1.88108E+00  9.09955E-01  6.05777E-01  1.18681E+00  1.17120E+00  9.37976E-01
   1.12898E+00  1.40537E+00  6.77353E-01  1.30899E+00  1.26831E+00  1.07510E+00  1.45515E+00  4.21971E-01  7.34163E-01  8.52532E-01
   1.70894E+00  1.23631E+00  4.89115E-01  3.86374E-01 -8.19709E-01 -4.41545E-03  5.74379E-01  1.03206E+00  6.07737E-01 -4.31506E-03
   3.51126E-02  8.33063E-01  4.96689E-01  5.63770E-01  4.27315E-01  9.49445E-01 -3.40325E-01  5.60310E-01  6.57319E-01  1.37094E+00
   6.36214E-01 -3.71938E-02  4.64569E-01  3.51163E-01 -3.56835E-02  8.57260E-01  2.62423E-01  6.53542E-01  9.79122E-01  1.81852E-01
  -9.10104E-04  6.31994E-01 -3.13930E-01  1.65301E+00  6.54693E-01 -7.57680E-01  6.37152E-01  2.48529E-01  5.52294E-01  1.21220E-01
  -1.31391E-01  9.00514E-01  1.62764E+00 -1.85366E-01 -1.19602E-01 -1.32156E-01  6.10902E-01  7.79759E-01  9.83635E-01 -7.59782E-01
   4.35033E-02  7.00168E-01  1.70006E+00  1.34392E-01  7.14568E-01 -2.95063E-01  3.30365E-01  7.45042E-01  7.30617E-01  4.48224E-02
   6.83586E-02  7.78640E-02  5.74801E-01 -2.32342E-01 -2.23572E-02  4.96796E-01 -3.52474E-01  2.57269E-01  1.02279E+00 -1.59679E-03
   8.82804E-01  1.32584E+00  1.35716E+00  3.06497E-01  3.33047E-01 -2.01326E-01 -6.93243E-01  3.65880E-01  9.53396E-01  6.25590E-01
   7.51133E-01 -6.52138E-01  3.70949E-01  1.31158E-01 -1.58950E-01  5.58563E-01  2.66518E-01 -8.00693E-01 -4.03291E-01  3.87008E-01
  -3.40796E-01 -4.61763E-01  1.21963E+00  1.80396E+00  1.36842E+00  9.38818E-01 -1.75925E-01  9.08334E-01  3.36782E-01  8.36960E-01
  -1.31709E-01  1.55373E+00  1.13568E+00 -1.46691E+00  4.71577E-01 -3.49200E-01  8.93430E-02  3.31791E-01  9.93258E-01 -3.89093E-01
   8.95375E-01  4.70413E-01  6.06847E-01 -4.31585E-01  2.28123E-01  4.00342E-01 -6.34873E-01 -3.86654E-01  1.01641E+00  9.33033E-01
  -9.37629E-01  5.61804E-01 -1.94806E-01  5.72954E-01  1.09288E+00 -3.26794E-02  7.20310E-01  5.65858E-01  8.40335E-02  2.98103E-01
   9.60577E-01  1.60472E-01 -1.26669E-01  4.58204E-02 -4.69730E-01 -2.07209E-01 -1.48871E+00  1.14769E+00  4.83987E-01 -5.98512E-01
   7.69436E-01 -2.04106E-01 -1.67146E-01  2.09485E-01 -1.21727E+00  1.26908E+00  6.91903E-01 -1.84780E-02  5.02660E-01 -2.34041E-01
   2.00357E-01 -7.16696E-02 -4.24997E-01  5.54198E-01 -6.37213E-01  5.87287E-01  4.22834E-01  5.42104E-02  4.31671E-01 -5.91724E-01
  -1.58351E-01 -1.66245E-01 -5.57702E-01 -8.61719E-02  5.04067E-01 -2.44827E-01  2.09490E-01 -5.68317E-01 -6.09187E-01  1.27992E+00
  -1.87263E-02 -2.07542E-01  3.63303E-01  5.36616E-01 -1.04133E+00 -3.85908E-01  4.06990E-02  4.29820E-01 -6.26220E-01  4.79570E-01
  -1.18842E-01 -3.67154E-01  6.25699E-02  6.93370E-02  1.16128E-01 -3.57691E-01 -2.61461E-02 -6.83173E-01 -7.12275E-02 -1.53510E-01
   5.50474E-02 -4.06460E-01 -6.44006E-01  8.95150E-01 -9.82511E-01 -2.96921E-01 -7.27265E-01  2.35091E-01 -4.92754E-01  2.38545E-01
   1.34803E+00  7.17977E-01 -4.61601E-01  2.79941E-01 -4.52837E-02 -2.46859E-01 -4.65411E-01  7.53673E-01 -1.19404E+00  7.82384E-01
  -9.44868E-01 -3.04934E-01 -3.68909E-01  3.22197E-01 -8.80676E-02 -5.24287E-01 -1.05391E+00 -9.01488E-01 -4.19775E-01 -2.32441E-01
  -5.37429E-01  2.05855E-01  8.58315E-02 -4.81541E-01  9.84070E-01  9.67187E-01  1.79532E-01  1.74120E+00  1.05088E+00  1.05954E+00
   4.92512E-01  3.14689E-01  1.42932E+00 -1.76111E-01  1.39339E-01 -7.51448E-01  1.96697E-01 -1.14130E-01  6.06603E-01  9.23253E-01
   7.29409E-01  1.36760E-01  5.20730E-02  1.26283E+00  5.51595E-01  3.69438E-01  4.66628E-01  5.32163E-01  4.73909E-02  8.90141E-01
  -1.01477E+00  9.04456E-01 -9.39012E-02  1.40750E-01  3.77094E-01  1.24666E+00  1.03977E+00 -3.84580E-01  1.02983E+00 -2.34701E-01
   4.64905E-01  2.58327E-01  5.52590E-02  2.53050E+00  2.02917E+00  5.89078E-01  1.55871E+00  1.18120E+00  1.50702E+00  1.57670E+00
   1.13346E+00  2.93428E+00  1.93592E+00  3.28540E+00  2.37874E+00  2.47471E+00  2.81261E+00  3.21926E+00  3.85262E+00  4.40036E+00
   3.99214E+00  3.95978E+00  4.21317E+00  5.00780E+00  7.65635E+00  7.18269E+00  6.79500E+00  7.28379E+00  7.25413E+00  7.29498E+00
   8.24593E+00  8.18690E+00  8.49837E+00  8.27398E+00  8.78291E+00  7.96568E+00  9.21609E+00  8.56305E+00  9.91280E+00  9.93007E+00
   1.00702E+01  9.59871E+00  8.19665E+00  8.49677E+00  9.49444E+00  8.92679E+00  8.89913E+00  7.73865E+00  8.77224E+00  7.00661E+00
   6.71237E+00  6.40414E+00  6.72991E+00  5.96544E+00  5.77534E+00  4.74556E+00  4.53682E+00  4.86656E+00  4.44398E+00  3.65795E+00
   4.02640E+00  3.31299E+00  2.91781E+00  2.59438E+00  2.45453E+00  1.03073E+00  1.32078E+00  1.76186E+00  1.68253E+00  8.87543E-01
   2.62624E-03  2.42109E+00  2.12122E+00  8.56869E-01  9.57111E-01  1.00953E+00  1.10579E+00  2.23465E+00  1.67344E+00  5.24507E-01
   1.19794E+00  6.68975E-01  1.82109E+00  1.23443E+00  9.21992E-01  6.22393E-01  1.14435E+00  1.80971E+00  1.73168E+00  1.97198E+00
   1.69370E+00  2.01799E+00  1.91107E+00  2.35788E+00  2.30596E+00  1.68255E+00  2.01956E+00  9.69642E-01  2.08180E+00  2.10039E+00
   9.05305E-01  2.21686E+00  1.22432E+00  9.92367E-01  1.91405E+00  1.78922E+00  1.73631E+00  1.27881E+00  1.02364E+00  1.07229E+00
   1.92546E+00  4.33139E-02  1.06681E+00  1.55199E+00  1.24114E+00  7.66426E-01  7.29990E-01  1.85321E+00  9.59747E-01  8.92158E-01
   1.54665E+00  3.87101E-01  1.15212E+00  7.70456E-01  9.43991E-01  3.73431E-01  9.22653E-01  6.17263E-01  1.61225E-01  1.80393E-01
   3.80550E-01  7.28730E-01  1.65326E+00  4.65805E-01  4.97115E-02  1.25178E-01  8.32616E-01  1.33620E+00 -7.81180E-02  1.61938E+00
   1.36616E+00 -4.53777E-02  5.07519E-01  5.00818E-01 -4.38443E-01  5.53780E-01  7.20478E-01  1.34093E+00 -5.68437E-01  6.77688E-01
   9.34930E-01  4.84616E-01  6.36233E-01  8.30473E-01  2.52912E-01  3.56942E-01  3.90686E-01  3.51564E-01  7.61701E-01 -7.39395E-01
   6.74288E-01 -2.73735E-01  6.67016E-01 -1.72377E-02  9.78655E-01  1.40920E-01  3.51953E-01 -1.85998E-01 -4.21932E-01  5.30061E-01
  -8.95584E-02  8.32796E-01  8.90978E-01 -9.03315E-01 -4.81771E-01 -1.05360E-01  7.37923E-02  7.73061E-01  7.69939E-01  3.61691E-01
   5.16467E-01 -5.72866E-02  8.55521E-02  6.99339E-01  1.50191E-01 -7.88798E-01 -1.23579E-01  4.05522E-01  4.66525E-01  2.84438E-01
   4.30651E-01 -3.99894E-01 -5.63673E-02  4.71072E-01 -3.00143E-01  2.76869E-01  1.36239E+00 -1.04866E-01  5.09191E-01 -9.33697E-02
  -1.44429E-02  9.99210E-01  4.32941E-01  1.87376E-01 -8.11275E-01 -6.76246E-01  3.01786E-01  2.79045E-01
 NY points of the fit to the data follow
   5.47564E-01  5.26594E-01  5.72313E-01  5.46364E-01  6.36231E-01  6.37558E-01  8.26215E-01  7.72869E-01  9.71538E-01  8.53698E-01
   1.04157E+00  8.62042E-01  1.02286E+00  7.77602E-01  1.00266E+00  7.60867E-01  9.92706E-01  7.22355E-01  9.32184E-01  6.40123E-01
   8.45011E-01  5.72091E-01  7.70358E-01  5.58555E-01  7.50570E-01  5.90530E-01  7.50974E-01  6.31467E-01  7.20403E-01  6.38804E-01
   6.56625E-01  6.32579E-01  6.18273E-01  6.66054E-01  6.37901E-01  7.40813E-01  6.87837E-01  8.09218E-01  7.01663E-01  8.06748E-01
   6.80222E-01  7.90071E-01  6.64969E-01  7.88954E-01  6.91701E-01  8.26566E-01  7.59286E-01  8.41518E-01  7.49365E-01  7.84906E-01
   6.68601E-01  6.65860E-01  5.54559E-01  5.40506E-01  5.06893E-01  5.18350E-01  5.15424E-01  5.19837E-01  5.22802E-01  5.08081E-01
   5.10749E-01  4.78545E-01  4.77829E-01  4.46331E-01  4.48941E-01  4.18691E-01  4.22834E-01  3.95111E-01  4.02161E-01  3.78106E-01
   3.86844E-01  3.61185E-01  3.66851E-01  3.37739E-01  3.40512E-01  3.08108E-01  3.08726E-01  2.74036E-01  2.73966E-01  2.38836E-01
   2.37777E-01  2.04261E-01  2.04073E-01  1.73457E-01  1.78851E-01  1.66106E-01  1.71883E-01  1.69986E-01  1.73805E-01  1.84645E-01
   1.86476E-01  2.13216E-01  2.10983E-01  2.49711E-01  2.42964E-01  2.89543E-01  2.76034E-01  3.25458E-01  3.03793E-01  3.49648E-01
   3.20130E-01  3.59939E-01  3.24903E-01  3.58825E-01  3.20404E-01  3.47252E-01  3.07128E-01  3.26079E-01  2.92739E-01  3.30729E-01
   3.07737E-01  3.49762E-01  3.35185E-01  3.85023E-01  3.80661E-01  4.43980E-01  4.47677E-01  5.14675E-01  5.21776E-01  5.86779E-01
   5.91862E-01  6.47613E-01  6.47321E-01  6.88033E-01  6.81839E-01  7.12034E-01  6.97458E-01  7.12868E-01  6.90400E-01  6.90308E-01
   6.60371E-01  6.43748E-01  6.06835E-01  5.72858E-01  5.31967E-01  4.89337E-01  4.48222E-01  4.01671E-01  3.62755E-01  3.16355E-01
   2.80831E-01  2.35588E-01  2.04367E-01  1.64066E-01  1.37820E-01  1.02179E-01  8.19265E-02  5.66869E-02  4.57014E-02  4.09200E-02
   3.57848E-02  3.31708E-02  2.88929E-02  2.71357E-02  2.33606E-02  2.22228E-02  1.89063E-02  1.83148E-02  1.54341E-02  1.51288E-02
   1.25246E-02  1.25332E-02  1.02676E-02  1.04945E-02  8.58749E-03  9.05658E-03  7.88372E-03  8.71095E-03  8.10614E-03  9.66354E-03
   9.66369E-03  1.15784E-02  1.23863E-02  1.48884E-02  1.64180E-02  1.56292E-02  1.06679E-02  7.67244E-03 -1.60706E-02 -1.85249E-02
  -5.93859E-02 -5.78531E-02 -1.12647E-01 -8.32046E-02 -1.42379E-01 -8.47369E-02 -1.47409E-01 -4.57410E-02 -1.15534E-01  1.47588E-02
  -7.14088E-02  4.57051E-02 -1.00292E-01  5.17038E-02 -1.31733E-01  4.76461E-02 -1.69820E-01  4.83796E-02 -1.71481E-01  6.87822E-02
  -1.54266E-01  9.80057E-02 -1.10738E-01  1.30398E-01 -7.47842E-02  1.36960E-01 -2.48800E-02  1.50888E-01  2.23299E-02  1.46395E-01
   3.99587E-02  1.15648E-01  3.92361E-02  8.68564E-02  4.58103E-02  8.69590E-02  8.48011E-02  9.94904E-02  1.03858E-01  1.20520E-01
   1.29388E-01  1.60713E-01  1.64420E-01  2.37366E-01  2.10774E-01  3.07744E-01  2.59481E-01  3.93274E-01  3.12863E-01  4.54109E-01
   3.21681E-01  4.42755E-01  2.60607E-01  3.90174E-01  1.98337E-01  3.34390E-01  1.61533E-01  2.99823E-01  1.62731E-01  2.78674E-01
   1.53565E-01  2.47794E-01  1.37263E-01  2.02997E-01  9.46457E-02  1.45263E-01  6.85500E-02  1.18827E-01  7.22444E-02  1.35314E-01
   1.11634E-01  1.79897E-01  1.72331E-01  2.39555E-01  2.39510E-01  3.06229E-01  3.10088E-01  3.67707E-01  3.62416E-01  4.25980E-01
   4.23748E-01  4.96584E-01  4.95017E-01  5.71004E-01  5.58401E-01  6.17915E-01  6.03186E-01  6.48909E-01  6.31633E-01  6.65713E-01
   6.51563E-01  6.75060E-01  6.66052E-01  6.84235E-01  6.82538E-01  7.00002E-01  7.05011E-01  7.19721E-01  7.24156E-01  7.34262E-01
   7.34334E-01  7.42271E-01  7.46632E-01  7.57528E-01  7.66413E-01  7.79586E-01  7.94353E-01  8.07556E-01  8.25393E-01  8.42264E-01
   8.63460E-01  8.84278E-01  9.09725E-01  9.36441E-01  9.68748E-01  1.00615E+00  1.05066E+00  1.10257E+00  1.16391E+00  1.23670E+00
   1.32337E+00  1.42827E+00  1.55520E+00  1.71255E+00  1.90914E+00  2.16202E+00  2.50001E+00  2.99341E+00  3.65214E+00  4.03363E+00
   4.72604E+00  4.98384E+00  5.72512E+00  5.79755E+00  6.50821E+00  6.20921E+00  7.13086E+00  6.73380E+00  7.70488E+00  7.14169E+00
   8.09497E+00  7.39756E+00  8.35928E+00  7.70743E+00  8.64167E+00  8.09503E+00  8.96365E+00  8.51130E+00  9.23807E+00  8.89399E+00
   9.33427E+00  8.95682E+00  9.07989E+00  8.72824E+00  8.66445E+00  8.35178E+00  8.12981E+00  7.89036E+00  7.58777E+00  7.34917E+00
   6.92311E+00  6.63868E+00  6.19055E+00  5.88096E+00  5.48360E+00  5.20845E+00  4.95829E+00  4.73159E+00  4.62541E+00  4.21489E+00
   4.07748E+00  3.55595E+00  3.39685E+00  2.79064E+00  2.66356E+00  2.07808E+00  2.16994E+00  1.77480E+00  1.93052E+00  1.62872E+00
   1.78927E+00  1.53871E+00  1.67225E+00  1.47224E+00  1.57283E+00  1.41530E+00  1.48669E+00  1.38007E+00  1.43017E+00  1.36768E+00
   1.38206E+00  1.30834E+00  1.29664E+00  1.22207E+00  1.19201E+00  1.13113E+00  1.09856E+00  1.08664E+00  1.08679E+00  1.09628E+00
   1.11343E+00  1.13754E+00  1.16764E+00  1.20325E+00  1.24331E+00  1.28720E+00  1.33360E+00  1.38161E+00  1.42970E+00  1.47672E+00
   1.52099E+00  1.56129E+00  1.59595E+00  1.62393E+00  1.64382E+00  1.65493E+00  1.65633E+00  1.64790E+00  1.62931E+00  1.60105E+00
   1.56341E+00  1.51745E+00  1.46395E+00  1.40438E+00  1.33980E+00  1.27184E+00  1.20163E+00  1.13072E+00  1.06007E+00  9.90979E-01
   9.24108E-01  8.60426E-01  8.00232E-01  7.44142E-01  6.92127E-01  6.44507E-01  6.01001E-01  5.61721E-01  5.26220E-01  4.94491E-01
   4.66009E-01  4.40721E-01  4.18090E-01  3.98067E-01  3.80138E-01  3.64289E-01  3.50047E-01  3.37445E-01  3.26055E-01  3.15955E-01
   3.06759E-01  2.98583E-01  2.91076E-01  2.84386E-01  2.78191E-01  2.72661E-01  2.67494E-01  2.62878E-01  2.58526E-01  2.54641E-01
   2.50946E-01  2.47652E-01  2.44491E-01  2.41681E-01  2.38960E-01  2.36553E-01  2.34201E-01  2.32131E-01  2.30088E-01  2.28304E-01
   2.26526E-01  2.24988E-01  2.23437E-01  2.22110E-01  2.20757E-01  2.19615E-01  2.18435E-01  2.17457E-01  2.16431E-01  2.15597E-01
   2.14709E-01  2.14004E-01  2.13241E-01  2.12655E-01  2.12004E-01  2.11526E-01  2.10981E-01  2.10604E-01  2.10156E-01  2.09874E-01
   2.09518E-01  2.09326E-01  2.09059E-01  2.08955E-01  2.08775E-01  2.08757E-01  2.08663E-01  2.08731E-01  2.08726E-01  2.08883E-01
   2.08968E-01  2.09219E-01  2.09401E-01  2.09753E-01  2.10041E-01  2.10505E-01  2.10912E-01  2.11503E-01  2.12049E-01  2.12792E-01
   2.13504E-01  2.14432E-01  2.15353E-01  2.16519E-01  2.17715E-01  2.19203E-01  2.20785E-01  2.22745E-01
 NY background values follow
     1.332E-01    1.335E-01    1.337E-01    1.339E-01    1.341E-01    1.344E-01    1.346E-01    1.348E-01    1.351E-01    1.353E-01
     1.355E-01    1.357E-01    1.360E-01    1.362E-01    1.364E-01    1.367E-01    1.369E-01    1.371E-01    1.373E-01    1.376E-01
     1.378E-01    1.380E-01    1.383E-01    1.385E-01    1.387E-01    1.390E-01    1.392E-01    1.394E-01    1.396E-01    1.399E-01
     1.401E-01    1.403E-01    1.406E-01    1.408E-01    1.410E-01    1.412E-01    1.415E-01    1.417E-01    1.419E-01    1.422E-01
     1.424E-01    1.426E-01    1.428E-01    1.431E-01    1.433E-01    1.435E-01    1.438E-01    1.440E-01    1.442E-01    1.444E-01
     1.447E-01    1.449E-01    1.451E-01    1.454E-01    1.456E-01    1.458E-01    1.461E-01    1.463E-01    1.465E-01    1.467E-01
     1.470E-01    1.472E-01    1.474E-01    1.477E-01    1.479E-01    1.481E-01    1.484E-01    1.486E-01    1.488E-01    1.490E-01
     1.493E-01    1.495E-01    1.497E-01    1.500E-01    1.502E-01    1.504E-01    1.507E-01    1.509E-01    1.511E-01    1.514E-01
     1.516E-01    1.518E-01    1.521E-01    1.523E-01    1.525E-01    1.527E-01    1.530E-01    1.532E-01    1.534E-01    1.537E-01
     1.539E-01    1.541E-01    1.544E-01    1.546E-01    1.548E-01    1.551E-01    1.553E-01    1.555E-01    1.558E-01    1.560E-01
     1.562E-01    1.565E-01    1.567E-01    1.569E-01    1.572E-01    1.574E-01    1.576E-01    1.579E-01    1.581E-01    1.583E-01
     1.586E-01    1.588E-01    1.590E-01    1.593E-01    1.595E-01    1.597E-01    1.600E-01    1.602E-01    1.604E-01    1.607E-01
     1.609E-01    1.612E-01    1.614E-01    1.616E-01    1.619E-01    1.621E-01    1.623E-01    1.626E-01    1.628E-01    1.630E-01
     1.633E-01    1.635E-01    1.638E-01    1.640E-01    1.642E-01    1.645E-01    1.647E-01    1.649E-01    1.652E-01    1.654E-01
     1.657E-01    1.659E-01    1.661E-01    1.664E-01    1.666E-01    1.668E-01    1.671E-01    1.673E-01    1.676E-01    1.678E-01
     1.680E-01    1.683E-01    1.685E-01    1.688E-01    1.690E-01    1.692E-01    1.695E-01    1.697E-01    1.700E-01    1.702E-01
     1.704E-01    1.707E-01    1.709E-01    1.712E-01    1.714E-01    1.716E-01    1.719E-01    1.721E-01    1.724E-01    1.726E-01
     1.729E-01    1.731E-01    1.733E-01    1.736E-01    1.738E-01    1.741E-01    1.743E-01    1.746E-01    1.748E-01    1.750E-01
     1.753E-01    1.755E-01    1.758E-01    1.760E-01    1.763E-01    1.765E-01    1.768E-01    1.770E-01    1.773E-01    1.775E-01
     1.777E-01    1.780E-01    1.782E-01    1.785E-01    1.787E-01    1.790E-01    1.792E-01    1.795E-01    1.797E-01    1.800E-01
     1.802E-01    1.805E-01    1.807E-01    1.810E-01    1.812E-01    1.815E-01    1.817E-01    1.820E-01    1.822E-01    1.825E-01
     1.827E-01    1.829E-01    1.832E-01    1.834E-01    1.837E-01    1.840E-01    1.842E-01    1.845E-01    1.847E-01    1.850E-01
     1.852E-01    1.855E-01    1.857E-01    1.860E-01    1.862E-01    1.865E-01    1.867E-01    1.870E-01    1.872E-01    1.875E-01
     1.877E-01    1.880E-01    1.882E-01    1.885E-01    1.888E-01    1.890E-01    1.893E-01    1.895E-01    1.898E-01    1.900E-01
     1.903E-01    1.905E-01    1.908E-01    1.911E-01    1.913E-01    1.916E-01    1.918E-01    1.921E-01    1.923E-01    1.926E-01
     1.929E-01    1.931E-01    1.934E-01    1.936E-01    1.939E-01    1.941E-01    1.944E-01    1.947E-01    1.949E-01    1.952E-01
     1.954E-01    1.957E-01    1.960E-01    1.962E-01    1.965E-01    1.967E-01    1.970E-01    1.973E-01    1.975E-01    1.978E-01
     1.981E-01    1.983E-01    1.986E-01    1.988E-01    1.991E-01    1.994E-01    1.996E-01    1.999E-01    2.002E-01    2.004E-01
     2.007E-01    2.009E-01    2.012E-01    2.015E-01    2.017E-01    2.020E-01    2.023E-01    2.025E-01    2.028E-01    2.031E-01
     2.033E-01    2.036E-01    2.039E-01    2.041E-01    2.044E-01    2.047E-01    2.049E-01    2.052E-01    2.055E-01    2.057E-01
     2.060E-01    2.062E-01    2.065E-01    2.068E-01    2.070E-01    2.073E-01    2.076E-01    2.078E-01    2.081E-01    2.084E-01
     2.086E-01    2.089E-01    2.092E-01    2.095E-01    2.097E-01    2.100E-01    2.103E-01    2.105E-01    2.108E-01    2.111E-01
     2.113E-01    2.116E-01    2.119E-01    2.121E-01    2.124E-01    2.127E-01    2.129E-01    2.132E-01    2.135E-01    2.137E-01
     2.140E-01    2.143E-01    2.145E-01    2.148E-01    2.151E-01    2.153E-01    2.156E-01    2.159E-01    2.161E-01    2.164E-01
     2.167E-01    2.170E-01    2.172E-01    2.175E-01    2.178E-01    2.180E-01    2.183E-01    2.186E-01    2.188E-01    2.191E-01
     2.194E-01    2.196E-01    2.199E-01    2.202E-01    2.204E-01    2.207E-01    2.210E-01    2.212E-01    2.215E-01    2.218E-01
     2.220E-01    2.223E-01    2.226E-01    2.229E-01    2.231E-01    2.234E-01    2.237E-01    2.239E-01    2.242E-01    2.245E-01
     2.247E-01    2.250E-01    2.253E-01    2.255E-01    2.258E-01    2.261E-01    2.263E-01    2.266E-01    2.269E-01    2.271E-01
     2.274E-01    2.277E-01    2.279E-01    2.282E-01    2.285E-01    2.287E-01    2.290E-01    2.293E-01    2.295E-01    2.298E-01
     2.301E-01    2.303E-01    2.306E-01    2.309E-01    2.311E-01    2.314E-01    2.317E-01    2.319E-01    2.322E-01    2.325E-01
     2.327E-01    2.330E-01    2.332E-01    2.335E-01    2.338E-01    2.340E-01    2.343E-01    2.346E-01    2.348E-01    2.351E-01
     2.354E-01    2.356E-01    2.359E-01    2.362E-01    2.364E-01    2.367E-01    2.369E-01    2.372E-01    2.375E-01    2.377E-01
     2.380E-01    2.383E-01    2.385E-01    2.388E-01    2.390E-01    2.393E-01    2.396E-01    2.398E-01    2.401E-01    2.404E-01
     2.406E-01    2.409E-01    2.411E-01    2.414E-01    2.417E-01    2.419E-01    2.422E-01    2.425E-01    2.427E-01    2.430E-01
     2.432E-01    2.435E-01    2.438E-01    2.440E-01    2.443E-01    2.445E-01    2.448E-01    2.451E-01    2.453E-01    2.456E-01
     2.458E-01    2.461E-01    2.464E-01    2.466E-01    2.469E-01    2.471E-01    2.474E-01    2.476E-01    2.479E-01    2.482E-01
     2.484E-01    2.487E-01    2.489E-01    2.492E-01    2.495E-01    2.497E-01    2.500E-01    2.502E-01    2.505E-01    2.507E-01
     2.510E-01    2.513E-01    2.515E-01    2.518E-01    2.520E-01    2.523E-01    2.525E-01    2.528E-01    2.530E-01    2.533E-01
     2.536E-01    2.538E-01    2.541E-01    2.543E-01    2.546E-01    2.548E-01    2.551E-01    2.553E-01    2.556E-01    2.558E-01
     2.561E-01    2.564E-01    2.566E-01    2.569E-01    2.571E-01    2.574E-01    2.576E-01    2.579E-01
 Ala      Conc. = 1.68E+03
