 LCModel (Version 6.3-1L) Copyright: S.W. Provencher.          Ref.: Magn. Reson. Med. 30:672-679 (1993).                
 Slice#3 Row#3 Col#6  PD_05_press_1_raw_act
 36 lines in following concentration table = NCONC+1
    Conc.  %SD /Cr+PCr  Metabolite                                         
   51.147 291% 3.1E-02 Ala                                                 
    0.000 999%   0.000 Asp                                                 
 1.15E+03  26%   0.695 Cr                                                  
  505.302  58%   0.305 PCr                                                 
  181.433  90%   0.109 GABA                                                
    0.000 999%   0.000 Glc                                                 
 2.41E+03  16%   1.453 Gln                                                 
 1.88E+03  24%   1.131 Glu                                                 
  522.438   4%   0.315 GPC                                                 
    0.000 999%   0.000 PCh                                                 
  634.008  13%   0.382 GSH                                                 
 2.23E+03  13%   1.343 Ins                                                 
    0.000 999%   0.000 Lac                                                 
 2.09E+03   3%   1.258 NAA                                                 
    0.000 999%   0.000 NAAG                                                
  175.283  15%   0.106 Scyllo                                              
    0.000 999%   0.000 Tau                                                 
  440.265  26%   0.265 -CrCH2                                              
  522.438   4%   0.315 GPC+PCh                                             
 2.09E+03   3%   1.258 NAA+NAAG                                            
 1.66E+03   3%   1.000 Cr+PCr                                              
 4.29E+03  18%   2.584 Glu+Gln                                             
  359.857  58%   0.217 Lip13a                                              
    0.000 999%   0.000 Lip13b                                              
    0.000 999%   0.000 Lip09                                               
  927.862  14%   0.559 MM09                                                
   61.493 117% 3.7E-02 Lip20                                               
 2.05E+03  13%   1.237 MM20                                                
  312.919  31%   0.189 MM12                                                
  986.245  22%   0.594 MM14                                                
  411.587  36%   0.248 MM17                                                
  359.857  58%   0.217 Lip13a+Lip13b                                       
 1.66E+03  16%   1.000 MM14+Lip13a+Lip13b+MM12                             
  927.862  14%   0.559 MM09+Lip09                                          
 2.11E+03  13%   1.274 MM20+Lip20                                          
   6 lines in following misc. output table
  FWHM = 0.092 ppm    S/N =  12                                            
  Data shift =-0.038 ppm                                                   
  Ph:   5 deg      -5.6 deg/ppm                                            
  alphaB,S = 9.6E-01,   7.8E+02                                            
   14 spline knots.   Ns =11(1)                                            
  ( 6) 4 infls.   ( 1) 1 extrs.                                            
  498 points on ppm-axis = NY
      4.000000     3.992357     3.984714     3.977070     3.969427     3.961784     3.954141     3.946497     3.938854     3.931211
      3.923568     3.915925     3.908281     3.900638     3.892995     3.885352     3.877708     3.870065     3.862422     3.854779
      3.847136     3.839492     3.831849     3.824206     3.816563     3.808919     3.801276     3.793633     3.785990     3.778347
      3.770703     3.763060     3.755417     3.747774     3.740130     3.732487     3.724844     3.717201     3.709558     3.701914
      3.694271     3.686628     3.678985     3.671341     3.663698     3.656055     3.648412     3.640769     3.633125     3.625482
      3.617839     3.610196     3.602552     3.594909     3.587266     3.579623     3.571980     3.564336     3.556693     3.549050
      3.541407     3.533763     3.526120     3.518477     3.510834     3.503191     3.495547     3.487904     3.480261     3.472618
      3.464974     3.457331     3.449688     3.442045     3.434402     3.426758     3.419115     3.411472     3.403829     3.396185
      3.388542     3.380899     3.373256     3.365613     3.357969     3.350326     3.342683     3.335040     3.327396     3.319753
      3.312110     3.304467     3.296824     3.289180     3.281537     3.273894     3.266251     3.258607     3.250964     3.243321
      3.235678     3.228034     3.220391     3.212748     3.205105     3.197462     3.189818     3.182175     3.174532     3.166889
      3.159245     3.151602     3.143959     3.136316     3.128673     3.121029     3.113386     3.105743     3.098100     3.090456
      3.082813     3.075170     3.067527     3.059884     3.052240     3.044597     3.036954     3.029311     3.021667     3.014024
      3.006381     2.998738     2.991095     2.983451     2.975808     2.968165     2.960522     2.952878     2.945235     2.937592
      2.929949     2.922306     2.914662     2.907019     2.899376     2.891733     2.884089     2.876446     2.868803     2.861160
      2.853517     2.845873     2.838230     2.830587     2.822944     2.815300     2.807657     2.800014     2.792371     2.784728
      2.777084     2.769441     2.761798     2.754155     2.746511     2.738868     2.731225     2.723582     2.715939     2.708295
      2.700652     2.693009     2.685366     2.677722     2.670079     2.662436     2.654793     2.647150     2.639506     2.631863
      2.624220     2.616577     2.608933     2.601290     2.593647     2.586004     2.578361     2.570717     2.563074     2.555431
      2.547788     2.540144     2.532501     2.524858     2.517215     2.509572     2.501928     2.494285     2.486642     2.478999
      2.471355     2.463712     2.456069     2.448426     2.440783     2.433139     2.425496     2.417853     2.410210     2.402566
      2.394923     2.387280     2.379637     2.371994     2.364350     2.356707     2.349064     2.341421     2.333777     2.326134
      2.318491     2.310848     2.303205     2.295561     2.287918     2.280275     2.272632     2.264988     2.257345     2.249702
      2.242059     2.234416     2.226772     2.219129     2.211486     2.203843     2.196199     2.188556     2.180913     2.173270
      2.165627     2.157983     2.150340     2.142697     2.135054     2.127410     2.119767     2.112124     2.104481     2.096838
      2.089194     2.081551     2.073908     2.066265     2.058621     2.050978     2.043335     2.035692     2.028049     2.020405
      2.012762     2.005119     1.997476     1.989833     1.982190     1.974546     1.966903     1.959260     1.951617     1.943974
      1.936331     1.928688     1.921045     1.913402     1.905759     1.898115     1.890472     1.882829     1.875186     1.867543
      1.859900     1.852257     1.844614     1.836971     1.829327     1.821684     1.814041     1.806398     1.798755     1.791112
      1.783469     1.775826     1.768183     1.760540     1.752896     1.745253     1.737610     1.729967     1.722324     1.714681
      1.707038     1.699395     1.691752     1.684108     1.676465     1.668822     1.661179     1.653536     1.645893     1.638250
      1.630607     1.622964     1.615321     1.607677     1.600034     1.592391     1.584748     1.577105     1.569462     1.561819
      1.554176     1.546533     1.538890     1.531246     1.523603     1.515960     1.508317     1.500674     1.493031     1.485388
      1.477745     1.470102     1.462458     1.454815     1.447172     1.439529     1.431886     1.424243     1.416600     1.408957
      1.401314     1.393671     1.386027     1.378384     1.370741     1.363098     1.355455     1.347812     1.340169     1.332526
      1.324883     1.317240     1.309596     1.301953     1.294310     1.286667     1.279024     1.271381     1.263738     1.256095
      1.248452     1.240808     1.233165     1.225522     1.217879     1.210236     1.202593     1.194950     1.187307     1.179664
      1.172021     1.164377     1.156734     1.149091     1.141448     1.133805     1.126162     1.118519     1.110876     1.103233
      1.095590     1.087946     1.080303     1.072660     1.065017     1.057374     1.049731     1.042088     1.034445     1.026802
      1.019158     1.011515     1.003872     0.996229     0.988586     0.980943     0.973300     0.965657     0.958014     0.950371
      0.942727     0.935084     0.927441     0.919798     0.912155     0.904512     0.896869     0.889226     0.881583     0.873940
      0.866296     0.858653     0.851010     0.843367     0.835724     0.828081     0.820438     0.812795     0.805152     0.797508
      0.789865     0.782222     0.774579     0.766936     0.759293     0.751650     0.744007     0.736364     0.728721     0.721077
      0.713434     0.705791     0.698148     0.690505     0.682862     0.675219     0.667576     0.659933     0.652290     0.644646
      0.637003     0.629360     0.621717     0.614074     0.606431     0.598788     0.591145     0.583502     0.575858     0.568215
      0.560572     0.552929     0.545286     0.537643     0.530000     0.522357     0.514714     0.507071     0.499427     0.491784
      0.484141     0.476498     0.468855     0.461212     0.453569     0.445925     0.438282     0.430639     0.422996     0.415353
      0.407710     0.400067     0.392424     0.384780     0.377137     0.369494     0.361851     0.354208     0.346565     0.338922
      0.331278     0.323635     0.315992     0.308349     0.300706     0.293063     0.285420     0.277777     0.270133     0.262490
      0.254847     0.247204     0.239561     0.231918     0.224275     0.216631     0.208988     0.201345
 NY phased data points follow
   6.64911E+00  1.03187E+01  6.16785E+00  8.39301E+00  1.60991E+01  1.51784E+01  1.58931E+01  2.07347E+01  2.42548E+01  2.39062E+01
   2.02087E+01  2.31978E+01  2.12541E+01  1.99200E+01  2.21302E+01  1.84267E+01  1.55807E+01  1.50751E+01  1.71831E+01  1.62773E+01
   1.24281E+01  1.41894E+01  1.36558E+01  1.04607E+01  1.11263E+01  1.36953E+01  1.60695E+01  1.11967E+01  1.87667E+01  1.36473E+01
   1.61720E+01  1.58675E+01  1.64711E+01  1.26622E+01  1.18276E+01  1.09966E+01  9.69247E+00  1.17207E+01  1.24554E+01  1.25841E+01
   1.41928E+01  1.31838E+01  1.50939E+01  1.55954E+01  1.32338E+01  1.46370E+01  1.52034E+01  1.27566E+01  1.60229E+01  1.48359E+01
   1.16917E+01  1.16353E+01  1.31809E+01  9.33894E+00  1.13285E+01  1.09624E+01  1.21782E+01  9.35601E+00  8.83077E+00  9.45501E+00
   6.26679E+00  5.11823E+00  6.58247E+00  2.70068E+00  5.06957E+00  4.77456E+00  3.93271E+00  3.14252E+00  4.15500E+00  5.27332E+00
   3.11700E+00  2.30139E+00  3.89917E+00  5.17601E+00  2.89000E+00  3.17555E+00  6.86090E+00  3.12884E+00  3.24265E+00  4.09293E+00
   6.34926E+00  4.38393E+00  4.04560E+00  5.54825E+00  5.99916E+00  6.71096E+00  6.33616E+00  5.75069E+00  6.15251E+00  6.81896E+00
   9.60159E+00  7.08416E+00  7.27981E+00  7.95850E+00  6.70167E+00  6.67590E+00  1.18100E+01  1.17273E+01  1.58695E+01  1.94318E+01
   2.14148E+01  2.57817E+01  2.92133E+01  3.16030E+01  3.19698E+01  2.72353E+01  2.71649E+01  2.63587E+01  2.10485E+01  1.76278E+01
   1.84442E+01  1.46628E+01  1.32756E+01  6.78550E+00  1.06928E+01  8.11096E+00  7.00084E+00  9.38862E+00  1.12933E+01  1.00862E+01
   1.22950E+01  2.12700E+01  2.08134E+01  2.40614E+01  2.98061E+01  3.47436E+01  3.59081E+01  3.87132E+01  3.72092E+01  3.15234E+01
   3.14763E+01  2.56672E+01  2.14229E+01  2.05173E+01  1.92014E+01  1.54666E+01  6.30290E+00  6.80945E+00  4.76186E+00  3.14770E+00
   1.55425E+00  2.02528E+00  2.31497E+00  6.20390E-01  2.28247E+00  1.52319E+00  3.58796E+00  1.05250E+00  2.12682E+00  3.03895E+00
   1.43192E+00  1.03076E+00  1.29978E+00 -2.47584E-01  2.87129E-01  1.63582E+00  1.47468E+00 -3.25021E-01  7.72871E-02  9.27160E-01
  -2.69185E+00 -3.97144E+00 -2.66564E+00 -1.26343E+00 -1.33655E+00 -3.05705E-01 -1.38460E+00 -1.77111E+00 -1.55644E+00 -2.14489E+00
  -4.61756E+00 -2.33853E+00 -5.84014E+00 -3.70751E+00 -5.30695E+00 -5.93903E+00 -8.68399E+00 -5.65004E+00 -5.49030E+00 -7.85822E+00
  -6.68862E+00 -6.94316E+00 -6.83187E+00 -7.34253E+00 -7.60759E+00 -5.09684E+00 -1.16250E+00 -3.42055E+00 -3.11632E+00 -1.57721E-01
   2.04174E+00  1.60607E+00  2.27787E+00  3.56343E+00  3.44517E+00  2.30675E+00  5.13718E+00  7.70415E-01  6.53641E+00  3.52367E+00
   4.19523E+00  1.81156E+00  3.08743E+00  2.00664E+00  3.22185E+00  8.58613E-01  9.95543E-01 -5.43964E-01 -6.53648E-01  2.00603E-01
   3.56984E+00  2.97610E+00  5.23225E+00  4.76411E+00  4.37027E+00  7.81431E+00  7.60244E+00  9.28793E+00  4.54747E+00  6.15184E+00
   5.20574E+00  2.73218E+00  5.53535E+00  8.37919E+00  7.10224E+00  8.30742E+00  8.27476E+00  9.72075E+00  4.68217E+00  7.49485E+00
   7.78485E+00  7.08087E+00  9.76011E+00  8.45851E+00  7.63119E+00  8.89443E+00  9.74045E+00  9.91761E+00  4.65137E+00  7.70365E+00
   7.99095E+00  8.48463E+00  9.46598E+00  7.96921E+00  9.88120E+00  1.01868E+01  9.24262E+00  9.02053E+00  1.21284E+01  9.95908E+00
   1.10495E+01  9.86897E+00  1.40240E+01  1.73429E+01  2.35725E+01  2.73584E+01  3.32977E+01  4.35956E+01  4.60735E+01  5.34601E+01
   5.14224E+01  5.43662E+01  5.44835E+01  4.88727E+01  4.19718E+01  3.92486E+01  3.35958E+01  3.05505E+01  2.80077E+01  2.42793E+01
   1.83558E+01  1.57033E+01  1.45129E+01  9.08607E+00  1.06278E+01  1.13064E+01  8.54174E+00  9.21760E+00  7.27188E+00  7.19469E+00
   5.93555E+00  4.78022E+00  4.44601E+00  5.49784E+00  4.29285E+00  4.76331E+00  6.68347E+00  5.45658E+00  4.49464E+00  4.44172E+00
   4.65707E+00  5.27350E+00  5.91419E+00  5.89333E+00  6.09867E+00  6.57426E+00  3.63457E+00  5.42860E+00  1.05646E+00  5.14826E+00
   4.01100E+00  5.63579E+00  4.46851E+00  6.93944E+00  6.05995E+00  4.18168E+00  6.69777E+00  9.43559E+00  7.93598E+00  8.08459E+00
   8.31282E+00  8.14455E+00  6.50290E+00  5.12981E+00  8.08848E+00  8.68781E+00  6.91752E+00  5.88733E+00  9.94622E+00  5.79119E+00
   8.08185E+00  4.82281E+00  6.41414E+00  6.12517E+00  5.59254E+00  9.22987E+00  8.96280E+00  4.94222E+00  6.00759E+00  8.26098E+00
   6.90104E+00  1.01305E+01  7.34431E+00  9.78496E+00  8.74145E+00  8.96614E+00  9.14947E+00  8.00072E+00  6.98515E+00  1.14137E+01
   8.19054E+00  6.47509E+00  8.31420E+00  9.70274E+00  9.78615E+00  1.05052E+01  9.38495E+00  1.09238E+01  1.03793E+01  9.01359E+00
   1.08496E+01  8.29342E+00  8.82424E+00  1.01290E+01  1.00605E+01  5.55833E+00  4.54948E+00  6.29173E+00  6.09741E+00  7.67727E+00
   5.20526E+00  8.08254E+00  6.47179E+00  7.46381E+00  6.45917E+00  7.40928E+00  7.04427E+00  7.39617E+00  4.60435E+00  8.43123E+00
   8.93942E+00  7.39768E+00  7.23810E+00  7.11333E+00  4.71899E+00  4.99728E+00  6.10669E+00  8.45852E+00  4.14965E+00  5.52585E+00
   5.76052E+00  5.54453E+00  5.63229E+00  3.60417E+00  4.59964E+00  4.24315E+00  4.05376E+00  8.17668E+00  7.46100E+00  7.14110E+00
   4.78881E+00  5.59415E+00  5.51378E+00  5.95863E+00  6.08055E+00  7.25832E+00  4.63783E+00  6.63295E+00  7.77155E+00  7.48014E+00
   6.70861E+00  6.95316E+00  9.89396E+00  7.84379E+00  7.55550E+00  1.17795E+01  1.13164E+01  1.21494E+01  1.32373E+01  9.52542E+00
   1.26735E+01  1.01442E+01  9.03252E+00  9.28455E+00  9.90880E+00  9.15541E+00  1.05417E+01  7.84014E+00  6.97266E+00  5.88214E+00
   7.60079E+00  4.33573E+00  4.65675E+00  1.26223E+00  6.19119E+00  6.87531E+00  6.43905E+00  7.35926E+00  5.30211E+00  4.40337E+00
   4.78955E+00  3.06166E+00  3.93870E+00  2.49778E+00  3.01635E+00  2.77466E+00  3.89704E+00  2.51629E+00  6.40411E+00  1.12647E+00
   3.34359E+00  4.32192E+00  2.42723E+00  4.63150E+00  2.09722E+00  3.59075E+00  2.88227E+00  2.70914E+00  1.70175E+00  5.06686E+00
   4.86560E+00  1.37171E+00  5.37937E+00  2.64374E+00  3.85707E+00  2.95680E+00  3.60795E+00  4.58295E+00  4.25608E-01  1.83652E+00
   2.42420E+00  3.70160E+00  4.77590E+00  4.41087E+00  3.55350E+00  3.91516E+00  5.95761E+00  1.84021E+00  3.10327E+00  4.89844E+00
   4.57826E+00  4.08672E+00  6.86738E+00  1.52574E+00  3.87818E+00  3.02795E+00  2.91693E+00  1.29891E+00  4.06459E+00  3.26876E+00
   4.00645E+00  3.13608E+00  2.93428E+00  1.81662E+00  2.68529E+00  3.46104E+00  6.37190E+00  4.47040E+00  5.31354E+00  3.53658E+00
   3.36317E+00  3.44386E+00  4.32756E-01  2.89948E+00  2.64909E+00  3.45782E+00  2.78078E+00  2.39070E+00
 NY points of the fit to the data follow
   9.20840E+00  9.47792E+00  1.01820E+01  1.12762E+01  1.27581E+01  1.46164E+01  1.66762E+01  1.87428E+01  2.06434E+01  2.21440E+01
   2.30558E+01  2.33066E+01  2.29296E+01  2.20527E+01  2.08559E+01  1.94902E+01  1.80713E+01  1.66235E+01  1.51703E+01  1.37622E+01
   1.24381E+01  1.13230E+01  1.05801E+01  1.04273E+01  1.10336E+01  1.21690E+01  1.34967E+01  1.48273E+01  1.59681E+01  1.67594E+01
   1.70700E+01  1.68220E+01  1.60509E+01  1.49220E+01  1.36760E+01  1.25882E+01  1.18881E+01  1.16240E+01  1.16572E+01  1.18113E+01
   1.20209E+01  1.22663E+01  1.26593E+01  1.32245E+01  1.37883E+01  1.42216E+01  1.43411E+01  1.40841E+01  1.34723E+01  1.25991E+01
   1.16403E+01  1.07424E+01  9.99931E+00  9.44818E+00  9.00008E+00  8.52865E+00  7.99225E+00  7.41589E+00  6.85836E+00  6.43949E+00
   6.24953E+00  6.17424E+00  6.07233E+00  5.95126E+00  5.88634E+00  5.89694E+00  5.95474E+00  6.01595E+00  6.04297E+00  6.00982E+00
   5.90806E+00  5.78653E+00  5.69553E+00  5.63310E+00  5.58626E+00  5.51885E+00  5.47196E+00  5.45932E+00  5.45933E+00  5.48050E+00
   5.53871E+00  5.63928E+00  5.78154E+00  5.95392E+00  6.15250E+00  6.32752E+00  6.41206E+00  6.37386E+00  6.21440E+00  5.96243E+00
   5.66016E+00  5.36493E+00  5.21613E+00  5.56962E+00  6.56490E+00  8.11467E+00  1.01934E+01  1.28054E+01  1.59041E+01  1.93658E+01
   2.29933E+01  2.63347E+01  2.89048E+01  3.03805E+01  3.06113E+01  2.96462E+01  2.77284E+01  2.52226E+01  2.25055E+01  1.98474E+01
   1.73271E+01  1.48718E+01  1.23598E+01  9.76663E+00  7.23030E+00  5.14330E+00  4.32551E+00  5.29503E+00  7.59050E+00  1.06701E+01
   1.43777E+01  1.85784E+01  2.30594E+01  2.74865E+01  3.14174E+01  3.44084E+01  3.61109E+01  3.63544E+01  3.51956E+01  3.28969E+01
   2.98655E+01  2.65166E+01  2.31579E+01  1.99214E+01  1.67733E+01  1.36287E+01  1.04905E+01  7.49318E+00  4.88253E+00  3.06788E+00
   2.37057E+00  2.22237E+00  2.12265E+00  1.99722E+00  1.86722E+00  1.77222E+00  1.73235E+00  1.69891E+00  1.60596E+00  1.44326E+00
   1.21054E+00  9.19468E-01  6.26214E-01  3.63437E-01  1.59683E-01  1.04445E-02 -1.20352E-01 -2.50228E-01 -3.80425E-01 -5.04239E-01
  -6.12479E-01 -6.97910E-01 -7.64030E-01 -8.28788E-01 -9.15215E-01 -1.04755E+00 -1.24914E+00 -1.51472E+00 -1.81050E+00 -2.10256E+00
  -2.37424E+00 -2.62836E+00 -2.86090E+00 -3.07292E+00 -3.28327E+00 -3.49756E+00 -3.68393E+00 -3.82604E+00 -3.89097E+00 -3.86113E+00
  -3.75903E+00 -3.58105E+00 -3.32318E+00 -2.98281E+00 -2.56014E+00 -2.08861E+00 -1.61525E+00 -1.19229E+00 -8.70640E-01 -6.80134E-01
  -5.99581E-01 -5.50801E-01 -4.58484E-01 -2.38391E-01  2.05081E-01  9.12181E-01  1.88059E+00  3.00603E+00  4.06176E+00  4.81450E+00
   5.16670E+00  5.07004E+00  4.55053E+00  3.68087E+00  2.60748E+00  1.55314E+00  6.84893E-01  1.43474E-01  3.63245E-02  3.71982E-01
   1.09359E+00  2.03939E+00  2.99021E+00  3.78718E+00  4.35114E+00  4.61611E+00  4.61375E+00  4.51616E+00  4.48162E+00  4.55252E+00
   4.71994E+00  4.94152E+00  5.12915E+00  5.27008E+00  5.44403E+00  5.56642E+00  5.59703E+00  5.58298E+00  5.65463E+00  5.96205E+00
   6.49239E+00  7.15375E+00  7.87589E+00  8.58187E+00  9.15919E+00  9.48201E+00  9.52788E+00  9.37766E+00  9.07265E+00  8.62279E+00
   8.09970E+00  7.59951E+00  7.23484E+00  7.08388E+00  7.15716E+00  7.44529E+00  7.92044E+00  8.45528E+00  8.93534E+00  9.54277E+00
   1.09362E+01  1.33479E+01  1.66338E+01  2.07324E+01  2.55406E+01  3.08059E+01  3.62766E+01  4.16500E+01  4.64742E+01  5.02156E+01
   5.24095E+01  5.28004E+01  5.13918E+01  4.84888E+01  4.46017E+01  4.02917E+01  3.60278E+01  3.20110E+01  2.81501E+01  2.42352E+01
   2.01778E+01  1.60639E+01  1.22117E+01  9.23014E+00  7.75097E+00  7.21252E+00  6.88577E+00  6.62830E+00  6.39823E+00  6.18244E+00
   5.99608E+00  5.83773E+00  5.69854E+00  5.56929E+00  5.44606E+00  5.32776E+00  5.22430E+00  5.14651E+00  5.09569E+00  5.07179E+00
   5.07395E+00  5.09768E+00  5.13914E+00  5.19457E+00  5.25984E+00  5.33538E+00  5.42121E+00  5.51646E+00  5.62171E+00  5.73711E+00
   5.85998E+00  5.98653E+00  6.11430E+00  6.24066E+00  6.36170E+00  6.47395E+00  6.57493E+00  6.66188E+00  6.73352E+00  6.78957E+00
   6.83055E+00  6.85767E+00  6.87305E+00  6.87971E+00  6.88170E+00  6.88452E+00  6.89558E+00  6.91690E+00  6.94695E+00  6.98606E+00
   7.03427E+00  7.08983E+00  7.14913E+00  7.20713E+00  7.26340E+00  7.32175E+00  7.38432E+00  7.45492E+00  7.53964E+00  7.64529E+00
   7.77716E+00  7.93632E+00  8.11825E+00  8.31266E+00  8.50584E+00  8.68474E+00  8.84033E+00  8.96849E+00  9.06984E+00  9.14886E+00
   9.20926E+00  9.24430E+00  9.24914E+00  9.22605E+00  9.17607E+00  9.10022E+00  9.00086E+00  8.88395E+00  8.76340E+00  8.64840E+00
   8.53596E+00  8.42451E+00  8.31396E+00  8.20438E+00  8.09580E+00  7.98800E+00  7.88062E+00  7.77313E+00  7.66496E+00  7.55545E+00
   7.44397E+00  7.32990E+00  7.21281E+00  7.09243E+00  6.96872E+00  6.84183E+00  6.71213E+00  6.58016E+00  6.44676E+00  6.31289E+00
   6.17974E+00  6.04854E+00  5.92065E+00  5.79742E+00  5.68034E+00  5.57085E+00  5.47043E+00  5.38044E+00  5.30231E+00  5.23740E+00
   5.18715E+00  5.15297E+00  5.13632E+00  5.13864E+00  5.16147E+00  5.20638E+00  5.27499E+00  5.36883E+00  5.48938E+00  5.63786E+00
   5.81524E+00  6.02202E+00  6.25818E+00  6.52287E+00  6.81435E+00  7.12984E+00  7.46549E+00  7.81623E+00  8.17591E+00  8.53725E+00
   8.89215E+00  9.23183E+00  9.54732E+00  9.82966E+00  1.00704E+01  1.02621E+01  1.03984E+01  1.04748E+01  1.04885E+01  1.04389E+01
   1.03272E+01  1.01569E+01  9.93300E+00  9.66206E+00  9.35181E+00  9.01064E+00  8.64727E+00  8.27026E+00  7.88781E+00  7.50732E+00
   7.13532E+00  6.77714E+00  6.43702E+00  6.11799E+00  5.82208E+00  5.55030E+00  5.30289E+00  5.07932E+00  4.87859E+00  4.69929E+00
   4.53983E+00  4.39846E+00  4.27341E+00  4.16288E+00  4.06524E+00  3.97890E+00  3.90250E+00  3.83477E+00  3.77461E+00  3.72099E+00
   3.67309E+00  3.63017E+00  3.59164E+00  3.55693E+00  3.52558E+00  3.49717E+00  3.47139E+00  3.44793E+00  3.42658E+00  3.40708E+00
   3.38927E+00  3.37295E+00  3.35800E+00  3.34431E+00  3.33177E+00  3.32026E+00  3.30971E+00  3.30000E+00  3.29111E+00  3.28296E+00
   3.27552E+00  3.26870E+00  3.26247E+00  3.25676E+00  3.25158E+00  3.24687E+00  3.24261E+00  3.23874E+00  3.23524E+00  3.23208E+00
   3.22928E+00  3.22679E+00  3.22459E+00  3.22262E+00  3.22092E+00  3.21944E+00  3.21819E+00  3.21713E+00  3.21627E+00  3.21554E+00
   3.21499E+00  3.21457E+00  3.21431E+00  3.21414E+00  3.21409E+00  3.21411E+00  3.21424E+00  3.21443E+00  3.21471E+00  3.21502E+00
   3.21537E+00  3.21574E+00  3.21615E+00  3.21658E+00  3.21702E+00  3.21743E+00  3.21784E+00  3.21821E+00
 NY background values follow
     1.032E-01    9.998E-02    9.672E-02    9.345E-02    9.014E-02    8.681E-02    8.346E-02    8.008E-02    7.667E-02    7.324E-02
     6.978E-02    6.630E-02    6.278E-02    5.925E-02    5.568E-02    5.209E-02    4.847E-02    4.482E-02    4.114E-02    3.744E-02
     3.371E-02    2.995E-02    2.616E-02    2.234E-02    1.849E-02    1.462E-02    1.071E-02    6.781E-03    2.818E-03   -1.176E-03
    -5.199E-03   -9.252E-03   -1.334E-02   -1.745E-02   -2.159E-02   -2.577E-02   -2.998E-02   -3.421E-02   -3.848E-02   -4.278E-02
    -4.712E-02   -5.148E-02   -5.588E-02   -6.031E-02   -6.477E-02   -6.926E-02   -7.379E-02   -7.834E-02   -8.292E-02   -8.753E-02
    -9.215E-02   -9.678E-02   -1.014E-01   -1.061E-01   -1.107E-01   -1.153E-01   -1.200E-01   -1.246E-01   -1.292E-01   -1.338E-01
    -1.383E-01   -1.429E-01   -1.474E-01   -1.518E-01   -1.562E-01   -1.606E-01   -1.649E-01   -1.692E-01   -1.734E-01   -1.775E-01
    -1.816E-01   -1.856E-01   -1.895E-01   -1.934E-01   -1.971E-01   -2.008E-01   -2.044E-01   -2.079E-01   -2.112E-01   -2.145E-01
    -2.177E-01   -2.207E-01   -2.237E-01   -2.265E-01   -2.292E-01   -2.317E-01   -2.342E-01   -2.364E-01   -2.386E-01   -2.406E-01
    -2.424E-01   -2.441E-01   -2.456E-01   -2.470E-01   -2.482E-01   -2.493E-01   -2.501E-01   -2.508E-01   -2.514E-01   -2.518E-01
    -2.520E-01   -2.520E-01   -2.519E-01   -2.515E-01   -2.511E-01   -2.504E-01   -2.495E-01   -2.485E-01   -2.473E-01   -2.459E-01
    -2.443E-01   -2.425E-01   -2.405E-01   -2.384E-01   -2.360E-01   -2.335E-01   -2.307E-01   -2.278E-01   -2.247E-01   -2.213E-01
    -2.178E-01   -2.141E-01   -2.101E-01   -2.059E-01   -2.016E-01   -1.970E-01   -1.922E-01   -1.872E-01   -1.820E-01   -1.766E-01
    -1.709E-01   -1.651E-01   -1.590E-01   -1.527E-01   -1.461E-01   -1.394E-01   -1.324E-01   -1.252E-01   -1.177E-01   -1.100E-01
    -1.021E-01   -9.391E-02   -8.549E-02   -7.681E-02   -6.787E-02   -5.867E-02   -4.920E-02   -3.947E-02   -2.946E-02   -1.917E-02
    -8.604E-03    2.250E-03    1.339E-02    2.483E-02    3.656E-02    4.860E-02    6.094E-02    7.359E-02    8.656E-02    9.984E-02
     1.134E-01    1.274E-01    1.416E-01    1.562E-01    1.711E-01    1.864E-01    2.020E-01    2.180E-01    2.343E-01    2.510E-01
     2.680E-01    2.854E-01    3.032E-01    3.213E-01    3.399E-01    3.588E-01    3.781E-01    3.977E-01    4.178E-01    4.383E-01
     4.591E-01    4.804E-01    5.021E-01    5.241E-01    5.466E-01    5.694E-01    5.925E-01    6.159E-01    6.397E-01    6.637E-01
     6.880E-01    7.126E-01    7.374E-01    7.625E-01    7.877E-01    8.131E-01    8.387E-01    8.645E-01    8.904E-01    9.164E-01
     9.425E-01    9.688E-01    9.951E-01    1.021E+00    1.048E+00    1.074E+00    1.101E+00    1.127E+00    1.154E+00    1.180E+00
     1.206E+00    1.232E+00    1.259E+00    1.285E+00    1.311E+00    1.336E+00    1.362E+00    1.387E+00    1.413E+00    1.438E+00
     1.463E+00    1.487E+00    1.512E+00    1.536E+00    1.560E+00    1.583E+00    1.606E+00    1.629E+00    1.652E+00    1.674E+00
     1.696E+00    1.717E+00    1.738E+00    1.759E+00    1.780E+00    1.800E+00    1.820E+00    1.840E+00    1.859E+00    1.878E+00
     1.897E+00    1.915E+00    1.934E+00    1.952E+00    1.969E+00    1.986E+00    2.003E+00    2.020E+00    2.037E+00    2.053E+00
     2.069E+00    2.084E+00    2.100E+00    2.115E+00    2.129E+00    2.144E+00    2.158E+00    2.172E+00    2.186E+00    2.200E+00
     2.213E+00    2.226E+00    2.239E+00    2.251E+00    2.263E+00    2.276E+00    2.287E+00    2.299E+00    2.310E+00    2.321E+00
     2.332E+00    2.343E+00    2.354E+00    2.364E+00    2.374E+00    2.384E+00    2.393E+00    2.403E+00    2.412E+00    2.421E+00
     2.430E+00    2.438E+00    2.446E+00    2.455E+00    2.463E+00    2.470E+00    2.478E+00    2.485E+00    2.492E+00    2.499E+00
     2.506E+00    2.513E+00    2.519E+00    2.525E+00    2.531E+00    2.537E+00    2.543E+00    2.548E+00    2.554E+00    2.559E+00
     2.564E+00    2.568E+00    2.573E+00    2.577E+00    2.582E+00    2.586E+00    2.590E+00    2.593E+00    2.597E+00    2.600E+00
     2.604E+00    2.607E+00    2.610E+00    2.612E+00    2.615E+00    2.617E+00    2.620E+00    2.622E+00    2.624E+00    2.626E+00
     2.627E+00    2.629E+00    2.630E+00    2.632E+00    2.633E+00    2.634E+00    2.635E+00    2.635E+00    2.636E+00    2.636E+00
     2.637E+00    2.637E+00    2.637E+00    2.637E+00    2.637E+00    2.636E+00    2.636E+00    2.635E+00    2.635E+00    2.634E+00
     2.633E+00    2.632E+00    2.631E+00    2.629E+00    2.628E+00    2.627E+00    2.625E+00    2.623E+00    2.621E+00    2.620E+00
     2.618E+00    2.615E+00    2.613E+00    2.611E+00    2.609E+00    2.606E+00    2.604E+00    2.601E+00    2.598E+00    2.595E+00
     2.592E+00    2.589E+00    2.586E+00    2.583E+00    2.580E+00    2.577E+00    2.573E+00    2.570E+00    2.566E+00    2.563E+00
     2.559E+00    2.556E+00    2.552E+00    2.548E+00    2.545E+00    2.541E+00    2.537E+00    2.533E+00    2.530E+00    2.526E+00
     2.522E+00    2.519E+00    2.515E+00    2.511E+00    2.508E+00    2.504E+00    2.501E+00    2.497E+00    2.494E+00    2.491E+00
     2.487E+00    2.484E+00    2.481E+00    2.478E+00    2.475E+00    2.472E+00    2.469E+00    2.467E+00    2.464E+00    2.462E+00
     2.459E+00    2.457E+00    2.455E+00    2.453E+00    2.451E+00    2.450E+00    2.448E+00    2.447E+00    2.446E+00    2.445E+00
     2.444E+00    2.443E+00    2.443E+00    2.442E+00    2.442E+00    2.442E+00    2.442E+00    2.442E+00    2.443E+00    2.443E+00
     2.444E+00    2.445E+00    2.445E+00    2.446E+00    2.448E+00    2.449E+00    2.450E+00    2.452E+00    2.454E+00    2.455E+00
     2.457E+00    2.459E+00    2.462E+00    2.464E+00    2.466E+00    2.469E+00    2.472E+00    2.474E+00    2.477E+00    2.480E+00
     2.483E+00    2.486E+00    2.490E+00    2.493E+00    2.497E+00    2.500E+00    2.504E+00    2.508E+00    2.512E+00    2.516E+00
     2.520E+00    2.524E+00    2.528E+00    2.532E+00    2.537E+00    2.541E+00    2.546E+00    2.550E+00    2.555E+00    2.560E+00
     2.565E+00    2.570E+00    2.575E+00    2.580E+00    2.585E+00    2.590E+00    2.595E+00    2.600E+00    2.605E+00    2.611E+00
     2.616E+00    2.621E+00    2.627E+00    2.632E+00    2.638E+00    2.643E+00    2.648E+00    2.654E+00    2.659E+00    2.665E+00
     2.670E+00    2.676E+00    2.681E+00    2.687E+00    2.692E+00    2.698E+00    2.703E+00    2.709E+00    2.714E+00    2.720E+00
     2.725E+00    2.730E+00    2.736E+00    2.741E+00    2.746E+00    2.752E+00    2.757E+00    2.762E+00
 Ala      Conc. = 5.11E+01
