 LCModel (Version 6.3-1L) Copyright: S.W. Provencher.          Ref.: Magn. Reson. Med. 30:672-679 (1993).                
 Slice#2 Row#6 Col#9  PD_05_press_1_raw_act
 36 lines in following concentration table = NCONC+1
    Conc.  %SD /Cr+PCr  Metabolite                                         
  125.160  70% 9.0E-02 Ala                                                 
    0.000 999%   0.000 Asp                                                 
  689.340  27%   0.497 Cr                                                  
  697.883  28%   0.503 PCr                                                 
   55.387 262% 4.0E-02 GABA                                                
   72.347 204% 5.2E-02 Glc                                                 
  632.794  29%   0.456 Gln                                                 
 1.39E+03  16%   1.004 Glu                                                 
  659.791   4%   0.476 GPC                                                 
    0.000 999%   0.000 PCh                                                 
  443.026  14%   0.319 GSH                                                 
 1.55E+03  15%   1.117 Ins                                                 
   72.122 143% 5.2E-02 Lac                                                 
 2.27E+03   4%   1.633 NAA                                                 
  168.900  62%   0.122 NAAG                                                
  127.607  20% 9.2E-02 Scyllo                                              
   77.580 261% 5.6E-02 Tau                                                 
  163.564  63%   0.118 -CrCH2                                              
  659.791   4%   0.476 GPC+PCh                                             
 2.43E+03   3%   1.755 NAA+NAAG                                            
 1.39E+03   4%   1.000 Cr+PCr                                              
 2.03E+03  15%   1.460 Glu+Gln                                             
    0.000 999%   0.000 Lip13a                                              
  492.670  46%   0.355 Lip13b                                              
    0.000 999%   0.000 Lip09                                               
 1.28E+03  16%   0.922 MM09                                                
   76.262 115% 5.5E-02 Lip20                                               
 2.74E+03  13%   1.974 MM20                                                
  366.648  36%   0.264 MM12                                                
 1.14E+03  26%   0.819 MM14                                                
  625.763  35%   0.451 MM17                                                
  492.670  46%   0.355 Lip13a+Lip13b                                       
 2.00E+03  19%   1.439 MM14+Lip13a+Lip13b+MM12                             
 1.28E+03  16%   0.922 MM09+Lip09                                          
 2.81E+03  13%   2.029 MM20+Lip20                                          
   6 lines in following misc. output table
  FWHM = 0.054 ppm    S/N =  14                                            
  Data shift =-0.015 ppm                                                   
  Ph: -38 deg      -9.2 deg/ppm                                            
  alphaB,S = 9.7E-01,   5.1E+01                                            
   14 spline knots.   Ns = 6(1)                                            
  ( 7) 2 infls.   ( 1) 1 extrs.                                            
  498 points on ppm-axis = NY
      4.000000     3.992357     3.984714     3.977070     3.969427     3.961784     3.954141     3.946497     3.938854     3.931211
      3.923568     3.915925     3.908281     3.900638     3.892995     3.885352     3.877708     3.870065     3.862422     3.854779
      3.847136     3.839492     3.831849     3.824206     3.816563     3.808919     3.801276     3.793633     3.785990     3.778347
      3.770703     3.763060     3.755417     3.747774     3.740130     3.732487     3.724844     3.717201     3.709558     3.701914
      3.694271     3.686628     3.678985     3.671341     3.663698     3.656055     3.648412     3.640769     3.633125     3.625482
      3.617839     3.610196     3.602552     3.594909     3.587266     3.579623     3.571980     3.564336     3.556693     3.549050
      3.541407     3.533763     3.526120     3.518477     3.510834     3.503191     3.495547     3.487904     3.480261     3.472618
      3.464974     3.457331     3.449688     3.442045     3.434402     3.426758     3.419115     3.411472     3.403829     3.396185
      3.388542     3.380899     3.373256     3.365613     3.357969     3.350326     3.342683     3.335040     3.327396     3.319753
      3.312110     3.304467     3.296824     3.289180     3.281537     3.273894     3.266251     3.258607     3.250964     3.243321
      3.235678     3.228034     3.220391     3.212748     3.205105     3.197462     3.189818     3.182175     3.174532     3.166889
      3.159245     3.151602     3.143959     3.136316     3.128673     3.121029     3.113386     3.105743     3.098100     3.090456
      3.082813     3.075170     3.067527     3.059884     3.052240     3.044597     3.036954     3.029311     3.021667     3.014024
      3.006381     2.998738     2.991095     2.983451     2.975808     2.968165     2.960522     2.952878     2.945235     2.937592
      2.929949     2.922306     2.914662     2.907019     2.899376     2.891733     2.884089     2.876446     2.868803     2.861160
      2.853517     2.845873     2.838230     2.830587     2.822944     2.815300     2.807657     2.800014     2.792371     2.784728
      2.777084     2.769441     2.761798     2.754155     2.746511     2.738868     2.731225     2.723582     2.715939     2.708295
      2.700652     2.693009     2.685366     2.677722     2.670079     2.662436     2.654793     2.647150     2.639506     2.631863
      2.624220     2.616577     2.608933     2.601290     2.593647     2.586004     2.578361     2.570717     2.563074     2.555431
      2.547788     2.540144     2.532501     2.524858     2.517215     2.509572     2.501928     2.494285     2.486642     2.478999
      2.471355     2.463712     2.456069     2.448426     2.440783     2.433139     2.425496     2.417853     2.410210     2.402566
      2.394923     2.387280     2.379637     2.371994     2.364350     2.356707     2.349064     2.341421     2.333777     2.326134
      2.318491     2.310848     2.303205     2.295561     2.287918     2.280275     2.272632     2.264988     2.257345     2.249702
      2.242059     2.234416     2.226772     2.219129     2.211486     2.203843     2.196199     2.188556     2.180913     2.173270
      2.165627     2.157983     2.150340     2.142697     2.135054     2.127410     2.119767     2.112124     2.104481     2.096838
      2.089194     2.081551     2.073908     2.066265     2.058621     2.050978     2.043335     2.035692     2.028049     2.020405
      2.012762     2.005119     1.997476     1.989833     1.982190     1.974546     1.966903     1.959260     1.951617     1.943974
      1.936331     1.928688     1.921045     1.913402     1.905759     1.898115     1.890472     1.882829     1.875186     1.867543
      1.859900     1.852257     1.844614     1.836971     1.829327     1.821684     1.814041     1.806398     1.798755     1.791112
      1.783469     1.775826     1.768183     1.760540     1.752896     1.745253     1.737610     1.729967     1.722324     1.714681
      1.707038     1.699395     1.691752     1.684108     1.676465     1.668822     1.661179     1.653536     1.645893     1.638250
      1.630607     1.622964     1.615321     1.607677     1.600034     1.592391     1.584748     1.577105     1.569462     1.561819
      1.554176     1.546533     1.538890     1.531246     1.523603     1.515960     1.508317     1.500674     1.493031     1.485388
      1.477745     1.470102     1.462458     1.454815     1.447172     1.439529     1.431886     1.424243     1.416600     1.408957
      1.401314     1.393671     1.386027     1.378384     1.370741     1.363098     1.355455     1.347812     1.340169     1.332526
      1.324883     1.317240     1.309596     1.301953     1.294310     1.286667     1.279024     1.271381     1.263738     1.256095
      1.248452     1.240808     1.233165     1.225522     1.217879     1.210236     1.202593     1.194950     1.187307     1.179664
      1.172021     1.164377     1.156734     1.149091     1.141448     1.133805     1.126162     1.118519     1.110876     1.103233
      1.095590     1.087946     1.080303     1.072660     1.065017     1.057374     1.049731     1.042088     1.034445     1.026802
      1.019158     1.011515     1.003872     0.996229     0.988586     0.980943     0.973300     0.965657     0.958014     0.950371
      0.942727     0.935084     0.927441     0.919798     0.912155     0.904512     0.896869     0.889226     0.881583     0.873940
      0.866296     0.858653     0.851010     0.843367     0.835724     0.828081     0.820438     0.812795     0.805152     0.797508
      0.789865     0.782222     0.774579     0.766936     0.759293     0.751650     0.744007     0.736364     0.728721     0.721077
      0.713434     0.705791     0.698148     0.690505     0.682862     0.675219     0.667576     0.659933     0.652290     0.644646
      0.637003     0.629360     0.621717     0.614074     0.606431     0.598788     0.591145     0.583502     0.575858     0.568215
      0.560572     0.552929     0.545286     0.537643     0.530000     0.522357     0.514714     0.507071     0.499427     0.491784
      0.484141     0.476498     0.468855     0.461212     0.453569     0.445925     0.438282     0.430639     0.422996     0.415353
      0.407710     0.400067     0.392424     0.384780     0.377137     0.369494     0.361851     0.354208     0.346565     0.338922
      0.331278     0.323635     0.315992     0.308349     0.300706     0.293063     0.285420     0.277777     0.270133     0.262490
      0.254847     0.247204     0.239561     0.231918     0.224275     0.216631     0.208988     0.201345
 NY phased data points follow
  -5.56693E+01 -5.45355E+01 -5.24110E+01 -4.81697E+01 -4.55275E+01 -4.10345E+01 -2.94653E+01 -3.10236E+01 -2.53583E+01 -1.80843E+01
  -1.67694E+01 -1.42345E+01 -1.48705E+01 -2.08198E+01 -2.34289E+01 -3.12005E+01 -3.55647E+01 -3.74699E+01 -4.00798E+01 -3.75627E+01
  -3.78936E+01 -4.26434E+01 -3.60055E+01 -3.76531E+01 -3.64463E+01 -3.31583E+01 -3.42234E+01 -3.20219E+01 -2.89285E+01 -3.07033E+01
  -2.70386E+01 -3.00007E+01 -2.67349E+01 -2.61810E+01 -3.15998E+01 -3.25827E+01 -3.01942E+01 -3.29738E+01 -3.35539E+01 -3.43197E+01
  -3.44762E+01 -2.93473E+01 -2.88754E+01 -3.19069E+01 -2.11945E+01 -2.16415E+01 -1.63000E+01 -1.75827E+01 -2.42917E+01 -2.21778E+01
  -2.39500E+01 -2.80958E+01 -2.44896E+01 -2.76619E+01 -2.49893E+01 -2.61233E+01 -2.92876E+01 -2.30874E+01 -2.54724E+01 -2.87040E+01
  -2.44326E+01 -3.03756E+01 -3.02665E+01 -2.88091E+01 -3.41049E+01 -3.66560E+01 -3.29510E+01 -3.65494E+01 -2.59831E+01 -3.18455E+01
  -3.28571E+01 -2.89158E+01 -3.11098E+01 -2.69058E+01 -2.24059E+01 -2.98394E+01 -2.81004E+01 -2.67723E+01 -2.83028E+01 -2.59657E+01
  -2.63635E+01 -2.74504E+01 -2.26566E+01 -2.85801E+01 -2.16399E+01 -2.18991E+01 -2.47495E+01 -2.15698E+01 -2.23234E+01 -2.48050E+01
  -1.97301E+01 -2.19512E+01 -2.10497E+01 -1.92832E+01 -2.28792E+01 -1.40562E+01 -1.88377E+01 -1.49202E+01 -7.36905E+00 -4.09608E+00
   1.51194E+01  2.73390E+01  3.41360E+01  3.58256E+01  3.67382E+01  2.04688E+01  1.33437E+01  4.06432E+00 -3.97791E+00 -6.63456E+00
  -1.64551E+01 -1.60684E+01 -1.16759E+01 -1.58935E+01 -2.09509E+01 -1.82376E+01 -1.97501E+01 -1.60436E+01 -2.15903E+01 -1.95400E+01
  -1.66761E+01 -1.71820E+01 -9.25746E+00 -1.11284E-01  7.63851E-01  1.68752E+01  2.05479E+01  2.91199E+01  2.95164E+01  2.22455E+01
   1.41992E+01  6.48288E+00 -1.50705E+00 -5.75712E+00 -1.53333E+01 -1.91331E+01 -1.69120E+01 -2.07300E+01 -2.15213E+01 -1.77693E+01
  -2.39123E+01 -1.82275E+01 -2.11174E+01 -1.76100E+01 -1.94552E+01 -1.98351E+01 -1.92458E+01 -1.56735E+01 -1.53484E+01 -1.66493E+01
  -1.48955E+01 -1.84489E+01 -1.77748E+01 -1.67554E+01 -2.13313E+01 -1.46014E+01 -1.73775E+01 -1.75561E+01 -1.63021E+01 -2.10998E+01
  -2.01813E+01 -2.27738E+01 -2.01107E+01 -2.01103E+01 -2.29572E+01 -2.09012E+01 -1.82716E+01 -1.89963E+01 -1.49607E+01 -2.08279E+01
  -1.86701E+01 -1.79154E+01 -2.08073E+01 -2.33789E+01 -2.28637E+01 -2.73304E+01 -2.16661E+01 -2.23977E+01 -2.25405E+01 -1.87910E+01
  -2.29569E+01 -2.15732E+01 -2.46351E+01 -2.59546E+01 -2.61706E+01 -2.26597E+01 -2.30481E+01 -2.24876E+01 -1.61177E+01 -1.30399E+01
  -1.03885E+01 -8.46169E+00 -1.00276E+01 -6.41123E+00 -5.21362E+00 -1.07008E+01 -4.95228E+00 -1.12790E+01 -1.16032E+01 -1.46766E+01
  -1.55009E+01 -9.91053E+00 -9.22884E+00 -6.72932E+00 -5.69893E+00 -6.94776E+00 -1.13457E+01 -1.20684E+01 -1.51129E+01 -1.39726E+01
  -1.79955E+01 -1.70150E+01 -1.18115E+01 -1.14393E+01 -2.73167E+00 -1.65354E+00 -1.47003E+00  4.15027E+00 -2.09746E+00 -5.93097E+00
  -4.08501E+00 -1.57180E+01 -1.43352E+01 -9.19471E+00 -7.76280E+00 -4.05853E+00 -5.39917E+00 -3.78814E+00 -4.40736E-01 -1.93782E+00
   1.92131E+00 -1.44822E+00 -1.28640E+00 -6.34494E+00 -2.03971E+00 -5.10317E-01  3.28297E+00 -4.32056E+00 -4.50161E+00 -3.79031E-01
  -3.01464E+00 -4.39591E+00 -2.28354E+00 -2.28058E+00 -2.93743E+00  2.19953E+00  3.14134E+00  5.52938E+00  3.86305E+00  4.39667E+00
   5.70855E+00  7.14264E+00  7.38014E+00  1.17654E+01  1.26531E+01  2.30213E+01  2.75384E+01  4.38706E+01  5.16544E+01  6.51426E+01
   8.11574E+01  8.56800E+01  7.63621E+01  6.10245E+01  4.68666E+01  2.95598E+01  2.11045E+01  7.60596E+00  8.24795E+00  3.88622E+00
  -4.52534E-01 -9.59567E-01 -7.76090E-01  2.50407E-01  1.35794E+00 -1.51777E-02 -2.06844E+00  1.77288E+00 -2.52119E+00 -1.57408E-02
  -3.83476E+00 -2.50568E+00  3.39540E+00 -3.18398E+00 -2.32424E+00 -1.65298E+00 -2.12422E+00 -3.28848E+00 -4.27561E+00 -4.16464E+00
  -2.18709E+00 -3.33399E+00 -3.15400E+00 -5.08787E-01 -3.04250E+00 -3.95054E+00 -4.58991E-01 -3.34133E+00  3.16469E+00 -2.00174E+00
  -3.89093E+00 -1.47917E+00 -9.95662E-01 -1.34940E+00 -1.72660E+00  1.74912E+00  3.34791E+00 -2.43975E+00 -1.44066E+00  1.23029E-01
  -1.80042E+00 -1.96776E+00 -3.95447E+00 -9.59716E-01 -3.04471E+00  3.80568E+00  2.48919E+00  1.40215E+00 -1.31882E+00 -2.76281E+00
  -1.42254E-01 -1.00275E+00 -5.05286E-01  3.00061E+00  1.24789E+00 -3.71652E-01  1.79903E+00 -1.66133E+00 -1.19887E+00  1.19800E+00
  -2.50965E+00 -1.35339E-01 -2.72334E+00  9.17819E-01  3.20851E+00 -6.70972E-01  4.49105E+00  8.18642E-01  2.72572E+00  2.50119E+00
   1.49602E+00  2.11370E+00  1.58544E+00 -4.96451E-01 -3.54001E-01  7.09102E+00  4.21156E+00  7.10029E+00  8.38945E-01  2.99233E+00
   1.09104E+00  5.01725E+00  2.21030E+00  4.54273E+00  4.06541E-01  6.63783E+00  3.89741E+00  2.04995E+00  4.54533E+00  3.89838E-01
   3.42970E+00  2.39256E+00  1.76389E+00  2.35149E+00  3.26756E-01  4.50045E+00  1.39456E+00 -8.30302E-01  1.37871E+00  5.69720E-01
  -6.72386E-01  8.81476E-01  2.04924E+00 -4.84754E-01 -2.16100E+00 -4.54173E-01 -2.33463E+00 -3.98617E+00 -4.22212E+00 -3.16042E+00
  -3.56582E+00 -5.03110E+00 -8.20250E+00 -8.06109E+00 -4.08384E+00 -3.76834E+00 -4.86641E+00 -5.08607E+00 -8.21764E+00 -5.36839E+00
  -4.01147E+00 -9.50581E-01 -3.39963E+00 -3.11387E+00 -5.64945E-01  1.75486E+00  2.63398E+00  2.41026E+00  1.26151E+00  1.51600E+00
   4.16532E+00  2.51635E+00  6.20428E-01  3.26348E+00  8.09902E+00  5.66046E+00  6.92451E+00  4.14433E+00  8.57996E+00  8.83471E+00
   1.17800E+01  7.49483E+00  8.27937E+00  6.81635E+00  7.60602E+00  7.98349E+00  7.76154E+00  7.47603E+00  4.91790E+00  4.78731E+00
   5.32646E+00  2.66365E+00  3.49931E+00  4.58228E+00  4.91581E+00  1.75718E+00  1.85614E+00  2.79275E+00  3.42763E+00  1.99253E+00
   5.78068E+00  3.63110E+00  2.84049E+00  4.14723E+00  6.81860E+00  3.52969E+00  6.25986E+00  3.77803E+00  1.22956E+00  5.05694E+00
   5.67302E+00  2.65792E+00  3.27556E+00  4.15548E+00  2.43705E+00  2.46458E+00  2.05691E+00  4.89857E+00  5.95146E+00  2.38340E+00
   5.11192E-01  1.33959E+00  1.92734E+00  5.53288E+00  3.81490E+00  3.63217E+00 -6.03311E-01  4.24944E+00  3.72878E+00 -1.46066E-01
  -1.43706E+00  1.27979E+00  4.33599E-01  4.12386E+00  1.59367E+00  6.36532E-01  2.97163E+00  7.46571E-01  3.94624E+00  1.77530E+00
   2.28781E+00  2.97053E+00  2.64830E+00  4.10940E-01  1.63594E+00  1.40771E+00  4.96224E+00  1.08215E+00  2.23808E-01  1.54580E+00
   1.57709E+00  5.51347E+00  3.81354E+00  4.12622E+00  1.33235E+00  2.18113E+00  3.66821E+00  3.19288E+00  4.00410E+00  5.22455E+00
   4.07040E+00  3.10664E+00  2.88103E+00  2.72904E+00  7.25566E+00  9.68959E-01  1.80675E+00  4.31996E+00
 NY points of the fit to the data follow
  -4.69173E+01 -4.67696E+01 -4.63006E+01 -4.50399E+01 -4.27130E+01 -3.93252E+01 -3.49883E+01 -2.99560E+01 -2.43895E+01 -1.90408E+01
  -1.53249E+01 -1.44765E+01 -1.66584E+01 -2.08383E+01 -2.54308E+01 -2.94404E+01 -3.28181E+01 -3.55376E+01 -3.75022E+01 -3.85090E+01
  -3.87285E+01 -3.87756E+01 -3.88740E+01 -3.87505E+01 -3.81075E+01 -3.73034E+01 -3.61634E+01 -3.43342E+01 -3.19266E+01 -2.93204E+01
  -2.71610E+01 -2.60097E+01 -2.59152E+01 -2.65747E+01 -2.78406E+01 -2.95716E+01 -3.17617E+01 -3.37712E+01 -3.49158E+01 -3.53534E+01
  -3.47044E+01 -3.29771E+01 -3.07362E+01 -2.82531E+01 -2.55890E+01 -2.29019E+01 -2.09476E+01 -2.05921E+01 -2.19902E+01 -2.44771E+01
  -2.70622E+01 -2.91048E+01 -3.05217E+01 -3.14357E+01 -3.17042E+01 -3.11280E+01 -3.00853E+01 -2.89907E+01 -2.79925E+01 -2.73482E+01
  -2.72842E+01 -2.78082E+01 -2.87040E+01 -2.95662E+01 -3.00815E+01 -3.01530E+01 -2.98130E+01 -2.91676E+01 -2.83878E+01 -2.75346E+01
  -2.67565E+01 -2.61856E+01 -2.59010E+01 -2.58922E+01 -2.60048E+01 -2.61324E+01 -2.62423E+01 -2.63613E+01 -2.65139E+01 -2.65692E+01
  -2.64287E+01 -2.59019E+01 -2.53041E+01 -2.46621E+01 -2.38230E+01 -2.29097E+01 -2.21884E+01 -2.19323E+01 -2.23208E+01 -2.30311E+01
  -2.35581E+01 -2.38212E+01 -2.38268E+01 -2.37734E+01 -2.37221E+01 -2.30731E+01 -2.07702E+01 -1.54747E+01 -8.41973E+00  5.02486E-01
   1.19964E+01  2.46424E+01  3.50150E+01  3.92292E+01  3.52388E+01  2.52974E+01  1.38056E+01  3.43083E+00 -4.95440E+00 -1.22069E+01
  -1.79787E+01 -2.04471E+01 -2.11514E+01 -2.13646E+01 -2.14140E+01 -2.13820E+01 -2.12893E+01 -2.11501E+01 -2.09294E+01 -2.05089E+01
  -1.93381E+01 -1.57612E+01 -1.03308E+01 -3.91939E+00  4.34513E+00  1.42266E+01  2.35709E+01  2.93455E+01  2.88669E+01  2.25110E+01
   1.38281E+01  5.50159E+00 -1.48541E+00 -7.61198E+00 -1.35621E+01 -1.73183E+01 -1.87118E+01 -1.91135E+01 -1.88543E+01 -1.81754E+01
  -1.74070E+01 -1.67291E+01 -1.62878E+01 -1.62066E+01 -1.63557E+01 -1.66151E+01 -1.69318E+01 -1.72150E+01 -1.74886E+01 -1.77061E+01
  -1.78542E+01 -1.79683E+01 -1.80448E+01 -1.80608E+01 -1.80164E+01 -1.79923E+01 -1.80117E+01 -1.80541E+01 -1.81936E+01 -1.84169E+01
  -1.86891E+01 -1.89113E+01 -1.88558E+01 -1.84887E+01 -1.80541E+01 -1.78407E+01 -1.79937E+01 -1.84111E+01 -1.88172E+01 -1.91665E+01
  -1.95393E+01 -1.99370E+01 -2.02854E+01 -2.05529E+01 -2.07863E+01 -2.10177E+01 -2.10789E+01 -2.07901E+01 -2.02862E+01 -1.99002E+01
  -1.97762E+01 -1.98280E+01 -1.98144E+01 -1.94767E+01 -1.89884E+01 -1.85083E+01 -1.77487E+01 -1.65355E+01 -1.48713E+01 -1.30658E+01
  -1.16746E+01 -1.09598E+01 -1.09228E+01 -1.13920E+01 -1.20587E+01 -1.27283E+01 -1.32130E+01 -1.32315E+01 -1.26562E+01 -1.15538E+01
  -1.01011E+01 -8.55267E+00 -7.18040E+00 -6.19755E+00 -6.02686E+00 -6.76845E+00 -8.27519E+00 -1.04212E+01 -1.27584E+01 -1.45565E+01
  -1.52063E+01 -1.45188E+01 -1.27094E+01 -1.00890E+01 -7.05106E+00 -4.33232E+00 -2.87408E+00 -3.17205E+00 -5.17227E+00 -7.98460E+00
  -1.07681E+01 -1.30419E+01 -1.42618E+01 -1.40108E+01 -1.21277E+01 -9.28557E+00 -6.63344E+00 -4.63426E+00 -3.36319E+00 -2.70581E+00
  -2.55926E+00 -2.69659E+00 -2.70572E+00 -2.32497E+00 -1.69345E+00 -9.90715E-01 -3.44280E-01  1.46313E-02  9.55284E-02 -1.13833E-01
  -5.72926E-01 -1.10207E+00 -1.38563E+00 -1.20688E+00 -5.89648E-01  4.18625E-01  1.49374E+00  2.36125E+00  2.99046E+00  3.56845E+00
   4.46164E+00  5.50600E+00  6.81096E+00  8.89934E+00  1.34450E+01  2.17743E+01  3.10411E+01  4.14998E+01  5.46151E+01  6.89224E+01
   8.01780E+01  8.34142E+01  7.59947E+01  6.14959E+01  4.60830E+01  3.26728E+01  2.19248E+01  1.22709E+01  4.49781E+00  1.36086E+00
   1.86389E-01 -4.84232E-01 -8.51043E-01 -9.87499E-01 -1.05864E+00 -1.14623E+00 -1.29566E+00 -1.51303E+00 -1.77952E+00 -2.05683E+00
  -2.32818E+00 -2.57434E+00 -2.75554E+00 -2.85903E+00 -2.90660E+00 -2.92046E+00 -2.91156E+00 -2.88229E+00 -2.83288E+00 -2.77003E+00
  -2.68718E+00 -2.57718E+00 -2.44460E+00 -2.30116E+00 -2.15086E+00 -1.99561E+00 -1.83912E+00 -1.68364E+00 -1.53030E+00 -1.38197E+00
  -1.23754E+00 -1.09856E+00 -9.71665E-01 -8.62426E-01 -7.75092E-01 -7.11294E-01 -6.70756E-01 -6.53539E-01 -6.56304E-01 -6.74881E-01
  -7.05750E-01 -7.44184E-01 -7.84637E-01 -8.21908E-01 -8.50715E-01 -8.65730E-01 -8.61563E-01 -8.32265E-01 -7.70755E-01 -6.66643E-01
  -4.98577E-01 -2.36937E-01  4.66718E-02  3.06511E-01  5.61572E-01  7.51176E-01  7.64509E-01  5.23828E-01  4.11397E-02 -4.63431E-01
  -7.55850E-01 -8.17545E-01 -6.42772E-01 -2.28033E-01  3.99332E-01  1.20404E+00  1.95074E+00  2.40929E+00  2.59679E+00  2.62350E+00
   2.59446E+00  2.57923E+00  2.52491E+00  2.45535E+00  2.47440E+00  2.53671E+00  2.56601E+00  2.50533E+00  2.34688E+00  2.20187E+00
   2.18882E+00  2.32448E+00  2.59894E+00  2.98345E+00  3.41449E+00  3.83771E+00  4.12236E+00  4.13177E+00  3.89214E+00  3.48139E+00
   2.97432E+00  2.41531E+00  1.81280E+00  1.23479E+00  7.32104E-01  2.95582E-01 -7.97951E-02 -3.97929E-01 -6.64390E-01 -8.85933E-01
  -1.06978E+00 -1.22261E+00 -1.35013E+00 -1.45666E+00 -1.54533E+00 -1.61818E+00 -1.67649E+00 -1.72081E+00 -1.75119E+00 -1.76721E+00
  -1.76830E+00 -1.75371E+00 -1.72269E+00 -1.67423E+00 -1.60721E+00 -1.52024E+00 -1.41193E+00 -1.28070E+00 -1.12493E+00 -9.42724E-01
  -7.32140E-01 -4.91145E-01 -2.17952E-01  8.90294E-02  4.30935E-01  8.08472E-01  1.22152E+00  1.66904E+00  2.14864E+00  2.65668E+00
   3.18800E+00  3.73610E+00  4.29289E+00  4.84900E+00  5.39380E+00  5.91596E+00  6.40380E+00  6.84588E+00  7.23131E+00  7.55042E+00
   7.79511E+00  7.95957E+00  8.04041E+00  8.03699E+00  7.95122E+00  7.78765E+00  7.55306E+00  7.25630E+00  6.90768E+00  6.51849E+00
   6.10031E+00  5.66465E+00  5.22238E+00  4.78352E+00  4.35678E+00  3.94941E+00  3.56704E+00  3.21379E+00  2.89230E+00  2.60404E+00
   2.34923E+00  2.12723E+00  1.93653E+00  1.77524E+00  1.64107E+00  1.53166E+00  1.44449E+00  1.37710E+00  1.32709E+00  1.29229E+00
   1.27072E+00  1.26066E+00  1.26047E+00  1.26877E+00  1.28426E+00  1.30594E+00  1.33289E+00  1.36439E+00  1.39971E+00  1.43825E+00
   1.47946E+00  1.52297E+00  1.56841E+00  1.61549E+00  1.66392E+00  1.71350E+00  1.76403E+00  1.81545E+00  1.86760E+00  1.92042E+00
   1.97372E+00  2.02746E+00  2.08155E+00  2.13602E+00  2.19078E+00  2.24581E+00  2.30100E+00  2.35636E+00  2.41185E+00  2.46753E+00
   2.52332E+00  2.57924E+00  2.63521E+00  2.69127E+00  2.74742E+00  2.80373E+00  2.86011E+00  2.91659E+00  2.97311E+00  3.02975E+00
   3.08651E+00  3.14344E+00  3.20047E+00  3.25764E+00  3.31492E+00  3.37239E+00  3.43007E+00  3.48798E+00  3.54606E+00  3.60437E+00
   3.66289E+00  3.72173E+00  3.78088E+00  3.84036E+00  3.90013E+00  3.96026E+00  4.02076E+00  4.08175E+00
 NY background values follow
    -5.079E+01   -5.049E+01   -5.020E+01   -4.991E+01   -4.961E+01   -4.932E+01   -4.903E+01   -4.874E+01   -4.845E+01   -4.815E+01
    -4.786E+01   -4.757E+01   -4.728E+01   -4.699E+01   -4.670E+01   -4.641E+01   -4.612E+01   -4.584E+01   -4.555E+01   -4.526E+01
    -4.498E+01   -4.469E+01   -4.441E+01   -4.412E+01   -4.384E+01   -4.356E+01   -4.327E+01   -4.299E+01   -4.271E+01   -4.243E+01
    -4.216E+01   -4.188E+01   -4.160E+01   -4.133E+01   -4.105E+01   -4.078E+01   -4.051E+01   -4.024E+01   -3.997E+01   -3.970E+01
    -3.943E+01   -3.917E+01   -3.890E+01   -3.864E+01   -3.838E+01   -3.812E+01   -3.786E+01   -3.760E+01   -3.735E+01   -3.709E+01
    -3.684E+01   -3.659E+01   -3.634E+01   -3.609E+01   -3.585E+01   -3.560E+01   -3.536E+01   -3.512E+01   -3.487E+01   -3.464E+01
    -3.440E+01   -3.416E+01   -3.393E+01   -3.370E+01   -3.347E+01   -3.324E+01   -3.301E+01   -3.278E+01   -3.256E+01   -3.234E+01
    -3.212E+01   -3.190E+01   -3.168E+01   -3.146E+01   -3.125E+01   -3.104E+01   -3.083E+01   -3.062E+01   -3.041E+01   -3.020E+01
    -3.000E+01   -2.980E+01   -2.960E+01   -2.940E+01   -2.920E+01   -2.901E+01   -2.882E+01   -2.863E+01   -2.844E+01   -2.825E+01
    -2.806E+01   -2.788E+01   -2.770E+01   -2.752E+01   -2.734E+01   -2.716E+01   -2.699E+01   -2.682E+01   -2.665E+01   -2.648E+01
    -2.631E+01   -2.614E+01   -2.598E+01   -2.581E+01   -2.565E+01   -2.549E+01   -2.534E+01   -2.518E+01   -2.502E+01   -2.487E+01
    -2.472E+01   -2.456E+01   -2.441E+01   -2.427E+01   -2.412E+01   -2.397E+01   -2.383E+01   -2.368E+01   -2.354E+01   -2.340E+01
    -2.326E+01   -2.312E+01   -2.298E+01   -2.285E+01   -2.271E+01   -2.258E+01   -2.244E+01   -2.231E+01   -2.218E+01   -2.205E+01
    -2.192E+01   -2.179E+01   -2.166E+01   -2.153E+01   -2.140E+01   -2.128E+01   -2.115E+01   -2.103E+01   -2.090E+01   -2.078E+01
    -2.066E+01   -2.054E+01   -2.042E+01   -2.029E+01   -2.017E+01   -2.005E+01   -1.993E+01   -1.981E+01   -1.970E+01   -1.958E+01
    -1.946E+01   -1.934E+01   -1.922E+01   -1.911E+01   -1.899E+01   -1.887E+01   -1.876E+01   -1.864E+01   -1.852E+01   -1.841E+01
    -1.829E+01   -1.817E+01   -1.806E+01   -1.794E+01   -1.782E+01   -1.771E+01   -1.759E+01   -1.747E+01   -1.736E+01   -1.724E+01
    -1.712E+01   -1.700E+01   -1.689E+01   -1.677E+01   -1.665E+01   -1.653E+01   -1.641E+01   -1.629E+01   -1.617E+01   -1.605E+01
    -1.593E+01   -1.581E+01   -1.568E+01   -1.556E+01   -1.544E+01   -1.531E+01   -1.519E+01   -1.506E+01   -1.494E+01   -1.481E+01
    -1.469E+01   -1.456E+01   -1.444E+01   -1.431E+01   -1.418E+01   -1.406E+01   -1.393E+01   -1.381E+01   -1.368E+01   -1.355E+01
    -1.343E+01   -1.330E+01   -1.318E+01   -1.305E+01   -1.293E+01   -1.281E+01   -1.268E+01   -1.256E+01   -1.244E+01   -1.232E+01
    -1.220E+01   -1.208E+01   -1.196E+01   -1.184E+01   -1.172E+01   -1.160E+01   -1.149E+01   -1.137E+01   -1.126E+01   -1.114E+01
    -1.103E+01   -1.092E+01   -1.081E+01   -1.070E+01   -1.060E+01   -1.049E+01   -1.038E+01   -1.028E+01   -1.018E+01   -1.008E+01
    -9.978E+00   -9.880E+00   -9.784E+00   -9.688E+00   -9.594E+00   -9.502E+00   -9.410E+00   -9.320E+00   -9.231E+00   -9.143E+00
    -9.057E+00   -8.972E+00   -8.888E+00   -8.806E+00   -8.724E+00   -8.644E+00   -8.566E+00   -8.488E+00   -8.412E+00   -8.336E+00
    -8.262E+00   -8.190E+00   -8.118E+00   -8.047E+00   -7.978E+00   -7.910E+00   -7.843E+00   -7.777E+00   -7.713E+00   -7.649E+00
    -7.587E+00   -7.525E+00   -7.465E+00   -7.406E+00   -7.348E+00   -7.291E+00   -7.235E+00   -7.181E+00   -7.127E+00   -7.074E+00
    -7.023E+00   -6.972E+00   -6.923E+00   -6.874E+00   -6.827E+00   -6.780E+00   -6.735E+00   -6.691E+00   -6.647E+00   -6.604E+00
    -6.563E+00   -6.522E+00   -6.482E+00   -6.443E+00   -6.405E+00   -6.368E+00   -6.331E+00   -6.296E+00   -6.261E+00   -6.227E+00
    -6.194E+00   -6.162E+00   -6.130E+00   -6.099E+00   -6.069E+00   -6.040E+00   -6.011E+00   -5.983E+00   -5.956E+00   -5.929E+00
    -5.903E+00   -5.878E+00   -5.853E+00   -5.829E+00   -5.806E+00   -5.783E+00   -5.761E+00   -5.739E+00   -5.718E+00   -5.697E+00
    -5.677E+00   -5.657E+00   -5.638E+00   -5.619E+00   -5.601E+00   -5.583E+00   -5.566E+00   -5.549E+00   -5.532E+00   -5.516E+00
    -5.500E+00   -5.485E+00   -5.470E+00   -5.455E+00   -5.440E+00   -5.425E+00   -5.411E+00   -5.397E+00   -5.383E+00   -5.368E+00
    -5.354E+00   -5.340E+00   -5.326E+00   -5.312E+00   -5.298E+00   -5.284E+00   -5.270E+00   -5.255E+00   -5.240E+00   -5.225E+00
    -5.210E+00   -5.195E+00   -5.179E+00   -5.163E+00   -5.147E+00   -5.130E+00   -5.112E+00   -5.095E+00   -5.077E+00   -5.058E+00
    -5.039E+00   -5.019E+00   -4.999E+00   -4.978E+00   -4.956E+00   -4.934E+00   -4.911E+00   -4.887E+00   -4.862E+00   -4.837E+00
    -4.811E+00   -4.784E+00   -4.756E+00   -4.727E+00   -4.697E+00   -4.667E+00   -4.635E+00   -4.603E+00   -4.569E+00   -4.535E+00
    -4.500E+00   -4.464E+00   -4.427E+00   -4.389E+00   -4.350E+00   -4.310E+00   -4.270E+00   -4.228E+00   -4.185E+00   -4.142E+00
    -4.098E+00   -4.052E+00   -4.006E+00   -3.959E+00   -3.911E+00   -3.862E+00   -3.812E+00   -3.761E+00   -3.710E+00   -3.657E+00
    -3.603E+00   -3.549E+00   -3.493E+00   -3.437E+00   -3.379E+00   -3.321E+00   -3.261E+00   -3.201E+00   -3.140E+00   -3.078E+00
    -3.015E+00   -2.951E+00   -2.886E+00   -2.820E+00   -2.753E+00   -2.685E+00   -2.616E+00   -2.546E+00   -2.475E+00   -2.404E+00
    -2.331E+00   -2.258E+00   -2.184E+00   -2.109E+00   -2.033E+00   -1.957E+00   -1.880E+00   -1.802E+00   -1.724E+00   -1.645E+00
    -1.566E+00   -1.487E+00   -1.407E+00   -1.326E+00   -1.245E+00   -1.164E+00   -1.083E+00   -1.001E+00   -9.195E-01   -8.376E-01
    -7.556E-01   -6.734E-01   -5.913E-01   -5.091E-01   -4.270E-01   -3.449E-01   -2.629E-01   -1.811E-01   -9.952E-02   -1.812E-02
     6.302E-02    1.439E-01    2.244E-01    3.045E-01    3.842E-01    4.635E-01    5.422E-01    6.205E-01    6.982E-01    7.752E-01
     8.517E-01    9.275E-01    1.003E+00    1.077E+00    1.150E+00    1.223E+00    1.296E+00    1.367E+00    1.438E+00    1.508E+00
     1.578E+00    1.647E+00    1.716E+00    1.784E+00    1.852E+00    1.919E+00    1.985E+00    2.052E+00    2.117E+00    2.183E+00
     2.248E+00    2.313E+00    2.377E+00    2.441E+00    2.505E+00    2.568E+00    2.632E+00    2.695E+00    2.758E+00    2.820E+00
     2.883E+00    2.945E+00    3.008E+00    3.070E+00    3.132E+00    3.194E+00    3.256E+00    3.318E+00    3.380E+00    3.443E+00
     3.505E+00    3.567E+00    3.630E+00    3.692E+00    3.755E+00    3.818E+00    3.881E+00    3.944E+00
 Ala      Conc. = 1.25E+02
