 LCModel (Version 6.3-1L) Copyright: S.W. Provencher.          Ref.: Magn. Reson. Med. 30:672-679 (1993).                
 Slice#3 Row#6 Col#5  PD_05_press_1_raw_act
 36 lines in following concentration table = NCONC+1
    Conc.  %SD /Cr+PCr  Metabolite                                         
    0.000 999%   0.000 Ala                                                 
    0.000 999%   0.000 Asp                                                 
  383.706  42%   0.301 Cr                                                  
  892.083  19%   0.699 PCr                                                 
    0.000 999%   0.000 GABA                                                
    0.000 999%   0.000 Glc                                                 
  519.671  32%   0.407 Gln                                                 
 1.24E+03  15%   0.976 Glu                                                 
  393.917   4%   0.309 GPC                                                 
    0.000 999%   0.000 PCh                                                 
  323.846  15%   0.254 GSH                                                 
  130.376 127%   0.102 Ins                                                 
    0.000 999%   0.000 Lac                                                 
 1.64E+03   5%   1.289 NAA                                                 
  325.386  28%   0.255 NAAG                                                
    0.000 999%   0.000 Scyllo                                              
    0.000 999%   0.000 Tau                                                 
    0.000 999%   0.000 -CrCH2                                              
  393.917   4%   0.309 GPC+PCh                                             
 1.97E+03   3%   1.544 NAA+NAAG                                            
 1.28E+03   3%   1.000 Cr+PCr                                              
 1.76E+03  15%   1.383 Glu+Gln                                             
  825.359  36%   0.647 Lip13a                                              
    0.000 999%   0.000 Lip13b                                              
    0.000 999%   0.000 Lip09                                               
 1.12E+03  15%   0.879 MM09                                                
  109.604 112% 8.6E-02 Lip20                                               
 2.61E+03  11%   2.046 MM20                                                
  411.581  27%   0.323 MM12                                                
 1.39E+03  20%   1.086 MM14                                                
 1.03E+03  20%   0.805 MM17                                                
  825.359  36%   0.647 Lip13a+Lip13b                                       
 2.62E+03  14%   2.056 MM14+Lip13a+Lip13b+MM12                             
 1.12E+03  15%   0.879 MM09+Lip09                                          
 2.72E+03  11%   2.132 MM20+Lip20                                          
   6 lines in following misc. output table
  FWHM = 0.054 ppm    S/N =  14                                            
  Data shift = 0.008 ppm                                                   
  Ph:  -5 deg       0.3 deg/ppm                                            
  alphaB,S = 6.9E-01,   1.6E+02                                            
   14 spline knots.   Ns = 7(1)                                            
  ( 7) 2 infls.   ( 9) 1 extrs.                                            
  498 points on ppm-axis = NY
      4.000000     3.992357     3.984714     3.977070     3.969427     3.961784     3.954141     3.946497     3.938854     3.931211
      3.923568     3.915925     3.908281     3.900638     3.892995     3.885352     3.877708     3.870065     3.862422     3.854779
      3.847136     3.839492     3.831849     3.824206     3.816563     3.808919     3.801276     3.793633     3.785990     3.778347
      3.770703     3.763060     3.755417     3.747774     3.740130     3.732487     3.724844     3.717201     3.709558     3.701914
      3.694271     3.686628     3.678985     3.671341     3.663698     3.656055     3.648412     3.640769     3.633125     3.625482
      3.617839     3.610196     3.602552     3.594909     3.587266     3.579623     3.571980     3.564336     3.556693     3.549050
      3.541407     3.533763     3.526120     3.518477     3.510834     3.503191     3.495547     3.487904     3.480261     3.472618
      3.464974     3.457331     3.449688     3.442045     3.434402     3.426758     3.419115     3.411472     3.403829     3.396185
      3.388542     3.380899     3.373256     3.365613     3.357969     3.350326     3.342683     3.335040     3.327396     3.319753
      3.312110     3.304467     3.296824     3.289180     3.281537     3.273894     3.266251     3.258607     3.250964     3.243321
      3.235678     3.228034     3.220391     3.212748     3.205105     3.197462     3.189818     3.182175     3.174532     3.166889
      3.159245     3.151602     3.143959     3.136316     3.128673     3.121029     3.113386     3.105743     3.098100     3.090456
      3.082813     3.075170     3.067527     3.059884     3.052240     3.044597     3.036954     3.029311     3.021667     3.014024
      3.006381     2.998738     2.991095     2.983451     2.975808     2.968165     2.960522     2.952878     2.945235     2.937592
      2.929949     2.922306     2.914662     2.907019     2.899376     2.891733     2.884089     2.876446     2.868803     2.861160
      2.853517     2.845873     2.838230     2.830587     2.822944     2.815300     2.807657     2.800014     2.792371     2.784728
      2.777084     2.769441     2.761798     2.754155     2.746511     2.738868     2.731225     2.723582     2.715939     2.708295
      2.700652     2.693009     2.685366     2.677722     2.670079     2.662436     2.654793     2.647150     2.639506     2.631863
      2.624220     2.616577     2.608933     2.601290     2.593647     2.586004     2.578361     2.570717     2.563074     2.555431
      2.547788     2.540144     2.532501     2.524858     2.517215     2.509572     2.501928     2.494285     2.486642     2.478999
      2.471355     2.463712     2.456069     2.448426     2.440783     2.433139     2.425496     2.417853     2.410210     2.402566
      2.394923     2.387280     2.379637     2.371994     2.364350     2.356707     2.349064     2.341421     2.333777     2.326134
      2.318491     2.310848     2.303205     2.295561     2.287918     2.280275     2.272632     2.264988     2.257345     2.249702
      2.242059     2.234416     2.226772     2.219129     2.211486     2.203843     2.196199     2.188556     2.180913     2.173270
      2.165627     2.157983     2.150340     2.142697     2.135054     2.127410     2.119767     2.112124     2.104481     2.096838
      2.089194     2.081551     2.073908     2.066265     2.058621     2.050978     2.043335     2.035692     2.028049     2.020405
      2.012762     2.005119     1.997476     1.989833     1.982190     1.974546     1.966903     1.959260     1.951617     1.943974
      1.936331     1.928688     1.921045     1.913402     1.905759     1.898115     1.890472     1.882829     1.875186     1.867543
      1.859900     1.852257     1.844614     1.836971     1.829327     1.821684     1.814041     1.806398     1.798755     1.791112
      1.783469     1.775826     1.768183     1.760540     1.752896     1.745253     1.737610     1.729967     1.722324     1.714681
      1.707038     1.699395     1.691752     1.684108     1.676465     1.668822     1.661179     1.653536     1.645893     1.638250
      1.630607     1.622964     1.615321     1.607677     1.600034     1.592391     1.584748     1.577105     1.569462     1.561819
      1.554176     1.546533     1.538890     1.531246     1.523603     1.515960     1.508317     1.500674     1.493031     1.485388
      1.477745     1.470102     1.462458     1.454815     1.447172     1.439529     1.431886     1.424243     1.416600     1.408957
      1.401314     1.393671     1.386027     1.378384     1.370741     1.363098     1.355455     1.347812     1.340169     1.332526
      1.324883     1.317240     1.309596     1.301953     1.294310     1.286667     1.279024     1.271381     1.263738     1.256095
      1.248452     1.240808     1.233165     1.225522     1.217879     1.210236     1.202593     1.194950     1.187307     1.179664
      1.172021     1.164377     1.156734     1.149091     1.141448     1.133805     1.126162     1.118519     1.110876     1.103233
      1.095590     1.087946     1.080303     1.072660     1.065017     1.057374     1.049731     1.042088     1.034445     1.026802
      1.019158     1.011515     1.003872     0.996229     0.988586     0.980943     0.973300     0.965657     0.958014     0.950371
      0.942727     0.935084     0.927441     0.919798     0.912155     0.904512     0.896869     0.889226     0.881583     0.873940
      0.866296     0.858653     0.851010     0.843367     0.835724     0.828081     0.820438     0.812795     0.805152     0.797508
      0.789865     0.782222     0.774579     0.766936     0.759293     0.751650     0.744007     0.736364     0.728721     0.721077
      0.713434     0.705791     0.698148     0.690505     0.682862     0.675219     0.667576     0.659933     0.652290     0.644646
      0.637003     0.629360     0.621717     0.614074     0.606431     0.598788     0.591145     0.583502     0.575858     0.568215
      0.560572     0.552929     0.545286     0.537643     0.530000     0.522357     0.514714     0.507071     0.499427     0.491784
      0.484141     0.476498     0.468855     0.461212     0.453569     0.445925     0.438282     0.430639     0.422996     0.415353
      0.407710     0.400067     0.392424     0.384780     0.377137     0.369494     0.361851     0.354208     0.346565     0.338922
      0.331278     0.323635     0.315992     0.308349     0.300706     0.293063     0.285420     0.277777     0.270133     0.262490
      0.254847     0.247204     0.239561     0.231918     0.224275     0.216631     0.208988     0.201345
 NY phased data points follow
   2.22940E+01  2.47541E+01  2.65860E+01  2.93442E+01  3.01945E+01  3.51302E+01  3.56130E+01  4.50970E+01  4.44999E+01  5.22589E+01
   5.21548E+01  5.39999E+01  4.85412E+01  4.57645E+01  3.97319E+01  3.63514E+01  2.84103E+01  2.62838E+01  2.56950E+01  2.73191E+01
   2.48340E+01  2.38435E+01  2.87249E+01  2.42279E+01  2.19819E+01  2.63923E+01  2.33649E+01  2.62784E+01  2.68278E+01  2.57663E+01
   2.80080E+01  2.54238E+01  2.41291E+01  2.42285E+01  2.04166E+01  2.27055E+01  1.96655E+01  1.97569E+01  1.66342E+01  2.05508E+01
   2.18985E+01  2.15042E+01  1.76999E+01  1.80473E+01  1.77984E+01  2.27604E+01  2.22877E+01  2.14666E+01  2.27732E+01  2.09972E+01
   2.17217E+01  1.51695E+01  1.63806E+01  1.43856E+01  1.29808E+01  1.25890E+01  1.51234E+01  1.51503E+01  1.46090E+01  1.33396E+01
   1.22068E+01  1.43189E+01  7.85779E+00  1.02206E+01  7.71795E+00  4.56023E+00  7.65958E+00  5.19856E+00  5.61819E+00  7.84116E+00
   7.49995E+00  6.90067E+00  8.62273E+00  9.63204E+00  7.51954E+00  6.54620E+00  5.72337E+00  8.90862E+00  7.24961E+00  5.59170E+00
   7.48971E+00  5.71827E+00  1.04041E+01  6.46990E+00  3.61899E+00  6.34684E+00  7.85468E+00  8.17724E+00  6.34419E+00  5.36193E+00
   7.87539E+00  6.38407E+00  9.56934E+00  7.82629E+00  9.04957E+00  8.17406E+00  1.03444E+01  1.28908E+01  1.67935E+01  2.18599E+01
   2.78355E+01  3.60828E+01  4.09919E+01  4.13429E+01  3.52914E+01  3.34409E+01  2.73226E+01  2.24884E+01  1.83341E+01  1.38882E+01
   1.32968E+01  1.12241E+01  1.06006E+01  8.80495E+00  1.07995E+01  8.05333E+00  6.93145E+00  7.85239E+00  7.82328E+00  8.69149E+00
   9.22347E+00  1.35191E+01  1.29969E+01  2.18998E+01  2.54979E+01  3.32407E+01  3.93842E+01  4.29931E+01  4.39102E+01  3.83826E+01
   2.98931E+01  2.51295E+01  2.07846E+01  1.57309E+01  1.41390E+01  7.47111E+00  6.98108E+00  6.79746E+00  5.86047E+00  6.10744E+00
   3.42114E+00  1.94450E+00  4.60772E+00  4.59200E+00  3.04803E+00 -1.58274E+00  4.94637E+00  1.04175E-01  4.69820E+00  3.20952E+00
   2.59627E+00 -1.02141E+00  9.72351E-01 -2.48043E-01 -6.59779E-01 -2.07788E+00 -1.79752E+00  4.89082E-01  2.34952E+00 -2.51479E+00
  -3.29717E+00 -2.09380E+00 -3.66589E+00 -3.34036E+00 -4.16789E+00 -7.34275E-01 -2.90974E+00 -9.88722E-01 -2.83512E+00 -1.77015E+00
  -5.06212E+00 -6.68425E+00 -5.99867E+00 -7.01121E+00 -8.81981E+00 -9.81939E+00 -6.34994E+00 -7.95856E+00 -7.02233E+00 -5.07500E+00
  -8.41723E+00 -1.05211E+01 -9.15262E+00 -9.30402E+00 -5.97478E+00 -7.88898E+00 -5.62289E+00 -5.61596E+00 -2.18012E+00 -1.08049E+00
   2.72754E-01  1.91621E+00  2.32159E+00  6.70882E+00  3.08581E+00  1.54362E+00 -9.32880E-02 -1.31385E+00 -6.70025E-01  1.70830E+00
   1.86781E+00 -3.81614E-01  7.31716E-01  1.26665E+00  2.78483E+00  2.67179E+00 -3.16921E-01 -8.94833E-01 -1.44704E+00 -6.88280E-01
  -3.82064E+00 -3.14632E+00 -4.81515E-01  3.48385E+00  5.66884E+00  4.93960E+00  8.90729E+00  1.04940E+01  6.74968E+00  2.71885E+00
  -1.27530E+00 -1.03811E+00 -3.53578E+00 -2.69690E+00  2.39748E+00  3.25104E+00  3.79464E+00  6.49632E+00  5.51539E+00  6.57522E+00
   5.11901E+00  5.59665E+00  6.25006E+00  7.56750E+00  4.27570E+00  5.90272E+00  7.59408E+00  4.24154E+00  4.68113E+00  5.16582E+00
   5.28098E+00  5.80239E+00  6.35851E+00  5.91726E+00  6.92200E+00  4.44299E+00  8.46782E+00  1.25737E+01  1.26123E+01  1.28070E+01
   1.25415E+01  1.95673E+01  1.94574E+01  2.33340E+01  2.67161E+01  3.36466E+01  4.07659E+01  4.32464E+01  5.21779E+01  6.33099E+01
   6.75557E+01  6.67088E+01  5.80240E+01  4.66723E+01  3.26075E+01  2.48325E+01  1.91135E+01  1.32101E+01  1.04222E+01  9.72096E+00
   1.12834E+01  6.60089E+00  8.49766E+00  6.02821E+00  6.14891E+00  6.90142E+00  7.00489E+00  4.54151E+00  3.71839E+00  3.88979E+00
   3.44245E+00 -7.13185E-01  4.47087E+00  4.69542E+00  3.12243E+00  1.74920E+00  3.76293E+00  5.16896E+00  6.08466E-01 -6.88034E-02
   2.61825E+00  5.66424E+00  2.66280E+00  7.66981E-01  3.17606E+00  3.75184E+00  6.87933E+00  6.23088E+00  5.96220E+00  2.06255E+00
   4.53214E+00  5.13977E+00  4.04404E+00  5.48848E+00  7.53973E+00  7.69232E+00  7.50033E+00  7.87413E+00  1.02718E+01  9.20807E+00
   7.48666E+00  1.04781E+01  1.00636E+01  1.05871E+01  9.16349E+00  1.09486E+01  8.99216E+00  8.54179E+00  8.81503E+00  9.02909E+00
   6.45392E+00  7.05902E+00  6.91347E+00  5.93367E+00  7.41478E+00  6.39594E+00  8.08621E+00  6.39869E+00  9.31351E+00  7.00867E+00
   7.73396E+00  1.05785E+01  8.21053E+00  9.98304E+00  9.27567E+00  8.40319E+00  7.21543E+00  8.26810E+00  5.45285E+00  4.03056E+00
   5.56782E+00  8.43350E+00  2.08856E+00  7.26657E+00  6.71535E+00  6.76037E+00  7.12456E+00  1.02963E+01  7.09259E+00  7.94763E+00
   5.41965E+00  6.31886E+00  4.50936E+00  4.59170E+00  4.83466E+00  7.92771E+00  6.40257E+00  2.47356E+00  4.20947E+00  1.95092E+00
   2.62246E+00  2.80466E+00  5.11752E+00  5.72983E+00  7.56194E+00  5.31552E+00  2.88619E+00  3.63012E+00  6.59279E+00  7.06178E+00
   3.83529E+00  3.83390E+00  3.87456E+00  5.92395E+00  6.84054E+00  5.25786E+00  1.83025E+00  3.76907E+00 -2.64000E-01 -1.80193E+00
   2.37044E+00 -5.39750E-01  8.40923E-01  2.05359E+00  1.42102E+00  7.96169E-01  1.35880E+00  6.75229E-01  2.94345E+00 -4.69452E-01
   8.04479E-01  3.74226E-01  1.02530E+00  1.09015E+00  2.45968E+00  3.21467E+00  2.79413E+00  1.29793E+00  2.60438E+00  4.12909E+00
   4.25494E+00  5.24490E+00  5.67598E+00  5.12157E+00  3.65520E+00  3.67186E+00  7.05748E+00  5.88613E+00  4.43061E+00  5.73021E+00
   6.16536E+00  3.97051E+00  7.18601E+00  5.90666E+00  2.60618E+00  1.70693E+00  3.44979E+00  1.56342E+00 -5.63663E-01 -1.09356E+00
  -2.94346E+00  2.48857E+00 -1.29919E+00 -2.97075E+00 -7.16555E-01 -3.00470E-01 -9.18184E-02  1.95970E+00  6.56701E-01  1.76643E+00
   7.55059E-01 -6.24179E-01 -4.57062E-01 -2.53325E+00 -2.01805E+00 -1.82173E+00 -3.58933E+00 -4.12212E+00 -4.96542E+00 -2.98305E+00
  -1.76455E+00 -2.73594E+00 -6.37155E+00 -1.91497E+00 -4.03100E+00 -1.22970E+00 -3.67366E+00 -2.74515E+00 -3.50407E+00  1.22288E+00
   9.07028E-01 -8.61661E-01 -2.01982E+00 -2.31691E+00 -2.18475E+00 -3.04768E+00 -7.27234E-01 -1.92485E+00 -2.22542E+00 -2.33456E+00
  -4.14379E+00 -3.07006E+00 -4.86023E+00 -3.82523E+00 -2.56227E+00 -2.43336E+00 -3.38851E+00 -3.62337E+00 -2.92853E+00 -9.57196E-01
  -1.33337E+00  4.55685E-01  1.74798E-01 -1.32688E+00 -5.19985E-02 -3.60117E+00 -3.25969E+00 -2.69266E+00 -5.50994E+00 -2.39255E+00
  -3.43348E+00 -2.15679E+00 -5.62978E-01 -1.26381E-01 -1.61333E+00  3.04268E-01 -5.36567E-01 -2.14713E+00 -3.87599E+00 -1.23283E+00
  -1.29634E+00 -1.10353E+00 -2.28298E+00 -2.35243E+00 -4.81252E+00 -1.02289E+00 -3.10766E-01 -1.52016E+00
 NY points of the fit to the data follow
   2.52688E+01  2.53670E+01  2.59681E+01  2.75758E+01  3.00903E+01  3.32569E+01  3.70519E+01  4.14965E+01  4.61290E+01  4.98495E+01
   5.14601E+01  5.03963E+01  4.70939E+01  4.26850E+01  3.83198E+01  3.46112E+01  3.15354E+01  2.88378E+01  2.65837E+01  2.50909E+01
   2.42021E+01  2.35398E+01  2.30622E+01  2.28863E+01  2.28563E+01  2.30344E+01  2.35575E+01  2.44725E+01  2.56457E+01  2.67207E+01
   2.73766E+01  2.74033E+01  2.67600E+01  2.55720E+01  2.40233E+01  2.23052E+01  2.06839E+01  1.93367E+01  1.85097E+01  1.83266E+01
   1.84784E+01  1.87323E+01  1.89331E+01  1.90429E+01  1.90771E+01  1.90055E+01  1.88201E+01  1.85090E+01  1.81032E+01  1.76523E+01
   1.71593E+01  1.66328E+01  1.61173E+01  1.56076E+01  1.50976E+01  1.46368E+01  1.42384E+01  1.38701E+01  1.35149E+01  1.31880E+01
   1.28740E+01  1.25508E+01  1.22115E+01  1.18686E+01  1.15502E+01  1.12756E+01  1.10420E+01  1.08366E+01  1.06519E+01  1.04827E+01
   1.03195E+01  1.01530E+01  9.97317E+00  9.77681E+00  9.56762E+00  9.35296E+00  9.14151E+00  8.93778E+00  8.74154E+00  8.54806E+00
   8.35026E+00  8.14909E+00  7.94209E+00  7.72868E+00  7.50794E+00  7.28207E+00  7.06101E+00  6.86227E+00  6.70252E+00  6.59265E+00
   6.53133E+00  6.50780E+00  6.51785E+00  6.57861E+00  6.77291E+00  7.52054E+00  9.77343E+00  1.32173E+01  1.73398E+01  2.23410E+01
   2.83990E+01  3.48056E+01  3.98011E+01  4.15817E+01  3.94854E+01  3.43810E+01  2.80378E+01  2.20862E+01  1.72556E+01  1.33780E+01
   1.00441E+01  7.35420E+00  5.98362E+00  5.50002E+00  5.27211E+00  5.14678E+00  5.08779E+00  5.10073E+00  5.24200E+00  5.80061E+00
   7.66542E+00  1.11709E+01  1.55986E+01  2.08784E+01  2.72726E+01  3.44442E+01  4.08935E+01  4.45123E+01  4.39653E+01  3.95894E+01
   3.30456E+01  2.62244E+01  2.02805E+01  1.53026E+01  1.09273E+01  7.12995E+00  4.65302E+00  3.73664E+00  3.57579E+00  3.70231E+00
   3.86915E+00  3.93891E+00  3.88364E+00  3.69860E+00  3.40198E+00  3.05632E+00  2.69579E+00  2.31576E+00  1.93796E+00  1.57541E+00
   1.25584E+00  9.80756E-01  7.48093E-01  5.55940E-01  3.67189E-01  1.78980E-01  5.17953E-03 -1.84193E-01 -4.13433E-01 -7.26267E-01
  -1.08681E+00 -1.35779E+00 -1.45312E+00 -1.42817E+00 -1.42099E+00 -1.56296E+00 -1.89618E+00 -2.34045E+00 -2.77648E+00 -3.15270E+00
  -3.50264E+00 -3.80906E+00 -4.10894E+00 -4.44014E+00 -4.77369E+00 -5.03120E+00 -5.10006E+00 -4.97317E+00 -4.79695E+00 -4.72069E+00
  -4.78848E+00 -4.87220E+00 -4.78478E+00 -4.49151E+00 -4.06047E+00 -3.55039E+00 -2.93667E+00 -2.11071E+00 -1.09901E+00 -1.15316E-01
   5.58112E-01  7.47403E-01  5.23193E-01  6.22452E-02 -4.33871E-01 -7.97265E-01 -9.43808E-01 -7.59803E-01 -2.02103E-01  6.27340E-01
   1.57416E+00  2.45960E+00  3.10042E+00  3.24635E+00  2.87244E+00  1.98806E+00  6.04719E-01 -1.04856E+00 -2.51616E+00 -3.28778E+00
  -3.13292E+00 -2.20371E+00 -6.51370E-01  1.33924E+00  3.38333E+00  4.87193E+00  5.26920E+00  4.48938E+00  2.84095E+00  6.63340E-01
  -1.46649E+00 -2.98845E+00 -3.57348E+00 -3.08864E+00 -1.70564E+00  2.23215E-01  2.21315E+00  3.77232E+00  4.75851E+00  5.26744E+00
   5.56251E+00  5.75669E+00  5.88279E+00  6.08255E+00  6.44958E+00  6.86546E+00  7.14364E+00  7.25695E+00  7.24037E+00  7.09082E+00
   6.78970E+00  6.48989E+00  6.44344E+00  6.78645E+00  7.45691E+00  8.27573E+00  9.13395E+00  9.92508E+00  1.07471E+01  1.19162E+01
   1.33589E+01  1.50627E+01  1.72777E+01  2.12563E+01  2.76247E+01  3.44319E+01  4.10014E+01  4.78824E+01  5.54028E+01  6.22195E+01
   6.57480E+01  6.39818E+01  5.69670E+01  4.68008E+01  3.63854E+01  2.78002E+01  2.11541E+01  1.56393E+01  1.07822E+01  7.41016E+00
   6.11356E+00  5.53634E+00  5.17882E+00  4.94244E+00  4.74901E+00  4.52181E+00  4.26371E+00  3.98806E+00  3.71341E+00  3.46111E+00
   3.24505E+00  3.06166E+00  2.90826E+00  2.78832E+00  2.69828E+00  2.62656E+00  2.56691E+00  2.52757E+00  2.52120E+00  2.55606E+00
   2.63353E+00  2.75539E+00  2.91923E+00  3.11841E+00  3.34612E+00  3.60090E+00  3.88449E+00  4.19978E+00  4.54809E+00  4.92765E+00
   5.33513E+00  5.76520E+00  6.20604E+00  6.64378E+00  7.06551E+00  7.46039E+00  7.81903E+00  8.13235E+00  8.39225E+00  8.59538E+00
   8.73964E+00  8.82472E+00  8.85312E+00  8.82991E+00  8.76193E+00  8.65755E+00  8.52615E+00  8.37761E+00  8.22191E+00  8.06841E+00
   7.92526E+00  7.79890E+00  7.69384E+00  7.61274E+00  7.55651E+00  7.52426E+00  7.51338E+00  7.51984E+00  7.53872E+00  7.56472E+00
   7.59253E+00  7.61696E+00  7.63319E+00  7.63708E+00  7.62551E+00  7.59658E+00  7.54951E+00  7.48444E+00  7.40236E+00  7.30507E+00
   7.19514E+00  7.07572E+00  6.95013E+00  6.82160E+00  6.69308E+00  6.56723E+00  6.44637E+00  6.33224E+00  6.22583E+00  6.12732E+00
   6.03616E+00  5.95131E+00  5.87124E+00  5.79401E+00  5.71723E+00  5.63825E+00  5.55440E+00  5.46324E+00  5.36258E+00  5.25053E+00
   5.12546E+00  4.98620E+00  4.83221E+00  4.66356E+00  4.48092E+00  4.28536E+00  4.07836E+00  3.86182E+00  3.63813E+00  3.40999E+00
   3.18030E+00  2.95192E+00  2.72775E+00  2.51069E+00  2.30366E+00  2.10946E+00  1.93063E+00  1.76946E+00  1.62799E+00  1.50820E+00
   1.41190E+00  1.34074E+00  1.29608E+00  1.27907E+00  1.29074E+00  1.33203E+00  1.40370E+00  1.50616E+00  1.63942E+00  1.80303E+00
   1.99610E+00  2.21719E+00  2.46410E+00  2.73374E+00  3.02207E+00  3.32418E+00  3.63435E+00  3.94605E+00  4.25207E+00  4.54459E+00
   4.81552E+00  5.05690E+00  5.26119E+00  5.42156E+00  5.53213E+00  5.58825E+00  5.58684E+00  5.52657E+00  5.40792E+00  5.23306E+00
   5.00569E+00  4.73095E+00  4.41517E+00  4.06562E+00  3.69010E+00  3.29653E+00  2.89262E+00  2.48565E+00  2.08231E+00  1.68850E+00
   1.30913E+00  9.48065E-01  6.08098E-01  2.91130E-01 -1.73815E-03 -2.70130E-01 -5.14345E-01 -7.35239E-01 -9.34040E-01 -1.11217E+00
  -1.27115E+00 -1.41259E+00 -1.53813E+00 -1.64944E+00 -1.74806E+00 -1.83538E+00 -1.91260E+00 -1.98085E+00 -2.04122E+00 -2.09466E+00
  -2.14198E+00 -2.18382E+00 -2.22075E+00 -2.25330E+00 -2.28199E+00 -2.30726E+00 -2.32943E+00 -2.34876E+00 -2.36547E+00 -2.37984E+00
  -2.39211E+00 -2.40248E+00 -2.41107E+00 -2.41795E+00 -2.42327E+00 -2.42717E+00 -2.42980E+00 -2.43125E+00 -2.43155E+00 -2.43074E+00
  -2.42891E+00 -2.42619E+00 -2.42264E+00 -2.41828E+00 -2.41312E+00 -2.40720E+00 -2.40058E+00 -2.39338E+00 -2.38560E+00 -2.37725E+00
  -2.36831E+00 -2.35884E+00 -2.34890E+00 -2.33855E+00 -2.32779E+00 -2.31660E+00 -2.30498E+00 -2.29299E+00 -2.28069E+00 -2.26812E+00
  -2.25525E+00 -2.24205E+00 -2.22855E+00 -2.21481E+00 -2.20089E+00 -2.18677E+00 -2.17241E+00 -2.15782E+00 -2.14303E+00 -2.12809E+00
  -2.11304E+00 -2.09785E+00 -2.08246E+00 -2.06691E+00 -2.05122E+00 -2.03544E+00 -2.01957E+00 -2.00355E+00
 NY background values follow
     2.453E+01    2.431E+01    2.409E+01    2.387E+01    2.365E+01    2.343E+01    2.320E+01    2.298E+01    2.276E+01    2.254E+01
     2.232E+01    2.209E+01    2.187E+01    2.165E+01    2.143E+01    2.120E+01    2.098E+01    2.076E+01    2.054E+01    2.032E+01
     2.009E+01    1.987E+01    1.965E+01    1.943E+01    1.921E+01    1.899E+01    1.877E+01    1.855E+01    1.833E+01    1.812E+01
     1.790E+01    1.768E+01    1.747E+01    1.725E+01    1.703E+01    1.682E+01    1.660E+01    1.639E+01    1.618E+01    1.597E+01
     1.576E+01    1.555E+01    1.534E+01    1.513E+01    1.492E+01    1.471E+01    1.451E+01    1.430E+01    1.410E+01    1.390E+01
     1.369E+01    1.349E+01    1.329E+01    1.309E+01    1.290E+01    1.270E+01    1.250E+01    1.231E+01    1.212E+01    1.192E+01
     1.173E+01    1.154E+01    1.135E+01    1.117E+01    1.098E+01    1.079E+01    1.061E+01    1.043E+01    1.024E+01    1.006E+01
     9.882E+00    9.704E+00    9.527E+00    9.350E+00    9.176E+00    9.002E+00    8.830E+00    8.659E+00    8.489E+00    8.321E+00
     8.153E+00    7.988E+00    7.823E+00    7.660E+00    7.498E+00    7.338E+00    7.178E+00    7.021E+00    6.864E+00    6.709E+00
     6.556E+00    6.404E+00    6.253E+00    6.104E+00    5.956E+00    5.809E+00    5.664E+00    5.521E+00    5.378E+00    5.237E+00
     5.098E+00    4.959E+00    4.823E+00    4.687E+00    4.553E+00    4.420E+00    4.289E+00    4.158E+00    4.030E+00    3.902E+00
     3.776E+00    3.651E+00    3.528E+00    3.405E+00    3.284E+00    3.165E+00    3.046E+00    2.929E+00    2.813E+00    2.699E+00
     2.586E+00    2.473E+00    2.363E+00    2.253E+00    2.145E+00    2.038E+00    1.932E+00    1.827E+00    1.724E+00    1.622E+00
     1.521E+00    1.421E+00    1.322E+00    1.225E+00    1.129E+00    1.034E+00    9.398E-01    8.471E-01    7.557E-01    6.654E-01
     5.764E-01    4.886E-01    4.021E-01    3.169E-01    2.330E-01    1.505E-01    6.928E-02   -1.055E-02   -8.899E-02   -1.660E-01
    -2.416E-01   -3.158E-01   -3.885E-01   -4.597E-01   -5.294E-01   -5.976E-01   -6.642E-01   -7.293E-01   -7.928E-01   -8.547E-01
    -9.150E-01   -9.737E-01   -1.031E+00   -1.086E+00   -1.140E+00   -1.192E+00   -1.242E+00   -1.290E+00   -1.337E+00   -1.382E+00
    -1.425E+00   -1.466E+00   -1.505E+00   -1.543E+00   -1.579E+00   -1.612E+00   -1.644E+00   -1.674E+00   -1.702E+00   -1.728E+00
    -1.752E+00   -1.774E+00   -1.794E+00   -1.812E+00   -1.828E+00   -1.842E+00   -1.854E+00   -1.864E+00   -1.873E+00   -1.880E+00
    -1.886E+00   -1.890E+00   -1.892E+00   -1.893E+00   -1.892E+00   -1.890E+00   -1.887E+00   -1.882E+00   -1.876E+00   -1.868E+00
    -1.860E+00   -1.850E+00   -1.840E+00   -1.828E+00   -1.815E+00   -1.802E+00   -1.787E+00   -1.772E+00   -1.756E+00   -1.739E+00
    -1.721E+00   -1.703E+00   -1.684E+00   -1.665E+00   -1.645E+00   -1.624E+00   -1.603E+00   -1.582E+00   -1.560E+00   -1.539E+00
    -1.516E+00   -1.494E+00   -1.472E+00   -1.449E+00   -1.426E+00   -1.404E+00   -1.381E+00   -1.359E+00   -1.336E+00   -1.314E+00
    -1.292E+00   -1.270E+00   -1.248E+00   -1.226E+00   -1.204E+00   -1.183E+00   -1.161E+00   -1.140E+00   -1.119E+00   -1.098E+00
    -1.078E+00   -1.057E+00   -1.037E+00   -1.017E+00   -9.973E-01   -9.778E-01   -9.585E-01   -9.395E-01   -9.208E-01   -9.024E-01
    -8.842E-01   -8.664E-01   -8.488E-01   -8.315E-01   -8.146E-01   -7.980E-01   -7.818E-01   -7.659E-01   -7.503E-01   -7.351E-01
    -7.203E-01   -7.059E-01   -6.919E-01   -6.782E-01   -6.650E-01   -6.522E-01   -6.398E-01   -6.279E-01   -6.164E-01   -6.054E-01
    -5.948E-01   -5.847E-01   -5.751E-01   -5.659E-01   -5.573E-01   -5.491E-01   -5.414E-01   -5.342E-01   -5.275E-01   -5.212E-01
    -5.155E-01   -5.102E-01   -5.054E-01   -5.012E-01   -4.974E-01   -4.941E-01   -4.913E-01   -4.889E-01   -4.871E-01   -4.858E-01
    -4.850E-01   -4.846E-01   -4.848E-01   -4.854E-01   -4.866E-01   -4.882E-01   -4.904E-01   -4.930E-01   -4.962E-01   -4.998E-01
    -5.039E-01   -5.086E-01   -5.138E-01   -5.194E-01   -5.256E-01   -5.322E-01   -5.394E-01   -5.471E-01   -5.553E-01   -5.640E-01
    -5.732E-01   -5.829E-01   -5.931E-01   -6.039E-01   -6.151E-01   -6.269E-01   -6.392E-01   -6.520E-01   -6.652E-01   -6.790E-01
    -6.933E-01   -7.081E-01   -7.233E-01   -7.390E-01   -7.551E-01   -7.717E-01   -7.887E-01   -8.062E-01   -8.240E-01   -8.423E-01
    -8.609E-01   -8.799E-01   -8.993E-01   -9.191E-01   -9.392E-01   -9.597E-01   -9.805E-01   -1.002E+00   -1.023E+00   -1.045E+00
    -1.067E+00   -1.089E+00   -1.112E+00   -1.135E+00   -1.158E+00   -1.181E+00   -1.205E+00   -1.229E+00   -1.253E+00   -1.277E+00
    -1.302E+00   -1.327E+00   -1.351E+00   -1.377E+00   -1.402E+00   -1.427E+00   -1.453E+00   -1.478E+00   -1.504E+00   -1.530E+00
    -1.556E+00   -1.582E+00   -1.609E+00   -1.635E+00   -1.661E+00   -1.688E+00   -1.714E+00   -1.741E+00   -1.767E+00   -1.793E+00
    -1.820E+00   -1.846E+00   -1.872E+00   -1.899E+00   -1.925E+00   -1.951E+00   -1.976E+00   -2.002E+00   -2.027E+00   -2.053E+00
    -2.078E+00   -2.103E+00   -2.127E+00   -2.152E+00   -2.176E+00   -2.199E+00   -2.223E+00   -2.246E+00   -2.269E+00   -2.291E+00
    -2.313E+00   -2.335E+00   -2.356E+00   -2.377E+00   -2.398E+00   -2.418E+00   -2.437E+00   -2.456E+00   -2.475E+00   -2.493E+00
    -2.510E+00   -2.527E+00   -2.544E+00   -2.559E+00   -2.574E+00   -2.589E+00   -2.603E+00   -2.616E+00   -2.629E+00   -2.640E+00
    -2.652E+00   -2.662E+00   -2.672E+00   -2.682E+00   -2.690E+00   -2.698E+00   -2.706E+00   -2.713E+00   -2.719E+00   -2.725E+00
    -2.730E+00   -2.734E+00   -2.738E+00   -2.742E+00   -2.745E+00   -2.747E+00   -2.749E+00   -2.750E+00   -2.750E+00   -2.751E+00
    -2.750E+00   -2.749E+00   -2.748E+00   -2.746E+00   -2.744E+00   -2.741E+00   -2.737E+00   -2.734E+00   -2.729E+00   -2.724E+00
    -2.719E+00   -2.713E+00   -2.707E+00   -2.701E+00   -2.694E+00   -2.686E+00   -2.679E+00   -2.670E+00   -2.662E+00   -2.653E+00
    -2.643E+00   -2.633E+00   -2.623E+00   -2.613E+00   -2.602E+00   -2.590E+00   -2.579E+00   -2.567E+00   -2.555E+00   -2.542E+00
    -2.529E+00   -2.516E+00   -2.502E+00   -2.489E+00   -2.475E+00   -2.460E+00   -2.446E+00   -2.431E+00   -2.416E+00   -2.401E+00
    -2.386E+00   -2.370E+00   -2.355E+00   -2.339E+00   -2.323E+00   -2.307E+00   -2.290E+00   -2.274E+00   -2.257E+00   -2.241E+00
    -2.224E+00   -2.207E+00   -2.190E+00   -2.173E+00   -2.156E+00   -2.139E+00   -2.121E+00   -2.104E+00   -2.087E+00   -2.070E+00
    -2.053E+00   -2.035E+00   -2.018E+00   -2.001E+00   -1.984E+00   -1.967E+00   -1.950E+00   -1.933E+00
 Cr       Conc. = 3.84E+02
