 LCModel (Version 6.3-1L) Copyright: S.W. Provencher.          Ref.: Magn. Reson. Med. 30:672-679 (1993).                
 Slice#1 Row#6 Col#7  PD_05_press_1_raw_act
 36 lines in following concentration table = NCONC+1
    Conc.  %SD /Cr+PCr  Metabolite                                         
  138.313  93%   0.281 Ala                                                 
  112.188 106%   0.228 Asp                                                 
   83.322 213%   0.169 Cr                                                  
  409.346  44%   0.831 PCr                                                 
   49.024 152%   0.100 GABA                                                
   37.243 198% 7.6E-02 Glc                                                 
  734.352  40%   1.491 Gln                                                 
 1.07E+03  32%   2.181 Glu                                                 
   63.933 231%   0.130 GPC                                                 
  192.956  77%   0.392 PCh                                                 
  111.179  70%   0.226 GSH                                                 
 1.13E+03  24%   2.298 Ins                                                 
    0.000 999%   0.000 Lac                                                 
  961.734   6%   1.952 NAA                                                 
    0.000 999%   0.000 NAAG                                                
   90.961  21%   0.185 Scyllo                                              
  226.961  51%   0.461 Tau                                                 
   71.015 141%   0.144 -CrCH2                                              
  256.889   8%   0.521 GPC+PCh                                             
  961.734   6%   1.952 NAA+NAAG                                            
  492.668  11%   1.000 Cr+PCr                                              
 1.81E+03  29%   3.672 Glu+Gln                                             
    0.000 999%   0.000 Lip13a                                              
  120.304  71%   0.244 Lip13b                                              
   28.968 113% 5.9E-02 Lip09                                               
  346.032  34%   0.702 MM09                                                
   20.445 101% 4.1E-02 Lip20                                               
  675.727  29%   1.372 MM20                                                
   94.850  50%   0.193 MM12                                                
   55.067 262%   0.112 MM14                                                
   95.069 101%   0.193 MM17                                                
  120.304  71%   0.244 Lip13a+Lip13b                                       
  270.221  69%   0.548 MM14+Lip13a+Lip13b+MM12                             
  374.999  32%   0.761 MM09+Lip09                                          
  696.172  28%   1.413 MM20+Lip20                                          
   6 lines in following misc. output table
  FWHM = 0.046 ppm    S/N =   5                                            
  Data shift =-0.054 ppm                                                   
  Ph: -72 deg     -14.2 deg/ppm                                            
  alphaB,S = 8.5E-01,   1.2E+01                                            
   14 spline knots.   Ns = 8(1)                                            
  (16)10 infls.   (15) 7 extrs.                                            
  498 points on ppm-axis = NY
      4.000000     3.992357     3.984714     3.977070     3.969427     3.961784     3.954141     3.946497     3.938854     3.931211
      3.923568     3.915925     3.908281     3.900638     3.892995     3.885352     3.877708     3.870065     3.862422     3.854779
      3.847136     3.839492     3.831849     3.824206     3.816563     3.808919     3.801276     3.793633     3.785990     3.778347
      3.770703     3.763060     3.755417     3.747774     3.740130     3.732487     3.724844     3.717201     3.709558     3.701914
      3.694271     3.686628     3.678985     3.671341     3.663698     3.656055     3.648412     3.640769     3.633125     3.625482
      3.617839     3.610196     3.602552     3.594909     3.587266     3.579623     3.571980     3.564336     3.556693     3.549050
      3.541407     3.533763     3.526120     3.518477     3.510834     3.503191     3.495547     3.487904     3.480261     3.472618
      3.464974     3.457331     3.449688     3.442045     3.434402     3.426758     3.419115     3.411472     3.403829     3.396185
      3.388542     3.380899     3.373256     3.365613     3.357969     3.350326     3.342683     3.335040     3.327396     3.319753
      3.312110     3.304467     3.296824     3.289180     3.281537     3.273894     3.266251     3.258607     3.250964     3.243321
      3.235678     3.228034     3.220391     3.212748     3.205105     3.197462     3.189818     3.182175     3.174532     3.166889
      3.159245     3.151602     3.143959     3.136316     3.128673     3.121029     3.113386     3.105743     3.098100     3.090456
      3.082813     3.075170     3.067527     3.059884     3.052240     3.044597     3.036954     3.029311     3.021667     3.014024
      3.006381     2.998738     2.991095     2.983451     2.975808     2.968165     2.960522     2.952878     2.945235     2.937592
      2.929949     2.922306     2.914662     2.907019     2.899376     2.891733     2.884089     2.876446     2.868803     2.861160
      2.853517     2.845873     2.838230     2.830587     2.822944     2.815300     2.807657     2.800014     2.792371     2.784728
      2.777084     2.769441     2.761798     2.754155     2.746511     2.738868     2.731225     2.723582     2.715939     2.708295
      2.700652     2.693009     2.685366     2.677722     2.670079     2.662436     2.654793     2.647150     2.639506     2.631863
      2.624220     2.616577     2.608933     2.601290     2.593647     2.586004     2.578361     2.570717     2.563074     2.555431
      2.547788     2.540144     2.532501     2.524858     2.517215     2.509572     2.501928     2.494285     2.486642     2.478999
      2.471355     2.463712     2.456069     2.448426     2.440783     2.433139     2.425496     2.417853     2.410210     2.402566
      2.394923     2.387280     2.379637     2.371994     2.364350     2.356707     2.349064     2.341421     2.333777     2.326134
      2.318491     2.310848     2.303205     2.295561     2.287918     2.280275     2.272632     2.264988     2.257345     2.249702
      2.242059     2.234416     2.226772     2.219129     2.211486     2.203843     2.196199     2.188556     2.180913     2.173270
      2.165627     2.157983     2.150340     2.142697     2.135054     2.127410     2.119767     2.112124     2.104481     2.096838
      2.089194     2.081551     2.073908     2.066265     2.058621     2.050978     2.043335     2.035692     2.028049     2.020405
      2.012762     2.005119     1.997476     1.989833     1.982190     1.974546     1.966903     1.959260     1.951617     1.943974
      1.936331     1.928688     1.921045     1.913402     1.905759     1.898115     1.890472     1.882829     1.875186     1.867543
      1.859900     1.852257     1.844614     1.836971     1.829327     1.821684     1.814041     1.806398     1.798755     1.791112
      1.783469     1.775826     1.768183     1.760540     1.752896     1.745253     1.737610     1.729967     1.722324     1.714681
      1.707038     1.699395     1.691752     1.684108     1.676465     1.668822     1.661179     1.653536     1.645893     1.638250
      1.630607     1.622964     1.615321     1.607677     1.600034     1.592391     1.584748     1.577105     1.569462     1.561819
      1.554176     1.546533     1.538890     1.531246     1.523603     1.515960     1.508317     1.500674     1.493031     1.485388
      1.477745     1.470102     1.462458     1.454815     1.447172     1.439529     1.431886     1.424243     1.416600     1.408957
      1.401314     1.393671     1.386027     1.378384     1.370741     1.363098     1.355455     1.347812     1.340169     1.332526
      1.324883     1.317240     1.309596     1.301953     1.294310     1.286667     1.279024     1.271381     1.263738     1.256095
      1.248452     1.240808     1.233165     1.225522     1.217879     1.210236     1.202593     1.194950     1.187307     1.179664
      1.172021     1.164377     1.156734     1.149091     1.141448     1.133805     1.126162     1.118519     1.110876     1.103233
      1.095590     1.087946     1.080303     1.072660     1.065017     1.057374     1.049731     1.042088     1.034445     1.026802
      1.019158     1.011515     1.003872     0.996229     0.988586     0.980943     0.973300     0.965657     0.958014     0.950371
      0.942727     0.935084     0.927441     0.919798     0.912155     0.904512     0.896869     0.889226     0.881583     0.873940
      0.866296     0.858653     0.851010     0.843367     0.835724     0.828081     0.820438     0.812795     0.805152     0.797508
      0.789865     0.782222     0.774579     0.766936     0.759293     0.751650     0.744007     0.736364     0.728721     0.721077
      0.713434     0.705791     0.698148     0.690505     0.682862     0.675219     0.667576     0.659933     0.652290     0.644646
      0.637003     0.629360     0.621717     0.614074     0.606431     0.598788     0.591145     0.583502     0.575858     0.568215
      0.560572     0.552929     0.545286     0.537643     0.530000     0.522357     0.514714     0.507071     0.499427     0.491784
      0.484141     0.476498     0.468855     0.461212     0.453569     0.445925     0.438282     0.430639     0.422996     0.415353
      0.407710     0.400067     0.392424     0.384780     0.377137     0.369494     0.361851     0.354208     0.346565     0.338922
      0.331278     0.323635     0.315992     0.308349     0.300706     0.293063     0.285420     0.277777     0.270133     0.262490
      0.254847     0.247204     0.239561     0.231918     0.224275     0.216631     0.208988     0.201345
 NY phased data points follow
  -3.92058E+01 -3.83042E+01 -3.74990E+01 -3.70494E+01 -3.14878E+01 -3.38825E+01 -3.02769E+01 -2.46396E+01 -2.53615E+01 -2.29840E+01
  -2.62548E+01 -1.89795E+01 -2.63890E+01 -2.51819E+01 -2.93810E+01 -2.42665E+01 -2.68101E+01 -2.82574E+01 -3.31290E+01 -3.38467E+01
  -2.88943E+01 -3.13919E+01 -2.89592E+01 -3.48284E+01 -3.11191E+01 -2.61340E+01 -2.80966E+01 -3.47174E+01 -2.73894E+01 -2.64112E+01
  -2.81566E+01 -2.28282E+01 -2.30430E+01 -2.07006E+01 -2.40795E+01 -2.45016E+01 -2.29549E+01 -2.46770E+01 -2.49100E+01 -2.14802E+01
  -2.42484E+01 -2.62635E+01 -2.39658E+01 -1.63102E+01 -1.55092E+01 -1.88977E+01 -2.15294E+01 -2.38757E+01 -1.62771E+01 -1.59163E+01
  -2.20366E+01 -1.82476E+01 -2.15466E+01 -2.84585E+01 -2.31185E+01 -1.92409E+01 -2.46842E+01 -2.49747E+01 -2.23452E+01 -2.28052E+01
  -1.97546E+01 -1.84099E+01 -2.51404E+01 -1.92883E+01 -2.19246E+01 -2.48685E+01 -2.06058E+01 -2.11778E+01 -2.16214E+01 -2.12570E+01
  -1.96262E+01 -1.57778E+01 -2.28369E+01 -2.30216E+01 -2.40861E+01 -2.33642E+01 -1.80658E+01 -2.28815E+01 -1.54650E+01 -2.33249E+01
  -1.88623E+01 -1.35813E+01 -1.14049E+01 -2.05563E+01 -1.51424E+01 -1.26944E+01 -1.33320E+01 -1.75649E+01 -1.69728E+01 -1.65280E+01
  -2.07937E+01 -1.64250E+01 -1.65761E+01 -1.63209E+01 -1.49351E+01 -1.31057E+01 -1.68500E+01 -1.68419E+01 -1.14974E+01 -1.94953E+00
  -9.68629E+00 -6.70437E+00 -5.72251E+00 -3.15302E+00 -1.02804E+00  4.07669E+00 -3.90226E+00 -5.99161E+00 -9.29136E+00 -1.03283E+01
  -1.02101E+01 -1.80259E+01 -7.85825E+00 -1.70097E+01 -2.02324E+01 -1.51415E+01 -1.75268E+01 -1.61253E+01 -1.56148E+01 -1.77205E+01
  -2.24778E+01 -1.93047E+01 -1.27038E+01 -1.28704E+01 -7.72139E+00 -7.30522E+00 -1.90926E+00 -2.14597E+00 -8.29378E-01 -4.60814E+00
  -9.90144E+00 -1.03405E+01 -1.13950E+01 -1.13225E+01 -1.43188E+01 -1.28978E+01 -1.13976E+01 -1.20163E+01 -1.48138E+01 -1.46656E+01
  -1.33070E+01 -2.35137E+01 -1.51413E+01 -1.77208E+01 -1.86028E+01 -1.98475E+01 -2.02078E+01 -1.63901E+01 -1.69091E+01 -1.69828E+01
  -1.89993E+01 -1.67455E+01 -1.66076E+01 -1.69408E+01 -1.33961E+01 -1.37642E+01 -1.63633E+01 -1.31297E+01 -1.95743E+01 -1.54286E+01
  -1.01238E+01 -1.19455E+01 -1.86983E+01 -1.72531E+01 -1.45795E+01 -1.61018E+01 -1.13116E+01 -1.45350E+01 -1.44421E+01 -1.19013E+01
  -1.77117E+01 -1.69162E+01 -1.37795E+01 -1.10830E+01 -1.20723E+01 -1.61292E+01 -1.88250E+01 -1.18537E+01 -1.73716E+01 -1.52955E+01
  -1.43706E+01 -1.60694E+01 -1.63333E+01 -1.33820E+01 -1.47569E+01 -1.73044E+01 -1.28871E+01 -1.85995E+01 -1.56171E+01 -1.67675E+01
  -1.15158E+01 -8.66987E+00 -9.65967E+00 -8.22263E+00 -1.13647E+01 -1.58197E+01 -1.05416E+01 -1.16339E+01 -1.28971E+01 -1.07992E+01
  -1.19091E+01 -7.66456E+00 -8.56333E+00 -4.83058E+00 -8.31650E+00 -5.71914E+00 -8.35534E+00 -1.15041E+01 -6.97171E+00 -1.03394E+01
  -1.07621E+01 -9.28607E+00 -7.74708E+00 -1.36504E+01 -1.28086E+00 -6.07602E+00 -4.91026E+00 -1.52304E+00 -6.10498E+00 -2.29328E+00
  -5.30035E+00 -1.16559E+01 -6.46240E+00 -1.17722E+01 -6.64342E+00 -1.24990E+01 -4.62208E+00 -6.33135E+00 -7.25348E+00 -9.65358E+00
  -6.59714E+00 -4.48232E+00 -4.61432E+00 -5.19921E+00 -9.66506E+00 -3.62644E+00 -7.96567E+00 -4.34687E+00 -3.72854E+00  1.72705E+00
  -5.82445E+00 -6.90277E+00 -7.59522E+00 -4.46690E+00 -7.23524E+00 -3.89441E+00 -5.05764E+00 -6.19616E+00 -2.37784E+00 -6.51621E+00
  -3.47607E+00 -6.18183E+00 -4.07270E+00 -9.73316E-02  4.74041E-01  5.24704E+00  2.85804E+00  9.27880E+00  4.47139E+00  1.93030E+01
   2.08921E+01  2.07485E+01  2.04341E+01  1.98276E+01  6.38313E+00  5.59887E+00  7.58210E+00  8.10965E+00 -1.01128E+00  1.63851E+00
  -1.27672E+00  1.92601E+00  2.36007E+00 -2.15977E+00  3.84072E-01 -5.37390E+00 -3.80647E+00 -9.69109E+00 -7.76876E+00 -7.67573E+00
  -8.91430E+00 -6.57885E+00 -6.76151E+00 -6.73479E+00 -8.79962E+00 -5.71874E+00 -1.38095E+00 -1.02191E+01 -4.78083E+00 -5.98194E+00
  -5.12883E+00 -7.70574E+00 -2.65324E+00 -3.04011E+00 -6.05111E+00 -7.01497E+00 -7.23235E+00 -7.46138E+00 -2.91230E+00 -9.35546E+00
  -6.54492E+00 -1.12321E+01 -8.32338E+00 -5.24429E+00 -8.20371E+00 -1.03124E+01 -7.44036E+00 -9.60479E+00 -9.36810E+00 -1.02773E+01
  -9.90612E+00 -5.07125E+00 -3.45194E+00 -7.02323E+00 -4.51600E+00 -6.79175E+00 -6.83466E+00 -5.45664E+00 -1.02265E+01 -1.08484E+01
  -4.01790E+00 -1.09522E+01 -7.91915E+00 -5.02385E+00 -2.95113E+00 -8.56576E+00 -6.23442E+00 -8.13195E+00 -9.94703E+00 -9.85310E+00
  -6.94211E+00 -9.35374E+00 -1.20225E+01 -5.50199E+00 -1.06688E+01 -9.06316E+00 -9.01476E+00 -1.51286E+01 -7.33853E+00 -7.89611E+00
  -3.66888E+00 -6.66170E+00 -3.36993E+00 -7.16362E+00 -1.21298E+00 -5.49443E+00 -8.00290E+00 -6.22992E+00 -4.83827E+00 -6.92882E+00
  -6.94538E+00 -4.65298E+00 -2.90638E+00 -5.13354E+00 -5.12551E+00 -6.05641E+00 -4.65885E+00 -9.64715E+00  8.30516E-01 -3.72438E+00
  -8.06586E+00 -5.96009E+00 -4.11689E+00 -7.63624E+00 -6.06845E+00 -6.05804E+00 -8.14062E+00 -5.60499E+00 -7.47101E+00 -7.54620E+00
  -1.19153E+01 -4.70562E-01 -5.54389E+00 -1.23154E+01 -7.77613E+00 -8.94239E+00 -1.19391E+01 -3.97401E+00 -5.60740E+00 -9.12187E+00
  -1.24022E+01 -5.79957E+00 -5.92210E+00 -7.23739E+00 -7.15069E+00 -8.08943E+00 -3.86138E+00 -8.87853E+00 -8.21816E+00 -6.47030E+00
  -9.36522E+00 -2.83035E+00 -3.02264E+00 -6.54767E+00 -7.26774E+00 -7.83913E+00 -2.44296E+00  1.20906E-01 -5.94566E+00 -5.44057E+00
   8.10353E-01 -1.80810E+00 -7.11390E-01 -3.83892E+00 -4.65485E+00  2.63848E-01 -5.94309E+00 -3.21234E+00 -3.07329E+00 -3.90871E+00
  -3.40022E+00 -6.15401E+00 -3.66487E+00 -4.61995E+00 -3.36326E+00 -4.44798E+00 -4.53495E+00  1.10197E-02  1.64963E-01 -5.24402E+00
  -1.07565E+00 -4.86403E+00 -9.01689E+00 -2.63159E+00 -7.83384E+00 -4.08636E+00 -9.09479E+00 -7.25574E+00 -2.39292E+00 -8.76283E+00
  -7.80612E+00 -5.29571E+00 -5.28076E+00 -8.00593E+00 -3.94486E+00 -1.63349E+00 -7.87857E+00 -8.73160E+00 -3.77274E+00 -2.85066E+00
  -1.69739E+00 -5.83821E+00  1.03045E+00 -1.52903E+00 -5.21081E+00 -2.70626E+00 -7.31797E+00 -4.50414E+00 -4.04791E+00 -2.37919E+00
  -4.38295E+00 -6.57735E+00 -1.03469E+01 -7.78819E+00 -6.36924E+00 -8.04139E+00 -3.40630E+00 -1.55660E+00 -3.64364E+00 -6.88201E+00
  -6.09586E+00 -3.02841E+00 -4.21312E+00 -5.79919E+00  2.12285E+00 -5.81920E+00 -5.85892E+00 -3.56683E+00 -5.51093E+00 -1.70547E+00
   1.49725E+00 -2.94052E+00 -1.91575E+00 -1.15877E+00 -2.13701E+00 -4.14952E+00 -3.68772E+00  2.50924E+00 -1.23044E+00 -6.83741E+00
   1.86634E-01 -1.89026E+00 -2.34573E+00 -1.95699E+00 -1.17655E+00  1.80426E+00 -9.34679E-02 -5.50935E+00  4.77398E+00 -3.74090E+00
  -3.74718E+00  2.36537E+00 -4.06343E+00 -7.06274E-01 -4.16671E+00 -3.85806E+00  3.60194E-01 -2.28660E+00
 NY points of the fit to the data follow
  -3.11305E+01 -3.08431E+01 -3.14623E+01 -3.12392E+01 -2.97679E+01 -2.90978E+01 -2.87646E+01 -2.74286E+01 -2.58433E+01 -2.49612E+01
  -2.41360E+01 -2.38204E+01 -2.51429E+01 -2.66952E+01 -2.71094E+01 -2.72010E+01 -2.78207E+01 -2.77936E+01 -2.85138E+01 -2.91332E+01
  -2.91045E+01 -2.89606E+01 -2.87126E+01 -2.87371E+01 -2.85365E+01 -2.81665E+01 -2.80810E+01 -2.79229E+01 -2.75354E+01 -2.68475E+01
  -2.58843E+01 -2.45118E+01 -2.32342E+01 -2.28511E+01 -2.34262E+01 -2.40486E+01 -2.47871E+01 -2.56324E+01 -2.58289E+01 -2.57270E+01
  -2.57285E+01 -2.55452E+01 -2.44524E+01 -2.31905E+01 -2.30816E+01 -2.25117E+01 -2.09375E+01 -1.96592E+01 -1.89845E+01 -1.91533E+01
  -2.06600E+01 -2.26657E+01 -2.36858E+01 -2.35137E+01 -2.30382E+01 -2.28409E+01 -2.30642E+01 -2.33516E+01 -2.31114E+01 -2.25705E+01
  -2.19714E+01 -2.13653E+01 -2.13554E+01 -2.17413E+01 -2.19592E+01 -2.21031E+01 -2.19845E+01 -2.13102E+01 -2.09353E+01 -2.10252E+01
  -2.06670E+01 -2.02322E+01 -2.00872E+01 -1.98414E+01 -1.94139E+01 -1.93940E+01 -1.96597E+01 -1.93849E+01 -1.93032E+01 -2.00102E+01
  -1.97293E+01 -1.86024E+01 -1.83057E+01 -1.85229E+01 -1.78649E+01 -1.72011E+01 -1.72162E+01 -1.72575E+01 -1.75568E+01 -1.88941E+01
  -1.97706E+01 -1.91995E+01 -1.86320E+01 -1.88146E+01 -1.84685E+01 -1.80744E+01 -1.85306E+01 -1.76510E+01 -1.30348E+01 -9.73820E+00
  -9.38557E+00 -7.21039E+00 -2.58459E+00  1.58903E-01  1.48542E+00  1.69115E+00 -2.30474E+00 -8.04383E+00 -9.95497E+00 -9.28261E+00
  -1.07444E+01 -1.24710E+01 -1.42447E+01 -1.70888E+01 -1.78292E+01 -1.79906E+01 -1.79059E+01 -1.77843E+01 -1.73965E+01 -1.67059E+01
  -1.70230E+01 -1.53336E+01 -1.19773E+01 -1.06669E+01 -1.03267E+01 -7.56540E+00 -4.48134E+00 -3.31144E+00 -2.49209E+00 -3.13375E+00
  -7.01006E+00 -1.01745E+01 -1.01142E+01 -1.00481E+01 -1.17820E+01 -1.24830E+01 -1.45652E+01 -1.60497E+01 -1.62529E+01 -1.61085E+01
  -1.58936E+01 -1.56762E+01 -1.55268E+01 -1.55211E+01 -1.54603E+01 -1.53439E+01 -1.52527E+01 -1.51583E+01 -1.50906E+01 -1.51400E+01
  -1.51484E+01 -1.51275E+01 -1.50803E+01 -1.50813E+01 -1.50204E+01 -1.49971E+01 -1.50929E+01 -1.50907E+01 -1.50452E+01 -1.50256E+01
  -1.50137E+01 -1.50443E+01 -1.50777E+01 -1.49368E+01 -1.46094E+01 -1.43590E+01 -1.43053E+01 -1.43802E+01 -1.45278E+01 -1.46078E+01
  -1.44747E+01 -1.44832E+01 -1.46109E+01 -1.45335E+01 -1.45331E+01 -1.46960E+01 -1.47790E+01 -1.46976E+01 -1.44999E+01 -1.42289E+01
  -1.39780E+01 -1.39866E+01 -1.41696E+01 -1.39895E+01 -1.34801E+01 -1.31140E+01 -1.28623E+01 -1.26718E+01 -1.24537E+01 -1.21201E+01
  -1.16064E+01 -1.11993E+01 -1.12674E+01 -1.14723E+01 -1.15804E+01 -1.16152E+01 -1.13714E+01 -1.08825E+01 -1.05609E+01 -1.01145E+01
  -9.33799E+00 -8.53706E+00 -8.22560E+00 -7.60733E+00 -7.76205E+00 -9.02326E+00 -9.80133E+00 -1.00655E+01 -1.12901E+01 -1.28160E+01
  -1.28175E+01 -1.17374E+01 -1.08798E+01 -9.52811E+00 -7.86784E+00 -6.93562E+00 -6.67692E+00 -6.57593E+00 -7.69574E+00 -8.73365E+00
  -9.65837E+00 -1.07342E+01 -1.11028E+01 -1.11445E+01 -1.07966E+01 -9.83035E+00 -8.61414E+00 -7.66679E+00 -7.60416E+00 -7.22107E+00
  -6.91445E+00 -6.98547E+00 -6.52781E+00 -5.91570E+00 -6.13398E+00 -6.29863E+00 -5.79359E+00 -5.83447E+00 -6.10031E+00 -5.53253E+00
  -4.90742E+00 -5.45512E+00 -6.29975E+00 -6.44529E+00 -6.82840E+00 -6.98704E+00 -6.45607E+00 -5.92101E+00 -5.89638E+00 -5.85599E+00
  -5.33783E+00 -4.93998E+00 -3.36028E+00 -2.45173E+00 -2.23277E+00  2.79141E+00  8.02854E+00  8.53448E+00  9.93439E+00  1.58974E+01
   2.00434E+01  2.13256E+01  2.21355E+01  1.82428E+01  9.88069E+00  5.75929E+00  6.34686E+00  4.64383E+00  1.58357E+00 -1.58830E-01
  -4.34128E+00 -6.12969E+00 -6.52959E+00 -6.56051E+00 -6.62523E+00 -6.50854E+00 -6.45899E+00 -6.51885E+00 -6.61645E+00 -6.67248E+00
  -6.73405E+00 -6.77374E+00 -6.80810E+00 -6.87343E+00 -6.91193E+00 -6.92043E+00 -6.94653E+00 -6.96042E+00 -6.94578E+00 -6.94663E+00
  -6.93057E+00 -6.90430E+00 -6.88268E+00 -6.86779E+00 -6.85332E+00 -6.83663E+00 -6.82084E+00 -6.80556E+00 -6.78422E+00 -6.76646E+00
  -6.75321E+00 -6.73860E+00 -6.72778E+00 -6.71867E+00 -6.71246E+00 -6.70908E+00 -6.71005E+00 -6.71544E+00 -6.72254E+00 -6.72993E+00
  -6.73803E+00 -6.74568E+00 -6.75169E+00 -6.75616E+00 -6.75583E+00 -6.74922E+00 -6.73391E+00 -6.70568E+00 -6.65488E+00 -6.56976E+00
  -6.55179E+00 -6.45161E+00 -6.12375E+00 -6.07961E+00 -6.29556E+00 -6.28824E+00 -6.20580E+00 -6.41893E+00 -6.81101E+00 -7.41768E+00
  -7.93180E+00 -8.06309E+00 -7.92263E+00 -7.77446E+00 -7.55727E+00 -7.19193E+00 -6.84404E+00 -6.45997E+00 -6.03816E+00 -6.14361E+00
  -6.30298E+00 -6.13924E+00 -6.00212E+00 -6.00878E+00 -5.91534E+00 -6.05848E+00 -6.11865E+00 -6.07125E+00 -5.96132E+00 -5.80647E+00
  -5.62012E+00 -5.41756E+00 -5.21713E+00 -5.03881E+00 -4.90208E+00 -4.82273E+00 -4.81029E+00 -4.86588E+00 -4.98227E+00 -5.14516E+00
  -5.33622E+00 -5.53611E+00 -5.72771E+00 -5.89786E+00 -6.03867E+00 -6.14725E+00 -6.22503E+00 -6.27608E+00 -6.30579E+00 -6.31938E+00
  -6.32147E+00 -6.31557E+00 -6.30431E+00 -6.28923E+00 -6.27112E+00 -6.24997E+00 -6.22556E+00 -6.19735E+00 -6.16492E+00 -6.12754E+00
  -6.08452E+00 -6.03487E+00 -5.97781E+00 -5.91248E+00 -5.83823E+00 -5.75421E+00 -5.65972E+00 -5.55397E+00 -5.43662E+00 -5.30745E+00
  -5.16672E+00 -5.01483E+00 -4.85266E+00 -4.68149E+00 -4.50338E+00 -4.32080E+00 -4.13684E+00 -3.95478E+00 -3.77839E+00 -3.61153E+00
  -3.45839E+00 -3.32282E+00 -3.20844E+00 -3.11808E+00 -3.05409E+00 -3.01785E+00 -3.01007E+00 -3.03029E+00 -3.07716E+00 -3.14828E+00
  -3.24073E+00 -3.35092E+00 -3.47505E+00 -3.60891E+00 -3.74842E+00 -3.88948E+00 -4.02862E+00 -4.16270E+00 -4.28929E+00 -4.40624E+00
  -4.51214E+00 -4.60598E+00 -4.68748E+00 -4.75662E+00 -4.81388E+00 -4.85970E+00 -4.89490E+00 -4.92028E+00 -4.93695E+00 -4.94581E+00
  -4.94787E+00 -4.94383E+00 -4.93453E+00 -4.92060E+00 -4.90285E+00 -4.88175E+00 -4.85783E+00 -4.83131E+00 -4.80264E+00 -4.77204E+00
  -4.73993E+00 -4.70639E+00 -4.67164E+00 -4.63568E+00 -4.59874E+00 -4.56089E+00 -4.52236E+00 -4.48310E+00 -4.44319E+00 -4.40257E+00
  -4.36145E+00 -4.31981E+00 -4.27780E+00 -4.23531E+00 -4.19241E+00 -4.14903E+00 -4.10536E+00 -4.06135E+00 -4.01712E+00 -3.97251E+00
  -3.92762E+00 -3.88239E+00 -3.83700E+00 -3.79137E+00 -3.74558E+00 -3.69947E+00 -3.65317E+00 -3.60662E+00 -3.56000E+00 -3.51319E+00
  -3.46626E+00 -3.41906E+00 -3.37173E+00 -3.32423E+00 -3.27671E+00 -3.22902E+00 -3.18124E+00 -3.13321E+00 -3.08514E+00 -3.03694E+00
  -2.98875E+00 -2.94041E+00 -2.89198E+00 -2.84336E+00 -2.79474E+00 -2.74603E+00 -2.69734E+00 -2.64849E+00 -2.59957E+00 -2.55049E+00
  -2.50144E+00 -2.45231E+00 -2.40318E+00 -2.35387E+00 -2.30448E+00 -2.25495E+00 -2.20544E+00 -2.15580E+00
 NY background values follow
    -3.489E+01   -3.473E+01   -3.458E+01   -3.442E+01   -3.427E+01   -3.411E+01   -3.396E+01   -3.380E+01   -3.365E+01   -3.349E+01
    -3.333E+01   -3.318E+01   -3.302E+01   -3.287E+01   -3.271E+01   -3.256E+01   -3.240E+01   -3.225E+01   -3.209E+01   -3.194E+01
    -3.178E+01   -3.163E+01   -3.148E+01   -3.132E+01   -3.117E+01   -3.101E+01   -3.086E+01   -3.071E+01   -3.055E+01   -3.040E+01
    -3.025E+01   -3.010E+01   -2.994E+01   -2.979E+01   -2.964E+01   -2.949E+01   -2.934E+01   -2.919E+01   -2.904E+01   -2.889E+01
    -2.874E+01   -2.859E+01   -2.844E+01   -2.829E+01   -2.814E+01   -2.799E+01   -2.784E+01   -2.770E+01   -2.755E+01   -2.740E+01
    -2.726E+01   -2.711E+01   -2.697E+01   -2.682E+01   -2.668E+01   -2.653E+01   -2.639E+01   -2.625E+01   -2.610E+01   -2.596E+01
    -2.582E+01   -2.568E+01   -2.554E+01   -2.540E+01   -2.526E+01   -2.512E+01   -2.498E+01   -2.484E+01   -2.470E+01   -2.456E+01
    -2.442E+01   -2.429E+01   -2.415E+01   -2.402E+01   -2.388E+01   -2.375E+01   -2.361E+01   -2.348E+01   -2.334E+01   -2.321E+01
    -2.308E+01   -2.295E+01   -2.282E+01   -2.269E+01   -2.256E+01   -2.243E+01   -2.230E+01   -2.217E+01   -2.204E+01   -2.192E+01
    -2.179E+01   -2.166E+01   -2.154E+01   -2.141E+01   -2.129E+01   -2.117E+01   -2.104E+01   -2.092E+01   -2.080E+01   -2.068E+01
    -2.056E+01   -2.044E+01   -2.032E+01   -2.020E+01   -2.008E+01   -1.996E+01   -1.985E+01   -1.973E+01   -1.961E+01   -1.950E+01
    -1.938E+01   -1.927E+01   -1.915E+01   -1.904E+01   -1.893E+01   -1.881E+01   -1.870E+01   -1.859E+01   -1.848E+01   -1.837E+01
    -1.826E+01   -1.815E+01   -1.804E+01   -1.793E+01   -1.782E+01   -1.771E+01   -1.761E+01   -1.750E+01   -1.739E+01   -1.729E+01
    -1.718E+01   -1.708E+01   -1.697E+01   -1.687E+01   -1.677E+01   -1.666E+01   -1.656E+01   -1.646E+01   -1.635E+01   -1.625E+01
    -1.615E+01   -1.605E+01   -1.595E+01   -1.585E+01   -1.575E+01   -1.565E+01   -1.555E+01   -1.545E+01   -1.536E+01   -1.526E+01
    -1.516E+01   -1.507E+01   -1.497E+01   -1.488E+01   -1.478E+01   -1.469E+01   -1.459E+01   -1.450E+01   -1.440E+01   -1.431E+01
    -1.422E+01   -1.413E+01   -1.404E+01   -1.395E+01   -1.386E+01   -1.377E+01   -1.368E+01   -1.359E+01   -1.350E+01   -1.341E+01
    -1.332E+01   -1.324E+01   -1.315E+01   -1.307E+01   -1.298E+01   -1.290E+01   -1.281E+01   -1.273E+01   -1.264E+01   -1.256E+01
    -1.248E+01   -1.240E+01   -1.232E+01   -1.224E+01   -1.216E+01   -1.208E+01   -1.200E+01   -1.192E+01   -1.184E+01   -1.176E+01
    -1.169E+01   -1.161E+01   -1.154E+01   -1.146E+01   -1.139E+01   -1.131E+01   -1.124E+01   -1.117E+01   -1.110E+01   -1.102E+01
    -1.095E+01   -1.088E+01   -1.081E+01   -1.075E+01   -1.068E+01   -1.061E+01   -1.055E+01   -1.048E+01   -1.041E+01   -1.035E+01
    -1.029E+01   -1.022E+01   -1.016E+01   -1.010E+01   -1.004E+01   -9.980E+00   -9.921E+00   -9.863E+00   -9.806E+00   -9.749E+00
    -9.693E+00   -9.638E+00   -9.584E+00   -9.530E+00   -9.478E+00   -9.426E+00   -9.375E+00   -9.325E+00   -9.276E+00   -9.227E+00
    -9.180E+00   -9.133E+00   -9.087E+00   -9.042E+00   -8.997E+00   -8.954E+00   -8.911E+00   -8.869E+00   -8.828E+00   -8.788E+00
    -8.748E+00   -8.709E+00   -8.671E+00   -8.634E+00   -8.597E+00   -8.561E+00   -8.526E+00   -8.492E+00   -8.458E+00   -8.425E+00
    -8.393E+00   -8.362E+00   -8.331E+00   -8.301E+00   -8.272E+00   -8.243E+00   -8.215E+00   -8.188E+00   -8.161E+00   -8.135E+00
    -8.110E+00   -8.085E+00   -8.061E+00   -8.038E+00   -8.015E+00   -7.993E+00   -7.972E+00   -7.951E+00   -7.931E+00   -7.912E+00
    -7.893E+00   -7.874E+00   -7.857E+00   -7.840E+00   -7.823E+00   -7.807E+00   -7.792E+00   -7.777E+00   -7.762E+00   -7.749E+00
    -7.735E+00   -7.722E+00   -7.710E+00   -7.698E+00   -7.686E+00   -7.675E+00   -7.664E+00   -7.654E+00   -7.644E+00   -7.634E+00
    -7.625E+00   -7.616E+00   -7.608E+00   -7.599E+00   -7.591E+00   -7.584E+00   -7.576E+00   -7.569E+00   -7.562E+00   -7.555E+00
    -7.549E+00   -7.542E+00   -7.536E+00   -7.530E+00   -7.524E+00   -7.519E+00   -7.513E+00   -7.507E+00   -7.502E+00   -7.497E+00
    -7.492E+00   -7.486E+00   -7.481E+00   -7.476E+00   -7.471E+00   -7.466E+00   -7.461E+00   -7.456E+00   -7.451E+00   -7.445E+00
    -7.440E+00   -7.435E+00   -7.429E+00   -7.424E+00   -7.418E+00   -7.413E+00   -7.407E+00   -7.401E+00   -7.395E+00   -7.389E+00
    -7.382E+00   -7.376E+00   -7.369E+00   -7.363E+00   -7.356E+00   -7.349E+00   -7.342E+00   -7.334E+00   -7.327E+00   -7.319E+00
    -7.311E+00   -7.303E+00   -7.294E+00   -7.285E+00   -7.276E+00   -7.267E+00   -7.258E+00   -7.248E+00   -7.238E+00   -7.228E+00
    -7.217E+00   -7.206E+00   -7.195E+00   -7.184E+00   -7.172E+00   -7.160E+00   -7.147E+00   -7.134E+00   -7.121E+00   -7.108E+00
    -7.094E+00   -7.079E+00   -7.065E+00   -7.050E+00   -7.034E+00   -7.018E+00   -7.002E+00   -6.986E+00   -6.969E+00   -6.951E+00
    -6.934E+00   -6.915E+00   -6.897E+00   -6.878E+00   -6.859E+00   -6.839E+00   -6.819E+00   -6.798E+00   -6.778E+00   -6.756E+00
    -6.735E+00   -6.713E+00   -6.690E+00   -6.667E+00   -6.644E+00   -6.621E+00   -6.597E+00   -6.572E+00   -6.548E+00   -6.523E+00
    -6.497E+00   -6.471E+00   -6.445E+00   -6.418E+00   -6.391E+00   -6.364E+00   -6.336E+00   -6.308E+00   -6.279E+00   -6.250E+00
    -6.221E+00   -6.191E+00   -6.161E+00   -6.130E+00   -6.099E+00   -6.068E+00   -6.036E+00   -6.004E+00   -5.972E+00   -5.939E+00
    -5.906E+00   -5.872E+00   -5.838E+00   -5.804E+00   -5.769E+00   -5.734E+00   -5.699E+00   -5.663E+00   -5.627E+00   -5.590E+00
    -5.554E+00   -5.517E+00   -5.479E+00   -5.441E+00   -5.403E+00   -5.365E+00   -5.326E+00   -5.287E+00   -5.248E+00   -5.209E+00
    -5.169E+00   -5.129E+00   -5.088E+00   -5.048E+00   -5.007E+00   -4.966E+00   -4.924E+00   -4.882E+00   -4.841E+00   -4.798E+00
    -4.756E+00   -4.713E+00   -4.670E+00   -4.627E+00   -4.584E+00   -4.540E+00   -4.496E+00   -4.452E+00   -4.408E+00   -4.364E+00
    -4.319E+00   -4.274E+00   -4.229E+00   -4.184E+00   -4.139E+00   -4.093E+00   -4.048E+00   -4.002E+00   -3.956E+00   -3.910E+00
    -3.863E+00   -3.817E+00   -3.770E+00   -3.723E+00   -3.677E+00   -3.630E+00   -3.582E+00   -3.535E+00   -3.488E+00   -3.441E+00
    -3.393E+00   -3.345E+00   -3.298E+00   -3.250E+00   -3.202E+00   -3.154E+00   -3.106E+00   -3.058E+00   -3.010E+00   -2.962E+00
    -2.914E+00   -2.865E+00   -2.817E+00   -2.769E+00   -2.720E+00   -2.672E+00   -2.624E+00   -2.575E+00   -2.527E+00   -2.479E+00
    -2.430E+00   -2.382E+00   -2.333E+00   -2.285E+00   -2.237E+00   -2.188E+00   -2.140E+00   -2.092E+00
 Ala      Conc. = 1.38E+02
