 LCModel (Version 6.3-1L) Copyright: S.W. Provencher.          Ref.: Magn. Reson. Med. 30:672-679 (1993).                
 Slice#1 Row#12 Col#11  PD_05_press_1_raw_act
 36 lines in following concentration table = NCONC+1
    Conc.  %SD /Cr+PCr  Metabolite                                         
  126.620  36%   0.619 Ala                                                 
    8.027 519% 3.9E-02 Asp                                                 
   49.840 133%   0.244 Cr                                                  
  154.618  44%   0.756 PCr                                                 
   23.420 110%   0.115 GABA                                                
   20.934 122%   0.102 Glc                                                 
  176.387  54%   0.863 Gln                                                 
  299.602  36%   1.465 Glu                                                 
   58.753  12%   0.287 GPC                                                 
    0.000 999%   0.000 PCh                                                 
   68.959  40%   0.337 GSH                                                 
  119.558  70%   0.585 Ins                                                 
   65.501  79%   0.320 Lac                                                 
  406.645  10%   1.989 NAA                                                 
   76.349  60%   0.373 NAAG                                                
    5.649 121% 2.8E-02 Scyllo                                              
   45.170  88%   0.221 Tau                                                 
  102.767  31%   0.503 -CrCH2                                              
   58.753  12%   0.287 GPC+PCh                                             
  482.994   6%   2.362 NAA+NAAG                                            
  204.458  10%   1.000 Cr+PCr                                              
  475.989  33%   2.328 Glu+Gln                                             
   78.647 302%   0.385 Lip13a                                              
   80.216 165%   0.392 Lip13b                                              
   28.851 154%   0.141 Lip09                                               
  274.256  23%   1.341 MM09                                                
   26.396 103%   0.129 Lip20                                               
  512.248  20%   2.505 MM20                                                
   83.724  41%   0.409 MM12                                                
  344.306  26%   1.684 MM14                                                
  114.825  47%   0.562 MM17                                                
  158.862  87%   0.777 Lip13a+Lip13b                                       
  586.892  17%   2.870 MM14+Lip13a+Lip13b+MM12                             
  303.107  16%   1.482 MM09+Lip09                                          
  538.644  18%   2.634 MM20+Lip20                                          
   6 lines in following misc. output table
  FWHM = 0.061 ppm    S/N =   5                                            
  Data shift = 0.015 ppm                                                   
  Ph: -13 deg      -1.4 deg/ppm                                            
  alphaB,S = 8.5E+01,   1.0E+02                                            
   14 spline knots.   Ns = 7(1)                                            
   2 inflections.     1 extrema                                            
  498 points on ppm-axis = NY
      4.000000     3.992357     3.984714     3.977070     3.969427     3.961784     3.954141     3.946497     3.938854     3.931211
      3.923568     3.915925     3.908281     3.900638     3.892995     3.885352     3.877708     3.870065     3.862422     3.854779
      3.847136     3.839492     3.831849     3.824206     3.816563     3.808919     3.801276     3.793633     3.785990     3.778347
      3.770703     3.763060     3.755417     3.747774     3.740130     3.732487     3.724844     3.717201     3.709558     3.701914
      3.694271     3.686628     3.678985     3.671341     3.663698     3.656055     3.648412     3.640769     3.633125     3.625482
      3.617839     3.610196     3.602552     3.594909     3.587266     3.579623     3.571980     3.564336     3.556693     3.549050
      3.541407     3.533763     3.526120     3.518477     3.510834     3.503191     3.495547     3.487904     3.480261     3.472618
      3.464974     3.457331     3.449688     3.442045     3.434402     3.426758     3.419115     3.411472     3.403829     3.396185
      3.388542     3.380899     3.373256     3.365613     3.357969     3.350326     3.342683     3.335040     3.327396     3.319753
      3.312110     3.304467     3.296824     3.289180     3.281537     3.273894     3.266251     3.258607     3.250964     3.243321
      3.235678     3.228034     3.220391     3.212748     3.205105     3.197462     3.189818     3.182175     3.174532     3.166889
      3.159245     3.151602     3.143959     3.136316     3.128673     3.121029     3.113386     3.105743     3.098100     3.090456
      3.082813     3.075170     3.067527     3.059884     3.052240     3.044597     3.036954     3.029311     3.021667     3.014024
      3.006381     2.998738     2.991095     2.983451     2.975808     2.968165     2.960522     2.952878     2.945235     2.937592
      2.929949     2.922306     2.914662     2.907019     2.899376     2.891733     2.884089     2.876446     2.868803     2.861160
      2.853517     2.845873     2.838230     2.830587     2.822944     2.815300     2.807657     2.800014     2.792371     2.784728
      2.777084     2.769441     2.761798     2.754155     2.746511     2.738868     2.731225     2.723582     2.715939     2.708295
      2.700652     2.693009     2.685366     2.677722     2.670079     2.662436     2.654793     2.647150     2.639506     2.631863
      2.624220     2.616577     2.608933     2.601290     2.593647     2.586004     2.578361     2.570717     2.563074     2.555431
      2.547788     2.540144     2.532501     2.524858     2.517215     2.509572     2.501928     2.494285     2.486642     2.478999
      2.471355     2.463712     2.456069     2.448426     2.440783     2.433139     2.425496     2.417853     2.410210     2.402566
      2.394923     2.387280     2.379637     2.371994     2.364350     2.356707     2.349064     2.341421     2.333777     2.326134
      2.318491     2.310848     2.303205     2.295561     2.287918     2.280275     2.272632     2.264988     2.257345     2.249702
      2.242059     2.234416     2.226772     2.219129     2.211486     2.203843     2.196199     2.188556     2.180913     2.173270
      2.165627     2.157983     2.150340     2.142697     2.135054     2.127410     2.119767     2.112124     2.104481     2.096838
      2.089194     2.081551     2.073908     2.066265     2.058621     2.050978     2.043335     2.035692     2.028049     2.020405
      2.012762     2.005119     1.997476     1.989833     1.982190     1.974546     1.966903     1.959260     1.951617     1.943974
      1.936331     1.928688     1.921045     1.913402     1.905759     1.898115     1.890472     1.882829     1.875186     1.867543
      1.859900     1.852257     1.844614     1.836971     1.829327     1.821684     1.814041     1.806398     1.798755     1.791112
      1.783469     1.775826     1.768183     1.760540     1.752896     1.745253     1.737610     1.729967     1.722324     1.714681
      1.707038     1.699395     1.691752     1.684108     1.676465     1.668822     1.661179     1.653536     1.645893     1.638250
      1.630607     1.622964     1.615321     1.607677     1.600034     1.592391     1.584748     1.577105     1.569462     1.561819
      1.554176     1.546533     1.538890     1.531246     1.523603     1.515960     1.508317     1.500674     1.493031     1.485388
      1.477745     1.470102     1.462458     1.454815     1.447172     1.439529     1.431886     1.424243     1.416600     1.408957
      1.401314     1.393671     1.386027     1.378384     1.370741     1.363098     1.355455     1.347812     1.340169     1.332526
      1.324883     1.317240     1.309596     1.301953     1.294310     1.286667     1.279024     1.271381     1.263738     1.256095
      1.248452     1.240808     1.233165     1.225522     1.217879     1.210236     1.202593     1.194950     1.187307     1.179664
      1.172021     1.164377     1.156734     1.149091     1.141448     1.133805     1.126162     1.118519     1.110876     1.103233
      1.095590     1.087946     1.080303     1.072660     1.065017     1.057374     1.049731     1.042088     1.034445     1.026802
      1.019158     1.011515     1.003872     0.996229     0.988586     0.980943     0.973300     0.965657     0.958014     0.950371
      0.942727     0.935084     0.927441     0.919798     0.912155     0.904512     0.896869     0.889226     0.881583     0.873940
      0.866296     0.858653     0.851010     0.843367     0.835724     0.828081     0.820438     0.812795     0.805152     0.797508
      0.789865     0.782222     0.774579     0.766936     0.759293     0.751650     0.744007     0.736364     0.728721     0.721077
      0.713434     0.705791     0.698148     0.690505     0.682862     0.675219     0.667576     0.659933     0.652290     0.644646
      0.637003     0.629360     0.621717     0.614074     0.606431     0.598788     0.591145     0.583502     0.575858     0.568215
      0.560572     0.552929     0.545286     0.537643     0.530000     0.522357     0.514714     0.507071     0.499427     0.491784
      0.484141     0.476498     0.468855     0.461212     0.453569     0.445925     0.438282     0.430639     0.422996     0.415353
      0.407710     0.400067     0.392424     0.384780     0.377137     0.369494     0.361851     0.354208     0.346565     0.338922
      0.331278     0.323635     0.315992     0.308349     0.300706     0.293063     0.285420     0.277777     0.270133     0.262490
      0.254847     0.247204     0.239561     0.231918     0.224275     0.216631     0.208988     0.201345
 NY phased data points follow
   6.03037E-01  8.79864E-01 -2.36569E-01  1.93777E+00  1.19028E-01  1.98463E+00  6.06084E-01  1.74915E+00  3.35215E-01  4.83667E+00
   2.84109E+00 -1.35187E-01  5.15398E-01  9.54350E-01  2.23845E+00  1.22095E+00  1.64248E+00  1.88364E+00  7.62900E-01  3.08988E+00
   8.00605E-01  4.31050E-01  5.20622E-01  9.66489E-01  3.11245E+00  2.23951E+00  1.64528E+00  1.59327E+00  2.46231E-01  9.75192E-01
   2.24729E+00 -1.08810E-01 -9.21704E-02  2.32187E+00  2.96269E-01  2.31326E+00 -5.17570E-01  1.78537E+00  1.49694E+00 -4.11440E-01
   2.41861E-02  3.51522E-01  1.43953E+00  9.55382E-01  1.73812E+00  2.55538E+00  1.01392E+00  1.78362E+00  2.06672E+00  2.23931E+00
   1.05654E+00 -1.23125E-01 -4.29914E-02  1.89453E+00  9.03809E-01  6.43850E-01  3.25934E-01 -7.63977E-02  1.68235E+00  5.02021E-01
  -1.06252E-01 -9.44516E-01 -7.80905E-02 -1.54687E+00  8.78660E-01  1.57699E+00 -4.86858E-01 -3.32238E-01  4.17295E-01  5.45381E-01
   4.13172E-01 -4.93455E-01  1.76708E+00 -4.77873E-01  1.61434E+00 -9.91919E-01  6.70583E-01  1.61869E-01  1.23323E+00  1.20437E+00
   2.55351E-01 -3.52138E-01 -2.77680E-01  7.94897E-01  7.19185E-01  1.01890E+00 -5.30029E-02 -1.86915E+00  3.40885E-01  2.45281E-01
  -8.48023E-01  1.17559E+00  1.53056E+00  4.88493E+00 -1.66514E-01  7.16814E-01 -8.85435E-01  2.26291E+00  4.72585E+00  4.42559E+00
   3.89445E+00  4.29719E+00  5.30707E+00  4.05459E+00  4.97202E+00  4.31924E+00  4.09012E+00  2.58563E+00  1.86663E+00  9.50861E-01
   3.99418E-01  9.33565E-01 -5.53454E-01 -3.24114E-01  7.06206E-01  2.23415E+00  1.25112E+00 -3.08274E-01  2.48478E+00  3.88380E+00
   2.71031E+00  3.43865E+00  3.11523E+00  2.92138E+00  4.20204E+00  8.24811E+00  6.71213E+00  5.52317E+00  5.84023E+00  7.46546E+00
   4.44840E+00  5.08204E+00  2.93468E+00  2.55242E-01  2.05297E-01  1.32299E+00  2.14563E+00  2.05786E+00  9.70795E-01  7.18646E-01
   9.68717E-01  3.21305E+00  2.00894E+00 -1.84411E+00  3.78003E-02  2.49464E+00  1.09733E+00  1.41241E+00  1.52580E+00  2.45258E+00
   2.36884E+00  1.92514E+00  2.61538E+00 -3.20038E-01  1.61856E+00  1.02494E+00  1.49288E+00  4.69379E-01  7.38360E-01 -1.75128E-01
   2.17855E+00 -2.19795E-01  9.68235E-01 -4.57469E-01 -3.46899E-01  1.59488E+00 -1.09747E+00 -2.41730E+00 -1.09150E+00 -1.11374E+00
  -1.19918E+00 -1.54712E+00 -3.83542E+00 -1.23632E+00 -1.94635E+00 -1.51220E+00 -4.74577E-01 -5.96346E+00 -2.19101E+00 -2.31263E+00
  -7.84069E-01 -2.33345E+00 -7.23226E-02 -1.57690E+00 -1.07506E+00  8.37301E-01 -3.14840E-01 -1.38531E+00 -9.12055E-01 -1.85102E+00
  -2.55915E+00 -1.01328E-01 -8.99040E-01 -8.60603E-01 -4.07059E+00 -1.77044E+00  6.86749E-01 -2.65598E+00 -2.61903E+00 -2.98296E+00
  -2.23588E-01 -1.66810E+00  1.69447E-01  2.79369E+00  5.61965E-01 -4.44286E-01  1.55820E+00 -1.81109E+00  3.98207E-01  1.39924E+00
   1.22786E+00  1.77987E+00  1.66810E+00  5.46683E-01  1.07849E+00  2.53958E+00  3.38620E+00  1.76686E+00  2.85455E+00  1.26477E+00
  -4.84783E-01  1.10552E+00 -1.10490E+00 -1.33603E+00 -3.89516E-01  3.46743E+00  1.27545E+00  2.26397E+00  1.57226E+00 -4.34195E-01
   1.47442E+00  4.08866E-01  2.84722E+00  1.99478E+00  2.23698E+00  1.79528E+00  9.18662E-01  2.94290E+00  2.44586E+00  3.67183E+00
   1.19525E+00  6.43373E-01 -1.12968E+00  1.41160E+00  1.78958E-02  9.56592E-01  8.55408E-01  2.87186E+00  3.67721E+00  3.77975E+00
   3.31593E+00  5.91424E+00  6.02210E+00  5.37893E+00  6.81831E+00  9.74479E+00  1.08425E+01  1.24870E+01  1.21907E+01  1.59039E+01
   1.43109E+01  1.69783E+01  1.41950E+01  1.19604E+01  9.61126E+00  3.23289E+00  1.39135E+00  2.26575E+00  2.34012E+00  5.68444E-01
   2.06638E+00  9.95947E-01  3.69237E+00 -2.34264E-01  2.48995E+00  3.82891E-01  1.28957E+00  8.21588E-01  1.64398E+00  2.52124E+00
   4.82807E-01  4.32506E+00  1.08350E+00  6.74811E-01  1.15782E+00  8.22601E-01  1.30228E+00 -1.78632E+00  4.08525E-02  1.95692E+00
   5.96765E-01 -6.93671E-02  1.61808E+00  2.00407E+00  2.34071E+00  1.01648E+00  9.39552E-01  9.50072E-01  1.60030E+00 -6.52925E-01
   8.44762E-01  1.16411E+00  1.65252E+00  4.05505E-01  2.12933E+00  4.10398E+00  1.41171E+00  8.37449E-01 -2.32219E-01  4.90794E-01
   3.42784E+00  7.83336E-02  1.53656E+00  3.75457E-02 -2.96790E-01  1.44339E+00  9.83461E-01  2.17903E+00  5.01507E-01  1.70289E-02
   3.88901E+00  1.53537E+00  3.33392E+00  3.78103E+00  4.18123E+00  1.22842E+00  9.93545E-01  1.73879E+00  3.09002E+00  9.91889E-01
   1.62962E+00  2.45555E+00  4.13867E-01  1.06776E+00  2.74195E+00  2.20012E+00  1.84302E+00  3.36604E+00  4.73189E+00  2.60547E+00
   5.05455E+00  1.23173E+00  3.31858E+00  3.01593E+00  3.60812E+00  4.14484E+00  1.88092E+00  2.76148E+00  2.23945E+00  1.45087E+00
   4.13055E-01  3.11257E+00  2.04708E+00  2.14811E+00  2.70283E+00  3.85771E+00  1.25563E+00  1.34699E+00  4.44429E+00  2.01785E+00
   2.74859E+00  1.67949E+00  2.00791E+00  1.17274E+00  2.37578E+00  1.57003E+00  2.09525E+00  2.40578E+00  1.18950E+00  1.07809E+00
   8.14985E-01  1.24111E+00  1.16944E+00  1.93751E+00  2.96679E+00 -1.44214E+00  1.53196E+00  1.35044E+00  9.71320E-01  2.65531E-01
  -7.99785E-01  9.33033E-01 -2.57777E-01 -9.44511E-03  2.03553E+00  7.91794E-01 -3.04614E-01  1.24925E+00  1.11890E+00  2.37994E+00
   4.98030E-01 -7.64218E-01 -7.70520E-02  7.72936E-01  5.88134E-01  9.68047E-01  1.73997E+00  1.04872E+00  4.14607E+00  2.39246E+00
   2.02339E+00  2.88010E+00  2.20170E+00  4.12813E+00  3.23088E+00  2.24676E+00  9.38468E-01  2.16823E+00  3.64157E+00  2.66126E+00
   4.41458E+00  1.46224E+00  1.34694E+00  9.11451E-01  3.76321E-01  2.61231E+00  4.76061E-01  4.54116E-02  1.98041E+00 -1.27261E+00
  -1.17922E-02  1.38506E-01  1.20773E+00  8.97338E-01  6.54345E-01  6.48389E-01  1.48597E+00  6.26278E-03  1.22214E+00  6.82722E-01
   1.35143E+00  2.22546E+00  5.39184E-01  2.00516E+00 -1.30852E+00 -5.87434E-01 -1.72450E+00  2.39702E+00  5.96141E-01  3.08657E-01
   3.40487E-01  4.36244E-01 -9.81660E-01 -6.05489E-01 -5.73093E-01  2.59992E+00  7.14941E-01  1.39420E+00  1.19470E+00  4.91613E-01
  -1.47003E-02 -7.59278E-01  1.13576E-01 -4.00561E-01  4.50680E-01 -1.75742E-01  2.18419E-01  3.55016E-01 -8.43253E-01  4.20178E-02
   5.29992E-01  2.31971E-02 -1.69404E-01  6.79377E-01 -5.11443E-01  1.45491E+00  6.54360E-01 -9.93763E-02  9.68292E-01  1.50025E-01
   5.82976E-01 -1.53147E-01  3.79772E-01  2.66847E-01 -5.98574E-01 -1.98826E+00  1.44825E-01 -1.45102E+00  2.33277E+00  1.07995E+00
   1.99619E+00  1.29708E+00 -9.49215E-02 -8.38514E-01  1.84818E+00  2.20273E+00  2.46282E-01  7.37632E-01  9.51139E-01 -8.12733E-01
  -7.21801E-01  1.52026E+00  3.48028E-01  2.47891E+00 -2.28138E-01  1.06208E+00  6.92418E-01 -5.30876E-01
 NY points of the fit to the data follow
   2.71129E-01  3.41464E-01  5.30397E-01  7.56106E-01  1.01129E+00  1.31587E+00  1.63948E+00  1.93267E+00  2.15787E+00  2.29247E+00
   2.31551E+00  2.20744E+00  1.98446E+00  1.69783E+00  1.40921E+00  1.15759E+00  9.56882E-01  8.21710E-01  7.78579E-01  7.98567E-01
   8.24821E-01  8.07177E-01  7.63063E-01  7.77029E-01  8.44368E-01  9.34791E-01  1.04151E+00  1.18794E+00  1.38430E+00  1.60739E+00
   1.83750E+00  2.03962E+00  2.15679E+00  2.12989E+00  1.92117E+00  1.57029E+00  1.17417E+00  8.13710E-01  5.42093E-01  4.07532E-01
   4.36094E-01  5.98930E-01  8.16781E-01  1.01670E+00  1.16379E+00  1.25871E+00  1.31123E+00  1.32305E+00  1.28879E+00  1.20060E+00
   1.05404E+00  8.60260E-01  6.62841E-01  5.14015E-01  4.39042E-01  4.29964E-01  4.57198E-01  4.94473E-01  5.27002E-01  5.49698E-01
   5.62364E-01  5.58972E-01  5.38473E-01  4.97688E-01  4.41901E-01  3.94220E-01  3.72055E-01  3.77293E-01  4.10013E-01  4.66598E-01
   5.27973E-01  5.76353E-01  6.05794E-01  6.16712E-01  6.11794E-01  5.95255E-01  5.66908E-01  5.23548E-01  4.69438E-01  4.23751E-01
   3.94784E-01  3.77518E-01  3.69731E-01  3.70395E-01  3.74320E-01  3.72908E-01  3.54122E-01  3.10058E-01  2.44678E-01  1.74624E-01
   1.17916E-01  9.12845E-02  1.07141E-01  1.53826E-01  2.27166E-01  4.31570E-01  9.86967E-01  1.78213E+00  2.60404E+00  3.35095E+00
   4.02323E+00  4.62857E+00  5.10163E+00  5.32996E+00  5.19644E+00  4.63948E+00  3.71950E+00  2.63133E+00  1.65115E+00  9.83871E-01
   6.42940E-01  5.03478E-01  4.48619E-01  4.20351E-01  4.03490E-01  3.96867E-01  3.99677E-01  4.17686E-01  4.84216E-01  7.58887E-01
   1.44006E+00  2.38314E+00  3.35462E+00  4.25234E+00  5.08460E+00  5.84751E+00  6.45804E+00  6.77265E+00  6.62680E+00  5.94288E+00
   4.80982E+00  3.47875E+00  2.28262E+00  1.44876E+00  9.80832E-01  7.40569E-01  6.01072E-01  5.14153E-01  4.80531E-01  5.07728E-01
   5.83933E-01  6.75611E-01  7.46364E-01  7.71086E-01  7.44194E-01  6.78879E-01  5.97257E-01  5.16147E-01  4.43491E-01  3.83876E-01
   3.37185E-01  3.01867E-01  2.77074E-01  2.54054E-01  2.12258E-01  1.53149E-01  9.57827E-02  5.59080E-02  4.24282E-02  3.22977E-02
   1.52389E-03 -4.85221E-02 -9.93697E-02 -1.33977E-01 -1.46075E-01 -1.44941E-01 -1.56108E-01 -2.05129E-01 -3.00301E-01 -4.31532E-01
  -5.62925E-01 -6.46883E-01 -6.78561E-01 -6.87133E-01 -7.11200E-01 -7.55405E-01 -7.93440E-01 -7.97754E-01 -7.65289E-01 -7.16283E-01
  -6.83241E-01 -6.68460E-01 -6.46580E-01 -5.90867E-01 -4.81350E-01 -3.17356E-01 -1.25566E-01  5.92027E-02  2.27804E-01  3.79162E-01
   5.06742E-01  5.73018E-01  5.58309E-01  4.72770E-01  3.56767E-01  2.61346E-01  2.29237E-01  2.94387E-01  4.62255E-01  7.03032E-01
   9.60559E-01  1.17680E+00  1.29348E+00  1.23568E+00  1.02335E+00  7.11045E-01  3.26852E-01 -7.55785E-02 -4.09203E-01 -5.50970E-01
  -4.61986E-01 -1.85127E-01  2.29014E-01  7.13830E-01  1.16970E+00  1.45526E+00  1.47536E+00  1.26100E+00  9.04412E-01  4.70845E-01
   4.04199E-02 -2.77501E-01 -3.84427E-01 -2.50318E-01  6.86694E-02  4.87889E-01  9.31449E-01  1.31305E+00  1.54618E+00  1.59347E+00
   1.53045E+00  1.45952E+00  1.43427E+00  1.46851E+00  1.56340E+00  1.68951E+00  1.78645E+00  1.83793E+00  1.85628E+00  1.85135E+00
   1.81462E+00  1.74647E+00  1.66509E+00  1.60707E+00  1.61275E+00  1.70324E+00  1.88069E+00  2.12264E+00  2.41937E+00  2.82494E+00
   3.30332E+00  3.78630E+00  4.34280E+00  5.46056E+00  7.37493E+00  9.52271E+00  1.14261E+01  1.29371E+01  1.40948E+01  1.48792E+01
   1.51646E+01  1.47816E+01  1.35694E+01  1.15016E+01  8.82491E+00  6.08112E+00  3.89082E+00  2.55325E+00  1.90785E+00  1.62044E+00
   1.47407E+00  1.38471E+00  1.32760E+00  1.29171E+00  1.26618E+00  1.23967E+00  1.20317E+00  1.15171E+00  1.08629E+00  1.01532E+00
   9.49852E-01  8.97629E-01  8.61270E-01  8.39397E-01  8.28811E-01  8.27207E-01  8.31923E-01  8.39677E-01  8.48936E-01  8.60370E-01
   8.75467E-01  8.94886E-01  9.17978E-01  9.43989E-01  9.71738E-01  9.99573E-01  1.02632E+00  1.05164E+00  1.07611E+00  1.10041E+00
   1.12469E+00  1.14858E+00  1.17150E+00  1.19260E+00  1.21091E+00  1.22566E+00  1.23686E+00  1.24527E+00  1.25211E+00  1.25875E+00
   1.26667E+00  1.27734E+00  1.29233E+00  1.31330E+00  1.34221E+00  1.38139E+00  1.43392E+00  1.50428E+00  1.60045E+00  1.74059E+00
   1.95942E+00  2.20935E+00  2.38230E+00  2.45062E+00  2.43435E+00  2.34773E+00  2.17060E+00  1.86834E+00  1.48682E+00  1.15129E+00
   9.19475E-01  8.28706E-01  9.23659E-01  1.23133E+00  1.71157E+00  2.26522E+00  2.79267E+00  3.21550E+00  3.47526E+00  3.55344E+00
   3.49761E+00  3.36751E+00  3.20458E+00  3.04417E+00  2.89362E+00  2.74196E+00  2.56587E+00  2.34913E+00  2.13352E+00  1.95989E+00
   1.84094E+00  1.79415E+00  1.84576E+00  2.00608E+00  2.24152E+00  2.48752E+00  2.68284E+00  2.78360E+00  2.76573E+00  2.63103E+00
   2.41448E+00  2.17299E+00  1.95322E+00  1.77058E+00  1.62016E+00  1.49428E+00  1.38816E+00  1.29878E+00  1.22358E+00  1.16019E+00
   1.10651E+00  1.06081E+00  1.02177E+00  9.88466E-01  9.60358E-01  9.37166E-01  9.18888E-01  9.05640E-01  8.97704E-01  8.95399E-01
   8.99153E-01  9.09390E-01  9.26612E-01  9.51280E-01  9.83886E-01  1.02484E+00  1.07454E+00  1.13323E+00  1.20108E+00  1.27800E+00
   1.36370E+00  1.45759E+00  1.55877E+00  1.66597E+00  1.77759E+00  1.89162E+00  2.00574E+00  2.11733E+00  2.22363E+00  2.32173E+00
   2.40879E+00  2.48206E+00  2.53917E+00  2.57808E+00  2.59735E+00  2.59610E+00  2.57415E+00  2.53194E+00  2.47059E+00  2.39177E+00
   2.29771E+00  2.19093E+00  2.07425E+00  1.95053E+00  1.82267E+00  1.69337E+00  1.56514E+00  1.44011E+00  1.32008E+00  1.20644E+00
   1.10022E+00  1.00206E+00  9.12290E-01  8.30935E-01  7.57816E-01  6.92536E-01  6.34625E-01  5.83483E-01  5.38514E-01  4.99058E-01
   4.64517E-01  4.34282E-01  4.07837E-01  3.84673E-01  3.64370E-01  3.46514E-01  3.30785E-01  3.16872E-01  3.04549E-01  2.93582E-01
   2.83808E-01  2.75044E-01  2.67179E-01  2.60083E-01  2.53687E-01  2.47885E-01  2.42625E-01  2.37823E-01  2.33449E-01  2.29441E-01
   2.25786E-01  2.22426E-01  2.19348E-01  2.16504E-01  2.13896E-01  2.11486E-01  2.09279E-01  2.07233E-01  2.05352E-01  2.03602E-01
   2.01998E-01  2.00510E-01  1.99149E-01  1.97882E-01  1.96721E-01  1.95639E-01  1.94657E-01  1.93749E-01  1.92927E-01  1.92160E-01
   1.91467E-01  1.90827E-01  1.90262E-01  1.89745E-01  1.89292E-01  1.88875E-01  1.88515E-01  1.88195E-01  1.87934E-01  1.87707E-01
   1.87529E-01  1.87376E-01  1.87274E-01  1.87203E-01  1.87186E-01  1.87195E-01  1.87248E-01  1.87325E-01  1.87452E-01  1.87613E-01
   1.87825E-01  1.88064E-01  1.88351E-01  1.88671E-01  1.89051E-01  1.89476E-01  1.89964E-01  1.90494E-01
 NY background values follow
    -1.763E-02   -1.715E-02   -1.668E-02   -1.621E-02   -1.573E-02   -1.526E-02   -1.478E-02   -1.431E-02   -1.383E-02   -1.336E-02
    -1.288E-02   -1.241E-02   -1.194E-02   -1.146E-02   -1.099E-02   -1.051E-02   -1.004E-02   -9.562E-03   -9.088E-03   -8.613E-03
    -8.138E-03   -7.663E-03   -7.189E-03   -6.714E-03   -6.239E-03   -5.764E-03   -5.289E-03   -4.814E-03   -4.339E-03   -3.864E-03
    -3.389E-03   -2.914E-03   -2.439E-03   -1.964E-03   -1.489E-03   -1.014E-03   -5.386E-04   -6.346E-05    4.117E-04    8.870E-04
     1.362E-03    1.838E-03    2.313E-03    2.788E-03    3.263E-03    3.739E-03    4.214E-03    4.690E-03    5.165E-03    5.641E-03
     6.116E-03    6.591E-03    7.067E-03    7.543E-03    8.018E-03    8.494E-03    8.969E-03    9.445E-03    9.920E-03    1.040E-02
     1.087E-02    1.135E-02    1.182E-02    1.230E-02    1.277E-02    1.325E-02    1.373E-02    1.420E-02    1.468E-02    1.515E-02
     1.563E-02    1.611E-02    1.658E-02    1.706E-02    1.753E-02    1.801E-02    1.849E-02    1.896E-02    1.944E-02    1.991E-02
     2.039E-02    2.086E-02    2.134E-02    2.182E-02    2.229E-02    2.277E-02    2.325E-02    2.372E-02    2.420E-02    2.467E-02
     2.515E-02    2.563E-02    2.610E-02    2.658E-02    2.705E-02    2.753E-02    2.801E-02    2.848E-02    2.896E-02    2.944E-02
     2.991E-02    3.039E-02    3.086E-02    3.134E-02    3.182E-02    3.229E-02    3.277E-02    3.325E-02    3.372E-02    3.420E-02
     3.468E-02    3.515E-02    3.563E-02    3.610E-02    3.658E-02    3.706E-02    3.753E-02    3.801E-02    3.849E-02    3.896E-02
     3.944E-02    3.992E-02    4.039E-02    4.087E-02    4.135E-02    4.182E-02    4.230E-02    4.278E-02    4.325E-02    4.373E-02
     4.420E-02    4.468E-02    4.516E-02    4.563E-02    4.611E-02    4.659E-02    4.706E-02    4.754E-02    4.802E-02    4.849E-02
     4.897E-02    4.945E-02    4.992E-02    5.040E-02    5.088E-02    5.135E-02    5.183E-02    5.231E-02    5.278E-02    5.326E-02
     5.374E-02    5.421E-02    5.469E-02    5.517E-02    5.564E-02    5.612E-02    5.660E-02    5.707E-02    5.755E-02    5.803E-02
     5.850E-02    5.898E-02    5.946E-02    5.993E-02    6.041E-02    6.089E-02    6.136E-02    6.184E-02    6.232E-02    6.279E-02
     6.327E-02    6.375E-02    6.422E-02    6.470E-02    6.518E-02    6.565E-02    6.613E-02    6.661E-02    6.708E-02    6.756E-02
     6.804E-02    6.851E-02    6.899E-02    6.947E-02    6.994E-02    7.042E-02    7.090E-02    7.137E-02    7.185E-02    7.233E-02
     7.280E-02    7.328E-02    7.376E-02    7.423E-02    7.471E-02    7.519E-02    7.566E-02    7.614E-02    7.662E-02    7.709E-02
     7.757E-02    7.805E-02    7.852E-02    7.900E-02    7.948E-02    7.995E-02    8.043E-02    8.091E-02    8.138E-02    8.186E-02
     8.234E-02    8.281E-02    8.329E-02    8.377E-02    8.424E-02    8.472E-02    8.520E-02    8.567E-02    8.615E-02    8.663E-02
     8.710E-02    8.758E-02    8.806E-02    8.853E-02    8.901E-02    8.949E-02    8.996E-02    9.044E-02    9.091E-02    9.139E-02
     9.187E-02    9.234E-02    9.282E-02    9.330E-02    9.377E-02    9.425E-02    9.473E-02    9.520E-02    9.568E-02    9.616E-02
     9.663E-02    9.711E-02    9.758E-02    9.806E-02    9.854E-02    9.901E-02    9.949E-02    9.997E-02    1.004E-01    1.009E-01
     1.014E-01    1.019E-01    1.023E-01    1.028E-01    1.033E-01    1.038E-01    1.043E-01    1.047E-01    1.052E-01    1.057E-01
     1.062E-01    1.066E-01    1.071E-01    1.076E-01    1.081E-01    1.085E-01    1.090E-01    1.095E-01    1.100E-01    1.104E-01
     1.109E-01    1.114E-01    1.119E-01    1.123E-01    1.128E-01    1.133E-01    1.138E-01    1.142E-01    1.147E-01    1.152E-01
     1.157E-01    1.162E-01    1.166E-01    1.171E-01    1.176E-01    1.181E-01    1.185E-01    1.190E-01    1.195E-01    1.200E-01
     1.204E-01    1.209E-01    1.214E-01    1.219E-01    1.223E-01    1.228E-01    1.233E-01    1.238E-01    1.242E-01    1.247E-01
     1.252E-01    1.257E-01    1.261E-01    1.266E-01    1.271E-01    1.276E-01    1.280E-01    1.285E-01    1.290E-01    1.295E-01
     1.299E-01    1.304E-01    1.309E-01    1.314E-01    1.318E-01    1.323E-01    1.328E-01    1.333E-01    1.337E-01    1.342E-01
     1.347E-01    1.352E-01    1.356E-01    1.361E-01    1.366E-01    1.371E-01    1.375E-01    1.380E-01    1.385E-01    1.390E-01
     1.394E-01    1.399E-01    1.404E-01    1.409E-01    1.413E-01    1.418E-01    1.423E-01    1.428E-01    1.432E-01    1.437E-01
     1.442E-01    1.447E-01    1.451E-01    1.456E-01    1.461E-01    1.465E-01    1.470E-01    1.475E-01    1.480E-01    1.484E-01
     1.489E-01    1.494E-01    1.499E-01    1.503E-01    1.508E-01    1.513E-01    1.518E-01    1.522E-01    1.527E-01    1.532E-01
     1.537E-01    1.541E-01    1.546E-01    1.551E-01    1.555E-01    1.560E-01    1.565E-01    1.570E-01    1.574E-01    1.579E-01
     1.584E-01    1.589E-01    1.593E-01    1.598E-01    1.603E-01    1.608E-01    1.612E-01    1.617E-01    1.622E-01    1.626E-01
     1.631E-01    1.636E-01    1.641E-01    1.645E-01    1.650E-01    1.655E-01    1.660E-01    1.664E-01    1.669E-01    1.674E-01
     1.678E-01    1.683E-01    1.688E-01    1.693E-01    1.697E-01    1.702E-01    1.707E-01    1.711E-01    1.716E-01    1.721E-01
     1.726E-01    1.730E-01    1.735E-01    1.740E-01    1.745E-01    1.749E-01    1.754E-01    1.759E-01    1.763E-01    1.768E-01
     1.773E-01    1.778E-01    1.782E-01    1.787E-01    1.792E-01    1.796E-01    1.801E-01    1.806E-01    1.811E-01    1.815E-01
     1.820E-01    1.825E-01    1.829E-01    1.834E-01    1.839E-01    1.843E-01    1.848E-01    1.853E-01    1.858E-01    1.862E-01
     1.867E-01    1.872E-01    1.876E-01    1.881E-01    1.886E-01    1.891E-01    1.895E-01    1.900E-01    1.905E-01    1.909E-01
     1.914E-01    1.919E-01    1.923E-01    1.928E-01    1.933E-01    1.938E-01    1.942E-01    1.947E-01    1.952E-01    1.956E-01
     1.961E-01    1.966E-01    1.970E-01    1.975E-01    1.980E-01    1.984E-01    1.989E-01    1.994E-01    1.999E-01    2.003E-01
     2.008E-01    2.013E-01    2.017E-01    2.022E-01    2.027E-01    2.031E-01    2.036E-01    2.041E-01    2.045E-01    2.050E-01
     2.055E-01    2.059E-01    2.064E-01    2.069E-01    2.074E-01    2.078E-01    2.083E-01    2.088E-01    2.092E-01    2.097E-01
     2.102E-01    2.106E-01    2.111E-01    2.116E-01    2.120E-01    2.125E-01    2.130E-01    2.134E-01    2.139E-01    2.144E-01
     2.148E-01    2.153E-01    2.158E-01    2.162E-01    2.167E-01    2.172E-01    2.176E-01    2.181E-01
 Ala      Conc. = 1.27E+02
