 LCModel (Version 6.3-1L) Copyright: S.W. Provencher.          Ref.: Magn. Reson. Med. 30:672-679 (1993).                
 Slice#1 Row#7 Col#8  PD_05_press_1_raw_act
 36 lines in following concentration table = NCONC+1
    Conc.  %SD /Cr+PCr  Metabolite                                         
    0.000 999%   0.000 Ala                                                 
   96.897  70%   0.219 Asp                                                 
  442.952  13%   1.000 Cr                                                  
    0.000 999%   0.000 PCr                                                 
   53.583  76%   0.121 GABA                                                
   38.958 106% 8.8E-02 Glc                                                 
  261.257  65%   0.590 Gln                                                 
  486.634  39%   1.099 Glu                                                 
  184.303  12%   0.416 GPC                                                 
    0.000 999%   0.000 PCh                                                 
   91.734  69%   0.207 GSH                                                 
  532.517  40%   1.202 Ins                                                 
    0.000 999%   0.000 Lac                                                 
  485.272  15%   1.096 NAA                                                 
  302.964  22%   0.684 NAAG                                                
   10.798 116% 2.4E-02 Scyllo                                              
  104.256  63%   0.235 Tau                                                 
   51.367 121%   0.116 -CrCH2                                              
  184.303  12%   0.416 GPC+PCh                                             
  788.236   9%   1.780 NAA+NAAG                                            
  442.952  13%   1.000 Cr+PCr                                              
  747.891  32%   1.688 Glu+Gln                                             
 1.09E+03  43%   2.458 Lip13a                                              
 1.65E+03  11%   3.727 Lip13b                                              
  184.615 144%   0.417 Lip09                                               
  462.166  43%   1.043 MM09                                                
  714.958  36%   1.614 Lip20                                               
 1.05E+03  30%   2.361 MM20                                                
  163.661  56%   0.369 MM12                                                
    0.000 999%   0.000 MM14                                                
    0.000 999%   0.000 MM17                                                
 2.74E+03  13%   6.185 Lip13a+Lip13b                                       
 2.90E+03  12%   6.555 MM14+Lip13a+Lip13b+MM12                             
  646.781  31%   1.460 MM09+Lip09                                          
 1.76E+03  18%   3.975 MM20+Lip20                                          
   6 lines in following misc. output table
  FWHM = 0.038 ppm    S/N =   3                                            
  Data shift =-0.023 ppm                                                   
  Ph:  39 deg      38.8 deg/ppm                                            
  alphaB,S = 1.2E+00,   1.3E+01                                            
   14 spline knots.   Ns = 5(1)                                            
  ( 8) 1 infls.   ( 4) 2 extrs.                                            
  498 points on ppm-axis = NY
      4.000000     3.992357     3.984714     3.977070     3.969427     3.961784     3.954141     3.946497     3.938854     3.931211
      3.923568     3.915925     3.908281     3.900638     3.892995     3.885352     3.877708     3.870065     3.862422     3.854779
      3.847136     3.839492     3.831849     3.824206     3.816563     3.808919     3.801276     3.793633     3.785990     3.778347
      3.770703     3.763060     3.755417     3.747774     3.740130     3.732487     3.724844     3.717201     3.709558     3.701914
      3.694271     3.686628     3.678985     3.671341     3.663698     3.656055     3.648412     3.640769     3.633125     3.625482
      3.617839     3.610196     3.602552     3.594909     3.587266     3.579623     3.571980     3.564336     3.556693     3.549050
      3.541407     3.533763     3.526120     3.518477     3.510834     3.503191     3.495547     3.487904     3.480261     3.472618
      3.464974     3.457331     3.449688     3.442045     3.434402     3.426758     3.419115     3.411472     3.403829     3.396185
      3.388542     3.380899     3.373256     3.365613     3.357969     3.350326     3.342683     3.335040     3.327396     3.319753
      3.312110     3.304467     3.296824     3.289180     3.281537     3.273894     3.266251     3.258607     3.250964     3.243321
      3.235678     3.228034     3.220391     3.212748     3.205105     3.197462     3.189818     3.182175     3.174532     3.166889
      3.159245     3.151602     3.143959     3.136316     3.128673     3.121029     3.113386     3.105743     3.098100     3.090456
      3.082813     3.075170     3.067527     3.059884     3.052240     3.044597     3.036954     3.029311     3.021667     3.014024
      3.006381     2.998738     2.991095     2.983451     2.975808     2.968165     2.960522     2.952878     2.945235     2.937592
      2.929949     2.922306     2.914662     2.907019     2.899376     2.891733     2.884089     2.876446     2.868803     2.861160
      2.853517     2.845873     2.838230     2.830587     2.822944     2.815300     2.807657     2.800014     2.792371     2.784728
      2.777084     2.769441     2.761798     2.754155     2.746511     2.738868     2.731225     2.723582     2.715939     2.708295
      2.700652     2.693009     2.685366     2.677722     2.670079     2.662436     2.654793     2.647150     2.639506     2.631863
      2.624220     2.616577     2.608933     2.601290     2.593647     2.586004     2.578361     2.570717     2.563074     2.555431
      2.547788     2.540144     2.532501     2.524858     2.517215     2.509572     2.501928     2.494285     2.486642     2.478999
      2.471355     2.463712     2.456069     2.448426     2.440783     2.433139     2.425496     2.417853     2.410210     2.402566
      2.394923     2.387280     2.379637     2.371994     2.364350     2.356707     2.349064     2.341421     2.333777     2.326134
      2.318491     2.310848     2.303205     2.295561     2.287918     2.280275     2.272632     2.264988     2.257345     2.249702
      2.242059     2.234416     2.226772     2.219129     2.211486     2.203843     2.196199     2.188556     2.180913     2.173270
      2.165627     2.157983     2.150340     2.142697     2.135054     2.127410     2.119767     2.112124     2.104481     2.096838
      2.089194     2.081551     2.073908     2.066265     2.058621     2.050978     2.043335     2.035692     2.028049     2.020405
      2.012762     2.005119     1.997476     1.989833     1.982190     1.974546     1.966903     1.959260     1.951617     1.943974
      1.936331     1.928688     1.921045     1.913402     1.905759     1.898115     1.890472     1.882829     1.875186     1.867543
      1.859900     1.852257     1.844614     1.836971     1.829327     1.821684     1.814041     1.806398     1.798755     1.791112
      1.783469     1.775826     1.768183     1.760540     1.752896     1.745253     1.737610     1.729967     1.722324     1.714681
      1.707038     1.699395     1.691752     1.684108     1.676465     1.668822     1.661179     1.653536     1.645893     1.638250
      1.630607     1.622964     1.615321     1.607677     1.600034     1.592391     1.584748     1.577105     1.569462     1.561819
      1.554176     1.546533     1.538890     1.531246     1.523603     1.515960     1.508317     1.500674     1.493031     1.485388
      1.477745     1.470102     1.462458     1.454815     1.447172     1.439529     1.431886     1.424243     1.416600     1.408957
      1.401314     1.393671     1.386027     1.378384     1.370741     1.363098     1.355455     1.347812     1.340169     1.332526
      1.324883     1.317240     1.309596     1.301953     1.294310     1.286667     1.279024     1.271381     1.263738     1.256095
      1.248452     1.240808     1.233165     1.225522     1.217879     1.210236     1.202593     1.194950     1.187307     1.179664
      1.172021     1.164377     1.156734     1.149091     1.141448     1.133805     1.126162     1.118519     1.110876     1.103233
      1.095590     1.087946     1.080303     1.072660     1.065017     1.057374     1.049731     1.042088     1.034445     1.026802
      1.019158     1.011515     1.003872     0.996229     0.988586     0.980943     0.973300     0.965657     0.958014     0.950371
      0.942727     0.935084     0.927441     0.919798     0.912155     0.904512     0.896869     0.889226     0.881583     0.873940
      0.866296     0.858653     0.851010     0.843367     0.835724     0.828081     0.820438     0.812795     0.805152     0.797508
      0.789865     0.782222     0.774579     0.766936     0.759293     0.751650     0.744007     0.736364     0.728721     0.721077
      0.713434     0.705791     0.698148     0.690505     0.682862     0.675219     0.667576     0.659933     0.652290     0.644646
      0.637003     0.629360     0.621717     0.614074     0.606431     0.598788     0.591145     0.583502     0.575858     0.568215
      0.560572     0.552929     0.545286     0.537643     0.530000     0.522357     0.514714     0.507071     0.499427     0.491784
      0.484141     0.476498     0.468855     0.461212     0.453569     0.445925     0.438282     0.430639     0.422996     0.415353
      0.407710     0.400067     0.392424     0.384780     0.377137     0.369494     0.361851     0.354208     0.346565     0.338922
      0.331278     0.323635     0.315992     0.308349     0.300706     0.293063     0.285420     0.277777     0.270133     0.262490
      0.254847     0.247204     0.239561     0.231918     0.224275     0.216631     0.208988     0.201345
 NY phased data points follow
   2.43351E+01  1.26105E+01  1.65485E+01  2.00505E+01  2.03754E+01  1.30865E+01  9.25966E+00  1.22986E+01  1.33363E+01  1.77739E+01
   2.25402E+01  2.41077E+01  3.11596E+01  2.69375E+01  3.78359E+01  2.63720E+01  2.27253E+01  2.58995E+01  2.37030E+01  1.39197E+01
   1.41663E+01  2.34906E+01  2.12608E+01  1.33465E+01  1.53913E+01  1.95892E+01  1.40467E+01  1.62590E+01  7.43364E+00  9.53200E+00
   6.66969E+00  1.90124E+01  1.65612E+01  1.57647E+01  1.44878E+01  1.76115E+01  1.36135E+01  1.23448E+01  7.68386E+00  1.53246E+01
   1.64847E+01  1.29407E+01  1.68726E+01  5.81173E+00  1.59323E+01  1.57500E+01  1.70600E+01  1.45289E+01  1.78519E+01  1.66402E+01
   7.98483E+00  1.11850E+01  1.33572E+01  1.26274E+01  1.04275E+01  1.85108E+01  7.68299E+00  7.31376E+00  1.21512E+01  1.28139E+01
   1.45785E+01  8.23838E+00  8.76918E+00  1.33161E+01  9.11031E+00  3.60746E+00  1.06300E+01  1.03291E+01  8.56268E+00  5.63479E+00
   4.77260E+00  7.93467E+00  6.17841E-01  4.84670E+00  8.08717E-01  4.99494E+00  6.57082E+00  7.80038E+00 -1.68188E+00  2.34397E+00
  -2.67726E+00 -6.58334E-01  4.92809E+00  4.90530E+00  4.58464E+00  5.17786E+00  3.08315E+00  2.45771E+00 -1.18837E+00 -1.79748E+00
   3.61965E+00  2.37711E+00  7.98164E+00  4.35086E-01 -5.59086E+00 -2.26393E-01  4.33912E-01 -3.63816E+00  4.20569E+00  3.48340E+00
   1.08683E+00  8.45443E+00  1.33806E+01  1.93919E+01  1.90273E+01  2.71543E+01  2.37407E+01  1.93080E+01  1.35931E+01  7.18047E+00
   1.05432E+01  8.98318E+00  6.13198E+00  9.76637E+00  2.38723E+00  5.36846E-01  3.22061E+00  5.66592E+00  9.39992E-01 -7.89346E+00
  -6.24370E+00 -1.01394E+00 -2.77525E+00 -3.61062E+00 -2.00032E+00  2.81329E+00  1.04143E+01  1.65162E+01  1.70932E+01  1.94415E+01
   9.85189E+00  7.91238E+00  8.31017E+00  5.83477E+00  5.00474E+00  2.93216E+00 -2.94493E+00 -8.44168E+00 -7.09254E-01 -4.36222E+00
  -1.63134E+00 -2.82529E+00 -3.47976E+00 -6.40112E+00 -2.97540E+00  1.07198E-01 -5.76120E+00  1.70529E+00 -6.47405E+00 -6.26671E+00
  -6.55378E+00 -7.07660E+00 -5.33442E+00 -4.93907E+00 -5.15729E+00 -6.00616E-01 -4.36063E+00 -1.00294E+01 -3.10407E+00 -4.02839E-01
  -5.96479E+00 -3.54252E+00 -4.32942E+00 -7.27717E+00 -4.82357E+00 -8.98298E+00 -2.38495E+00 -5.25367E+00 -2.24740E+00 -9.97497E+00
  -4.65764E+00 -5.40309E+00 -7.36544E+00 -1.10555E+01 -5.21543E+00 -1.27073E+01 -8.99826E+00 -1.64778E+01 -1.36393E+01 -8.95057E+00
  -1.52647E+01 -4.03753E+00 -1.06869E+01 -2.10015E+01 -1.14915E+01 -9.50009E+00 -3.41038E+00 -1.10677E+01 -3.83599E+00 -2.68351E+00
  -4.54758E+00 -3.23350E+00 -1.09004E+01 -5.57003E+00 -2.91876E+00 -1.30135E+01 -1.03847E+01 -1.06217E+01 -1.27788E+01 -9.06429E+00
  -1.24618E+01 -9.14320E+00 -6.12533E+00 -9.38212E+00 -6.41506E+00 -6.97795E+00 -5.50913E+00 -6.45928E+00 -4.17954E+00 -9.74550E+00
  -1.34398E+01 -1.34957E+01 -7.21322E+00 -1.00337E+01 -7.65027E+00  3.34168E+00 -2.07876E+00  2.41422E+00 -2.07599E+00  1.55078E+00
  -6.52903E+00 -3.82158E+00 -9.40622E+00 -9.13952E+00 -9.01905E+00 -4.69619E+00 -5.05966E+00 -2.98437E+00 -4.70438E+00 -7.48161E+00
  -7.50055E+00 -4.55720E+00 -1.12910E+01 -4.69038E+00 -3.96293E+00 -1.34121E-01 -3.32664E+00 -5.39160E+00 -2.00906E+00 -1.45484E+00
  -5.03252E+00 -1.40300E+00 -3.75352E+00 -7.36585E+00 -2.21055E+00 -1.81891E+00 -8.06154E-01 -1.72755E+00 -6.87446E-01  1.31269E+00
  -1.45372E+00 -8.43335E+00 -7.92562E+00 -4.40010E+00 -9.47150E-01  9.84514E-01  9.36618E-01  7.57934E+00  1.63649E+01  2.07335E+01
   2.24911E+01  1.56913E+01  1.87828E+01  1.61706E+01  3.38783E+00 -9.56184E+00 -1.04607E+01 -5.98887E+00 -8.97263E+00 -1.22774E+01
  -8.44689E+00 -1.09349E+01 -8.67540E+00 -1.35890E+01 -2.01646E+01 -1.67069E+01 -1.59266E+01 -1.68322E+01 -1.77719E+01 -1.76828E+01
  -1.15644E+01 -1.22624E+01 -1.16787E+01 -1.85513E+01 -1.06528E+01 -1.60604E+01 -1.56116E+01 -1.32778E+01 -1.21356E+01 -1.42937E+01
  -7.90502E+00 -1.17130E+01 -1.52551E+01 -1.48881E+01 -1.19960E+01 -1.56516E+01 -1.65702E+01 -1.71478E+01 -1.29920E+01 -1.45190E+01
  -2.14665E+01 -2.25431E+01 -1.92078E+01 -1.77147E+01 -2.24823E+01 -2.02289E+01 -1.87436E+01 -1.42226E+01 -1.85545E+01 -1.23413E+01
  -1.86758E+01 -2.20166E+01 -1.17771E+01 -1.47046E+01 -1.70028E+01 -1.55877E+01 -1.35338E+01 -2.12671E+01 -1.32920E+01 -1.57079E+01
  -1.73897E+01 -1.79871E+01 -2.12385E+01 -1.46747E+01 -1.24240E+01 -1.60110E+01 -1.98766E+01 -2.22723E+01 -2.13521E+01 -2.66226E+01
  -2.42906E+01 -2.39455E+01 -1.77925E+01 -1.16211E+01 -9.26433E+00 -1.76787E+01 -1.87863E+01 -1.79463E+01 -1.20373E+01 -1.79090E+01
  -9.14877E+00 -2.21192E+00 -6.07773E+00 -8.24122E+00 -4.52964E+00  3.52098E+00  3.16734E+00  2.23620E+00  7.28675E+00 -1.77141E+00
   1.34541E+01  7.56021E+00  8.84317E+00  1.82308E+01  2.23770E+01  2.06741E+01  1.12073E+01  1.10637E+01 -2.16158E+00 -3.42738E+00
  -1.02282E+01 -8.19300E+00 -8.24434E+00 -1.39389E+01 -1.22037E+01 -7.55629E+00 -7.12536E+00 -1.77333E+00 -1.06262E+00 -3.93588E+00
  -9.31494E+00 -5.82752E+00 -2.73986E+00 -5.42400E+00 -2.31372E-01 -4.70982E+00 -1.38698E+00  2.29150E-01 -8.62959E+00 -7.06673E+00
  -1.20427E+01 -9.07786E+00 -4.85407E+00 -7.28594E+00 -1.11409E+01 -7.30605E+00 -4.66016E+00 -7.15398E+00 -5.65349E+00 -1.59862E+01
  -1.43144E+01 -7.56237E+00 -1.05069E+01 -3.53661E+00 -1.13057E+01 -9.39648E+00 -1.11445E+01 -7.37308E+00 -1.04165E+01 -1.04738E+01
  -4.95557E+00 -9.74493E+00 -1.83149E+01 -1.05206E+01 -1.78563E+01 -9.41356E+00 -7.31065E+00 -9.08476E+00 -9.49422E+00 -5.08936E+00
  -1.22228E+01 -1.05856E+01 -9.12177E+00 -9.68291E+00 -3.07316E+00 -7.38356E+00 -6.88008E+00 -8.51677E+00 -4.55190E+00 -1.21700E+01
  -1.40813E+01 -1.21357E+01 -1.39088E+01 -6.20549E+00 -1.43960E+01 -7.71139E+00 -1.17618E+01 -1.21975E+01 -6.91795E+00 -8.60283E+00
  -1.31100E+01 -5.09392E+00 -3.05791E+00 -9.15831E+00 -1.58194E+00 -3.76487E+00 -2.68094E+00 -6.58555E+00 -4.49709E+00 -8.98751E+00
  -5.71273E+00 -6.26009E+00 -2.54207E+00 -7.57394E+00 -6.95270E+00 -8.16114E+00 -4.76342E+00 -1.49479E+01 -1.52913E+01 -1.05439E+01
  -1.46072E+01 -1.45924E+01 -9.58827E+00 -1.17110E+01 -7.63740E+00 -8.50690E+00 -1.74669E+01 -4.97698E+00 -3.43738E+00 -7.09699E+00
  -9.38874E+00 -2.62792E+00 -5.04019E+00 -1.00693E+01 -7.58122E+00 -7.66116E+00 -7.24976E+00 -9.64154E+00 -3.91162E+00 -1.35754E+00
  -1.25767E+01 -5.36204E+00 -1.19031E+01 -8.65516E+00 -1.38474E+01 -2.80789E+00 -1.34295E+01 -9.25710E+00 -7.61309E+00 -6.76233E+00
  -1.08417E+01 -1.33573E+01 -1.09693E+01 -5.52772E+00 -1.04049E+01 -5.52219E+00 -2.70831E+00 -7.74532E+00 -8.83698E+00 -3.04053E+00
  -8.61915E+00  9.67651E-01 -1.82428E+00 -6.80452E+00 -1.02771E+01 -6.31460E+00 -7.03410E+00 -8.30803E+00
 NY points of the fit to the data follow
   1.68313E+01  1.63658E+01  1.60612E+01  1.60321E+01  1.61633E+01  1.60960E+01  1.53999E+01  1.41981E+01  1.47338E+01  1.77353E+01
   2.16935E+01  2.49960E+01  2.71085E+01  2.79199E+01  2.68004E+01  2.37461E+01  2.01469E+01  1.71734E+01  1.49812E+01  1.41498E+01
   1.38697E+01  1.37052E+01  1.37000E+01  1.38531E+01  1.37624E+01  1.31077E+01  1.23769E+01  1.20184E+01  1.21066E+01  1.27015E+01
   1.38447E+01  1.53033E+01  1.63810E+01  1.66118E+01  1.60814E+01  1.47844E+01  1.30482E+01  1.16588E+01  1.07611E+01  1.02385E+01
   1.01400E+01  1.03212E+01  1.03769E+01  1.04259E+01  1.12581E+01  1.29188E+01  1.43992E+01  1.51938E+01  1.53852E+01  1.48863E+01
   1.34983E+01  1.15970E+01  9.92427E+00  8.77540E+00  8.12058E+00  7.91649E+00  8.06163E+00  8.44438E+00  9.00946E+00  9.52390E+00
   9.83007E+00  9.80577E+00  9.35458E+00  8.65065E+00  7.87144E+00  7.22189E+00  6.85276E+00  6.70992E+00  6.79654E+00  7.06512E+00
   7.29356E+00  7.37970E+00  7.44179E+00  7.55416E+00  7.62447E+00  7.48480E+00  7.20473E+00  6.79437E+00  6.25862E+00  5.74817E+00
   5.36244E+00  5.09376E+00  5.04231E+00  5.21855E+00  5.31540E+00  5.07752E+00  4.54135E+00  3.88827E+00  3.27389E+00  2.82986E+00
   2.66707E+00  2.75073E+00  2.99401E+00  3.30412E+00  3.50367E+00  3.57127E+00  3.53929E+00  3.34475E+00  2.44955E+00  5.98536E-01
   1.38752E+00  6.62427E+00  1.39215E+01  2.02525E+01  2.43304E+01  2.60258E+01  2.42950E+01  1.88832E+01  1.23490E+01  6.97793E+00
   2.96458E+00  1.31307E+00  8.98734E-01  7.32626E-01  6.23524E-01  5.62460E-01  4.98587E-01  4.02416E-01  2.99634E-01  1.98595E-01
   7.21878E-02 -1.63701E-01 -1.04535E+00 -2.32837E+00 -8.16227E-01  4.24908E+00  1.05169E+01  1.56008E+01  1.87167E+01  1.97622E+01
   1.78372E+01  1.31416E+01  7.94514E+00  3.65293E+00  3.77566E-01 -1.07867E+00 -1.82112E+00 -2.33505E+00 -2.56176E+00 -2.54471E+00
  -2.37967E+00 -2.13704E+00 -1.93237E+00 -1.81864E+00 -1.82550E+00 -1.95172E+00 -2.13007E+00 -2.30913E+00 -2.49932E+00 -2.67217E+00
  -2.83871E+00 -3.05331E+00 -3.33405E+00 -3.61652E+00 -3.84110E+00 -3.92754E+00 -3.87715E+00 -3.86570E+00 -4.01444E+00 -4.31915E+00
  -4.68929E+00 -4.99421E+00 -5.23850E+00 -5.37379E+00 -5.38524E+00 -5.36019E+00 -5.41601E+00 -5.67147E+00 -6.06305E+00 -6.37539E+00
  -6.52182E+00 -6.54880E+00 -6.61310E+00 -6.86355E+00 -7.19329E+00 -7.45933E+00 -7.59327E+00 -7.71577E+00 -7.84620E+00 -7.97832E+00
  -8.13574E+00 -8.24847E+00 -8.26053E+00 -8.32096E+00 -8.39866E+00 -8.34809E+00 -8.16560E+00 -7.91961E+00 -7.61237E+00 -7.13621E+00
  -6.66327E+00 -6.39357E+00 -6.37169E+00 -6.54691E+00 -7.05287E+00 -7.84316E+00 -8.61940E+00 -9.13355E+00 -9.32579E+00 -9.15724E+00
  -8.60203E+00 -7.77214E+00 -6.81584E+00 -5.96854E+00 -5.40861E+00 -5.25064E+00 -5.80442E+00 -7.21500E+00 -9.06078E+00 -1.08409E+01
  -1.21665E+01 -1.29154E+01 -1.25264E+01 -1.07023E+01 -8.27080E+00 -6.16735E+00 -4.69952E+00 -4.03399E+00 -4.49401E+00 -6.25007E+00
  -8.75831E+00 -1.08534E+01 -1.20517E+01 -1.21735E+01 -1.14014E+01 -9.96420E+00 -8.17372E+00 -6.69332E+00 -5.96699E+00 -5.98874E+00
  -6.49828E+00 -7.02140E+00 -7.36303E+00 -7.60834E+00 -7.58527E+00 -7.23315E+00 -6.75684E+00 -6.30595E+00 -5.85113E+00 -5.63832E+00
  -5.84782E+00 -6.35637E+00 -6.79227E+00 -7.08410E+00 -7.23398E+00 -7.06530E+00 -6.58247E+00 -6.12919E+00 -5.94485E+00 -5.88639E+00
  -6.16834E+00 -7.16808E+00 -7.19052E+00 -4.56669E+00 -5.83516E-01  1.83017E+00  3.88823E+00  8.64668E+00  1.46911E+01  1.85935E+01
   1.97323E+01  1.94796E+01  1.71828E+01  1.23103E+01  6.12073E+00  5.29265E-01 -4.14466E+00 -7.01781E+00 -8.22793E+00 -9.00150E+00
  -9.60508E+00 -1.00166E+01 -1.02179E+01 -1.02978E+01 -1.03337E+01 -1.04000E+01 -1.05312E+01 -1.07650E+01 -1.10993E+01 -1.14772E+01
  -1.18093E+01 -1.20572E+01 -1.22313E+01 -1.23376E+01 -1.24005E+01 -1.24509E+01 -1.25147E+01 -1.26141E+01 -1.27459E+01 -1.28787E+01
  -1.29854E+01 -1.30525E+01 -1.30989E+01 -1.31208E+01 -1.31205E+01 -1.31353E+01 -1.31897E+01 -1.32702E+01 -1.33660E+01 -1.34567E+01
  -1.35313E+01 -1.35864E+01 -1.36173E+01 -1.36312E+01 -1.36398E+01 -1.36467E+01 -1.36598E+01 -1.36792E+01 -1.36996E+01 -1.37197E+01
  -1.37378E+01 -1.37537E+01 -1.37678E+01 -1.37803E+01 -1.37909E+01 -1.37999E+01 -1.38070E+01 -1.38118E+01 -1.38140E+01 -1.38135E+01
  -1.38100E+01 -1.38035E+01 -1.37938E+01 -1.37808E+01 -1.37640E+01 -1.37433E+01 -1.37181E+01 -1.36881E+01 -1.36527E+01 -1.36115E+01
  -1.35637E+01 -1.35084E+01 -1.34440E+01 -1.33681E+01 -1.32767E+01 -1.31627E+01 -1.30144E+01 -1.28126E+01 -1.25284E+01 -1.21203E+01
  -1.15329E+01 -1.06984E+01 -9.54182E+00 -7.99259E+00 -6.00017E+00 -3.55372E+00 -7.00782E-01  2.44021E+00  5.67933E+00  8.77018E+00
   1.14408E+01  1.34354E+01  1.45585E+01  1.47106E+01  1.39061E+01  1.22688E+01  1.00070E+01  7.37374E+00  4.62376E+00  1.97608E+00
  -4.10194E-01 -2.44433E+00 -4.09862E+00 -5.39362E+00 -6.37992E+00 -7.12082E+00 -7.67919E+00 -8.10933E+00 -8.45342E+00 -8.74139E+00
  -8.99267E+00 -9.21877E+00 -9.42573E+00 -9.61613E+00 -9.79056E+00 -9.94859E+00 -1.00893E+01 -1.02119E+01 -1.03153E+01 -1.03989E+01
  -1.04620E+01 -1.05041E+01 -1.05247E+01 -1.05238E+01 -1.05009E+01 -1.04563E+01 -1.03898E+01 -1.03020E+01 -1.01933E+01 -1.00645E+01
  -9.91704E+00 -9.75240E+00 -9.57266E+00 -9.38039E+00 -9.17859E+00 -8.97076E+00 -8.76077E+00 -8.55279E+00 -8.35116E+00 -8.16031E+00
  -7.98457E+00 -7.82798E+00 -7.69414E+00 -7.58605E+00 -7.50599E+00 -7.45543E+00 -7.43499E+00 -7.44437E+00 -7.48242E+00 -7.54720E+00
  -7.63611E+00 -7.74602E+00 -7.87342E+00 -8.01459E+00 -8.16572E+00 -8.32308E+00 -8.48319E+00 -8.64287E+00 -8.79935E+00 -8.95026E+00
  -9.09367E+00 -9.22816E+00 -9.35267E+00 -9.46661E+00 -9.56964E+00 -9.66177E+00 -9.74317E+00 -9.81427E+00 -9.87558E+00 -9.92773E+00
  -9.97136E+00 -1.00072E+01 -1.00358E+01 -1.00578E+01 -1.00740E+01 -1.00849E+01 -1.00909E+01 -1.00927E+01 -1.00905E+01 -1.00849E+01
  -1.00762E+01 -1.00646E+01 -1.00505E+01 -1.00341E+01 -1.00156E+01 -9.99524E+00 -9.97319E+00 -9.94959E+00 -9.92457E+00 -9.89825E+00
  -9.87075E+00 -9.84218E+00 -9.81262E+00 -9.78215E+00 -9.75082E+00 -9.71870E+00 -9.68585E+00 -9.65234E+00 -9.61820E+00 -9.58347E+00
  -9.54818E+00 -9.51238E+00 -9.47611E+00 -9.43941E+00 -9.40227E+00 -9.36473E+00 -9.32681E+00 -9.28855E+00 -9.24996E+00 -9.21107E+00
  -9.17189E+00 -9.13243E+00 -9.09270E+00 -9.05274E+00 -9.01256E+00 -8.97216E+00 -8.93154E+00 -8.89072E+00 -8.84973E+00 -8.80858E+00
  -8.76727E+00 -8.72581E+00 -8.68421E+00 -8.64247E+00 -8.60062E+00 -8.55867E+00 -8.51661E+00 -8.47445E+00 -8.43219E+00 -8.38987E+00
  -8.34748E+00 -8.30504E+00 -8.26254E+00 -8.21999E+00 -8.17739E+00 -8.13479E+00 -8.09217E+00 -8.04955E+00
 NY background values follow
     1.453E+01    1.440E+01    1.426E+01    1.413E+01    1.400E+01    1.386E+01    1.373E+01    1.359E+01    1.346E+01    1.332E+01
     1.319E+01    1.305E+01    1.292E+01    1.279E+01    1.265E+01    1.252E+01    1.238E+01    1.225E+01    1.211E+01    1.198E+01
     1.184E+01    1.171E+01    1.157E+01    1.144E+01    1.130E+01    1.117E+01    1.103E+01    1.090E+01    1.076E+01    1.063E+01
     1.049E+01    1.036E+01    1.022E+01    1.009E+01    9.952E+00    9.818E+00    9.683E+00    9.548E+00    9.413E+00    9.278E+00
     9.144E+00    9.009E+00    8.874E+00    8.740E+00    8.605E+00    8.471E+00    8.336E+00    8.202E+00    8.068E+00    7.933E+00
     7.799E+00    7.665E+00    7.531E+00    7.397E+00    7.263E+00    7.129E+00    6.996E+00    6.862E+00    6.729E+00    6.595E+00
     6.462E+00    6.329E+00    6.196E+00    6.063E+00    5.930E+00    5.798E+00    5.665E+00    5.533E+00    5.401E+00    5.269E+00
     5.138E+00    5.006E+00    4.875E+00    4.744E+00    4.613E+00    4.482E+00    4.351E+00    4.221E+00    4.091E+00    3.961E+00
     3.831E+00    3.702E+00    3.573E+00    3.444E+00    3.315E+00    3.186E+00    3.058E+00    2.930E+00    2.803E+00    2.675E+00
     2.548E+00    2.421E+00    2.295E+00    2.169E+00    2.043E+00    1.917E+00    1.792E+00    1.667E+00    1.542E+00    1.418E+00
     1.294E+00    1.170E+00    1.046E+00    9.233E-01    8.005E-01    6.781E-01    5.560E-01    4.342E-01    3.127E-01    1.916E-01
     7.088E-02   -4.952E-02   -1.696E-01   -2.893E-01   -4.086E-01   -5.276E-01   -6.462E-01   -7.645E-01   -8.823E-01   -9.999E-01
    -1.117E+00   -1.234E+00   -1.350E+00   -1.466E+00   -1.582E+00   -1.697E+00   -1.812E+00   -1.926E+00   -2.040E+00   -2.154E+00
    -2.267E+00   -2.380E+00   -2.492E+00   -2.604E+00   -2.716E+00   -2.827E+00   -2.937E+00   -3.048E+00   -3.158E+00   -3.267E+00
    -3.376E+00   -3.484E+00   -3.593E+00   -3.700E+00   -3.807E+00   -3.914E+00   -4.021E+00   -4.126E+00   -4.232E+00   -4.337E+00
    -4.441E+00   -4.545E+00   -4.649E+00   -4.752E+00   -4.855E+00   -4.957E+00   -5.059E+00   -5.160E+00   -5.261E+00   -5.362E+00
    -5.461E+00   -5.561E+00   -5.660E+00   -5.758E+00   -5.856E+00   -5.954E+00   -6.051E+00   -6.147E+00   -6.243E+00   -6.339E+00
    -6.434E+00   -6.529E+00   -6.623E+00   -6.716E+00   -6.809E+00   -6.902E+00   -6.994E+00   -7.086E+00   -7.177E+00   -7.267E+00
    -7.358E+00   -7.447E+00   -7.536E+00   -7.625E+00   -7.713E+00   -7.800E+00   -7.887E+00   -7.974E+00   -8.060E+00   -8.145E+00
    -8.230E+00   -8.315E+00   -8.399E+00   -8.482E+00   -8.565E+00   -8.648E+00   -8.730E+00   -8.811E+00   -8.892E+00   -8.972E+00
    -9.052E+00   -9.132E+00   -9.211E+00   -9.289E+00   -9.367E+00   -9.445E+00   -9.522E+00   -9.599E+00   -9.675E+00   -9.750E+00
    -9.825E+00   -9.900E+00   -9.974E+00   -1.005E+01   -1.012E+01   -1.019E+01   -1.027E+01   -1.034E+01   -1.041E+01   -1.048E+01
    -1.055E+01   -1.062E+01   -1.069E+01   -1.076E+01   -1.083E+01   -1.089E+01   -1.096E+01   -1.103E+01   -1.109E+01   -1.116E+01
    -1.123E+01   -1.129E+01   -1.136E+01   -1.142E+01   -1.148E+01   -1.155E+01   -1.161E+01   -1.167E+01   -1.173E+01   -1.179E+01
    -1.185E+01   -1.191E+01   -1.197E+01   -1.203E+01   -1.209E+01   -1.215E+01   -1.220E+01   -1.226E+01   -1.232E+01   -1.237E+01
    -1.243E+01   -1.248E+01   -1.253E+01   -1.259E+01   -1.264E+01   -1.269E+01   -1.274E+01   -1.279E+01   -1.284E+01   -1.289E+01
    -1.294E+01   -1.299E+01   -1.304E+01   -1.308E+01   -1.313E+01   -1.317E+01   -1.322E+01   -1.326E+01   -1.331E+01   -1.335E+01
    -1.339E+01   -1.343E+01   -1.347E+01   -1.351E+01   -1.355E+01   -1.359E+01   -1.363E+01   -1.366E+01   -1.370E+01   -1.374E+01
    -1.377E+01   -1.381E+01   -1.384E+01   -1.387E+01   -1.390E+01   -1.393E+01   -1.397E+01   -1.399E+01   -1.402E+01   -1.405E+01
    -1.408E+01   -1.411E+01   -1.413E+01   -1.416E+01   -1.418E+01   -1.421E+01   -1.423E+01   -1.425E+01   -1.427E+01   -1.429E+01
    -1.431E+01   -1.433E+01   -1.435E+01   -1.437E+01   -1.439E+01   -1.440E+01   -1.442E+01   -1.443E+01   -1.445E+01   -1.446E+01
    -1.447E+01   -1.448E+01   -1.449E+01   -1.450E+01   -1.451E+01   -1.452E+01   -1.453E+01   -1.454E+01   -1.454E+01   -1.455E+01
    -1.455E+01   -1.455E+01   -1.456E+01   -1.456E+01   -1.456E+01   -1.456E+01   -1.456E+01   -1.456E+01   -1.456E+01   -1.456E+01
    -1.455E+01   -1.455E+01   -1.455E+01   -1.454E+01   -1.454E+01   -1.453E+01   -1.452E+01   -1.451E+01   -1.451E+01   -1.450E+01
    -1.449E+01   -1.448E+01   -1.447E+01   -1.445E+01   -1.444E+01   -1.443E+01   -1.442E+01   -1.440E+01   -1.439E+01   -1.437E+01
    -1.436E+01   -1.434E+01   -1.432E+01   -1.430E+01   -1.429E+01   -1.427E+01   -1.425E+01   -1.423E+01   -1.421E+01   -1.419E+01
    -1.417E+01   -1.415E+01   -1.412E+01   -1.410E+01   -1.408E+01   -1.405E+01   -1.403E+01   -1.400E+01   -1.398E+01   -1.395E+01
    -1.393E+01   -1.390E+01   -1.387E+01   -1.385E+01   -1.382E+01   -1.379E+01   -1.376E+01   -1.373E+01   -1.370E+01   -1.367E+01
    -1.364E+01   -1.361E+01   -1.358E+01   -1.355E+01   -1.352E+01   -1.349E+01   -1.345E+01   -1.342E+01   -1.339E+01   -1.335E+01
    -1.332E+01   -1.329E+01   -1.325E+01   -1.322E+01   -1.318E+01   -1.314E+01   -1.311E+01   -1.307E+01   -1.304E+01   -1.300E+01
    -1.296E+01   -1.292E+01   -1.289E+01   -1.285E+01   -1.281E+01   -1.277E+01   -1.273E+01   -1.269E+01   -1.265E+01   -1.261E+01
    -1.257E+01   -1.253E+01   -1.249E+01   -1.245E+01   -1.241E+01   -1.237E+01   -1.233E+01   -1.229E+01   -1.224E+01   -1.220E+01
    -1.216E+01   -1.212E+01   -1.207E+01   -1.203E+01   -1.199E+01   -1.194E+01   -1.190E+01   -1.186E+01   -1.181E+01   -1.177E+01
    -1.173E+01   -1.168E+01   -1.164E+01   -1.159E+01   -1.155E+01   -1.150E+01   -1.146E+01   -1.141E+01   -1.137E+01   -1.132E+01
    -1.128E+01   -1.123E+01   -1.119E+01   -1.114E+01   -1.109E+01   -1.105E+01   -1.100E+01   -1.096E+01   -1.091E+01   -1.086E+01
    -1.082E+01   -1.077E+01   -1.072E+01   -1.068E+01   -1.063E+01   -1.058E+01   -1.054E+01   -1.049E+01   -1.044E+01   -1.040E+01
    -1.035E+01   -1.030E+01   -1.026E+01   -1.021E+01   -1.016E+01   -1.012E+01   -1.007E+01   -1.002E+01   -9.974E+00   -9.927E+00
    -9.879E+00   -9.832E+00   -9.785E+00   -9.738E+00   -9.690E+00   -9.643E+00   -9.596E+00   -9.548E+00   -9.501E+00   -9.453E+00
    -9.406E+00   -9.358E+00   -9.311E+00   -9.264E+00   -9.216E+00   -9.169E+00   -9.121E+00   -9.074E+00   -9.026E+00   -8.979E+00
    -8.931E+00   -8.884E+00   -8.836E+00   -8.789E+00   -8.742E+00   -8.694E+00   -8.647E+00   -8.599E+00
 Asp      Conc. = 9.69E+01
