 LCModel (Version 6.3-1L) Copyright: S.W. Provencher.          Ref.: Magn. Reson. Med. 30:672-679 (1993).                
 Slice#3 Row#6 Col#9  PD_05_press_1_raw_act
 36 lines in following concentration table = NCONC+1
    Conc.  %SD /Cr+PCr  Metabolite                                         
  123.178  86% 8.0E-02 Ala                                                 
  162.834 123%   0.106 Asp                                                 
  336.776  67%   0.218 Cr                                                  
 1.21E+03  19%   0.782 PCr                                                 
   73.074 199% 4.7E-02 GABA                                                
    0.000 999%   0.000 Glc                                                 
  863.810  27%   0.560 Gln                                                 
 1.50E+03  19%   0.973 Glu                                                 
  541.006   4%   0.351 GPC                                                 
    0.000 999%   0.000 PCh                                                 
  383.746  17%   0.249 GSH                                                 
  669.129  34%   0.434 Ins                                                 
    0.000 999%   0.000 Lac                                                 
 2.31E+03   3%   1.494 NAA                                                 
    0.000 999%   0.000 NAAG                                                
   97.612  25% 6.3E-02 Scyllo                                              
    0.000 999%   0.000 Tau                                                 
  228.101  42%   0.148 -CrCH2                                              
  541.006   4%   0.351 GPC+PCh                                             
 2.31E+03   3%   1.494 NAA+NAAG                                            
 1.54E+03   3%   1.000 Cr+PCr                                              
 2.36E+03  17%   1.533 Glu+Gln                                             
    0.000 999%   0.000 Lip13a                                              
  291.580  44%   0.189 Lip13b                                              
    0.000 999%   0.000 Lip09                                               
  722.463  17%   0.468 MM09                                                
   68.750  92% 4.5E-02 Lip20                                               
 1.80E+03  13%   1.170 MM20                                                
  192.253  39%   0.125 MM12                                                
  330.725  54%   0.214 MM14                                                
  338.666  40%   0.219 MM17                                                
  291.580  44%   0.189 Lip13a+Lip13b                                       
  814.558  26%   0.528 MM14+Lip13a+Lip13b+MM12                             
  722.463  17%   0.468 MM09+Lip09                                          
 1.87E+03  13%   1.214 MM20+Lip20                                          
   6 lines in following misc. output table
  FWHM = 0.061 ppm    S/N =  13                                            
  Data shift =-0.008 ppm                                                   
  Ph: -28 deg     -11.8 deg/ppm                                            
  alphaB,S = 2.5E+00,   2.2E+02                                            
   14 spline knots.   Ns = 8(1)                                            
  (12) 4 infls.   ( 7) 1 extrs.                                            
  498 points on ppm-axis = NY
      4.000000     3.992357     3.984714     3.977070     3.969427     3.961784     3.954141     3.946497     3.938854     3.931211
      3.923568     3.915925     3.908281     3.900638     3.892995     3.885352     3.877708     3.870065     3.862422     3.854779
      3.847136     3.839492     3.831849     3.824206     3.816563     3.808919     3.801276     3.793633     3.785990     3.778347
      3.770703     3.763060     3.755417     3.747774     3.740130     3.732487     3.724844     3.717201     3.709558     3.701914
      3.694271     3.686628     3.678985     3.671341     3.663698     3.656055     3.648412     3.640769     3.633125     3.625482
      3.617839     3.610196     3.602552     3.594909     3.587266     3.579623     3.571980     3.564336     3.556693     3.549050
      3.541407     3.533763     3.526120     3.518477     3.510834     3.503191     3.495547     3.487904     3.480261     3.472618
      3.464974     3.457331     3.449688     3.442045     3.434402     3.426758     3.419115     3.411472     3.403829     3.396185
      3.388542     3.380899     3.373256     3.365613     3.357969     3.350326     3.342683     3.335040     3.327396     3.319753
      3.312110     3.304467     3.296824     3.289180     3.281537     3.273894     3.266251     3.258607     3.250964     3.243321
      3.235678     3.228034     3.220391     3.212748     3.205105     3.197462     3.189818     3.182175     3.174532     3.166889
      3.159245     3.151602     3.143959     3.136316     3.128673     3.121029     3.113386     3.105743     3.098100     3.090456
      3.082813     3.075170     3.067527     3.059884     3.052240     3.044597     3.036954     3.029311     3.021667     3.014024
      3.006381     2.998738     2.991095     2.983451     2.975808     2.968165     2.960522     2.952878     2.945235     2.937592
      2.929949     2.922306     2.914662     2.907019     2.899376     2.891733     2.884089     2.876446     2.868803     2.861160
      2.853517     2.845873     2.838230     2.830587     2.822944     2.815300     2.807657     2.800014     2.792371     2.784728
      2.777084     2.769441     2.761798     2.754155     2.746511     2.738868     2.731225     2.723582     2.715939     2.708295
      2.700652     2.693009     2.685366     2.677722     2.670079     2.662436     2.654793     2.647150     2.639506     2.631863
      2.624220     2.616577     2.608933     2.601290     2.593647     2.586004     2.578361     2.570717     2.563074     2.555431
      2.547788     2.540144     2.532501     2.524858     2.517215     2.509572     2.501928     2.494285     2.486642     2.478999
      2.471355     2.463712     2.456069     2.448426     2.440783     2.433139     2.425496     2.417853     2.410210     2.402566
      2.394923     2.387280     2.379637     2.371994     2.364350     2.356707     2.349064     2.341421     2.333777     2.326134
      2.318491     2.310848     2.303205     2.295561     2.287918     2.280275     2.272632     2.264988     2.257345     2.249702
      2.242059     2.234416     2.226772     2.219129     2.211486     2.203843     2.196199     2.188556     2.180913     2.173270
      2.165627     2.157983     2.150340     2.142697     2.135054     2.127410     2.119767     2.112124     2.104481     2.096838
      2.089194     2.081551     2.073908     2.066265     2.058621     2.050978     2.043335     2.035692     2.028049     2.020405
      2.012762     2.005119     1.997476     1.989833     1.982190     1.974546     1.966903     1.959260     1.951617     1.943974
      1.936331     1.928688     1.921045     1.913402     1.905759     1.898115     1.890472     1.882829     1.875186     1.867543
      1.859900     1.852257     1.844614     1.836971     1.829327     1.821684     1.814041     1.806398     1.798755     1.791112
      1.783469     1.775826     1.768183     1.760540     1.752896     1.745253     1.737610     1.729967     1.722324     1.714681
      1.707038     1.699395     1.691752     1.684108     1.676465     1.668822     1.661179     1.653536     1.645893     1.638250
      1.630607     1.622964     1.615321     1.607677     1.600034     1.592391     1.584748     1.577105     1.569462     1.561819
      1.554176     1.546533     1.538890     1.531246     1.523603     1.515960     1.508317     1.500674     1.493031     1.485388
      1.477745     1.470102     1.462458     1.454815     1.447172     1.439529     1.431886     1.424243     1.416600     1.408957
      1.401314     1.393671     1.386027     1.378384     1.370741     1.363098     1.355455     1.347812     1.340169     1.332526
      1.324883     1.317240     1.309596     1.301953     1.294310     1.286667     1.279024     1.271381     1.263738     1.256095
      1.248452     1.240808     1.233165     1.225522     1.217879     1.210236     1.202593     1.194950     1.187307     1.179664
      1.172021     1.164377     1.156734     1.149091     1.141448     1.133805     1.126162     1.118519     1.110876     1.103233
      1.095590     1.087946     1.080303     1.072660     1.065017     1.057374     1.049731     1.042088     1.034445     1.026802
      1.019158     1.011515     1.003872     0.996229     0.988586     0.980943     0.973300     0.965657     0.958014     0.950371
      0.942727     0.935084     0.927441     0.919798     0.912155     0.904512     0.896869     0.889226     0.881583     0.873940
      0.866296     0.858653     0.851010     0.843367     0.835724     0.828081     0.820438     0.812795     0.805152     0.797508
      0.789865     0.782222     0.774579     0.766936     0.759293     0.751650     0.744007     0.736364     0.728721     0.721077
      0.713434     0.705791     0.698148     0.690505     0.682862     0.675219     0.667576     0.659933     0.652290     0.644646
      0.637003     0.629360     0.621717     0.614074     0.606431     0.598788     0.591145     0.583502     0.575858     0.568215
      0.560572     0.552929     0.545286     0.537643     0.530000     0.522357     0.514714     0.507071     0.499427     0.491784
      0.484141     0.476498     0.468855     0.461212     0.453569     0.445925     0.438282     0.430639     0.422996     0.415353
      0.407710     0.400067     0.392424     0.384780     0.377137     0.369494     0.361851     0.354208     0.346565     0.338922
      0.331278     0.323635     0.315992     0.308349     0.300706     0.293063     0.285420     0.277777     0.270133     0.262490
      0.254847     0.247204     0.239561     0.231918     0.224275     0.216631     0.208988     0.201345
 NY phased data points follow
  -2.68223E+01 -1.87962E+01 -2.32868E+01 -2.07806E+01 -1.14002E+01 -6.90035E+00 -4.06720E+00  4.65614E+00  9.23665E-01  8.87653E+00
   9.04987E+00  5.03060E+00  6.42876E+00 -1.77126E+00 -6.90165E+00 -5.45448E+00 -1.51621E+01 -1.38146E+01 -1.42216E+01 -2.10545E+01
  -1.62761E+01 -1.41724E+01 -1.65342E+01 -1.04529E+01 -1.31306E+01 -1.19281E+01 -1.20210E+01 -1.73654E+01 -7.42429E+00 -9.68329E+00
  -1.13796E+01 -7.11216E+00 -7.61237E+00 -1.36233E+01 -9.13055E+00 -1.07106E+01 -1.18612E+01 -1.31480E+01 -2.04111E+01 -1.26203E+01
  -1.59071E+01 -1.54792E+01 -7.62526E+00 -1.14737E+01 -6.73537E+00 -3.15123E+00 -1.10098E+01 -5.72373E+00 -1.18498E+01 -1.13738E+01
  -7.49257E+00 -1.24921E+01 -1.19241E+01 -8.15468E+00 -1.19449E+01 -1.17000E+01 -9.48594E+00 -1.22532E+01 -1.35923E+01 -1.22176E+01
  -1.66131E+01 -1.20455E+01 -1.90460E+01 -1.48533E+01 -1.97516E+01 -2.06911E+01 -1.62501E+01 -1.59334E+01 -1.90428E+01 -1.54837E+01
  -1.83320E+01 -1.64666E+01 -1.40203E+01 -1.52973E+01 -1.26036E+01 -1.62070E+01 -1.76131E+01 -1.21094E+01 -1.32715E+01 -1.41247E+01
  -1.14429E+01 -1.53121E+01 -1.01956E+01 -1.05475E+01 -1.18825E+01 -7.77323E+00 -1.14355E+01 -1.10804E+01 -9.12551E+00 -1.04367E+01
  -5.73335E+00 -8.53563E+00 -1.23861E+01 -7.19580E+00 -9.49784E+00 -7.06499E+00 -2.85672E+00  1.10313E-01  6.90881E+00  1.31107E+01
   2.22618E+01  2.70039E+01  2.96309E+01  2.92791E+01  2.68400E+01  2.07154E+01  1.55038E+01  1.23535E+01  7.01556E+00  3.53934E+00
   8.53471E-01  7.14471E-02 -3.90615E+00 -7.79703E+00 -8.94003E+00 -3.17752E+00 -8.51726E+00 -8.05760E+00 -7.33528E+00 -8.79036E+00
  -1.17590E+00  4.34730E+00  9.29492E+00  1.67086E+01  1.87130E+01  3.14829E+01  3.30187E+01  3.34467E+01  3.33482E+01  2.63814E+01
   2.16929E+01  2.04535E+01  8.71448E+00  4.20032E+00 -1.42581E+00 -5.33195E+00 -2.89703E+00 -7.66353E+00 -9.27065E+00 -5.24312E+00
  -1.14471E+01 -5.78862E+00 -1.09813E+01 -1.12088E+01 -1.05051E+01 -7.50653E+00 -1.03457E+01 -3.52551E+00 -1.05170E+01 -8.27134E+00
  -1.01135E+01 -8.70968E+00 -8.76898E+00 -9.88212E+00 -1.22315E+01 -5.91693E+00 -9.92889E+00 -1.06243E+01 -7.79791E+00 -1.23586E+01
  -1.06150E+01 -8.51746E+00 -1.21172E+01 -8.68684E+00 -9.30411E+00 -8.55618E+00 -5.68401E+00 -1.03117E+01 -8.14601E+00 -8.04354E+00
  -9.86796E+00 -1.14977E+01 -1.06881E+01 -1.76688E+01 -1.43614E+01 -1.55154E+01 -1.59119E+01 -1.01369E+01 -1.27652E+01 -9.61486E+00
  -1.56473E+01 -1.34566E+01 -1.34588E+01 -1.31504E+01 -1.14445E+01 -1.47251E+01 -1.09408E+01 -7.32039E+00 -3.37558E+00 -4.11483E+00
  -2.83816E+00 -2.28528E+00 -2.03913E+00 -1.51469E-01 -1.29814E+00  1.18493E-01  2.40324E+00 -4.11882E+00 -4.36180E+00 -3.02755E+00
  -5.08897E+00  3.54823E-01 -3.52524E+00  5.98785E-01 -1.33480E-01 -2.47248E+00 -2.52602E+00 -2.66403E+00 -1.13606E+01 -5.51940E+00
  -6.38707E+00 -6.14375E+00 -1.35198E-01 -1.48308E+00  1.77003E+00  5.94780E+00  3.22346E+00  4.87671E+00  2.81880E+00 -2.85171E+00
  -2.08819E+00 -7.63731E+00 -2.05390E+00 -1.63012E-01 -2.97168E+00  9.11981E-01  4.76824E+00  5.04273E+00  6.64403E+00  1.64781E+00
   1.61175E+00  3.84909E+00  2.48846E+00  2.01907E+00  4.52328E+00  4.15204E+00  6.02499E+00  4.61821E+00  2.53426E+00  5.00859E+00
   1.90156E+00  1.72358E+00  3.33857E+00  1.37974E+00  4.18158E+00  6.03335E+00  4.36119E+00  6.77679E+00  4.66362E+00  6.60113E+00
   8.32708E+00  5.48402E+00  6.98732E+00  1.35939E+01  1.69378E+01  2.70781E+01  3.24455E+01  4.23745E+01  5.53523E+01  6.69116E+01
   7.23403E+01  6.78100E+01  6.51077E+01  5.39069E+01  4.38774E+01  3.29481E+01  2.50244E+01  1.78241E+01  1.67872E+01  1.37479E+01
   6.69306E+00  1.05213E+01  8.59052E+00  4.79046E+00  6.55351E+00  2.26543E+00  4.86009E+00  5.88877E+00  1.76866E+00  3.09593E+00
   3.24209E+00  2.42712E+00  3.11757E+00  2.79831E-01  3.08880E+00  1.25986E+00  1.25534E-01  2.03561E+00  1.37228E+00  2.60086E+00
   1.88425E+00  1.14800E+00 -2.50578E+00  3.67150E+00 -1.76027E+00 -1.03759E+00  4.37810E+00  2.06585E-01  2.18449E+00 -2.82474E-01
   1.28002E+00  1.50561E+00  3.02635E+00  2.38426E+00  3.56512E+00  1.23718E+00  1.40388E+00  2.28652E+00  1.12027E+00  4.17795E+00
   7.22188E-01  2.77259E+00  3.82135E+00  4.79858E+00  4.87840E+00  6.27640E+00  4.62381E+00  5.20000E+00  2.52822E+00  2.82541E+00
   3.05504E+00  5.20718E+00  5.33637E+00  2.56975E+00  2.55871E+00  1.18003E+00  1.94407E-01 -1.32677E+00  4.33789E+00  3.22062E+00
  -1.05311E+00  2.74260E+00  1.13651E+00  1.11063E+00  2.65146E+00  1.36059E+00  2.58147E+00  3.17774E+00  2.23956E+00  4.61620E+00
   1.77198E+00  1.17583E+00  1.49350E+00  9.84316E-01  8.23797E+00  8.40653E+00  1.95850E+00  5.69452E+00  1.60143E+00  3.94643E+00
   8.63680E+00  6.99644E+00  6.86124E+00  4.72321E+00  4.82972E+00  6.26525E+00  5.96775E+00  7.29561E+00  7.61542E+00  3.37419E+00
   6.65982E+00  6.80722E+00  2.33982E+00  1.08309E+00  4.50040E+00  4.92255E+00  4.84995E+00  3.42703E+00  4.31602E+00  2.58641E-01
   2.38650E+00  3.10300E+00  3.51792E+00  9.33675E-01  5.54437E+00  3.46763E+00  1.34672E+00  3.02109E+00  1.35726E+00  2.76739E+00
  -3.70940E-01 -1.91792E+00  6.04105E-01  2.29321E+00 -2.66156E-01  2.61126E+00 -1.12459E+00 -2.91779E+00 -3.03228E+00  1.84871E+00
  -6.62756E-01  1.65036E+00  2.54585E-01  5.42183E+00  2.88554E+00  7.46661E+00  5.71974E+00  3.91289E+00  5.13300E+00  3.70725E+00
   2.27164E+00  3.46732E+00  3.97177E+00  8.43722E+00  8.15544E+00  4.67929E+00  8.65819E+00  6.75153E+00  1.09676E+01  7.79460E+00
   7.82493E+00  9.39740E+00  7.67438E+00  6.52474E+00  7.19963E+00  9.25152E+00  8.27960E+00  7.80022E+00  8.69233E+00  6.78672E+00
   4.46973E+00  3.16280E+00  4.83507E+00  1.46688E+00  3.80396E+00  3.05146E+00  4.99908E+00  2.40661E+00  3.97186E+00  7.83230E+00
   5.67072E+00  4.35007E+00  5.06735E+00  6.38195E+00  5.89380E+00  3.52190E+00  5.06146E+00  3.27078E+00  6.77613E+00  3.44805E+00
   2.38856E+00  5.68214E+00  4.40266E+00  3.14545E+00  3.61591E+00  2.67569E+00  5.15146E+00  6.19795E+00  5.36377E+00  2.23919E+00
   2.36907E+00  6.02390E+00  4.26333E+00  6.05862E+00  2.14459E+00  1.84183E+00  4.33693E+00  6.80870E+00  2.73362E+00  4.09253E+00
   1.97432E+00  2.61174E+00  4.03660E+00  3.91208E+00  2.14903E+00  8.83964E+00  5.87469E+00  2.74161E+00  7.81559E+00  2.74261E+00
   2.49675E+00  3.68314E+00  1.70904E+00  4.08372E+00  4.27458E+00  1.96174E+00  3.93032E+00  3.53505E+00  2.52514E+00  4.09359E+00
   2.57572E+00  4.82914E+00  4.63210E+00  1.89199E+00  3.93217E+00  6.80563E+00  4.06886E+00  4.88929E+00  4.94379E+00  3.62597E+00
   6.34789E+00  3.73289E+00  8.16333E+00  5.51059E+00  5.22267E+00  4.83157E+00  5.95510E+00  3.34677E+00
 NY points of the fit to the data follow
  -1.98451E+01 -1.92129E+01 -1.76163E+01 -1.50262E+01 -1.16541E+01 -7.66002E+00 -3.23319E+00  1.16219E+00  4.74599E+00  6.76485E+00
   6.88962E+00  5.29513E+00  2.49977E+00 -8.41595E-01 -4.15547E+00 -7.05203E+00 -9.42023E+00 -1.14215E+01 -1.32928E+01 -1.47523E+01
  -1.55197E+01 -1.59028E+01 -1.59789E+01 -1.58487E+01 -1.55262E+01 -1.49126E+01 -1.38806E+01 -1.24167E+01 -1.07610E+01 -9.24750E+00
  -8.18249E+00 -7.77167E+00 -8.06706E+00 -9.01084E+00 -1.03954E+01 -1.18440E+01 -1.30580E+01 -1.39261E+01 -1.44632E+01 -1.45435E+01
  -1.40664E+01 -1.33541E+01 -1.25476E+01 -1.16726E+01 -1.08198E+01 -1.01395E+01 -9.81750E+00 -9.89655E+00 -1.03519E+01 -1.10671E+01
  -1.18552E+01 -1.26038E+01 -1.32060E+01 -1.35794E+01 -1.37903E+01 -1.39454E+01 -1.40131E+01 -1.39495E+01 -1.38578E+01 -1.38620E+01
  -1.39773E+01 -1.41738E+01 -1.44092E+01 -1.46225E+01 -1.47515E+01 -1.47585E+01 -1.46527E+01 -1.44858E+01 -1.42957E+01 -1.40938E+01
  -1.39088E+01 -1.37619E+01 -1.36653E+01 -1.36193E+01 -1.36081E+01 -1.36152E+01 -1.36195E+01 -1.35882E+01 -1.34552E+01 -1.31336E+01
  -1.26676E+01 -1.20945E+01 -1.14312E+01 -1.07194E+01 -1.00554E+01 -9.58889E+00 -9.42664E+00 -9.56272E+00 -9.89729E+00 -1.03114E+01
  -1.06970E+01 -1.09767E+01 -1.10990E+01 -1.10160E+01 -1.04817E+01 -8.66739E+00 -5.13744E+00 -8.85314E-02  6.09284E+00  1.31257E+01
   2.04207E+01  2.67082E+01  3.04918E+01  3.09579E+01  2.82892E+01  2.33408E+01  1.72635E+01  1.11120E+01  5.65780E+00  1.24844E+00
  -2.32306E+00 -5.53897E+00 -8.29386E+00 -9.67262E+00 -9.98353E+00 -9.98660E+00 -9.86009E+00 -9.58863E+00 -8.90821E+00 -6.95055E+00
  -3.24384E+00  1.89872E+00  8.16972E+00  1.53381E+01  2.28777E+01  2.95832E+01  3.39111E+01  3.48990E+01  3.26268E+01  2.78967E+01
   2.18091E+01  1.54336E+01  9.56566E+00  4.62740E+00  5.32777E-01 -3.13310E+00 -6.26723E+00 -7.85775E+00 -8.04955E+00 -7.82413E+00
  -7.52189E+00 -7.28389E+00 -7.15665E+00 -7.10213E+00 -7.09597E+00 -7.16232E+00 -7.28625E+00 -7.45431E+00 -7.65980E+00 -7.86338E+00
  -8.03754E+00 -8.15570E+00 -8.21534E+00 -8.26729E+00 -8.35882E+00 -8.49472E+00 -8.66401E+00 -8.84690E+00 -9.02275E+00 -9.17589E+00
  -9.25984E+00 -9.22418E+00 -9.06605E+00 -8.85004E+00 -8.67733E+00 -8.62281E+00 -8.69951E+00 -8.88950E+00 -9.16612E+00 -9.49938E+00
  -9.82128E+00 -1.01181E+01 -1.04198E+01 -1.07222E+01 -1.10035E+01 -1.11455E+01 -1.10926E+01 -1.09329E+01 -1.07550E+01 -1.06247E+01
  -1.05484E+01 -1.04450E+01 -1.02482E+01 -9.91778E+00 -9.41656E+00 -8.72511E+00 -7.87927E+00 -6.95762E+00 -6.01059E+00 -5.14623E+00
  -4.50606E+00 -4.20213E+00 -4.23931E+00 -4.45484E+00 -4.65911E+00 -4.70121E+00 -4.46711E+00 -3.93113E+00 -3.13339E+00 -2.11624E+00
  -1.03317E+00 -7.55473E-02  4.72637E-01  4.22642E-01 -2.51283E-01 -1.48370E+00 -3.11643E+00 -4.80593E+00 -6.05708E+00 -6.49827E+00
  -6.06846E+00 -4.87046E+00 -3.12516E+00 -1.21367E+00  3.65855E-01  1.15243E+00  9.62393E-01 -4.33087E-02 -1.55242E+00 -3.21591E+00
  -4.74787E+00 -5.64909E+00 -5.59211E+00 -4.76451E+00 -3.54640E+00 -2.18250E+00 -7.83256E-01  4.17622E-01  1.16819E+00  1.56341E+00
   1.85022E+00  2.17612E+00  2.48436E+00  2.72067E+00  3.00221E+00  3.34247E+00  3.60955E+00  3.73427E+00  3.70531E+00  3.52011E+00
   3.22626E+00  2.89589E+00  2.65035E+00  2.63018E+00  2.86280E+00  3.26605E+00  3.71729E+00  4.22585E+00  4.79017E+00  5.37453E+00
   6.02048E+00  6.88922E+00  8.61905E+00  1.24749E+01  1.85693E+01  2.64281E+01  3.57276E+01  4.61358E+01  5.66271E+01  6.51041E+01
   6.93885E+01  6.85951E+01  6.32834E+01  5.48888E+01  4.51555E+01  3.56134E+01  2.73335E+01  2.06671E+01  1.50709E+01  9.83713E+00
   5.60440E+00  3.78849E+00  3.23503E+00  2.98931E+00  2.86033E+00  2.76316E+00  2.62666E+00  2.45674E+00  2.26424E+00  2.06356E+00
   1.87291E+00  1.70559E+00  1.55911E+00  1.43871E+00  1.35482E+00  1.30427E+00  1.27787E+00  1.26969E+00  1.27544E+00  1.29385E+00
   1.32333E+00  1.35898E+00  1.40318E+00  1.45773E+00  1.52198E+00  1.59649E+00  1.68242E+00  1.77842E+00  1.88133E+00  1.98847E+00
   2.09837E+00  2.20820E+00  2.31474E+00  2.41570E+00  2.50818E+00  2.59001E+00  2.65980E+00  2.71674E+00  2.76058E+00  2.79154E+00
   2.81043E+00  2.81852E+00  2.81773E+00  2.81079E+00  2.80107E+00  2.79223E+00  2.78919E+00  2.79898E+00  2.83466E+00  2.91692E+00
   3.03223E+00  3.14473E+00  3.23248E+00  3.27713E+00  3.24863E+00  3.10371E+00  2.81565E+00  2.43140E+00  2.04913E+00  1.74389E+00
   1.56738E+00  1.55429E+00  1.71952E+00  2.03646E+00  2.42582E+00  2.79661E+00  3.10455E+00  3.34997E+00  3.50214E+00  3.55000E+00
   3.53442E+00  3.49924E+00  3.47355E+00  3.45891E+00  3.44956E+00  3.49143E+00  3.63169E+00  3.86121E+00  4.17098E+00  4.54947E+00
   4.97669E+00  5.42272E+00  5.84945E+00  6.21485E+00  6.47913E+00  6.61140E+00  6.59526E+00  6.43176E+00  6.13918E+00  5.74933E+00
   5.30181E+00  4.83723E+00  4.39125E+00  3.99042E+00  3.65044E+00  3.37665E+00  3.16622E+00  3.01098E+00  2.90031E+00  2.82332E+00
   2.77042E+00  2.73393E+00  2.70841E+00  2.69029E+00  2.67755E+00  2.66926E+00  2.66522E+00  2.66565E+00  2.67114E+00  2.68241E+00
   2.70031E+00  2.72569E+00  2.75952E+00  2.80277E+00  2.85657E+00  2.92209E+00  3.00059E+00  3.09340E+00  3.20188E+00  3.32743E+00
   3.47146E+00  3.63522E+00  3.81978E+00  4.02586E+00  4.25376E+00  4.50318E+00  4.77315E+00  5.06185E+00  5.36651E+00  5.68338E+00
   6.00772E+00  6.33389E+00  6.65546E+00  6.96538E+00  7.25623E+00  7.52057E+00  7.75128E+00  7.94194E+00  8.08712E+00  8.18267E+00
   8.22602E+00  8.21627E+00  8.15431E+00  8.04272E+00  7.88565E+00  7.68851E+00  7.45775E+00  7.20051E+00  6.92423E+00  6.63634E+00
   6.34387E+00  6.05324E+00  5.77007E+00  5.49903E+00  5.24379E+00  5.00701E+00  4.79038E+00  4.59472E+00  4.42014E+00  4.26616E+00
   4.13184E+00  4.01589E+00  3.91683E+00  3.83306E+00  3.76297E+00  3.70500E+00  3.65769E+00  3.61965E+00  3.58965E+00  3.56657E+00
   3.54948E+00  3.53753E+00  3.53003E+00  3.52632E+00  3.52590E+00  3.52830E+00  3.53317E+00  3.54019E+00  3.54908E+00  3.55961E+00
   3.57157E+00  3.58481E+00  3.59919E+00  3.61459E+00  3.63090E+00  3.64801E+00  3.66585E+00  3.68436E+00  3.70348E+00  3.72316E+00
   3.74333E+00  3.76396E+00  3.78500E+00  3.80644E+00  3.82826E+00  3.85040E+00  3.87284E+00  3.89556E+00  3.91855E+00  3.94179E+00
   3.96528E+00  3.98898E+00  4.01287E+00  4.03696E+00  4.06123E+00  4.08569E+00  4.11032E+00  4.13509E+00  4.16001E+00  4.18506E+00
   4.21026E+00  4.23559E+00  4.26106E+00  4.28663E+00  4.31231E+00  4.33811E+00  4.36404E+00  4.39008E+00  4.41623E+00  4.44247E+00
   4.46883E+00  4.49530E+00  4.52190E+00  4.54861E+00  4.57544E+00  4.60239E+00  4.62947E+00  4.65671E+00
 NY background values follow
    -2.310E+01   -2.300E+01   -2.289E+01   -2.279E+01   -2.269E+01   -2.259E+01   -2.249E+01   -2.239E+01   -2.228E+01   -2.218E+01
    -2.208E+01   -2.198E+01   -2.188E+01   -2.178E+01   -2.168E+01   -2.157E+01   -2.147E+01   -2.137E+01   -2.127E+01   -2.117E+01
    -2.107E+01   -2.097E+01   -2.086E+01   -2.076E+01   -2.066E+01   -2.056E+01   -2.046E+01   -2.036E+01   -2.026E+01   -2.016E+01
    -2.006E+01   -1.996E+01   -1.986E+01   -1.976E+01   -1.966E+01   -1.956E+01   -1.946E+01   -1.936E+01   -1.925E+01   -1.915E+01
    -1.906E+01   -1.896E+01   -1.886E+01   -1.876E+01   -1.866E+01   -1.856E+01   -1.846E+01   -1.836E+01   -1.826E+01   -1.816E+01
    -1.806E+01   -1.796E+01   -1.786E+01   -1.776E+01   -1.767E+01   -1.757E+01   -1.747E+01   -1.737E+01   -1.727E+01   -1.718E+01
    -1.708E+01   -1.698E+01   -1.688E+01   -1.678E+01   -1.669E+01   -1.659E+01   -1.649E+01   -1.640E+01   -1.630E+01   -1.620E+01
    -1.611E+01   -1.601E+01   -1.591E+01   -1.582E+01   -1.572E+01   -1.563E+01   -1.553E+01   -1.544E+01   -1.534E+01   -1.525E+01
    -1.515E+01   -1.506E+01   -1.496E+01   -1.487E+01   -1.477E+01   -1.468E+01   -1.459E+01   -1.449E+01   -1.440E+01   -1.431E+01
    -1.421E+01   -1.412E+01   -1.403E+01   -1.393E+01   -1.384E+01   -1.375E+01   -1.366E+01   -1.357E+01   -1.347E+01   -1.338E+01
    -1.329E+01   -1.320E+01   -1.311E+01   -1.302E+01   -1.293E+01   -1.284E+01   -1.275E+01   -1.266E+01   -1.257E+01   -1.248E+01
    -1.239E+01   -1.230E+01   -1.221E+01   -1.212E+01   -1.204E+01   -1.195E+01   -1.186E+01   -1.177E+01   -1.168E+01   -1.160E+01
    -1.151E+01   -1.142E+01   -1.133E+01   -1.125E+01   -1.116E+01   -1.107E+01   -1.099E+01   -1.090E+01   -1.082E+01   -1.073E+01
    -1.065E+01   -1.056E+01   -1.048E+01   -1.039E+01   -1.031E+01   -1.022E+01   -1.014E+01   -1.005E+01   -9.969E+00   -9.886E+00
    -9.802E+00   -9.719E+00   -9.636E+00   -9.553E+00   -9.470E+00   -9.388E+00   -9.305E+00   -9.223E+00   -9.141E+00   -9.060E+00
    -8.978E+00   -8.897E+00   -8.816E+00   -8.735E+00   -8.654E+00   -8.574E+00   -8.494E+00   -8.414E+00   -8.334E+00   -8.254E+00
    -8.175E+00   -8.096E+00   -8.017E+00   -7.938E+00   -7.859E+00   -7.781E+00   -7.703E+00   -7.625E+00   -7.547E+00   -7.470E+00
    -7.393E+00   -7.316E+00   -7.239E+00   -7.162E+00   -7.086E+00   -7.010E+00   -6.934E+00   -6.858E+00   -6.782E+00   -6.707E+00
    -6.632E+00   -6.557E+00   -6.483E+00   -6.408E+00   -6.334E+00   -6.260E+00   -6.187E+00   -6.113E+00   -6.040E+00   -5.967E+00
    -5.895E+00   -5.822E+00   -5.750E+00   -5.679E+00   -5.607E+00   -5.536E+00   -5.465E+00   -5.395E+00   -5.325E+00   -5.255E+00
    -5.185E+00   -5.116E+00   -5.047E+00   -4.979E+00   -4.911E+00   -4.843E+00   -4.776E+00   -4.709E+00   -4.642E+00   -4.576E+00
    -4.510E+00   -4.445E+00   -4.380E+00   -4.315E+00   -4.251E+00   -4.187E+00   -4.124E+00   -4.061E+00   -3.998E+00   -3.936E+00
    -3.875E+00   -3.814E+00   -3.753E+00   -3.693E+00   -3.633E+00   -3.574E+00   -3.515E+00   -3.457E+00   -3.399E+00   -3.342E+00
    -3.285E+00   -3.229E+00   -3.173E+00   -3.118E+00   -3.063E+00   -3.008E+00   -2.954E+00   -2.901E+00   -2.848E+00   -2.795E+00
    -2.743E+00   -2.692E+00   -2.641E+00   -2.590E+00   -2.540E+00   -2.490E+00   -2.441E+00   -2.392E+00   -2.344E+00   -2.296E+00
    -2.248E+00   -2.201E+00   -2.154E+00   -2.108E+00   -2.063E+00   -2.017E+00   -1.972E+00   -1.928E+00   -1.884E+00   -1.840E+00
    -1.797E+00   -1.754E+00   -1.712E+00   -1.670E+00   -1.629E+00   -1.588E+00   -1.547E+00   -1.507E+00   -1.467E+00   -1.427E+00
    -1.388E+00   -1.350E+00   -1.312E+00   -1.274E+00   -1.236E+00   -1.199E+00   -1.163E+00   -1.126E+00   -1.090E+00   -1.055E+00
    -1.020E+00   -9.848E-01   -9.503E-01   -9.162E-01   -8.824E-01   -8.490E-01   -8.159E-01   -7.831E-01   -7.507E-01   -7.186E-01
    -6.868E-01   -6.553E-01   -6.241E-01   -5.933E-01   -5.627E-01   -5.325E-01   -5.025E-01   -4.728E-01   -4.434E-01   -4.143E-01
    -3.855E-01   -3.569E-01   -3.287E-01   -3.006E-01   -2.729E-01   -2.453E-01   -2.181E-01   -1.911E-01   -1.643E-01   -1.377E-01
    -1.114E-01   -8.534E-02   -5.948E-02   -3.384E-02   -8.411E-03    1.681E-02    4.182E-02    6.663E-02    9.124E-02    1.157E-01
     1.399E-01    1.640E-01    1.878E-01    2.116E-01    2.351E-01    2.585E-01    2.817E-01    3.048E-01    3.277E-01    3.505E-01
     3.732E-01    3.957E-01    4.182E-01    4.404E-01    4.626E-01    4.847E-01    5.067E-01    5.285E-01    5.503E-01    5.720E-01
     5.936E-01    6.152E-01    6.366E-01    6.580E-01    6.793E-01    7.006E-01    7.218E-01    7.430E-01    7.642E-01    7.853E-01
     8.063E-01    8.274E-01    8.484E-01    8.694E-01    8.904E-01    9.114E-01    9.324E-01    9.534E-01    9.745E-01    9.955E-01
     1.017E+00    1.038E+00    1.059E+00    1.080E+00    1.101E+00    1.122E+00    1.144E+00    1.165E+00    1.186E+00    1.208E+00
     1.229E+00    1.251E+00    1.272E+00    1.294E+00    1.315E+00    1.337E+00    1.359E+00    1.381E+00    1.403E+00    1.425E+00
     1.447E+00    1.469E+00    1.491E+00    1.513E+00    1.536E+00    1.558E+00    1.581E+00    1.603E+00    1.626E+00    1.649E+00
     1.672E+00    1.695E+00    1.718E+00    1.741E+00    1.764E+00    1.788E+00    1.811E+00    1.835E+00    1.859E+00    1.883E+00
     1.906E+00    1.931E+00    1.955E+00    1.979E+00    2.003E+00    2.028E+00    2.053E+00    2.077E+00    2.102E+00    2.127E+00
     2.153E+00    2.178E+00    2.203E+00    2.229E+00    2.254E+00    2.280E+00    2.306E+00    2.332E+00    2.358E+00    2.384E+00
     2.410E+00    2.437E+00    2.463E+00    2.490E+00    2.516E+00    2.543E+00    2.570E+00    2.597E+00    2.624E+00    2.651E+00
     2.678E+00    2.705E+00    2.732E+00    2.759E+00    2.787E+00    2.814E+00    2.841E+00    2.869E+00    2.896E+00    2.924E+00
     2.952E+00    2.979E+00    3.007E+00    3.035E+00    3.063E+00    3.090E+00    3.118E+00    3.146E+00    3.174E+00    3.202E+00
     3.230E+00    3.258E+00    3.285E+00    3.313E+00    3.341E+00    3.369E+00    3.397E+00    3.425E+00    3.453E+00    3.481E+00
     3.509E+00    3.537E+00    3.565E+00    3.593E+00    3.621E+00    3.649E+00    3.677E+00    3.705E+00    3.733E+00    3.761E+00
     3.790E+00    3.818E+00    3.846E+00    3.874E+00    3.902E+00    3.930E+00    3.958E+00    3.986E+00    4.014E+00    4.042E+00
     4.071E+00    4.099E+00    4.127E+00    4.155E+00    4.183E+00    4.211E+00    4.240E+00    4.268E+00    4.296E+00    4.324E+00
     4.352E+00    4.381E+00    4.409E+00    4.437E+00    4.465E+00    4.494E+00    4.522E+00    4.550E+00
 Ala      Conc. = 1.23E+02
