 LCModel (Version 6.3-1L) Copyright: S.W. Provencher.          Ref.: Magn. Reson. Med. 30:672-679 (1993).                
 Slice#2 Row#8 Col#10  PD_05_press_1_raw_act
 36 lines in following concentration table = NCONC+1
    Conc.  %SD /Cr+PCr  Metabolite                                         
   14.369 535% 1.1E-02 Ala                                                 
    0.000 999%   0.000 Asp                                                 
  160.420 114%   0.121 Cr                                                  
 1.16E+03  17%   0.879 PCr                                                 
   96.393 140% 7.3E-02 GABA                                                
  106.871 132% 8.1E-02 Glc                                                 
  609.138  26%   0.460 Gln                                                 
 1.67E+03  12%   1.263 Glu                                                 
  564.834   4%   0.427 GPC                                                 
    0.000 999%   0.000 PCh                                                 
  372.844  15%   0.282 GSH                                                 
 1.32E+03  15%   0.997 Ins                                                 
   47.324 175% 3.6E-02 Lac                                                 
 2.23E+03   4%   1.685 NAA                                                 
  261.391  30%   0.197 NAAG                                                
  127.777  18% 9.7E-02 Scyllo                                              
   75.057 236% 5.7E-02 Tau                                                 
  458.193  20%   0.346 -CrCH2                                              
  564.834   4%   0.427 GPC+PCh                                             
 2.49E+03   3%   1.882 NAA+NAAG                                            
 1.32E+03   4%   1.000 Cr+PCr                                              
 2.28E+03  12%   1.723 Glu+Gln                                             
    0.000 999%   0.000 Lip13a                                              
    0.000 999%   0.000 Lip13b                                              
    0.000 999%   0.000 Lip09                                               
 1.27E+03  15%   0.958 MM09                                                
    2.347 929% 1.8E-03 Lip20                                               
 3.21E+03  11%   2.425 MM20                                                
  301.489  48%   0.228 MM12                                                
 1.28E+03  22%   0.968 MM14                                                
  943.207  25%   0.712 MM17                                                
    0.000 999%   0.000 Lip13a+Lip13b                                       
 1.58E+03  21%   1.196 MM14+Lip13a+Lip13b+MM12                             
 1.27E+03  15%   0.958 MM09+Lip09                                          
 3.21E+03  11%   2.427 MM20+Lip20                                          
   6 lines in following misc. output table
  FWHM = 0.038 ppm    S/N =  17                                            
  Data shift = 0.008 ppm                                                   
  Ph: -56 deg     -17.8 deg/ppm                                            
  alphaB,S = 1.1E+00,   8.6E+01                                            
   14 spline knots.   Ns = 6(1)                                            
  (10) 3 infls.   ( 5) 1 extrs.                                            
  498 points on ppm-axis = NY
      4.000000     3.992357     3.984714     3.977070     3.969427     3.961784     3.954141     3.946497     3.938854     3.931211
      3.923568     3.915925     3.908281     3.900638     3.892995     3.885352     3.877708     3.870065     3.862422     3.854779
      3.847136     3.839492     3.831849     3.824206     3.816563     3.808919     3.801276     3.793633     3.785990     3.778347
      3.770703     3.763060     3.755417     3.747774     3.740130     3.732487     3.724844     3.717201     3.709558     3.701914
      3.694271     3.686628     3.678985     3.671341     3.663698     3.656055     3.648412     3.640769     3.633125     3.625482
      3.617839     3.610196     3.602552     3.594909     3.587266     3.579623     3.571980     3.564336     3.556693     3.549050
      3.541407     3.533763     3.526120     3.518477     3.510834     3.503191     3.495547     3.487904     3.480261     3.472618
      3.464974     3.457331     3.449688     3.442045     3.434402     3.426758     3.419115     3.411472     3.403829     3.396185
      3.388542     3.380899     3.373256     3.365613     3.357969     3.350326     3.342683     3.335040     3.327396     3.319753
      3.312110     3.304467     3.296824     3.289180     3.281537     3.273894     3.266251     3.258607     3.250964     3.243321
      3.235678     3.228034     3.220391     3.212748     3.205105     3.197462     3.189818     3.182175     3.174532     3.166889
      3.159245     3.151602     3.143959     3.136316     3.128673     3.121029     3.113386     3.105743     3.098100     3.090456
      3.082813     3.075170     3.067527     3.059884     3.052240     3.044597     3.036954     3.029311     3.021667     3.014024
      3.006381     2.998738     2.991095     2.983451     2.975808     2.968165     2.960522     2.952878     2.945235     2.937592
      2.929949     2.922306     2.914662     2.907019     2.899376     2.891733     2.884089     2.876446     2.868803     2.861160
      2.853517     2.845873     2.838230     2.830587     2.822944     2.815300     2.807657     2.800014     2.792371     2.784728
      2.777084     2.769441     2.761798     2.754155     2.746511     2.738868     2.731225     2.723582     2.715939     2.708295
      2.700652     2.693009     2.685366     2.677722     2.670079     2.662436     2.654793     2.647150     2.639506     2.631863
      2.624220     2.616577     2.608933     2.601290     2.593647     2.586004     2.578361     2.570717     2.563074     2.555431
      2.547788     2.540144     2.532501     2.524858     2.517215     2.509572     2.501928     2.494285     2.486642     2.478999
      2.471355     2.463712     2.456069     2.448426     2.440783     2.433139     2.425496     2.417853     2.410210     2.402566
      2.394923     2.387280     2.379637     2.371994     2.364350     2.356707     2.349064     2.341421     2.333777     2.326134
      2.318491     2.310848     2.303205     2.295561     2.287918     2.280275     2.272632     2.264988     2.257345     2.249702
      2.242059     2.234416     2.226772     2.219129     2.211486     2.203843     2.196199     2.188556     2.180913     2.173270
      2.165627     2.157983     2.150340     2.142697     2.135054     2.127410     2.119767     2.112124     2.104481     2.096838
      2.089194     2.081551     2.073908     2.066265     2.058621     2.050978     2.043335     2.035692     2.028049     2.020405
      2.012762     2.005119     1.997476     1.989833     1.982190     1.974546     1.966903     1.959260     1.951617     1.943974
      1.936331     1.928688     1.921045     1.913402     1.905759     1.898115     1.890472     1.882829     1.875186     1.867543
      1.859900     1.852257     1.844614     1.836971     1.829327     1.821684     1.814041     1.806398     1.798755     1.791112
      1.783469     1.775826     1.768183     1.760540     1.752896     1.745253     1.737610     1.729967     1.722324     1.714681
      1.707038     1.699395     1.691752     1.684108     1.676465     1.668822     1.661179     1.653536     1.645893     1.638250
      1.630607     1.622964     1.615321     1.607677     1.600034     1.592391     1.584748     1.577105     1.569462     1.561819
      1.554176     1.546533     1.538890     1.531246     1.523603     1.515960     1.508317     1.500674     1.493031     1.485388
      1.477745     1.470102     1.462458     1.454815     1.447172     1.439529     1.431886     1.424243     1.416600     1.408957
      1.401314     1.393671     1.386027     1.378384     1.370741     1.363098     1.355455     1.347812     1.340169     1.332526
      1.324883     1.317240     1.309596     1.301953     1.294310     1.286667     1.279024     1.271381     1.263738     1.256095
      1.248452     1.240808     1.233165     1.225522     1.217879     1.210236     1.202593     1.194950     1.187307     1.179664
      1.172021     1.164377     1.156734     1.149091     1.141448     1.133805     1.126162     1.118519     1.110876     1.103233
      1.095590     1.087946     1.080303     1.072660     1.065017     1.057374     1.049731     1.042088     1.034445     1.026802
      1.019158     1.011515     1.003872     0.996229     0.988586     0.980943     0.973300     0.965657     0.958014     0.950371
      0.942727     0.935084     0.927441     0.919798     0.912155     0.904512     0.896869     0.889226     0.881583     0.873940
      0.866296     0.858653     0.851010     0.843367     0.835724     0.828081     0.820438     0.812795     0.805152     0.797508
      0.789865     0.782222     0.774579     0.766936     0.759293     0.751650     0.744007     0.736364     0.728721     0.721077
      0.713434     0.705791     0.698148     0.690505     0.682862     0.675219     0.667576     0.659933     0.652290     0.644646
      0.637003     0.629360     0.621717     0.614074     0.606431     0.598788     0.591145     0.583502     0.575858     0.568215
      0.560572     0.552929     0.545286     0.537643     0.530000     0.522357     0.514714     0.507071     0.499427     0.491784
      0.484141     0.476498     0.468855     0.461212     0.453569     0.445925     0.438282     0.430639     0.422996     0.415353
      0.407710     0.400067     0.392424     0.384780     0.377137     0.369494     0.361851     0.354208     0.346565     0.338922
      0.331278     0.323635     0.315992     0.308349     0.300706     0.293063     0.285420     0.277777     0.270133     0.262490
      0.254847     0.247204     0.239561     0.231918     0.224275     0.216631     0.208988     0.201345
 NY phased data points follow
  -1.26222E+01 -1.61176E+01 -1.39513E+01 -1.04585E+01 -5.16414E+00 -1.44673E+00  1.08590E+00  7.58587E+00  1.06570E+01  1.26391E+01
   1.07912E+01  1.07371E+01  1.04436E+01  5.40830E-01 -5.24953E-01 -6.56610E+00 -5.07322E+00 -7.48466E+00 -8.21245E+00 -1.16972E+01
  -8.96867E+00 -7.91167E+00 -7.79266E+00 -5.81428E+00 -3.99127E+00 -4.67287E+00 -2.84019E+00 -2.70835E+00 -1.14494E+00 -1.27955E+00
   2.06601E+00 -3.15848E-01  2.04384E+00 -1.63081E+00 -6.03641E-01 -2.35062E+00 -1.26974E+00 -2.22025E+00 -7.10363E-01 -6.33354E+00
  -3.47601E+00 -1.34651E+00  1.25442E+00  1.56325E+00  4.29639E+00  8.64453E+00  7.33397E+00  8.28659E+00  4.66806E+00 -1.09103E-02
  -5.39897E-01  6.18893E-01 -1.89129E+00 -2.16396E+00 -1.56941E+00 -1.37264E-01  5.98072E-01 -5.62415E-01 -1.64978E+00 -1.12635E+00
  -8.04423E+00 -7.08652E+00 -6.45148E+00 -8.19891E+00 -8.42517E+00 -9.95720E+00 -1.02122E+01 -9.03553E+00 -8.60637E+00 -6.65872E+00
  -7.90798E+00 -7.54768E+00 -4.95436E+00 -1.93003E+00 -5.20983E+00 -1.72548E+00 -4.98324E+00 -4.61390E+00 -5.09550E+00 -4.70525E+00
  -4.37569E+00 -1.62657E+00 -7.22385E-01 -3.33514E+00 -3.76002E+00 -4.93621E+00 -4.89487E-01 -1.26601E+00 -1.83906E+00  2.25951E+00
   1.46751E+00 -8.84742E-01  6.32927E+00  1.89190E+00 -2.80534E+00  2.62781E-01  1.48238E+00  3.69942E+00  1.22361E+01  2.26439E+01
   3.57472E+01  4.89087E+01  5.20445E+01  4.73047E+01  4.19642E+01  3.20855E+01  1.97963E+01  1.35622E+01  7.89870E+00  6.70445E+00
   3.43524E+00 -1.09458E+00 -7.42433E-01 -1.19938E+00 -2.26944E+00  1.15069E+00 -2.12684E+00 -1.67747E-01  4.01563E-01  1.67490E+00
   1.07203E+00  7.58501E-01  5.31041E+00  1.37144E+01  2.59273E+01  4.01599E+01  4.68622E+01  5.14091E+01  4.37608E+01  3.26371E+01
   2.41901E+01  1.75893E+01  6.83015E+00  4.50016E+00  5.21318E+00 -5.46852E-02 -2.76152E+00 -4.93873E+00 -1.69003E+00 -7.17792E-01
  -9.54512E-01 -9.05670E-01 -2.11154E+00 -1.28235E+00 -4.41885E-01  3.62789E+00  2.14500E-01  3.37339E+00  4.52203E-01 -2.35332E-01
   1.42256E+00 -4.46087E+00  6.27912E-01  2.30821E-01 -4.47071E+00 -6.17717E-01 -2.14572E-01  1.36121E+00  4.47103E-01  6.86889E-01
  -1.25551E+00 -2.91943E+00 -5.20476E+00 -3.36958E+00 -3.01490E+00  3.17468E-01 -3.87106E+00 -4.79093E+00 -4.89479E+00 -4.61009E+00
  -7.56781E+00 -9.26447E+00 -1.20134E+01 -1.47269E+01 -1.22094E+01 -1.45228E+01 -1.33610E+01 -1.03072E+01 -7.67863E+00 -9.07676E+00
  -9.49073E+00 -1.43241E+01 -9.88325E+00 -1.26529E+01 -9.11302E+00 -1.16346E+01 -9.03649E+00 -9.54134E+00 -4.13648E+00 -4.35697E+00
   8.41804E-01  4.84114E+00  3.05967E+00 -1.75971E+00  1.85164E+00  8.86458E-01  2.68568E-01 -7.53482E+00 -8.34507E+00 -6.45718E+00
  -2.33802E+00  9.61736E-01  4.95725E+00  5.66273E+00  5.32261E+00  1.18425E+00 -8.40571E-01 -3.68379E+00 -2.70819E+00 -3.77872E+00
  -7.65309E+00 -8.84966E-01 -6.11485E-01  7.35856E+00  1.53535E+01  1.43158E+01  1.77141E+01  1.48414E+01  9.12305E+00 -6.24933E-02
   6.49986E-01 -2.46903E+00 -3.74643E+00 -1.35405E-01  3.61029E+00  6.27012E+00  6.51505E+00  3.79648E+00  6.61295E+00  1.04058E+01
   9.91213E+00  9.11561E+00  9.12410E+00  1.21829E+01  1.28048E+01  1.11189E+01  1.16023E+01  9.53641E+00  1.28777E+01  5.91137E+00
   6.62125E+00  7.26915E-01  4.78215E+00  1.75604E+00  8.14816E+00  1.04012E+01  1.70859E+01  1.11876E+01  1.22164E+01  1.53671E+01
   1.63233E+01  1.56162E+01  1.73363E+01  2.22170E+01  3.05504E+01  3.36299E+01  4.15226E+01  5.50470E+01  7.15742E+01  9.64668E+01
   1.08665E+02  1.01763E+02  7.71804E+01  5.79298E+01  4.02489E+01  3.35600E+01  2.29490E+01  2.27885E+01  1.75421E+01  1.24137E+01
   6.88717E+00  5.91845E+00  9.72577E+00  9.38104E+00  9.55298E+00  6.53262E+00  1.16456E+01  9.34940E+00  9.19730E+00  6.30761E+00
   1.09172E+01  8.42407E+00  1.15166E+01  7.48316E+00  7.55960E+00  5.53687E+00  9.13246E+00  5.60376E+00  1.01920E+01  5.93715E+00
   9.00238E+00  9.14757E+00  6.99582E+00  7.49230E+00  9.12354E+00  7.45175E+00  9.40223E+00  5.45824E+00  6.23118E+00  6.33729E+00
   6.96594E+00  9.57314E+00  1.06833E+01  8.03611E+00  7.55133E+00  4.27758E+00  8.14448E+00  1.12453E+01  1.00052E+01  8.63623E+00
   1.36471E+01  1.06274E+01  9.02192E+00  1.14470E+01  9.29047E+00  1.27267E+01  8.84789E+00  8.02158E+00  1.22916E+01  7.59462E+00
   1.07055E+01  7.62842E+00  1.02926E+01  1.04038E+01  7.29798E+00  7.16947E+00  7.18928E+00  9.37879E+00  7.90625E+00  9.04376E+00
   1.05989E+01  9.30830E+00  9.32043E+00  1.32913E+01  1.09103E+01  1.17712E+01  1.28727E+01  1.06223E+01  9.52630E+00  1.14146E+01
   1.04932E+01  6.71333E+00  1.16061E+01  1.09551E+01  1.29084E+01  1.04511E+01  1.24537E+01  7.42121E+00  1.02427E+01  8.77920E+00
   9.58766E+00  4.49980E+00  9.21049E+00  7.93869E+00  9.81396E+00  8.94923E+00  7.43168E+00  9.20208E+00  5.29213E+00  6.39847E+00
   7.35534E+00  4.81410E+00  6.69150E+00  5.19179E+00  5.49025E+00  6.35185E+00  7.23745E+00  4.37930E+00  8.80136E+00  9.23506E+00
   7.15871E+00  8.06902E+00  6.72800E+00  6.68934E+00  4.29677E+00  7.90191E+00  5.29546E+00  7.37804E+00  6.82804E+00  7.14102E+00
   7.31603E+00  4.16522E+00  3.70535E+00  5.55392E+00  9.57129E+00  5.27631E+00  7.82589E+00  4.44089E+00  8.86612E+00  8.72112E+00
   1.07192E+01  9.51287E+00  7.29039E+00  6.23102E+00  9.94850E+00  9.98578E+00  8.73388E+00  1.44839E+01  1.47127E+01  1.12521E+01
   1.12887E+01  1.24745E+01  1.42789E+01  1.03681E+01  1.19587E+01  1.28548E+01  1.23836E+01  1.05373E+01  1.43076E+01  1.18144E+01
   1.29457E+01  9.00335E+00  1.23535E+01  1.38410E+01  1.09846E+01  1.06228E+01  1.15207E+01  9.17516E+00  9.62520E+00  1.38481E+01
   7.56007E+00  1.12007E+01  8.52384E+00  6.49499E+00  7.72894E+00  8.15656E+00  5.64059E+00  7.05835E+00  9.41153E+00  8.24462E+00
   7.90154E+00  9.06788E+00  6.60587E+00  8.60414E+00  7.77736E+00  7.47568E+00  7.86305E+00  6.66632E+00  4.83174E+00  7.57554E+00
   7.55122E+00  7.68612E+00  5.53922E+00  7.73140E+00  9.18843E+00  8.46344E+00  5.70191E+00  2.68578E+00  2.35963E+00  6.52197E+00
   7.48146E+00  3.73491E+00  5.18200E+00  8.98133E+00  5.85527E+00  6.11178E+00  6.03976E+00  6.26028E+00  5.44748E+00  2.89941E+00
   2.95410E+00  3.21038E+00  3.72791E+00  4.33143E+00  1.82696E+00  4.51594E+00  7.03753E+00  2.44317E+00  5.71371E-01  6.65301E+00
   3.26299E+00  1.67231E+00  4.81520E+00  2.92280E+00  5.73226E+00  6.29711E+00  6.10725E+00  3.74713E+00  4.57442E+00  5.41992E+00
   5.83689E+00  4.57163E+00  4.72700E+00  4.44988E+00  4.91069E+00  7.91846E+00  8.28345E+00  7.03931E+00  3.48515E+00  6.50116E+00
   5.72838E+00  5.89553E+00  3.43080E+00  8.20110E+00  3.18915E+00  5.90630E+00  3.28386E+00  4.24266E+00
 NY points of the fit to the data follow
  -1.04108E+01 -1.02808E+01 -9.85531E+00 -8.68714E+00 -6.39672E+00 -3.11200E+00  1.35604E+00  6.61153E+00  1.13142E+01  1.36631E+01
   1.27974E+01  9.51340E+00  5.48911E+00  2.03145E+00 -3.96064E-01 -2.11487E+00 -3.70038E+00 -5.11857E+00 -5.87560E+00 -6.28974E+00
  -6.46485E+00 -6.55516E+00 -6.74022E+00 -6.92593E+00 -6.74181E+00 -6.18259E+00 -5.06843E+00 -3.17016E+00 -6.38284E-01  1.87760E+00
   3.56563E+00  4.18691E+00  3.85823E+00  2.72528E+00  8.54516E-01 -1.44353E+00 -3.89054E+00 -6.04923E+00 -7.11020E+00 -7.06102E+00
  -6.00548E+00 -4.23008E+00 -2.13695E+00  2.79782E-01  2.95360E+00  5.34551E+00  6.38913E+00  5.39711E+00  2.82808E+00 -1.04022E-01
  -2.47585E+00 -3.97302E+00 -4.80772E+00 -5.27414E+00 -5.37196E+00 -4.90569E+00 -4.01724E+00 -3.02750E+00 -2.26144E+00 -2.07524E+00
  -2.60972E+00 -3.67045E+00 -4.84715E+00 -5.68567E+00 -5.98158E+00 -5.79696E+00 -5.34711E+00 -4.77442E+00 -4.20210E+00 -3.62943E+00
  -3.15847E+00 -2.91510E+00 -2.91403E+00 -3.05930E+00 -3.24188E+00 -3.42284E+00 -3.64705E+00 -3.90410E+00 -4.19046E+00 -4.39239E+00
  -4.48816E+00 -4.34974E+00 -3.94028E+00 -3.34547E+00 -2.41464E+00 -1.16980E+00 -4.52755E-02  3.39905E-01 -2.29029E-01 -1.28962E+00
  -2.19696E+00 -2.69785E+00 -2.88317E+00 -2.98171E+00 -3.23852E+00 -3.25073E+00 -1.67116E+00  2.88066E+00  1.04966E+01  2.16519E+01
   3.55906E+01  4.84977E+01  5.48045E+01  5.16230E+01  4.13627E+01  2.92806E+01  1.92898E+01  1.24463E+01  7.71220E+00  3.55828E+00
  -1.30365E-01 -1.79933E+00 -2.34423E+00 -2.56634E+00 -2.67975E+00 -2.74127E+00 -2.76970E+00 -2.77883E+00 -2.73100E+00 -2.50357E+00
  -1.66998E+00  1.25608E+00  6.77712E+00  1.49691E+01  2.62600E+01  3.88516E+01  4.81113E+01  4.96321E+01  4.31922E+01  3.29109E+01
   2.33456E+01  1.64284E+01  1.15673E+01  7.26743E+00  2.51820E+00 -8.69649E-01 -2.02617E+00 -2.07021E+00 -1.46545E+00 -6.34930E-01
   1.42791E-02  3.12858E-01  2.90983E-01  2.79774E-02 -3.08925E-01 -6.13017E-01 -9.00002E-01 -1.16192E+00 -1.44148E+00 -1.73379E+00
  -1.99457E+00 -2.22992E+00 -2.41444E+00 -2.49661E+00 -2.45201E+00 -2.37271E+00 -2.39167E+00 -2.58724E+00 -3.06154E+00 -3.71506E+00
  -4.26504E+00 -4.39296E+00 -3.94940E+00 -3.23916E+00 -2.80728E+00 -3.00606E+00 -3.73132E+00 -4.54299E+00 -5.05785E+00 -5.28323E+00
  -5.47726E+00 -5.82104E+00 -6.34220E+00 -6.94637E+00 -7.44377E+00 -7.67974E+00 -7.45480E+00 -6.83332E+00 -6.29262E+00 -6.20725E+00
  -6.44865E+00 -6.64473E+00 -6.55415E+00 -6.19861E+00 -5.83800E+00 -5.52297E+00 -4.75473E+00 -3.23087E+00 -1.17872E+00  7.25160E-01
   1.76408E+00  1.85383E+00  1.24301E+00  3.56673E-01 -3.82047E-01 -8.15151E-01 -9.61439E-01 -6.65929E-01  1.44809E-01  1.38452E+00
   2.85950E+00  4.35050E+00  5.54824E+00  6.14432E+00  5.66238E+00  4.05135E+00  1.55634E+00 -1.34530E+00 -3.87820E+00 -5.22457E+00
  -5.01719E+00 -3.33621E+00 -5.56689E-01  3.13321E+00  7.11402E+00  1.01802E+01  1.09250E+01  8.90784E+00  4.86059E+00  2.85509E-01
  -3.67258E+00 -6.31236E+00 -6.95132E+00 -5.25115E+00 -1.88346E+00  2.00782E+00  5.00077E+00  6.68269E+00  7.28805E+00  7.28395E+00
   7.12318E+00  7.07752E+00  7.30528E+00  7.92308E+00  8.84552E+00  9.86000E+00  1.07212E+01  1.10795E+01  1.07631E+01  9.85892E+00
   8.62126E+00  7.54861E+00  7.22844E+00  7.93373E+00  9.33815E+00  1.09084E+01  1.21489E+01  1.28501E+01  1.31734E+01  1.34882E+01
   1.43050E+01  1.57824E+01  1.80915E+01  2.12527E+01  2.59820E+01  3.38935E+01  4.38647E+01  5.77700E+01  7.65859E+01  9.53623E+01
   1.04533E+02  9.84124E+01  8.06647E+01  6.03969E+01  4.43736E+01  3.38668E+01  2.67425E+01  2.01085E+01  1.34412E+01  1.06403E+01
   9.64066E+00  9.11003E+00  8.88509E+00  8.90081E+00  8.92425E+00  8.80678E+00  8.54250E+00  8.18301E+00  7.78514E+00  7.41089E+00
   7.09020E+00  6.83101E+00  6.65406E+00  6.56293E+00  6.52628E+00  6.51426E+00  6.51277E+00  6.52530E+00  6.56871E+00  6.64662E+00
   6.75995E+00  6.90973E+00  7.07714E+00  7.24670E+00  7.42062E+00  7.60215E+00  7.79068E+00  7.98626E+00  8.18838E+00  8.39569E+00
   8.60625E+00  8.81223E+00  9.00149E+00  9.16536E+00  9.29795E+00  9.39837E+00  9.46700E+00  9.50330E+00  9.50996E+00  9.49033E+00
   9.44698E+00  9.38489E+00  9.30997E+00  9.22866E+00  9.14619E+00  9.06847E+00  9.00073E+00  8.94914E+00  8.91841E+00  8.91320E+00
   8.93730E+00  8.99606E+00  9.08523E+00  9.19946E+00  9.33116E+00  9.46175E+00  9.56862E+00  9.64608E+00  9.71156E+00  9.79679E+00
   9.91738E+00  1.00667E+01  1.02371E+01  1.04229E+01  1.06075E+01  1.07673E+01  1.08697E+01  1.09022E+01  1.08811E+01  1.08287E+01
   1.07636E+01  1.07033E+01  1.06333E+01  1.05398E+01  1.04193E+01  1.02233E+01  9.88939E+00  9.40527E+00  8.84509E+00  8.34474E+00
   7.98237E+00  7.76855E+00  7.69963E+00  7.75484E+00  7.86975E+00  7.96978E+00  7.98219E+00  7.88761E+00  7.74211E+00  7.59893E+00
   7.47865E+00  7.37378E+00  7.25911E+00  7.15539E+00  7.07701E+00  7.01274E+00  6.95637E+00  6.90584E+00  6.85964E+00  6.81753E+00
   6.77877E+00  6.74385E+00  6.71307E+00  6.68794E+00  6.66933E+00  6.65879E+00  6.65708E+00  6.66601E+00  6.68694E+00  6.72214E+00
   6.77292E+00  6.84118E+00  6.92804E+00  7.03559E+00  7.16525E+00  7.31907E+00  7.49793E+00  7.70307E+00  7.93472E+00  8.19367E+00
   8.47946E+00  8.79158E+00  9.12774E+00  9.48546E+00  9.86073E+00  1.02495E+01  1.06459E+01  1.10437E+01  1.14351E+01  1.18125E+01
   1.21671E+01  1.24912E+01  1.27766E+01  1.30161E+01  1.32025E+01  1.33311E+01  1.33980E+01  1.34016E+01  1.33416E+01  1.32195E+01
   1.30385E+01  1.28036E+01  1.25210E+01  1.21983E+01  1.18430E+01  1.14632E+01  1.10669E+01  1.06622E+01  1.02563E+01  9.85591E+00
   9.46608E+00  9.09158E+00  8.73557E+00  8.40112E+00  8.08959E+00  7.80209E+00  7.53821E+00  7.29777E+00  7.07960E+00  6.88301E+00
   6.70627E+00  6.54806E+00  6.40628E+00  6.27971E+00  6.16660E+00  6.06597E+00  5.97611E+00  5.89600E+00  5.82409E+00  5.75982E+00
   5.70211E+00  5.65061E+00  5.60418E+00  5.56246E+00  5.52452E+00  5.49040E+00  5.45946E+00  5.43169E+00  5.40632E+00  5.38332E+00
   5.36214E+00  5.34308E+00  5.32567E+00  5.31005E+00  5.29558E+00  5.28244E+00  5.27028E+00  5.25945E+00  5.24955E+00  5.24071E+00
   5.23241E+00  5.22495E+00  5.21806E+00  5.21213E+00  5.20671E+00  5.20197E+00  5.19746E+00  5.19357E+00  5.19005E+00  5.18724E+00
   5.18469E+00  5.18258E+00  5.18057E+00  5.17909E+00  5.17787E+00  5.17723E+00  5.17666E+00  5.17642E+00  5.17621E+00  5.17650E+00
   5.17698E+00  5.17789E+00  5.17877E+00  5.17993E+00  5.18113E+00  5.18282E+00  5.18464E+00  5.18679E+00  5.18886E+00  5.19122E+00
   5.19366E+00  5.19657E+00  5.19956E+00  5.20283E+00  5.20602E+00  5.20956E+00  5.21324E+00  5.21741E+00
 NY background values follow
    -1.319E+01   -1.311E+01   -1.303E+01   -1.296E+01   -1.288E+01   -1.280E+01   -1.272E+01   -1.264E+01   -1.256E+01   -1.248E+01
    -1.240E+01   -1.232E+01   -1.224E+01   -1.217E+01   -1.209E+01   -1.201E+01   -1.193E+01   -1.185E+01   -1.177E+01   -1.169E+01
    -1.162E+01   -1.154E+01   -1.146E+01   -1.138E+01   -1.130E+01   -1.122E+01   -1.115E+01   -1.107E+01   -1.099E+01   -1.091E+01
    -1.084E+01   -1.076E+01   -1.068E+01   -1.061E+01   -1.053E+01   -1.045E+01   -1.038E+01   -1.030E+01   -1.023E+01   -1.015E+01
    -1.008E+01   -1.000E+01   -9.926E+00   -9.851E+00   -9.777E+00   -9.702E+00   -9.628E+00   -9.555E+00   -9.481E+00   -9.408E+00
    -9.335E+00   -9.262E+00   -9.190E+00   -9.118E+00   -9.046E+00   -8.974E+00   -8.903E+00   -8.832E+00   -8.761E+00   -8.691E+00
    -8.621E+00   -8.551E+00   -8.481E+00   -8.412E+00   -8.343E+00   -8.274E+00   -8.206E+00   -8.138E+00   -8.070E+00   -8.003E+00
    -7.936E+00   -7.869E+00   -7.802E+00   -7.736E+00   -7.671E+00   -7.605E+00   -7.540E+00   -7.475E+00   -7.411E+00   -7.347E+00
    -7.283E+00   -7.220E+00   -7.157E+00   -7.095E+00   -7.032E+00   -6.971E+00   -6.909E+00   -6.848E+00   -6.787E+00   -6.727E+00
    -6.667E+00   -6.608E+00   -6.549E+00   -6.490E+00   -6.432E+00   -6.374E+00   -6.316E+00   -6.259E+00   -6.202E+00   -6.146E+00
    -6.090E+00   -6.034E+00   -5.979E+00   -5.924E+00   -5.870E+00   -5.815E+00   -5.762E+00   -5.708E+00   -5.655E+00   -5.602E+00
    -5.550E+00   -5.498E+00   -5.446E+00   -5.395E+00   -5.344E+00   -5.293E+00   -5.243E+00   -5.193E+00   -5.143E+00   -5.094E+00
    -5.045E+00   -4.997E+00   -4.948E+00   -4.900E+00   -4.853E+00   -4.805E+00   -4.758E+00   -4.712E+00   -4.665E+00   -4.619E+00
    -4.573E+00   -4.528E+00   -4.483E+00   -4.438E+00   -4.393E+00   -4.349E+00   -4.305E+00   -4.261E+00   -4.218E+00   -4.175E+00
    -4.132E+00   -4.089E+00   -4.047E+00   -4.005E+00   -3.963E+00   -3.921E+00   -3.879E+00   -3.837E+00   -3.796E+00   -3.755E+00
    -3.714E+00   -3.672E+00   -3.631E+00   -3.591E+00   -3.550E+00   -3.509E+00   -3.468E+00   -3.427E+00   -3.387E+00   -3.346E+00
    -3.305E+00   -3.264E+00   -3.223E+00   -3.182E+00   -3.141E+00   -3.100E+00   -3.059E+00   -3.017E+00   -2.976E+00   -2.934E+00
    -2.892E+00   -2.850E+00   -2.808E+00   -2.766E+00   -2.723E+00   -2.680E+00   -2.637E+00   -2.594E+00   -2.550E+00   -2.506E+00
    -2.462E+00   -2.418E+00   -2.373E+00   -2.328E+00   -2.282E+00   -2.237E+00   -2.191E+00   -2.144E+00   -2.098E+00   -2.051E+00
    -2.004E+00   -1.957E+00   -1.910E+00   -1.862E+00   -1.815E+00   -1.767E+00   -1.719E+00   -1.671E+00   -1.622E+00   -1.574E+00
    -1.526E+00   -1.477E+00   -1.428E+00   -1.380E+00   -1.331E+00   -1.282E+00   -1.234E+00   -1.185E+00   -1.136E+00   -1.087E+00
    -1.039E+00   -9.898E-01   -9.412E-01   -8.926E-01   -8.441E-01   -7.957E-01   -7.473E-01   -6.991E-01   -6.511E-01   -6.031E-01
    -5.553E-01   -5.077E-01   -4.602E-01   -4.130E-01   -3.659E-01   -3.190E-01   -2.724E-01   -2.260E-01   -1.798E-01   -1.339E-01
    -8.820E-02   -4.275E-02    2.455E-03    4.742E-02    9.214E-02    1.366E-01    1.808E-01    2.248E-01    2.685E-01    3.120E-01
     3.553E-01    3.982E-01    4.409E-01    4.834E-01    5.256E-01    5.675E-01    6.092E-01    6.507E-01    6.918E-01    7.327E-01
     7.733E-01    8.137E-01    8.538E-01    8.936E-01    9.332E-01    9.725E-01    1.011E+00    1.050E+00    1.089E+00    1.127E+00
     1.165E+00    1.202E+00    1.240E+00    1.277E+00    1.314E+00    1.350E+00    1.386E+00    1.422E+00    1.458E+00    1.493E+00
     1.528E+00    1.563E+00    1.597E+00    1.632E+00    1.665E+00    1.699E+00    1.732E+00    1.765E+00    1.798E+00    1.830E+00
     1.863E+00    1.894E+00    1.926E+00    1.957E+00    1.988E+00    2.019E+00    2.049E+00    2.079E+00    2.109E+00    2.139E+00
     2.168E+00    2.197E+00    2.226E+00    2.254E+00    2.282E+00    2.310E+00    2.338E+00    2.365E+00    2.392E+00    2.419E+00
     2.445E+00    2.472E+00    2.497E+00    2.523E+00    2.549E+00    2.574E+00    2.598E+00    2.623E+00    2.647E+00    2.671E+00
     2.695E+00    2.719E+00    2.742E+00    2.765E+00    2.788E+00    2.810E+00    2.832E+00    2.854E+00    2.876E+00    2.897E+00
     2.918E+00    2.939E+00    2.960E+00    2.980E+00    3.000E+00    3.020E+00    3.040E+00    3.059E+00    3.079E+00    3.098E+00
     3.117E+00    3.135E+00    3.154E+00    3.172E+00    3.190E+00    3.208E+00    3.225E+00    3.243E+00    3.260E+00    3.277E+00
     3.294E+00    3.311E+00    3.328E+00    3.344E+00    3.360E+00    3.377E+00    3.393E+00    3.408E+00    3.424E+00    3.440E+00
     3.455E+00    3.470E+00    3.486E+00    3.501E+00    3.516E+00    3.531E+00    3.545E+00    3.560E+00    3.575E+00    3.589E+00
     3.604E+00    3.618E+00    3.632E+00    3.646E+00    3.660E+00    3.674E+00    3.688E+00    3.702E+00    3.716E+00    3.729E+00
     3.743E+00    3.757E+00    3.770E+00    3.783E+00    3.797E+00    3.810E+00    3.823E+00    3.836E+00    3.849E+00    3.862E+00
     3.875E+00    3.888E+00    3.901E+00    3.913E+00    3.926E+00    3.939E+00    3.951E+00    3.964E+00    3.976E+00    3.988E+00
     4.000E+00    4.013E+00    4.025E+00    4.037E+00    4.049E+00    4.061E+00    4.072E+00    4.084E+00    4.096E+00    4.108E+00
     4.119E+00    4.131E+00    4.142E+00    4.154E+00    4.165E+00    4.177E+00    4.188E+00    4.199E+00    4.210E+00    4.222E+00
     4.233E+00    4.244E+00    4.255E+00    4.266E+00    4.276E+00    4.287E+00    4.298E+00    4.309E+00    4.319E+00    4.330E+00
     4.340E+00    4.351E+00    4.361E+00    4.372E+00    4.382E+00    4.392E+00    4.402E+00    4.412E+00    4.422E+00    4.432E+00
     4.442E+00    4.452E+00    4.462E+00    4.472E+00    4.481E+00    4.491E+00    4.500E+00    4.510E+00    4.519E+00    4.529E+00
     4.538E+00    4.547E+00    4.556E+00    4.565E+00    4.574E+00    4.583E+00    4.592E+00    4.601E+00    4.609E+00    4.618E+00
     4.627E+00    4.635E+00    4.644E+00    4.652E+00    4.660E+00    4.669E+00    4.677E+00    4.685E+00    4.693E+00    4.701E+00
     4.709E+00    4.717E+00    4.724E+00    4.732E+00    4.740E+00    4.748E+00    4.755E+00    4.763E+00    4.771E+00    4.778E+00
     4.786E+00    4.793E+00    4.801E+00    4.808E+00    4.815E+00    4.823E+00    4.830E+00    4.837E+00    4.845E+00    4.852E+00
     4.859E+00    4.867E+00    4.874E+00    4.881E+00    4.889E+00    4.896E+00    4.903E+00    4.911E+00    4.918E+00    4.925E+00
     4.933E+00    4.940E+00    4.948E+00    4.955E+00    4.963E+00    4.970E+00    4.978E+00    4.985E+00
 Ala      Conc. = 1.44E+01
