 LCModel (Version 6.3-1L) Copyright: S.W. Provencher.          Ref.: Magn. Reson. Med. 30:672-679 (1993).                
 Slice#2 Row#12 Col#7  PD_05_press_1_raw_act
 36 lines in following concentration table = NCONC+1
    Conc.  %SD /Cr+PCr  Metabolite                                         
    0.000 999%   0.000 Ala                                                 
    0.000 999%   0.000 Asp                                                 
  304.366  71%   0.231 Cr                                                  
 1.01E+03  22%   0.769 PCr                                                 
    0.000 999%   0.000 GABA                                                
    0.000 999%   0.000 Glc                                                 
 1.04E+03  24%   0.788 Gln                                                 
 1.26E+03  22%   0.954 Glu                                                 
  426.590   4%   0.324 GPC                                                 
    0.000 999%   0.000 PCh                                                 
  536.698  13%   0.408 GSH                                                 
 1.84E+03  13%   1.398 Ins                                                 
  182.756  70%   0.139 Lac                                                 
 2.29E+03   3%   1.741 NAA                                                 
    0.000 999%   0.000 NAAG                                                
  154.409  15%   0.117 Scyllo                                              
  372.001  46%   0.283 Tau                                                 
  142.560  67%   0.108 -CrCH2                                              
  426.590   4%   0.324 GPC+PCh                                             
 2.29E+03   3%   1.741 NAA+NAAG                                            
 1.32E+03   4%   1.000 Cr+PCr                                              
 2.29E+03  19%   1.742 Glu+Gln                                             
 1.43E+03  31%   1.084 Lip13a                                              
    0.000 999%   0.000 Lip13b                                              
  186.588 107%   0.142 Lip09                                               
  865.739  25%   0.658 MM09                                                
  201.688  67%   0.153 Lip20                                               
 1.71E+03  18%   1.302 MM20                                                
  337.825  42%   0.257 MM12                                                
 1.39E+03  22%   1.056 MM14                                                
  432.079  39%   0.328 MM17                                                
 1.43E+03  31%   1.084 Lip13a+Lip13b                                       
 3.15E+03  12%   2.397 MM14+Lip13a+Lip13b+MM12                             
 1.05E+03  15%   0.800 MM09+Lip09                                          
 1.91E+03  15%   1.455 MM20+Lip20                                          
   6 lines in following misc. output table
  FWHM = 0.069 ppm    S/N =  14                                            
  Data shift = 0.031 ppm                                                   
  Ph: -58 deg     -18.1 deg/ppm                                            
  alphaB,S = 7.8E-01,   9.6E+01                                            
   14 spline knots.   Ns = 9(1)                                            
  (16) 4 infls.   (11) 1 extrs.                                            
  498 points on ppm-axis = NY
      4.000000     3.992357     3.984714     3.977070     3.969427     3.961784     3.954141     3.946497     3.938854     3.931211
      3.923568     3.915925     3.908281     3.900638     3.892995     3.885352     3.877708     3.870065     3.862422     3.854779
      3.847136     3.839492     3.831849     3.824206     3.816563     3.808919     3.801276     3.793633     3.785990     3.778347
      3.770703     3.763060     3.755417     3.747774     3.740130     3.732487     3.724844     3.717201     3.709558     3.701914
      3.694271     3.686628     3.678985     3.671341     3.663698     3.656055     3.648412     3.640769     3.633125     3.625482
      3.617839     3.610196     3.602552     3.594909     3.587266     3.579623     3.571980     3.564336     3.556693     3.549050
      3.541407     3.533763     3.526120     3.518477     3.510834     3.503191     3.495547     3.487904     3.480261     3.472618
      3.464974     3.457331     3.449688     3.442045     3.434402     3.426758     3.419115     3.411472     3.403829     3.396185
      3.388542     3.380899     3.373256     3.365613     3.357969     3.350326     3.342683     3.335040     3.327396     3.319753
      3.312110     3.304467     3.296824     3.289180     3.281537     3.273894     3.266251     3.258607     3.250964     3.243321
      3.235678     3.228034     3.220391     3.212748     3.205105     3.197462     3.189818     3.182175     3.174532     3.166889
      3.159245     3.151602     3.143959     3.136316     3.128673     3.121029     3.113386     3.105743     3.098100     3.090456
      3.082813     3.075170     3.067527     3.059884     3.052240     3.044597     3.036954     3.029311     3.021667     3.014024
      3.006381     2.998738     2.991095     2.983451     2.975808     2.968165     2.960522     2.952878     2.945235     2.937592
      2.929949     2.922306     2.914662     2.907019     2.899376     2.891733     2.884089     2.876446     2.868803     2.861160
      2.853517     2.845873     2.838230     2.830587     2.822944     2.815300     2.807657     2.800014     2.792371     2.784728
      2.777084     2.769441     2.761798     2.754155     2.746511     2.738868     2.731225     2.723582     2.715939     2.708295
      2.700652     2.693009     2.685366     2.677722     2.670079     2.662436     2.654793     2.647150     2.639506     2.631863
      2.624220     2.616577     2.608933     2.601290     2.593647     2.586004     2.578361     2.570717     2.563074     2.555431
      2.547788     2.540144     2.532501     2.524858     2.517215     2.509572     2.501928     2.494285     2.486642     2.478999
      2.471355     2.463712     2.456069     2.448426     2.440783     2.433139     2.425496     2.417853     2.410210     2.402566
      2.394923     2.387280     2.379637     2.371994     2.364350     2.356707     2.349064     2.341421     2.333777     2.326134
      2.318491     2.310848     2.303205     2.295561     2.287918     2.280275     2.272632     2.264988     2.257345     2.249702
      2.242059     2.234416     2.226772     2.219129     2.211486     2.203843     2.196199     2.188556     2.180913     2.173270
      2.165627     2.157983     2.150340     2.142697     2.135054     2.127410     2.119767     2.112124     2.104481     2.096838
      2.089194     2.081551     2.073908     2.066265     2.058621     2.050978     2.043335     2.035692     2.028049     2.020405
      2.012762     2.005119     1.997476     1.989833     1.982190     1.974546     1.966903     1.959260     1.951617     1.943974
      1.936331     1.928688     1.921045     1.913402     1.905759     1.898115     1.890472     1.882829     1.875186     1.867543
      1.859900     1.852257     1.844614     1.836971     1.829327     1.821684     1.814041     1.806398     1.798755     1.791112
      1.783469     1.775826     1.768183     1.760540     1.752896     1.745253     1.737610     1.729967     1.722324     1.714681
      1.707038     1.699395     1.691752     1.684108     1.676465     1.668822     1.661179     1.653536     1.645893     1.638250
      1.630607     1.622964     1.615321     1.607677     1.600034     1.592391     1.584748     1.577105     1.569462     1.561819
      1.554176     1.546533     1.538890     1.531246     1.523603     1.515960     1.508317     1.500674     1.493031     1.485388
      1.477745     1.470102     1.462458     1.454815     1.447172     1.439529     1.431886     1.424243     1.416600     1.408957
      1.401314     1.393671     1.386027     1.378384     1.370741     1.363098     1.355455     1.347812     1.340169     1.332526
      1.324883     1.317240     1.309596     1.301953     1.294310     1.286667     1.279024     1.271381     1.263738     1.256095
      1.248452     1.240808     1.233165     1.225522     1.217879     1.210236     1.202593     1.194950     1.187307     1.179664
      1.172021     1.164377     1.156734     1.149091     1.141448     1.133805     1.126162     1.118519     1.110876     1.103233
      1.095590     1.087946     1.080303     1.072660     1.065017     1.057374     1.049731     1.042088     1.034445     1.026802
      1.019158     1.011515     1.003872     0.996229     0.988586     0.980943     0.973300     0.965657     0.958014     0.950371
      0.942727     0.935084     0.927441     0.919798     0.912155     0.904512     0.896869     0.889226     0.881583     0.873940
      0.866296     0.858653     0.851010     0.843367     0.835724     0.828081     0.820438     0.812795     0.805152     0.797508
      0.789865     0.782222     0.774579     0.766936     0.759293     0.751650     0.744007     0.736364     0.728721     0.721077
      0.713434     0.705791     0.698148     0.690505     0.682862     0.675219     0.667576     0.659933     0.652290     0.644646
      0.637003     0.629360     0.621717     0.614074     0.606431     0.598788     0.591145     0.583502     0.575858     0.568215
      0.560572     0.552929     0.545286     0.537643     0.530000     0.522357     0.514714     0.507071     0.499427     0.491784
      0.484141     0.476498     0.468855     0.461212     0.453569     0.445925     0.438282     0.430639     0.422996     0.415353
      0.407710     0.400067     0.392424     0.384780     0.377137     0.369494     0.361851     0.354208     0.346565     0.338922
      0.331278     0.323635     0.315992     0.308349     0.300706     0.293063     0.285420     0.277777     0.270133     0.262490
      0.254847     0.247204     0.239561     0.231918     0.224275     0.216631     0.208988     0.201345
 NY phased data points follow
  -3.67971E+01 -3.70397E+01 -3.84014E+01 -3.34380E+01 -3.42574E+01 -2.54240E+01 -2.47935E+01 -2.29989E+01 -1.92065E+01 -1.59986E+01
  -1.48055E+01 -1.47388E+01 -1.68902E+01 -1.96227E+01 -2.18831E+01 -2.69723E+01 -2.79050E+01 -3.21068E+01 -3.20760E+01 -3.18077E+01
  -3.24593E+01 -3.20322E+01 -3.10557E+01 -2.98054E+01 -3.05922E+01 -2.77383E+01 -2.64537E+01 -2.45376E+01 -2.24716E+01 -2.12953E+01
  -2.15310E+01 -2.27285E+01 -2.50975E+01 -2.24167E+01 -2.42629E+01 -2.51809E+01 -2.30735E+01 -2.27618E+01 -2.49745E+01 -2.21836E+01
  -2.21989E+01 -2.37607E+01 -2.51480E+01 -2.00343E+01 -1.99211E+01 -1.88686E+01 -1.75933E+01 -1.84518E+01 -1.57395E+01 -1.80995E+01
  -1.85425E+01 -2.34748E+01 -2.16154E+01 -2.20856E+01 -2.36792E+01 -2.55103E+01 -1.95267E+01 -2.27118E+01 -2.24558E+01 -2.30366E+01
  -2.28848E+01 -2.30260E+01 -2.25120E+01 -2.27851E+01 -2.46875E+01 -2.27508E+01 -2.32644E+01 -2.46862E+01 -2.41732E+01 -2.22022E+01
  -2.44264E+01 -2.10059E+01 -2.36886E+01 -2.38075E+01 -2.27823E+01 -2.10587E+01 -2.20126E+01 -1.62713E+01 -1.71212E+01 -1.83906E+01
  -2.09185E+01 -1.85250E+01 -1.98025E+01 -1.89695E+01 -1.90404E+01 -1.82726E+01 -1.90036E+01 -1.86865E+01 -1.67639E+01 -1.62434E+01
  -1.68342E+01 -1.56969E+01 -1.40991E+01 -1.35280E+01 -1.48521E+01 -1.24959E+01 -7.75327E+00 -6.91441E+00 -6.42875E+00 -3.09797E+00
   6.53155E-01  4.53435E+00  5.80134E+00  7.94134E+00  5.54001E+00  8.42312E+00  4.05981E+00 -7.19119E-01 -3.59618E+00 -6.58867E+00
  -8.87655E+00 -1.07420E+01 -1.44518E+01 -1.14065E+01 -9.36667E+00 -1.27554E+01 -1.32594E+01 -1.23731E+01 -8.31834E+00 -7.53492E+00
  -7.29054E+00 -8.24951E+00 -4.06432E+00  3.03833E+00  6.53902E+00  1.20522E+01  1.46795E+01  1.74280E+01  1.44981E+01  1.60027E+01
   1.11785E+01  8.84271E+00  1.78364E+00 -5.79456E+00 -3.85243E+00 -7.30418E+00 -1.10746E+01 -1.16205E+01 -1.35550E+01 -1.34678E+01
  -1.65679E+01 -1.46472E+01 -1.23530E+01 -1.65698E+01 -1.57416E+01 -1.23540E+01 -1.36096E+01 -1.20104E+01 -1.41399E+01 -1.33103E+01
  -8.89428E+00 -1.40309E+01 -1.42832E+01 -1.41557E+01 -8.53581E+00 -1.57906E+01 -1.31008E+01 -1.33686E+01 -1.26866E+01 -1.32870E+01
  -1.39248E+01 -1.28345E+01 -1.47476E+01 -1.81751E+01 -1.34063E+01 -1.51835E+01 -1.39555E+01 -1.52120E+01 -1.66248E+01 -1.37586E+01
  -1.66575E+01 -1.61380E+01 -1.80186E+01 -1.78125E+01 -2.18033E+01 -2.07930E+01 -2.05181E+01 -2.05098E+01 -1.99219E+01 -2.12472E+01
  -1.92574E+01 -1.64023E+01 -1.49490E+01 -1.79689E+01 -1.47950E+01 -1.41464E+01 -1.23387E+01 -1.27562E+01 -1.40936E+01 -1.13568E+01
  -1.13454E+01 -8.28949E+00 -9.10740E+00 -1.01220E+01 -7.00618E+00 -5.43696E+00 -9.48248E+00 -8.63081E+00 -7.90169E+00 -7.91911E+00
  -8.45171E+00 -6.98561E+00 -6.12554E+00 -4.11696E+00 -5.56420E+00 -5.92507E+00 -6.16214E+00 -8.79931E+00 -7.56916E+00 -9.03109E+00
  -6.18069E+00 -6.76705E+00 -6.68967E+00 -4.37980E+00 -3.06266E+00 -3.03596E+00 -2.54869E+00  8.01596E-01 -4.17262E-01 -5.25964E+00
  -2.44559E+00 -3.46567E+00 -6.41710E+00 -6.66960E+00 -7.03681E+00 -4.67593E+00 -3.92730E+00 -4.13986E-01 -1.41535E+00 -8.51739E-01
  -1.15709E+00  1.68087E+00  1.03298E+00  1.32079E+00 -1.97040E+00 -1.45680E+00 -1.87788E+00 -1.97010E+00  2.71940E-01  2.22287E+00
  -1.67540E+00 -3.82444E+00 -3.95940E+00 -6.31028E+00 -9.41288E-01 -7.92360E-01 -5.87083E-01  1.37413E+00  4.71282E+00  3.21585E+00
   4.59130E+00  1.00921E+01  1.40460E+01  1.66350E+01  2.07886E+01  2.40723E+01  3.23164E+01  3.68803E+01  4.58682E+01  5.24885E+01
   5.89700E+01  5.67783E+01  5.59179E+01  4.91749E+01  4.37454E+01  3.30631E+01  2.67151E+01  1.78291E+01  1.02830E+01  7.88683E+00
   5.83721E+00  5.57384E+00  3.42314E+00  3.51194E+00  3.27716E+00  6.45583E-01  1.93198E+00  7.04003E-01  1.37782E+00 -3.99409E-01
  -1.18658E-01 -2.30109E-01 -9.45678E-01 -1.38933E+00 -2.72924E+00 -2.19672E+00 -1.33207E+00 -3.54287E+00 -1.78432E+00  6.04622E-01
  -1.98868E+00 -2.98957E+00 -1.01992E+00 -1.88193E-02  1.70943E+00 -2.46605E+00 -2.32566E+00 -1.99999E+00 -2.45221E+00  7.73485E-01
   3.03723E+00  8.81462E-01  2.19561E+00  2.25653E+00  2.27021E+00  1.28488E+00  1.95103E-01  3.29337E+00  4.64531E-01  6.52795E+00
   4.71853E+00  4.65062E+00  4.38116E+00  4.14966E+00  7.56658E+00  3.92614E+00  6.43134E+00  4.50523E+00  7.24535E+00  3.14873E+00
   1.72383E+00  4.67549E+00  7.35369E+00  4.81543E+00  6.26838E+00  6.89929E+00  4.62970E+00  9.91612E+00  6.46730E+00  7.80379E+00
   8.07395E+00  6.79660E+00  1.17266E+01  9.68758E+00  1.18303E+01  1.10256E+01  1.21733E+01  9.06135E+00  1.05736E+01  1.27421E+01
   1.16803E+01  1.38033E+01  8.49075E+00  1.35844E+01  9.88264E+00  1.20869E+01  1.22531E+01  1.10104E+01  1.36416E+01  9.09069E+00
   6.70223E+00  1.03320E+01  7.14755E+00  1.14070E+01  1.22408E+01  1.25812E+01  8.15727E+00  7.81032E+00  8.34499E+00  1.02945E+01
   9.84273E+00  1.01092E+01  1.01750E+01  6.66319E+00  1.08671E+01  1.09256E+01  1.08235E+01  1.08895E+01  9.48040E+00  9.01217E+00
   6.85875E+00  1.24732E+01  8.04118E+00  6.67482E+00  4.75896E+00  4.39458E+00  8.56081E+00  8.01409E+00  5.45644E+00  5.45401E+00
   6.82390E+00  4.28378E+00  4.39614E+00  5.48926E+00  5.18021E+00  5.63089E+00  4.48999E+00  3.73088E+00  3.07702E+00  4.05975E+00
   6.03177E+00  6.40587E+00  8.28897E+00  7.62395E+00  8.71979E+00  6.29462E+00  8.15022E+00  1.13212E+01  4.61206E+00  8.01724E+00
   7.55208E+00  6.65484E+00  9.86271E+00  8.74151E+00  9.44226E+00  9.56324E+00  1.06020E+01  9.93415E+00  1.15993E+01  1.03149E+01
   1.20755E+01  1.04573E+01  9.90060E+00  8.51615E+00  1.23597E+01  9.06925E+00  7.87322E+00  1.12498E+01  8.46853E+00  1.05154E+01
   9.84289E+00  7.43221E+00  5.83045E+00  4.14033E+00  4.14892E+00  4.22170E+00  6.38487E+00  4.95030E+00  4.21024E+00  5.64424E+00
   6.36818E+00  3.62019E+00  3.75008E+00  3.98627E+00  5.03969E+00  3.74613E+00  5.04940E+00  8.47526E+00  3.67613E+00  3.58164E+00
   5.29288E+00  3.99803E+00  5.07986E+00  4.01732E+00  2.96868E+00  3.77229E+00  4.39095E+00  7.61106E+00  5.98475E+00  3.49560E+00
   5.27581E+00  6.23570E+00  3.31228E+00  2.81811E+00  6.50533E+00  7.78225E+00  3.44933E+00  4.25106E+00  7.92332E+00  3.97502E+00
   6.06867E+00  5.25274E+00  2.74722E+00  4.50000E+00  3.43705E+00  4.98965E+00  2.75999E+00  6.70060E+00  2.02516E+00  1.86522E+00
   3.77040E+00  6.71965E+00  2.85481E+00  5.05303E+00  2.68365E+00  5.21549E+00  6.72027E+00  3.22376E+00  1.25689E+00  5.98625E-01
   4.83319E+00  3.30301E+00  4.75274E+00  4.05999E+00  3.42082E+00  3.03352E+00  2.61273E+00  9.63189E-01  3.01992E+00  3.55649E+00
   4.19455E+00  3.77123E+00  5.39840E+00  5.48627E+00  5.49760E+00  5.53494E+00  3.76678E+00  4.15743E+00
 NY points of the fit to the data follow
  -3.50587E+01 -3.39120E+01 -3.29516E+01 -3.17936E+01 -3.01010E+01 -2.78382E+01 -2.50577E+01 -2.20444E+01 -1.93398E+01 -1.74795E+01
  -1.66482E+01 -1.68187E+01 -1.79660E+01 -1.98885E+01 -2.22425E+01 -2.46595E+01 -2.68199E+01 -2.84876E+01 -2.97154E+01 -3.09376E+01
  -3.14270E+01 -3.09703E+01 -3.03864E+01 -2.99636E+01 -2.94928E+01 -2.86044E+01 -2.72811E+01 -2.57429E+01 -2.39833E+01 -2.22896E+01
  -2.11200E+01 -2.04933E+01 -2.04251E+01 -2.09983E+01 -2.21222E+01 -2.35765E+01 -2.50137E+01 -2.58314E+01 -2.57261E+01 -2.55062E+01
  -2.56008E+01 -2.52703E+01 -2.42568E+01 -2.27530E+01 -2.11327E+01 -1.96703E+01 -1.86243E+01 -1.83082E+01 -1.86825E+01 -1.94592E+01
  -2.05314E+01 -2.18140E+01 -2.30594E+01 -2.40750E+01 -2.45919E+01 -2.46002E+01 -2.43991E+01 -2.40646E+01 -2.34792E+01 -2.28589E+01
  -2.24525E+01 -2.23305E+01 -2.23483E+01 -2.24441E+01 -2.25810E+01 -2.26980E+01 -2.26043E+01 -2.21689E+01 -2.16595E+01 -2.12374E+01
  -2.08623E+01 -2.05602E+01 -2.02991E+01 -2.00687E+01 -1.98932E+01 -1.98519E+01 -1.99900E+01 -2.01937E+01 -2.00125E+01 -1.98320E+01
  -1.98555E+01 -1.98714E+01 -1.96080E+01 -1.90313E+01 -1.82960E+01 -1.76516E+01 -1.72217E+01 -1.69800E+01 -1.69885E+01 -1.71388E+01
  -1.73120E+01 -1.75564E+01 -1.77698E+01 -1.71408E+01 -1.47563E+01 -1.24499E+01 -1.10505E+01 -9.70962E+00 -7.20244E+00 -3.52766E+00
   5.93640E-01  4.55151E+00  7.55282E+00  8.97839E+00  8.85336E+00  7.30737E+00  4.36857E+00  4.88634E-01 -3.66957E+00 -7.50326E+00
  -1.04993E+01 -1.25494E+01 -1.42651E+01 -1.60478E+01 -1.69196E+01 -1.70618E+01 -1.68250E+01 -1.55472E+01 -1.21993E+01 -9.24488E+00
  -7.45656E+00 -5.52275E+00 -2.29073E+00  2.17156E+00  7.15992E+00  1.18834E+01  1.52963E+01  1.67745E+01  1.64734E+01  1.46467E+01
   1.13191E+01  6.84372E+00  2.05462E+00 -2.40024E+00 -6.04616E+00 -8.63820E+00 -1.08040E+01 -1.30331E+01 -1.39553E+01 -1.39446E+01
  -1.36410E+01 -1.32574E+01 -1.29416E+01 -1.27878E+01 -1.27467E+01 -1.27696E+01 -1.28801E+01 -1.30119E+01 -1.31367E+01 -1.32819E+01
  -1.34057E+01 -1.35477E+01 -1.37589E+01 -1.39312E+01 -1.39783E+01 -1.39206E+01 -1.38024E+01 -1.37964E+01 -1.39445E+01 -1.41232E+01
  -1.42275E+01 -1.42377E+01 -1.41951E+01 -1.41389E+01 -1.40933E+01 -1.41035E+01 -1.42146E+01 -1.44596E+01 -1.47900E+01 -1.50404E+01
  -1.52428E+01 -1.54482E+01 -1.57727E+01 -1.60979E+01 -1.62704E+01 -1.63530E+01 -1.63622E+01 -1.63233E+01 -1.63174E+01 -1.62089E+01
  -1.58711E+01 -1.54182E+01 -1.49845E+01 -1.46185E+01 -1.42901E+01 -1.38392E+01 -1.31862E+01 -1.23859E+01 -1.15741E+01 -1.08364E+01
  -1.01237E+01 -9.44564E+00 -8.95930E+00 -8.80100E+00 -8.84845E+00 -8.75845E+00 -8.51733E+00 -8.11116E+00 -7.58706E+00 -7.05276E+00
  -6.59903E+00 -6.13748E+00 -5.56139E+00 -5.24544E+00 -5.60258E+00 -6.42682E+00 -7.35133E+00 -8.09258E+00 -8.62140E+00 -9.11694E+00
  -9.30777E+00 -8.95085E+00 -7.97874E+00 -6.72539E+00 -5.61575E+00 -4.57702E+00 -3.68992E+00 -3.32208E+00 -3.54568E+00 -4.20026E+00
  -5.18336E+00 -6.26305E+00 -7.04786E+00 -7.23487E+00 -6.79289E+00 -5.97933E+00 -5.15723E+00 -4.20112E+00 -3.01247E+00 -2.05356E+00
  -1.55865E+00 -1.31161E+00 -1.11093E+00 -9.60845E-01 -8.46903E-01 -6.26159E-01 -1.84743E-01  2.43136E-01  4.01366E-01  2.57375E-01
  -9.51895E-02 -4.88303E-01 -8.79350E-01 -1.19498E+00 -1.15597E+00 -6.50187E-01  7.24577E-02  8.61087E-01  1.78390E+00  2.76658E+00
   4.19205E+00  8.34725E+00  1.46898E+01  1.88851E+01  2.16038E+01  2.53457E+01  3.13165E+01  3.86860E+01  4.62621E+01  5.28249E+01
   5.68155E+01  5.75388E+01  5.53683E+01  5.04515E+01  4.30058E+01  3.42747E+01  2.57469E+01  1.84689E+01  1.31401E+01  9.38270E+00
   5.56740E+00  2.27308E+00  1.10246E+00  6.81083E-01  4.40547E-01  2.84254E-01  1.90986E-01  8.94061E-02 -2.25244E-02 -1.40648E-01
  -2.61925E-01 -3.73804E-01 -4.61374E-01 -5.31658E-01 -5.90330E-01 -6.28208E-01 -6.40534E-01 -6.32722E-01 -6.09528E-01 -5.72332E-01
  -5.17953E-01 -4.42926E-01 -3.52329E-01 -2.45071E-01 -1.18363E-01  2.89670E-02  1.96531E-01  3.83123E-01  5.88110E-01  8.10570E-01
   1.04801E+00  1.29811E+00  1.55815E+00  1.82399E+00  2.09134E+00  2.35637E+00  2.61532E+00  2.86457E+00  3.10105E+00  3.32252E+00
   3.52797E+00  3.71762E+00  3.89294E+00  4.05613E+00  4.21042E+00  4.36025E+00  4.51067E+00  4.66703E+00  4.83470E+00  5.01858E+00
   5.22288E+00  5.45086E+00  5.70478E+00  5.98556E+00  6.29264E+00  6.62389E+00  6.97589E+00  7.34410E+00  7.72328E+00  8.10750E+00
   8.49058E+00  8.86632E+00  9.22919E+00  9.57480E+00  9.90068E+00  1.02071E+01  1.04998E+01  1.07993E+01  1.11430E+01  1.14047E+01
   1.14910E+01  1.15334E+01  1.16084E+01  1.16793E+01  1.16578E+01  1.15108E+01  1.13552E+01  1.11517E+01  1.08024E+01  1.03614E+01
   9.93962E+00  9.63906E+00  9.52425E+00  9.61477E+00  9.87096E+00  1.01966E+01  1.04842E+01  1.06674E+01  1.07784E+01  1.07970E+01
   1.06604E+01  1.04095E+01  1.00999E+01  9.78851E+00  9.48372E+00  9.11829E+00  8.74417E+00  8.41327E+00  8.10304E+00  7.80438E+00
   7.51559E+00  7.23733E+00  6.97128E+00  6.71940E+00  6.48379E+00  6.26637E+00  6.06891E+00  5.89294E+00  5.73988E+00  5.61087E+00
   5.50695E+00  5.42891E+00  5.37754E+00  5.35348E+00  5.35746E+00  5.39006E+00  5.45191E+00  5.54345E+00  5.66514E+00  5.81720E+00
   5.99967E+00  6.21213E+00  6.45372E+00  6.72290E+00  7.01748E+00  7.33440E+00  7.66974E+00  8.01857E+00  8.37505E+00  8.73243E+00
   9.08337E+00  9.41992E+00  9.73398E+00  1.00174E+01  1.02624E+01  1.04621E+01  1.06107E+01  1.07035E+01  1.07379E+01  1.07125E+01
   1.06280E+01  1.04870E+01  1.02935E+01  1.00531E+01  9.77242E+00  9.45894E+00  9.12061E+00  8.76544E+00  8.40128E+00  8.03538E+00
   7.67429E+00  7.32357E+00  6.98789E+00  6.67080E+00  6.37492E+00  6.10181E+00  5.85223E+00  5.62618E+00  5.42316E+00  5.24216E+00
   5.08188E+00  4.94073E+00  4.81709E+00  4.70922E+00  4.61554E+00  4.53444E+00  4.46448E+00  4.40424E+00  4.35254E+00  4.30824E+00
   4.27046E+00  4.23831E+00  4.21107E+00  4.18806E+00  4.16874E+00  4.15262E+00  4.13934E+00  4.12850E+00  4.11981E+00  4.11294E+00
   4.10771E+00  4.10389E+00  4.10136E+00  4.09991E+00  4.09943E+00  4.09978E+00  4.10090E+00  4.10271E+00  4.10515E+00  4.10812E+00
   4.11157E+00  4.11543E+00  4.11971E+00  4.12434E+00  4.12932E+00  4.13457E+00  4.14008E+00  4.14581E+00  4.15180E+00  4.15799E+00
   4.16440E+00  4.17095E+00  4.17768E+00  4.18455E+00  4.19163E+00  4.19884E+00  4.20621E+00  4.21369E+00  4.22132E+00  4.22910E+00
   4.23705E+00  4.24513E+00  4.25336E+00  4.26170E+00  4.27022E+00  4.27891E+00  4.28780E+00  4.29683E+00  4.30605E+00  4.31544E+00
   4.32507E+00  4.33492E+00  4.34503E+00  4.35535E+00  4.36595E+00  4.37682E+00  4.38805E+00  4.39963E+00
 NY background values follow
    -4.202E+01   -4.180E+01   -4.157E+01   -4.135E+01   -4.112E+01   -4.090E+01   -4.067E+01   -4.045E+01   -4.022E+01   -4.000E+01
    -3.978E+01   -3.955E+01   -3.933E+01   -3.910E+01   -3.888E+01   -3.866E+01   -3.843E+01   -3.821E+01   -3.799E+01   -3.776E+01
    -3.754E+01   -3.732E+01   -3.710E+01   -3.688E+01   -3.665E+01   -3.643E+01   -3.621E+01   -3.599E+01   -3.577E+01   -3.555E+01
    -3.533E+01   -3.512E+01   -3.490E+01   -3.468E+01   -3.446E+01   -3.425E+01   -3.403E+01   -3.381E+01   -3.360E+01   -3.338E+01
    -3.317E+01   -3.296E+01   -3.274E+01   -3.253E+01   -3.232E+01   -3.211E+01   -3.190E+01   -3.169E+01   -3.148E+01   -3.127E+01
    -3.106E+01   -3.086E+01   -3.065E+01   -3.045E+01   -3.024E+01   -3.004E+01   -2.984E+01   -2.963E+01   -2.943E+01   -2.923E+01
    -2.903E+01   -2.883E+01   -2.863E+01   -2.844E+01   -2.824E+01   -2.805E+01   -2.785E+01   -2.766E+01   -2.746E+01   -2.727E+01
    -2.708E+01   -2.689E+01   -2.670E+01   -2.652E+01   -2.633E+01   -2.614E+01   -2.596E+01   -2.577E+01   -2.559E+01   -2.541E+01
    -2.523E+01   -2.505E+01   -2.487E+01   -2.469E+01   -2.452E+01   -2.434E+01   -2.417E+01   -2.399E+01   -2.382E+01   -2.365E+01
    -2.348E+01   -2.331E+01   -2.314E+01   -2.298E+01   -2.281E+01   -2.265E+01   -2.249E+01   -2.232E+01   -2.216E+01   -2.201E+01
    -2.185E+01   -2.169E+01   -2.153E+01   -2.138E+01   -2.122E+01   -2.107E+01   -2.092E+01   -2.077E+01   -2.062E+01   -2.047E+01
    -2.032E+01   -2.018E+01   -2.003E+01   -1.989E+01   -1.974E+01   -1.960E+01   -1.946E+01   -1.932E+01   -1.918E+01   -1.904E+01
    -1.890E+01   -1.877E+01   -1.863E+01   -1.850E+01   -1.836E+01   -1.823E+01   -1.810E+01   -1.797E+01   -1.784E+01   -1.771E+01
    -1.758E+01   -1.745E+01   -1.733E+01   -1.720E+01   -1.708E+01   -1.695E+01   -1.683E+01   -1.671E+01   -1.659E+01   -1.647E+01
    -1.635E+01   -1.623E+01   -1.611E+01   -1.599E+01   -1.587E+01   -1.576E+01   -1.564E+01   -1.553E+01   -1.541E+01   -1.530E+01
    -1.518E+01   -1.507E+01   -1.496E+01   -1.485E+01   -1.474E+01   -1.463E+01   -1.451E+01   -1.440E+01   -1.430E+01   -1.419E+01
    -1.408E+01   -1.397E+01   -1.386E+01   -1.375E+01   -1.364E+01   -1.354E+01   -1.343E+01   -1.332E+01   -1.322E+01   -1.311E+01
    -1.300E+01   -1.290E+01   -1.279E+01   -1.268E+01   -1.258E+01   -1.247E+01   -1.236E+01   -1.226E+01   -1.215E+01   -1.205E+01
    -1.194E+01   -1.183E+01   -1.173E+01   -1.162E+01   -1.151E+01   -1.141E+01   -1.130E+01   -1.119E+01   -1.109E+01   -1.098E+01
    -1.087E+01   -1.077E+01   -1.066E+01   -1.056E+01   -1.045E+01   -1.034E+01   -1.024E+01   -1.013E+01   -1.003E+01   -9.922E+00
    -9.817E+00   -9.713E+00   -9.609E+00   -9.505E+00   -9.402E+00   -9.299E+00   -9.197E+00   -9.094E+00   -8.993E+00   -8.892E+00
    -8.791E+00   -8.691E+00   -8.591E+00   -8.492E+00   -8.393E+00   -8.296E+00   -8.198E+00   -8.102E+00   -8.006E+00   -7.910E+00
    -7.816E+00   -7.722E+00   -7.629E+00   -7.536E+00   -7.445E+00   -7.354E+00   -7.264E+00   -7.175E+00   -7.087E+00   -6.999E+00
    -6.913E+00   -6.827E+00   -6.742E+00   -6.657E+00   -6.574E+00   -6.491E+00   -6.409E+00   -6.327E+00   -6.247E+00   -6.167E+00
    -6.087E+00   -6.009E+00   -5.931E+00   -5.853E+00   -5.777E+00   -5.700E+00   -5.625E+00   -5.550E+00   -5.475E+00   -5.402E+00
    -5.328E+00   -5.255E+00   -5.183E+00   -5.111E+00   -5.040E+00   -4.969E+00   -4.899E+00   -4.829E+00   -4.759E+00   -4.690E+00
    -4.621E+00   -4.553E+00   -4.485E+00   -4.417E+00   -4.350E+00   -4.283E+00   -4.216E+00   -4.150E+00   -4.084E+00   -4.018E+00
    -3.952E+00   -3.887E+00   -3.822E+00   -3.757E+00   -3.693E+00   -3.628E+00   -3.564E+00   -3.501E+00   -3.437E+00   -3.373E+00
    -3.310E+00   -3.247E+00   -3.185E+00   -3.122E+00   -3.060E+00   -2.998E+00   -2.936E+00   -2.875E+00   -2.813E+00   -2.752E+00
    -2.691E+00   -2.631E+00   -2.570E+00   -2.510E+00   -2.450E+00   -2.391E+00   -2.331E+00   -2.272E+00   -2.213E+00   -2.154E+00
    -2.095E+00   -2.037E+00   -1.979E+00   -1.921E+00   -1.863E+00   -1.806E+00   -1.749E+00   -1.692E+00   -1.635E+00   -1.578E+00
    -1.522E+00   -1.466E+00   -1.410E+00   -1.354E+00   -1.299E+00   -1.244E+00   -1.189E+00   -1.134E+00   -1.079E+00   -1.025E+00
    -9.708E-01   -9.169E-01   -8.632E-01   -8.098E-01   -7.566E-01   -7.037E-01   -6.510E-01   -5.986E-01   -5.464E-01   -4.945E-01
    -4.428E-01   -3.914E-01   -3.403E-01   -2.894E-01   -2.388E-01   -1.884E-01   -1.383E-01   -8.854E-02   -3.903E-02    1.021E-02
     5.916E-02    1.078E-01    1.562E-01    2.043E-01    2.520E-01    2.995E-01    3.467E-01    3.936E-01    4.401E-01    4.864E-01
     5.323E-01    5.780E-01    6.233E-01    6.683E-01    7.129E-01    7.572E-01    8.012E-01    8.449E-01    8.882E-01    9.312E-01
     9.739E-01    1.016E+00    1.058E+00    1.100E+00    1.141E+00    1.182E+00    1.223E+00    1.263E+00    1.303E+00    1.342E+00
     1.382E+00    1.421E+00    1.459E+00    1.498E+00    1.536E+00    1.573E+00    1.611E+00    1.648E+00    1.685E+00    1.721E+00
     1.758E+00    1.794E+00    1.829E+00    1.865E+00    1.900E+00    1.935E+00    1.970E+00    2.004E+00    2.038E+00    2.072E+00
     2.106E+00    2.139E+00    2.172E+00    2.205E+00    2.238E+00    2.270E+00    2.302E+00    2.334E+00    2.366E+00    2.398E+00
     2.429E+00    2.460E+00    2.491E+00    2.522E+00    2.553E+00    2.583E+00    2.613E+00    2.643E+00    2.673E+00    2.703E+00
     2.732E+00    2.761E+00    2.790E+00    2.819E+00    2.848E+00    2.876E+00    2.904E+00    2.932E+00    2.960E+00    2.988E+00
     3.015E+00    3.042E+00    3.069E+00    3.095E+00    3.122E+00    3.148E+00    3.174E+00    3.199E+00    3.225E+00    3.250E+00
     3.275E+00    3.299E+00    3.324E+00    3.348E+00    3.372E+00    3.395E+00    3.418E+00    3.441E+00    3.464E+00    3.486E+00
     3.508E+00    3.530E+00    3.551E+00    3.573E+00    3.593E+00    3.614E+00    3.634E+00    3.654E+00    3.674E+00    3.693E+00
     3.712E+00    3.730E+00    3.748E+00    3.766E+00    3.784E+00    3.801E+00    3.818E+00    3.835E+00    3.851E+00    3.867E+00
     3.883E+00    3.898E+00    3.914E+00    3.929E+00    3.944E+00    3.958E+00    3.972E+00    3.987E+00    4.001E+00    4.014E+00
     4.028E+00    4.041E+00    4.055E+00    4.068E+00    4.081E+00    4.094E+00    4.106E+00    4.119E+00    4.132E+00    4.144E+00
     4.156E+00    4.169E+00    4.181E+00    4.193E+00    4.205E+00    4.217E+00    4.230E+00    4.242E+00    4.254E+00    4.266E+00
     4.278E+00    4.290E+00    4.302E+00    4.314E+00    4.327E+00    4.339E+00    4.352E+00    4.364E+00
 Cr       Conc. = 3.04E+02
