 LCModel (Version 6.3-1L) Copyright: S.W. Provencher.          Ref.: Magn. Reson. Med. 30:672-679 (1993).                
 Slice#3 Row#11 Col#3  PD_05_press_1_raw_act
 36 lines in following concentration table = NCONC+1
    Conc.  %SD /Cr+PCr  Metabolite                                         
 2.99E+03  34%   0.000 Ala                                                 
   38.310  65%   0.000 Asp                                                 
    0.000 999%   0.000 Cr                                                  
    0.000 999%   0.000 PCr                                                 
   20.607  73%   0.000 GABA                                                
   23.364  65%   0.000 Glc                                                 
    0.000 999%   0.000 Gln                                                 
 2.29E+04   6%   0.000 Glu                                                 
  128.383  29%   0.000 GPC                                                 
    0.000 999%   0.000 PCh                                                 
    0.000 999%   0.000 GSH                                                 
 3.53E+03  14%   0.000 Ins                                                 
  846.494 137%   0.000 Lac                                                 
  322.226  42%   0.000 NAA                                                 
    0.000 999%   0.000 NAAG                                                
    9.497  53%   0.000 Scyllo                                              
   42.598  59%   0.000 Tau                                                 
    0.000 999%   0.000 -CrCH2                                              
  128.383  29%   0.000 GPC+PCh                                             
  322.226  42%   0.000 NAA+NAAG                                            
    0.000 999%   0.000 Cr+PCr                                              
 2.29E+04   6%   0.000 Glu+Gln                                             
 2.24E+04  17%   0.000 Lip13a                                              
    0.000 999%   0.000 Lip13b                                              
    0.000 999%   0.000-Lip09                                               
    0.000 999%   0.000 MM09                                                
    0.000 999%   0.000-Lip20                                               
    0.000 999%   0.000 MM20                                                
    3.890 999%   0.000 MM12                                                
  958.109  47%   0.000 MM14                                                
  922.374  30%   0.000+MM17                                                
 2.24E+04  17%   0.000 Lip13a+Lip13b                                       
 2.34E+04  16%   0.000 MM14+Lip13a+Lip13b+MM12                             
    0.000 999%   0.000 MM09+Lip09                                          
    0.000 999%   0.000 MM20+Lip20                                          
   6 lines in following misc. output table
  FWHM = 0.183 ppm    S/N =  10                                            
  Data shift =-0.092 ppm                                                   
  Ph: -63 deg      43.6 deg/ppm                                            
  alphaB,S = 5.2E-01,   4.1E+02                                            
   10 spline knots.   Ns = 9(2)                                            
  (13) 5 infls.   ( 5) 1 extrs.                                            
  498 points on ppm-axis = NY
      4.000000     3.992357     3.984714     3.977070     3.969427     3.961784     3.954141     3.946497     3.938854     3.931211
      3.923568     3.915925     3.908281     3.900638     3.892995     3.885352     3.877708     3.870065     3.862422     3.854779
      3.847136     3.839492     3.831849     3.824206     3.816563     3.808919     3.801276     3.793633     3.785990     3.778347
      3.770703     3.763060     3.755417     3.747774     3.740130     3.732487     3.724844     3.717201     3.709558     3.701914
      3.694271     3.686628     3.678985     3.671341     3.663698     3.656055     3.648412     3.640769     3.633125     3.625482
      3.617839     3.610196     3.602552     3.594909     3.587266     3.579623     3.571980     3.564336     3.556693     3.549050
      3.541407     3.533763     3.526120     3.518477     3.510834     3.503191     3.495547     3.487904     3.480261     3.472618
      3.464974     3.457331     3.449688     3.442045     3.434402     3.426758     3.419115     3.411472     3.403829     3.396185
      3.388542     3.380899     3.373256     3.365613     3.357969     3.350326     3.342683     3.335040     3.327396     3.319753
      3.312110     3.304467     3.296824     3.289180     3.281537     3.273894     3.266251     3.258607     3.250964     3.243321
      3.235678     3.228034     3.220391     3.212748     3.205105     3.197462     3.189818     3.182175     3.174532     3.166889
      3.159245     3.151602     3.143959     3.136316     3.128673     3.121029     3.113386     3.105743     3.098100     3.090456
      3.082813     3.075170     3.067527     3.059884     3.052240     3.044597     3.036954     3.029311     3.021667     3.014024
      3.006381     2.998738     2.991095     2.983451     2.975808     2.968165     2.960522     2.952878     2.945235     2.937592
      2.929949     2.922306     2.914662     2.907019     2.899376     2.891733     2.884089     2.876446     2.868803     2.861160
      2.853517     2.845873     2.838230     2.830587     2.822944     2.815300     2.807657     2.800014     2.792371     2.784728
      2.777084     2.769441     2.761798     2.754155     2.746511     2.738868     2.731225     2.723582     2.715939     2.708295
      2.700652     2.693009     2.685366     2.677722     2.670079     2.662436     2.654793     2.647150     2.639506     2.631863
      2.624220     2.616577     2.608933     2.601290     2.593647     2.586004     2.578361     2.570717     2.563074     2.555431
      2.547788     2.540144     2.532501     2.524858     2.517215     2.509572     2.501928     2.494285     2.486642     2.478999
      2.471355     2.463712     2.456069     2.448426     2.440783     2.433139     2.425496     2.417853     2.410210     2.402566
      2.394923     2.387280     2.379637     2.371994     2.364350     2.356707     2.349064     2.341421     2.333777     2.326134
      2.318491     2.310848     2.303205     2.295561     2.287918     2.280275     2.272632     2.264988     2.257345     2.249702
      2.242059     2.234416     2.226772     2.219129     2.211486     2.203843     2.196199     2.188556     2.180913     2.173270
      2.165627     2.157983     2.150340     2.142697     2.135054     2.127410     2.119767     2.112124     2.104481     2.096838
      2.089194     2.081551     2.073908     2.066265     2.058621     2.050978     2.043335     2.035692     2.028049     2.020405
      2.012762     2.005119     1.997476     1.989833     1.982190     1.974546     1.966903     1.959260     1.951617     1.943974
      1.936331     1.928688     1.921045     1.913402     1.905759     1.898115     1.890472     1.882829     1.875186     1.867543
      1.859900     1.852257     1.844614     1.836971     1.829327     1.821684     1.814041     1.806398     1.798755     1.791112
      1.783469     1.775826     1.768183     1.760540     1.752896     1.745253     1.737610     1.729967     1.722324     1.714681
      1.707038     1.699395     1.691752     1.684108     1.676465     1.668822     1.661179     1.653536     1.645893     1.638250
      1.630607     1.622964     1.615321     1.607677     1.600034     1.592391     1.584748     1.577105     1.569462     1.561819
      1.554176     1.546533     1.538890     1.531246     1.523603     1.515960     1.508317     1.500674     1.493031     1.485388
      1.477745     1.470102     1.462458     1.454815     1.447172     1.439529     1.431886     1.424243     1.416600     1.408957
      1.401314     1.393671     1.386027     1.378384     1.370741     1.363098     1.355455     1.347812     1.340169     1.332526
      1.324883     1.317240     1.309596     1.301953     1.294310     1.286667     1.279024     1.271381     1.263738     1.256095
      1.248452     1.240808     1.233165     1.225522     1.217879     1.210236     1.202593     1.194950     1.187307     1.179664
      1.172021     1.164377     1.156734     1.149091     1.141448     1.133805     1.126162     1.118519     1.110876     1.103233
      1.095590     1.087946     1.080303     1.072660     1.065017     1.057374     1.049731     1.042088     1.034445     1.026802
      1.019158     1.011515     1.003872     0.996229     0.988586     0.980943     0.973300     0.965657     0.958014     0.950371
      0.942727     0.935084     0.927441     0.919798     0.912155     0.904512     0.896869     0.889226     0.881583     0.873940
      0.866296     0.858653     0.851010     0.843367     0.835724     0.828081     0.820438     0.812795     0.805152     0.797508
      0.789865     0.782222     0.774579     0.766936     0.759293     0.751650     0.744007     0.736364     0.728721     0.721077
      0.713434     0.705791     0.698148     0.690505     0.682862     0.675219     0.667576     0.659933     0.652290     0.644646
      0.637003     0.629360     0.621717     0.614074     0.606431     0.598788     0.591145     0.583502     0.575858     0.568215
      0.560572     0.552929     0.545286     0.537643     0.530000     0.522357     0.514714     0.507071     0.499427     0.491784
      0.484141     0.476498     0.468855     0.461212     0.453569     0.445925     0.438282     0.430639     0.422996     0.415353
      0.407710     0.400067     0.392424     0.384780     0.377137     0.369494     0.361851     0.354208     0.346565     0.338922
      0.331278     0.323635     0.315992     0.308349     0.300706     0.293063     0.285420     0.277777     0.270133     0.262490
      0.254847     0.247204     0.239561     0.231918     0.224275     0.216631     0.208988     0.201345
 NY phased data points follow
  -6.70956E+01 -6.47129E+01 -6.25922E+01 -6.39072E+01 -6.11403E+01 -6.18880E+01 -5.92477E+01 -5.91621E+01 -5.67820E+01 -5.70234E+01
  -5.48329E+01 -5.46626E+01 -5.24760E+01 -5.06779E+01 -5.03997E+01 -5.01487E+01 -4.84960E+01 -4.79876E+01 -4.83231E+01 -4.70512E+01
  -4.42312E+01 -4.46966E+01 -4.31628E+01 -4.24516E+01 -4.22174E+01 -4.13768E+01 -3.98480E+01 -3.83098E+01 -3.91045E+01 -3.74651E+01
  -3.52466E+01 -3.61359E+01 -3.59550E+01 -3.31280E+01 -3.27301E+01 -3.70217E+01 -3.30564E+01 -3.41631E+01 -3.21585E+01 -3.34837E+01
  -3.17478E+01 -3.17282E+01 -3.15674E+01 -3.09297E+01 -2.83505E+01 -3.00187E+01 -2.94792E+01 -2.94722E+01 -2.71414E+01 -2.72783E+01
  -2.74633E+01 -2.93349E+01 -2.76512E+01 -2.73256E+01 -2.55656E+01 -2.49210E+01 -2.59242E+01 -2.48922E+01 -2.55277E+01 -2.32006E+01
  -2.39123E+01 -2.32098E+01 -2.38660E+01 -2.27428E+01 -2.28476E+01 -2.07577E+01 -1.91747E+01 -2.11574E+01 -1.99898E+01 -2.07576E+01
  -2.10940E+01 -2.04532E+01 -1.94125E+01 -1.87933E+01 -1.75594E+01 -2.01345E+01 -1.98661E+01 -2.06416E+01 -1.82254E+01 -1.77691E+01
  -1.71819E+01 -1.95818E+01 -1.76735E+01 -1.82389E+01 -1.72134E+01 -1.73192E+01 -1.88816E+01 -1.73438E+01 -1.49043E+01 -1.63350E+01
  -1.67805E+01 -1.65352E+01 -1.47196E+01 -1.65272E+01 -1.71968E+01 -1.70141E+01 -1.38951E+01 -1.60111E+01 -1.68120E+01 -1.59274E+01
  -1.65752E+01 -1.58088E+01 -1.50883E+01 -1.45741E+01 -1.49380E+01 -1.64368E+01 -1.58761E+01 -1.47638E+01 -1.70463E+01 -1.70746E+01
  -1.66575E+01 -1.57779E+01 -1.55003E+01 -1.71712E+01 -1.61761E+01 -1.62861E+01 -1.74897E+01 -1.80756E+01 -1.81106E+01 -1.76906E+01
  -1.63051E+01 -1.72760E+01 -1.73136E+01 -1.69161E+01 -1.63897E+01 -1.67384E+01 -1.82480E+01 -1.71259E+01 -1.76761E+01 -1.72471E+01
  -1.78633E+01 -1.95341E+01 -1.91927E+01 -1.91662E+01 -2.20866E+01 -1.95376E+01 -1.98060E+01 -2.02674E+01 -1.96676E+01 -2.07698E+01
  -2.09728E+01 -2.20737E+01 -2.21661E+01 -2.04698E+01 -2.07548E+01 -2.01211E+01 -2.07266E+01 -2.16675E+01 -2.15630E+01 -2.32987E+01
  -2.38226E+01 -2.39675E+01 -2.52244E+01 -2.52147E+01 -2.60477E+01 -2.71568E+01 -2.64838E+01 -2.61046E+01 -2.65638E+01 -2.73274E+01
  -2.76077E+01 -2.77719E+01 -2.83128E+01 -2.76270E+01 -2.75546E+01 -2.76598E+01 -2.65986E+01 -2.88152E+01 -2.71571E+01 -2.92122E+01
  -2.88927E+01 -3.02205E+01 -3.07705E+01 -2.98427E+01 -2.90633E+01 -3.02196E+01 -3.11310E+01 -3.20380E+01 -3.17336E+01 -3.25331E+01
  -3.25442E+01 -3.24734E+01 -3.43640E+01 -3.39928E+01 -3.42715E+01 -3.49359E+01 -3.69979E+01 -3.71279E+01 -3.80270E+01 -3.88677E+01
  -3.92079E+01 -3.99398E+01 -3.99321E+01 -4.23498E+01 -4.27735E+01 -4.41841E+01 -4.36677E+01 -4.61088E+01 -4.61680E+01 -4.66775E+01
  -4.83440E+01 -5.04934E+01 -4.89446E+01 -5.27889E+01 -5.23362E+01 -5.47500E+01 -5.48849E+01 -5.66542E+01 -5.78885E+01 -5.90068E+01
  -5.89872E+01 -6.15343E+01 -6.32592E+01 -6.32747E+01 -6.53942E+01 -6.74930E+01 -6.88520E+01 -7.05168E+01 -7.14611E+01 -7.23663E+01
  -7.24877E+01 -7.33586E+01 -7.42305E+01 -7.48673E+01 -7.62149E+01 -7.66202E+01 -7.53531E+01 -7.50187E+01 -7.59306E+01 -7.61006E+01
  -7.45301E+01 -7.36363E+01 -7.29071E+01 -7.18328E+01 -6.96659E+01 -6.86705E+01 -6.86085E+01 -6.61797E+01 -6.54410E+01 -6.53357E+01
  -6.36580E+01 -6.33074E+01 -6.21137E+01 -6.06170E+01 -6.12088E+01 -5.98823E+01 -5.97164E+01 -6.04478E+01 -5.81141E+01 -5.81104E+01
  -5.71280E+01 -5.77070E+01 -5.68924E+01 -5.61120E+01 -5.42010E+01 -5.24920E+01 -5.41920E+01 -5.14732E+01 -5.22040E+01 -5.10811E+01
  -5.07668E+01 -4.92632E+01 -4.91866E+01 -4.77613E+01 -4.56193E+01 -4.62070E+01 -4.61525E+01 -4.37074E+01 -4.15636E+01 -4.21564E+01
  -3.91235E+01 -3.94408E+01 -3.80085E+01 -3.62699E+01 -3.75811E+01 -3.58187E+01 -3.56608E+01 -3.22656E+01 -3.43623E+01 -3.38709E+01
  -3.37438E+01 -3.27044E+01 -3.24998E+01 -3.38178E+01 -3.31351E+01 -3.32937E+01 -3.28453E+01 -3.07402E+01 -3.03534E+01 -3.07146E+01
  -2.88445E+01 -2.92650E+01 -2.81495E+01 -2.58256E+01 -2.62926E+01 -2.51999E+01 -2.45550E+01 -2.27013E+01 -2.08573E+01 -2.01233E+01
  -1.85987E+01 -1.83555E+01 -1.65763E+01 -1.59369E+01 -1.36430E+01 -1.26856E+01 -1.03445E+01 -9.78950E+00 -6.60014E+00 -4.86508E+00
  -3.55032E+00 -1.72138E+00 -7.85830E-01  2.99180E+00  4.46447E+00  5.99108E+00  7.77138E+00  1.03984E+01  1.11388E+01  1.25063E+01
   1.76318E+01  1.74661E+01  2.03585E+01  2.15801E+01  2.39943E+01  2.81291E+01  2.73648E+01  3.06878E+01  3.17080E+01  3.40510E+01
   3.50512E+01  3.71717E+01  3.85602E+01  4.24352E+01  4.36482E+01  4.58800E+01  4.79754E+01  4.97579E+01  5.08293E+01  5.40287E+01
   5.51191E+01  5.58566E+01  5.78480E+01  6.11004E+01  6.23088E+01  6.17427E+01  6.39181E+01  6.61721E+01  6.62043E+01  6.85796E+01
   6.72771E+01  6.92800E+01  6.98791E+01  7.06386E+01  7.13637E+01  7.16189E+01  7.18279E+01  6.92796E+01  7.20944E+01  7.04331E+01
   7.03354E+01  7.05600E+01  6.97064E+01  6.96203E+01  7.02300E+01  6.88092E+01  7.07006E+01  7.01078E+01  6.84819E+01  6.81749E+01
   6.86167E+01  6.76541E+01  6.71358E+01  6.85197E+01  6.50597E+01  6.43106E+01  6.54925E+01  6.34697E+01  6.33023E+01  6.19169E+01
   6.23355E+01  6.18318E+01  5.98518E+01  6.14361E+01  6.02804E+01  5.89872E+01  5.70965E+01  5.74399E+01  5.78842E+01  5.73503E+01
   5.61798E+01  5.44045E+01  5.56971E+01  5.39506E+01  5.61478E+01  5.33307E+01  5.33767E+01  5.26913E+01  5.20308E+01  5.14441E+01
   5.01478E+01  5.01413E+01  5.00975E+01  4.84533E+01  4.94138E+01  4.91702E+01  4.66025E+01  4.69835E+01  4.77688E+01  4.58025E+01
   4.58898E+01  4.54485E+01  4.54736E+01  4.56409E+01  4.32025E+01  4.54943E+01  4.30138E+01  4.36105E+01  4.40693E+01  4.25390E+01
   4.47569E+01  4.40226E+01  4.29928E+01  4.14141E+01  4.28439E+01  4.17530E+01  4.14812E+01  4.05293E+01  4.11462E+01  3.94433E+01
   3.99009E+01  4.01669E+01  4.03795E+01  3.98845E+01  3.86436E+01  3.79833E+01  3.77820E+01  3.78209E+01  3.83598E+01  3.79314E+01
   3.65639E+01  3.91256E+01  3.63492E+01  3.61528E+01  3.74004E+01  3.59820E+01  3.56576E+01  3.66645E+01  3.57136E+01  3.50727E+01
   3.57298E+01  3.49224E+01  3.47587E+01  3.53310E+01  3.27137E+01  3.41287E+01  3.41805E+01  3.22797E+01  3.26552E+01  3.43909E+01
   3.40871E+01  3.25368E+01  3.31971E+01  3.15863E+01  3.18977E+01  3.14536E+01  3.12586E+01  3.12687E+01  3.04307E+01  3.09042E+01
   2.94028E+01  3.16263E+01  3.10012E+01  2.99724E+01  3.00757E+01  3.09693E+01  3.03268E+01  2.90939E+01  2.85675E+01  2.72370E+01
   2.71920E+01  2.81483E+01  2.85923E+01  2.74329E+01  2.65358E+01  2.87745E+01  2.81150E+01  2.67793E+01  2.74981E+01  2.71779E+01
   2.70788E+01  2.72936E+01  2.47727E+01  2.56979E+01  2.58868E+01  2.52408E+01  2.38166E+01  2.46060E+01
 NY points of the fit to the data follow
  -6.46954E+01 -6.33952E+01 -6.26237E+01 -6.12573E+01 -6.02621E+01 -5.86704E+01 -5.79317E+01 -5.73109E+01 -5.71548E+01 -5.69415E+01
  -5.65440E+01 -5.57185E+01 -5.43698E+01 -5.31248E+01 -5.19091E+01 -5.12341E+01 -5.02859E+01 -5.03294E+01 -4.91558E+01 -4.83253E+01
  -4.66896E+01 -4.58157E+01 -4.42244E+01 -4.37262E+01 -4.22064E+01 -4.18799E+01 -4.03350E+01 -3.99040E+01 -3.83283E+01 -3.79651E+01
  -3.65587E+01 -3.65191E+01 -3.53442E+01 -3.51698E+01 -3.37454E+01 -3.34656E+01 -3.21935E+01 -3.18545E+01 -3.06842E+01 -3.04317E+01
  -2.95859E+01 -2.95785E+01 -2.90126E+01 -2.89174E+01 -2.82350E+01 -2.74133E+01 -2.65894E+01 -2.62813E+01 -2.60520E+01 -2.64192E+01
  -2.64576E+01 -2.66020E+01 -2.59851E+01 -2.55482E+01 -2.48169E+01 -2.46360E+01 -2.41908E+01 -2.47796E+01 -2.44352E+01 -2.47433E+01
  -2.41037E+01 -2.43480E+01 -2.37067E+01 -2.39911E+01 -2.32382E+01 -2.36037E+01 -2.28536E+01 -2.32121E+01 -2.24283E+01 -2.28178E+01
  -2.20921E+01 -2.25143E+01 -2.17788E+01 -2.19918E+01 -2.09614E+01 -2.12075E+01 -2.03647E+01 -2.07540E+01 -2.00482E+01 -2.04815E+01
  -1.98208E+01 -2.02602E+01 -1.95464E+01 -1.96639E+01 -1.90718E+01 -1.91809E+01 -1.86152E+01 -1.86679E+01 -1.81307E+01 -1.81686E+01
  -1.77423E+01 -1.77979E+01 -1.74522E+01 -1.75033E+01 -1.71828E+01 -1.71833E+01 -1.68701E+01 -1.67944E+01 -1.63976E+01 -1.63030E+01
  -1.59281E+01 -1.58749E+01 -1.55404E+01 -1.55157E+01 -1.52104E+01 -1.51961E+01 -1.49226E+01 -1.49166E+01 -1.46783E+01 -1.46998E+01
  -1.45158E+01 -1.45816E+01 -1.44712E+01 -1.46933E+01 -1.47017E+01 -1.50197E+01 -1.50499E+01 -1.53473E+01 -1.53747E+01 -1.56823E+01
  -1.56713E+01 -1.59547E+01 -1.58372E+01 -1.57820E+01 -1.56586E+01 -1.56539E+01 -1.56083E+01 -1.56466E+01 -1.56805E+01 -1.57707E+01
  -1.58825E+01 -1.60071E+01 -1.61524E+01 -1.63131E+01 -1.64936E+01 -1.66912E+01 -1.69060E+01 -1.71387E+01 -1.73852E+01 -1.76521E+01
  -1.79301E+01 -1.82337E+01 -1.85525E+01 -1.89015E+01 -1.92614E+01 -1.96497E+01 -2.00450E+01 -2.04624E+01 -2.08967E+01 -2.13474E+01
  -2.18177E+01 -2.23013E+01 -2.28019E+01 -2.33113E+01 -2.38390E+01 -2.43741E+01 -2.49336E+01 -2.54983E+01 -2.60927E+01 -2.66850E+01
  -2.72947E+01 -2.79033E+01 -2.85285E+01 -2.91620E+01 -2.98063E+01 -3.04572E+01 -3.11135E+01 -3.17702E+01 -3.24298E+01 -3.30993E+01
  -3.37551E+01 -3.44183E+01 -3.50654E+01 -3.57162E+01 -3.63507E+01 -3.69876E+01 -3.75897E+01 -3.81859E+01 -3.87291E+01 -3.92769E+01
  -3.97687E+01 -4.02476E+01 -4.06458E+01 -4.09959E+01 -4.12057E+01 -4.13822E+01 -4.17461E+01 -4.20555E+01 -4.25543E+01 -4.35228E+01
  -4.41195E+01 -4.52453E+01 -4.54495E+01 -4.58817E+01 -4.47551E+01 -4.33787E+01 -4.21310E+01 -4.15445E+01 -4.10857E+01 -4.15287E+01
  -4.23523E+01 -4.45753E+01 -4.66745E+01 -4.86284E+01 -5.00775E+01 -5.19610E+01 -5.31103E+01 -5.51266E+01 -5.62105E+01 -5.80260E+01
  -5.90728E+01 -6.08205E+01 -6.16933E+01 -6.35750E+01 -6.44366E+01 -6.65916E+01 -6.73554E+01 -6.93357E+01 -6.95849E+01 -7.11943E+01
  -7.10915E+01 -7.23127E+01 -7.21827E+01 -7.29952E+01 -7.24455E+01 -7.28852E+01 -7.24434E+01 -7.22251E+01 -7.16841E+01 -7.14932E+01
  -7.12878E+01 -7.10481E+01 -7.04920E+01 -6.94975E+01 -6.80598E+01 -6.52209E+01 -6.39661E+01 -6.15307E+01 -6.09099E+01 -5.87740E+01
  -5.91881E+01 -5.87655E+01 -6.04642E+01 -5.98911E+01 -6.14675E+01 -6.08723E+01 -6.18141E+01 -6.08040E+01 -6.10182E+01 -5.96651E+01
  -5.95740E+01 -5.84399E+01 -5.80416E+01 -5.70261E+01 -5.62858E+01 -5.53137E+01 -5.41594E+01 -5.31524E+01 -5.15805E+01 -5.08840E+01
  -4.93860E+01 -4.90692E+01 -4.79525E+01 -4.76721E+01 -4.63392E+01 -4.58226E+01 -4.43521E+01 -4.34062E+01 -4.19321E+01 -4.12192E+01
  -4.03214E+01 -3.98813E+01 -3.90521E+01 -3.84691E+01 -3.75857E+01 -3.68778E+01 -3.61241E+01 -3.57716E+01 -3.53220E+01 -3.49685E+01
  -3.44568E+01 -3.40215E+01 -3.32696E+01 -3.25327E+01 -3.19936E+01 -3.13829E+01 -3.08902E+01 -3.03151E+01 -2.98798E+01 -2.93545E+01
  -2.89834E+01 -2.85355E+01 -2.80724E+01 -2.74406E+01 -2.67679E+01 -2.59524E+01 -2.50770E+01 -2.40784E+01 -2.30090E+01 -2.18768E+01
  -2.06757E+01 -1.93924E+01 -1.80319E+01 -1.65814E+01 -1.50422E+01 -1.33918E+01 -1.16110E+01 -9.63523E+00 -7.28713E+00 -4.52089E+00
  -2.80899E+00 -4.63758E-01  8.68066E-01  3.04614E+00  4.14224E+00  6.18993E+00  6.76027E+00  9.66372E+00  1.07218E+01  1.36973E+01
   1.48064E+01  1.76913E+01  1.87816E+01  2.18223E+01  2.29816E+01  2.60543E+01  2.73142E+01  3.02253E+01  3.16217E+01  3.44765E+01
   3.58050E+01  3.83547E+01  3.98475E+01  4.21979E+01  4.38399E+01  4.58542E+01  4.74846E+01  4.93592E+01  5.10817E+01  5.25993E+01
   5.44336E+01  5.58164E+01  5.77987E+01  5.92003E+01  6.11578E+01  6.22878E+01  6.41896E+01  6.50606E+01  6.71629E+01  6.84338E+01
   6.97386E+01  7.05721E+01  7.13600E+01  7.17622E+01  7.19246E+01  7.16542E+01  7.09794E+01  7.11011E+01  7.07285E+01  7.08490E+01
   7.05218E+01  7.05997E+01  7.02798E+01  7.02970E+01  6.99362E+01  6.97851E+01  6.93936E+01  6.90902E+01  6.87727E+01  6.85754E+01
   6.81185E+01  6.77081E+01  6.71591E+01  6.65417E+01  6.58922E+01  6.50192E+01  6.42661E+01  6.35779E+01  6.29198E+01  6.22797E+01
   6.16527E+01  6.10363E+01  6.04294E+01  5.98317E+01  5.92429E+01  5.86630E+01  5.80922E+01  5.75304E+01  5.69777E+01  5.64340E+01
   5.58993E+01  5.53735E+01  5.48565E+01  5.43481E+01  5.38482E+01  5.33565E+01  5.28728E+01  5.23969E+01  5.19286E+01  5.14675E+01
   5.10136E+01  5.05664E+01  5.01259E+01  4.96918E+01  4.92639E+01  4.88421E+01  4.84260E+01  4.80156E+01  4.76108E+01  4.72114E+01
   4.68173E+01  4.64284E+01  4.60447E+01  4.56661E+01  4.52925E+01  4.49240E+01  4.45605E+01  4.42021E+01  4.38487E+01  4.35004E+01
   4.31573E+01  4.28193E+01  4.24867E+01  4.21595E+01  4.18378E+01  4.15217E+01  4.12113E+01  4.09068E+01  4.06078E+01  4.03143E+01
   4.00259E+01  3.97424E+01  3.94636E+01  3.91892E+01  3.89192E+01  3.86532E+01  3.83912E+01  3.81329E+01  3.78781E+01  3.76267E+01
   3.73785E+01  3.71333E+01  3.68911E+01  3.66516E+01  3.64147E+01  3.61803E+01  3.59482E+01  3.57182E+01  3.54904E+01  3.52644E+01
   3.50403E+01  3.48179E+01  3.45971E+01  3.43777E+01  3.41597E+01  3.39429E+01  3.37273E+01  3.35127E+01  3.32991E+01  3.30863E+01
   3.28742E+01  3.26628E+01  3.24520E+01  3.22416E+01  3.20316E+01  3.18218E+01  3.16123E+01  3.14029E+01  3.11935E+01  3.09840E+01
   3.07744E+01  3.05646E+01  3.03545E+01  3.01440E+01  2.99330E+01  2.97215E+01  2.95094E+01  2.92965E+01  2.90829E+01  2.88684E+01
   2.86530E+01  2.84365E+01  2.82189E+01  2.80001E+01  2.77800E+01  2.75586E+01  2.73357E+01  2.71112E+01  2.68851E+01  2.66573E+01
   2.64276E+01  2.61959E+01  2.59623E+01  2.57264E+01  2.54884E+01  2.52482E+01  2.50057E+01  2.47612E+01
 NY background values follow
    -8.026E+01   -7.939E+01   -7.853E+01   -7.768E+01   -7.683E+01   -7.598E+01   -7.514E+01   -7.430E+01   -7.346E+01   -7.263E+01
    -7.180E+01   -7.097E+01   -7.015E+01   -6.934E+01   -6.852E+01   -6.771E+01   -6.691E+01   -6.611E+01   -6.531E+01   -6.452E+01
    -6.373E+01   -6.295E+01   -6.217E+01   -6.139E+01   -6.062E+01   -5.985E+01   -5.909E+01   -5.833E+01   -5.758E+01   -5.683E+01
    -5.608E+01   -5.534E+01   -5.461E+01   -5.388E+01   -5.315E+01   -5.243E+01   -5.171E+01   -5.099E+01   -5.029E+01   -4.958E+01
    -4.888E+01   -4.819E+01   -4.750E+01   -4.681E+01   -4.613E+01   -4.546E+01   -4.479E+01   -4.412E+01   -4.346E+01   -4.281E+01
    -4.216E+01   -4.151E+01   -4.087E+01   -4.024E+01   -3.961E+01   -3.898E+01   -3.836E+01   -3.775E+01   -3.714E+01   -3.653E+01
    -3.593E+01   -3.534E+01   -3.475E+01   -3.417E+01   -3.359E+01   -3.302E+01   -3.245E+01   -3.189E+01   -3.133E+01   -3.078E+01
    -3.024E+01   -2.970E+01   -2.917E+01   -2.864E+01   -2.812E+01   -2.760E+01   -2.709E+01   -2.659E+01   -2.609E+01   -2.560E+01
    -2.512E+01   -2.465E+01   -2.418E+01   -2.372E+01   -2.327E+01   -2.282E+01   -2.239E+01   -2.196E+01   -2.154E+01   -2.113E+01
    -2.073E+01   -2.034E+01   -1.996E+01   -1.959E+01   -1.922E+01   -1.887E+01   -1.853E+01   -1.820E+01   -1.787E+01   -1.756E+01
    -1.726E+01   -1.697E+01   -1.670E+01   -1.643E+01   -1.617E+01   -1.593E+01   -1.570E+01   -1.548E+01   -1.527E+01   -1.508E+01
    -1.490E+01   -1.473E+01   -1.458E+01   -1.443E+01   -1.430E+01   -1.419E+01   -1.409E+01   -1.400E+01   -1.393E+01   -1.387E+01
    -1.383E+01   -1.380E+01   -1.379E+01   -1.379E+01   -1.381E+01   -1.384E+01   -1.389E+01   -1.395E+01   -1.403E+01   -1.413E+01
    -1.424E+01   -1.437E+01   -1.452E+01   -1.469E+01   -1.487E+01   -1.507E+01   -1.528E+01   -1.552E+01   -1.577E+01   -1.604E+01
    -1.633E+01   -1.664E+01   -1.697E+01   -1.731E+01   -1.768E+01   -1.806E+01   -1.846E+01   -1.888E+01   -1.931E+01   -1.976E+01
    -2.023E+01   -2.071E+01   -2.120E+01   -2.171E+01   -2.224E+01   -2.278E+01   -2.333E+01   -2.389E+01   -2.446E+01   -2.505E+01
    -2.565E+01   -2.626E+01   -2.688E+01   -2.750E+01   -2.814E+01   -2.879E+01   -2.944E+01   -3.010E+01   -3.077E+01   -3.145E+01
    -3.213E+01   -3.282E+01   -3.351E+01   -3.421E+01   -3.492E+01   -3.562E+01   -3.633E+01   -3.705E+01   -3.777E+01   -3.849E+01
    -3.921E+01   -3.993E+01   -4.065E+01   -4.137E+01   -4.210E+01   -4.282E+01   -4.354E+01   -4.426E+01   -4.498E+01   -4.569E+01
    -4.641E+01   -4.711E+01   -4.782E+01   -4.852E+01   -4.921E+01   -4.990E+01   -5.059E+01   -5.127E+01   -5.194E+01   -5.260E+01
    -5.326E+01   -5.391E+01   -5.455E+01   -5.518E+01   -5.580E+01   -5.641E+01   -5.701E+01   -5.760E+01   -5.818E+01   -5.874E+01
    -5.930E+01   -5.984E+01   -6.037E+01   -6.088E+01   -6.138E+01   -6.186E+01   -6.233E+01   -6.279E+01   -6.323E+01   -6.366E+01
    -6.407E+01   -6.447E+01   -6.485E+01   -6.521E+01   -6.556E+01   -6.590E+01   -6.621E+01   -6.652E+01   -6.680E+01   -6.707E+01
    -6.733E+01   -6.757E+01   -6.779E+01   -6.799E+01   -6.818E+01   -6.835E+01   -6.851E+01   -6.865E+01   -6.877E+01   -6.887E+01
    -6.895E+01   -6.902E+01   -6.907E+01   -6.910E+01   -6.912E+01   -6.912E+01   -6.909E+01   -6.905E+01   -6.899E+01   -6.892E+01
    -6.882E+01   -6.871E+01   -6.857E+01   -6.842E+01   -6.825E+01   -6.806E+01   -6.785E+01   -6.762E+01   -6.737E+01   -6.710E+01
    -6.681E+01   -6.650E+01   -6.617E+01   -6.582E+01   -6.545E+01   -6.506E+01   -6.465E+01   -6.422E+01   -6.377E+01   -6.329E+01
    -6.280E+01   -6.228E+01   -6.174E+01   -6.119E+01   -6.061E+01   -6.000E+01   -5.938E+01   -5.874E+01   -5.807E+01   -5.738E+01
    -5.667E+01   -5.593E+01   -5.518E+01   -5.440E+01   -5.359E+01   -5.277E+01   -5.192E+01   -5.105E+01   -5.016E+01   -4.925E+01
    -4.832E+01   -4.738E+01   -4.641E+01   -4.543E+01   -4.443E+01   -4.341E+01   -4.238E+01   -4.133E+01   -4.027E+01   -3.920E+01
    -3.811E+01   -3.701E+01   -3.590E+01   -3.478E+01   -3.365E+01   -3.251E+01   -3.137E+01   -3.021E+01   -2.905E+01   -2.788E+01
    -2.670E+01   -2.552E+01   -2.433E+01   -2.314E+01   -2.195E+01   -2.075E+01   -1.956E+01   -1.836E+01   -1.716E+01   -1.596E+01
    -1.476E+01   -1.357E+01   -1.237E+01   -1.118E+01   -9.994E+00   -8.810E+00   -7.632E+00   -6.459E+00   -5.292E+00   -4.133E+00
    -2.981E+00   -1.837E+00   -7.019E-01    4.232E-01    1.538E+00    2.642E+00    3.734E+00    4.814E+00    5.881E+00    6.934E+00
     7.973E+00    8.997E+00    1.000E+01    1.100E+01    1.197E+01    1.293E+01    1.387E+01    1.479E+01    1.569E+01    1.657E+01
     1.742E+01    1.826E+01    1.907E+01    1.987E+01    2.063E+01    2.138E+01    2.209E+01    2.279E+01    2.346E+01    2.410E+01
     2.472E+01    2.532E+01    2.589E+01    2.645E+01    2.698E+01    2.749E+01    2.797E+01    2.844E+01    2.888E+01    2.931E+01
     2.971E+01    3.010E+01    3.047E+01    3.081E+01    3.114E+01    3.145E+01    3.174E+01    3.202E+01    3.228E+01    3.252E+01
     3.274E+01    3.295E+01    3.315E+01    3.332E+01    3.349E+01    3.364E+01    3.377E+01    3.389E+01    3.400E+01    3.409E+01
     3.417E+01    3.424E+01    3.430E+01    3.434E+01    3.438E+01    3.440E+01    3.441E+01    3.442E+01    3.441E+01    3.439E+01
     3.437E+01    3.433E+01    3.429E+01    3.424E+01    3.418E+01    3.411E+01    3.404E+01    3.396E+01    3.387E+01    3.378E+01
     3.368E+01    3.358E+01    3.347E+01    3.336E+01    3.325E+01    3.313E+01    3.300E+01    3.288E+01    3.275E+01    3.262E+01
     3.249E+01    3.235E+01    3.222E+01    3.208E+01    3.194E+01    3.181E+01    3.167E+01    3.153E+01    3.140E+01    3.126E+01
     3.113E+01    3.100E+01    3.086E+01    3.073E+01    3.060E+01    3.046E+01    3.033E+01    3.020E+01    3.007E+01    2.993E+01
     2.980E+01    2.967E+01    2.954E+01    2.941E+01    2.927E+01    2.914E+01    2.901E+01    2.888E+01    2.874E+01    2.861E+01
     2.848E+01    2.834E+01    2.821E+01    2.807E+01    2.794E+01    2.780E+01    2.766E+01    2.753E+01    2.739E+01    2.725E+01
     2.711E+01    2.697E+01    2.683E+01    2.669E+01    2.654E+01    2.640E+01    2.625E+01    2.611E+01    2.596E+01    2.581E+01
     2.566E+01    2.551E+01    2.536E+01    2.521E+01    2.505E+01    2.490E+01    2.474E+01    2.458E+01    2.442E+01    2.426E+01
     2.409E+01    2.393E+01    2.376E+01    2.359E+01    2.342E+01    2.325E+01    2.307E+01    2.290E+01    2.272E+01    2.254E+01
     2.236E+01    2.217E+01    2.199E+01    2.180E+01    2.161E+01    2.142E+01    2.122E+01    2.103E+01
 Ala      Conc. = 2.99E+03
