 LCModel (Version 6.3-1L) Copyright: S.W. Provencher.          Ref.: Magn. Reson. Med. 30:672-679 (1993).                
 Slice#3 Row#10 Col#10  PD_05_press_1_raw_act
 36 lines in following concentration table = NCONC+1
    Conc.  %SD /Cr+PCr  Metabolite                                         
  101.120  71% 9.5E-02 Ala                                                 
    0.000 999%   0.000 Asp                                                 
  561.770  25%   0.525 Cr                                                  
  507.347  28%   0.475 PCr                                                 
   63.826 161% 6.0E-02 GABA                                                
    0.000 999%   0.000 Glc                                                 
  473.441  32%   0.443 Gln                                                 
 1.16E+03  16%   1.084 Glu                                                 
  312.222   4%   0.292 GPC                                                 
    0.000 999%   0.000 PCh                                                 
  363.396  12%   0.340 GSH                                                 
  640.284  23%   0.599 Ins                                                 
   56.259 165% 5.3E-02 Lac                                                 
 1.49E+03   6%   1.394 NAA                                                 
   71.987 136% 6.7E-02 NAAG                                                
   55.088  28% 5.2E-02 Scyllo                                              
    0.000 999%   0.000 Tau                                                 
    0.000 999%   0.000 -CrCH2                                              
  312.222   4%   0.292 GPC+PCh                                             
 1.56E+03   3%   1.461 NAA+NAAG                                            
 1.07E+03   3%   1.000 Cr+PCr                                              
 1.63E+03  16%   1.526 Glu+Gln                                             
  430.400 110%   0.403 Lip13a                                              
  261.941 118%   0.245 Lip13b                                              
    0.000 999%   0.000 Lip09                                               
  792.131  15%   0.741 MM09                                                
  115.626  88%   0.108 Lip20                                               
 2.08E+03  11%   1.945 MM20                                                
  260.680  41%   0.244 MM12                                                
 1.02E+03  23%   0.950 MM14                                                
  907.389  19%   0.849 MM17                                                
  692.341  37%   0.648 Lip13a+Lip13b                                       
 1.97E+03  13%   1.842 MM14+Lip13a+Lip13b+MM12                             
  792.131  15%   0.741 MM09+Lip09                                          
 2.20E+03  11%   2.053 MM20+Lip20                                          
   6 lines in following misc. output table
  FWHM = 0.061 ppm    S/N =  14                                            
  Data shift = 0.038 ppm                                                   
  Ph:  -8 deg      -8.4 deg/ppm                                            
  alphaB,S = 1.0E+00,   2.0E+02                                            
   14 spline knots.   Ns = 8(1)                                            
  (13) 3 infls.   ( 5) 1 extrs.                                            
  498 points on ppm-axis = NY
      4.000000     3.992357     3.984714     3.977070     3.969427     3.961784     3.954141     3.946497     3.938854     3.931211
      3.923568     3.915925     3.908281     3.900638     3.892995     3.885352     3.877708     3.870065     3.862422     3.854779
      3.847136     3.839492     3.831849     3.824206     3.816563     3.808919     3.801276     3.793633     3.785990     3.778347
      3.770703     3.763060     3.755417     3.747774     3.740130     3.732487     3.724844     3.717201     3.709558     3.701914
      3.694271     3.686628     3.678985     3.671341     3.663698     3.656055     3.648412     3.640769     3.633125     3.625482
      3.617839     3.610196     3.602552     3.594909     3.587266     3.579623     3.571980     3.564336     3.556693     3.549050
      3.541407     3.533763     3.526120     3.518477     3.510834     3.503191     3.495547     3.487904     3.480261     3.472618
      3.464974     3.457331     3.449688     3.442045     3.434402     3.426758     3.419115     3.411472     3.403829     3.396185
      3.388542     3.380899     3.373256     3.365613     3.357969     3.350326     3.342683     3.335040     3.327396     3.319753
      3.312110     3.304467     3.296824     3.289180     3.281537     3.273894     3.266251     3.258607     3.250964     3.243321
      3.235678     3.228034     3.220391     3.212748     3.205105     3.197462     3.189818     3.182175     3.174532     3.166889
      3.159245     3.151602     3.143959     3.136316     3.128673     3.121029     3.113386     3.105743     3.098100     3.090456
      3.082813     3.075170     3.067527     3.059884     3.052240     3.044597     3.036954     3.029311     3.021667     3.014024
      3.006381     2.998738     2.991095     2.983451     2.975808     2.968165     2.960522     2.952878     2.945235     2.937592
      2.929949     2.922306     2.914662     2.907019     2.899376     2.891733     2.884089     2.876446     2.868803     2.861160
      2.853517     2.845873     2.838230     2.830587     2.822944     2.815300     2.807657     2.800014     2.792371     2.784728
      2.777084     2.769441     2.761798     2.754155     2.746511     2.738868     2.731225     2.723582     2.715939     2.708295
      2.700652     2.693009     2.685366     2.677722     2.670079     2.662436     2.654793     2.647150     2.639506     2.631863
      2.624220     2.616577     2.608933     2.601290     2.593647     2.586004     2.578361     2.570717     2.563074     2.555431
      2.547788     2.540144     2.532501     2.524858     2.517215     2.509572     2.501928     2.494285     2.486642     2.478999
      2.471355     2.463712     2.456069     2.448426     2.440783     2.433139     2.425496     2.417853     2.410210     2.402566
      2.394923     2.387280     2.379637     2.371994     2.364350     2.356707     2.349064     2.341421     2.333777     2.326134
      2.318491     2.310848     2.303205     2.295561     2.287918     2.280275     2.272632     2.264988     2.257345     2.249702
      2.242059     2.234416     2.226772     2.219129     2.211486     2.203843     2.196199     2.188556     2.180913     2.173270
      2.165627     2.157983     2.150340     2.142697     2.135054     2.127410     2.119767     2.112124     2.104481     2.096838
      2.089194     2.081551     2.073908     2.066265     2.058621     2.050978     2.043335     2.035692     2.028049     2.020405
      2.012762     2.005119     1.997476     1.989833     1.982190     1.974546     1.966903     1.959260     1.951617     1.943974
      1.936331     1.928688     1.921045     1.913402     1.905759     1.898115     1.890472     1.882829     1.875186     1.867543
      1.859900     1.852257     1.844614     1.836971     1.829327     1.821684     1.814041     1.806398     1.798755     1.791112
      1.783469     1.775826     1.768183     1.760540     1.752896     1.745253     1.737610     1.729967     1.722324     1.714681
      1.707038     1.699395     1.691752     1.684108     1.676465     1.668822     1.661179     1.653536     1.645893     1.638250
      1.630607     1.622964     1.615321     1.607677     1.600034     1.592391     1.584748     1.577105     1.569462     1.561819
      1.554176     1.546533     1.538890     1.531246     1.523603     1.515960     1.508317     1.500674     1.493031     1.485388
      1.477745     1.470102     1.462458     1.454815     1.447172     1.439529     1.431886     1.424243     1.416600     1.408957
      1.401314     1.393671     1.386027     1.378384     1.370741     1.363098     1.355455     1.347812     1.340169     1.332526
      1.324883     1.317240     1.309596     1.301953     1.294310     1.286667     1.279024     1.271381     1.263738     1.256095
      1.248452     1.240808     1.233165     1.225522     1.217879     1.210236     1.202593     1.194950     1.187307     1.179664
      1.172021     1.164377     1.156734     1.149091     1.141448     1.133805     1.126162     1.118519     1.110876     1.103233
      1.095590     1.087946     1.080303     1.072660     1.065017     1.057374     1.049731     1.042088     1.034445     1.026802
      1.019158     1.011515     1.003872     0.996229     0.988586     0.980943     0.973300     0.965657     0.958014     0.950371
      0.942727     0.935084     0.927441     0.919798     0.912155     0.904512     0.896869     0.889226     0.881583     0.873940
      0.866296     0.858653     0.851010     0.843367     0.835724     0.828081     0.820438     0.812795     0.805152     0.797508
      0.789865     0.782222     0.774579     0.766936     0.759293     0.751650     0.744007     0.736364     0.728721     0.721077
      0.713434     0.705791     0.698148     0.690505     0.682862     0.675219     0.667576     0.659933     0.652290     0.644646
      0.637003     0.629360     0.621717     0.614074     0.606431     0.598788     0.591145     0.583502     0.575858     0.568215
      0.560572     0.552929     0.545286     0.537643     0.530000     0.522357     0.514714     0.507071     0.499427     0.491784
      0.484141     0.476498     0.468855     0.461212     0.453569     0.445925     0.438282     0.430639     0.422996     0.415353
      0.407710     0.400067     0.392424     0.384780     0.377137     0.369494     0.361851     0.354208     0.346565     0.338922
      0.331278     0.323635     0.315992     0.308349     0.300706     0.293063     0.285420     0.277777     0.270133     0.262490
      0.254847     0.247204     0.239561     0.231918     0.224275     0.216631     0.208988     0.201345
 NY phased data points follow
   1.60654E+01  1.45352E+01  1.53578E+01  1.50851E+01  1.63657E+01  1.69334E+01  2.16502E+01  2.45653E+01  2.80228E+01  3.07601E+01
   3.33470E+01  2.92228E+01  3.08548E+01  2.84142E+01  2.58912E+01  2.19701E+01  1.79535E+01  1.77045E+01  1.53103E+01  1.61166E+01
   1.46663E+01  1.43573E+01  1.40963E+01  1.27807E+01  1.25027E+01  1.58683E+01  1.58399E+01  1.64501E+01  1.86756E+01  1.33881E+01
   1.67891E+01  1.37723E+01  1.73338E+01  1.49875E+01  1.53757E+01  1.60515E+01  1.23777E+01  1.33317E+01  1.45433E+01  1.05126E+01
   1.31623E+01  1.24670E+01  1.28688E+01  1.02620E+01  1.44353E+01  1.16255E+01  1.33384E+01  1.44313E+01  1.64243E+01  1.79296E+01
   1.44777E+01  1.27310E+01  1.12081E+01  1.18717E+01  9.86760E+00  1.00921E+01  1.03521E+01  1.02842E+01  8.70962E+00  1.01585E+01
   8.16246E+00  6.68527E+00  5.09080E+00  3.84137E+00  3.29360E+00  3.48476E+00  3.08047E+00  2.97375E+00  3.83683E+00  3.95182E+00
   4.55043E+00  4.30096E+00  3.50241E+00  5.79693E+00  3.77235E+00  6.40137E+00  2.92884E+00  2.79181E+00  5.18391E+00  6.00820E+00
   6.24430E+00  4.34458E+00  4.54299E+00  6.88010E+00  4.60820E+00  6.17978E+00  8.48643E+00  5.51637E+00  6.58754E+00  5.70739E+00
   6.87295E+00  6.92922E+00  5.74983E+00  6.80270E+00  6.20265E+00  8.26050E+00  1.03982E+01  1.14244E+01  1.19378E+01  1.65678E+01
   1.80551E+01  2.21713E+01  2.51597E+01  3.08481E+01  2.78107E+01  2.60028E+01  2.09311E+01  1.99734E+01  1.41350E+01  1.17759E+01
   9.33467E+00  9.34372E+00  8.10125E+00  4.96402E+00  4.09859E+00  6.09257E+00  5.45972E+00  3.85096E+00  5.67626E+00  7.17542E+00
   9.55055E+00  1.11441E+01  1.32980E+01  1.77256E+01  2.38249E+01  2.73563E+01  3.21781E+01  3.41270E+01  3.33859E+01  3.20506E+01
   2.92013E+01  2.28635E+01  1.81933E+01  1.34730E+01  1.13172E+01  8.82152E+00  5.96061E+00  6.52398E+00  5.08809E+00  3.54926E+00
   4.22662E+00  3.79149E+00  3.31636E+00  1.75270E+00  3.00854E+00  3.79144E+00  4.15368E+00  4.30517E+00  5.32889E+00  2.96066E+00
   5.62048E+00  3.09459E+00  3.54889E+00  4.02704E+00  3.98619E-01  2.26777E+00  3.27494E+00  1.24659E+00  2.58335E+00  2.27430E+00
   1.42048E-02  1.49559E+00  3.57901E-01 -2.40189E-01 -4.20251E-01 -1.37288E-01  6.58780E-01  2.60863E+00 -1.63229E+00 -1.55442E+00
  -2.57973E+00 -3.11338E+00 -3.21422E+00 -5.70164E+00 -5.79161E+00 -4.67659E+00 -5.19964E+00 -6.00518E+00 -4.74372E+00 -3.43951E+00
  -3.93977E+00 -5.24036E+00 -6.28593E+00 -3.88605E+00 -6.43360E+00 -6.29735E+00 -3.47118E+00 -1.32300E+00 -3.16036E+00 -1.16545E+00
   1.43404E+00  1.32415E+00  3.62535E+00  3.61384E+00  5.45299E+00  3.95407E+00  1.43943E+00  3.62263E+00  1.49072E+00  8.14660E-01
   1.17192E+00  1.46476E+00  2.26143E+00  3.75169E+00  2.29820E+00  1.27709E+00  1.50900E+00  1.49998E-01 -1.98801E+00 -1.27054E-01
   3.71042E-01  6.65827E-01  4.18304E+00  3.17183E+00  4.86631E+00  7.74142E+00  5.62849E+00  6.19634E+00  4.12262E+00  4.01814E+00
   2.66630E+00  1.37980E+00  4.97520E-01 -1.77701E+00  1.90148E+00  4.07570E+00  1.95638E+00  6.08384E+00  6.26415E+00  5.92142E+00
   4.40041E+00  4.63820E+00  4.32616E+00  5.90111E+00  5.19183E+00  6.15922E+00  6.45860E+00  4.35646E+00  5.07177E+00  7.26247E+00
   3.63128E+00  4.42654E+00  3.97245E+00  6.79706E+00  5.77712E+00  5.73097E+00  9.30537E+00  1.06065E+01  9.72522E+00  1.04495E+01
   1.27048E+01  1.38923E+01  1.37372E+01  1.69036E+01  1.97315E+01  2.60238E+01  2.86880E+01  3.80749E+01  4.30333E+01  5.07338E+01
   5.19534E+01  4.93611E+01  4.77256E+01  4.08723E+01  3.19164E+01  2.37130E+01  1.85995E+01  1.39912E+01  1.31844E+01  9.15956E+00
   5.17032E+00  6.87045E+00  3.49786E+00  6.82715E+00  6.09506E+00  5.26262E+00  3.74727E+00  8.22972E+00  4.08185E+00  7.44945E+00
   7.10736E+00  4.51328E+00  5.17580E+00  1.94672E+00  5.04937E+00  5.06238E+00  3.55993E+00  5.18427E+00  5.05567E+00  4.68969E+00
   6.08784E+00  3.54499E+00  4.13556E+00  3.20985E+00  4.73401E+00  5.36184E+00  5.14486E+00  5.43892E+00  5.54740E+00  5.81179E+00
   3.70787E+00  3.99448E+00  4.43897E+00  5.52006E+00  6.66718E+00  5.63048E+00  8.30544E+00  7.15346E+00  8.46754E+00  9.35216E+00
   6.63214E+00  7.16780E+00  8.66915E+00  1.03818E+01  7.49323E+00  8.47405E+00  9.30400E+00  6.14964E+00  5.74400E+00  6.25871E+00
   7.42068E+00  6.19439E+00  6.44127E+00  8.19032E+00  4.61245E+00  8.82342E+00  6.35120E+00  6.83021E+00  5.03407E+00  5.76659E+00
   6.53707E+00  7.67313E+00  5.17655E+00  6.73119E+00  7.27654E+00  8.56320E+00  7.06653E+00  9.12962E+00  7.91937E+00  7.28604E+00
   8.31860E+00  7.55907E+00  7.68841E+00  8.11845E+00  9.92294E+00  1.03284E+01  8.76774E+00  8.03584E+00  8.03512E+00  1.02995E+01
   9.29967E+00  8.64519E+00  8.95837E+00  8.05339E+00  9.11101E+00  1.03346E+01  9.88133E+00  9.68201E+00  9.91008E+00  8.28616E+00
   9.09633E+00  8.22892E+00  6.43296E+00  7.12349E+00  4.83268E+00  7.55601E+00  6.77600E+00  6.58146E+00  6.94902E+00  5.53811E+00
   3.80135E+00  4.90306E+00  2.60833E+00  5.31013E+00  3.36228E+00  6.13229E+00  5.90436E+00  3.44602E+00  4.89801E+00  4.01776E+00
   6.16840E+00  6.08977E+00  4.05738E+00  4.84901E+00  3.14438E+00  4.89058E+00  5.03037E+00  5.21261E+00  5.68721E+00  2.28495E+00
   5.58840E+00  7.01697E+00  5.61525E+00  5.30457E+00  4.68376E+00  4.89616E+00  6.24983E+00  5.86052E+00  5.84148E+00  6.02445E+00
   6.13750E+00  7.65690E+00  7.59888E+00  5.70690E+00  6.30576E+00  6.09532E+00  6.81041E+00  6.92815E+00  7.00933E+00  8.48578E+00
   6.04807E+00  9.14858E+00  7.06636E+00  4.90512E+00  6.63192E+00  6.15738E+00  2.49907E+00  5.56588E+00  5.40354E+00  4.93836E+00
   6.12942E+00  4.93638E+00  4.10175E+00  5.42894E+00  2.68097E+00  3.27756E+00  4.83916E+00  4.75774E+00  4.59550E+00  3.93053E+00
   4.18371E+00  3.90743E+00  3.69181E+00  3.90145E+00  1.46314E+00  3.60516E+00  4.69896E+00  4.21969E+00  4.62615E+00  4.10563E+00
   4.61872E+00  4.35312E+00  1.71580E+00  3.55551E+00  3.48881E+00  2.45979E+00  3.32373E+00  2.36122E+00  2.06476E+00  3.68992E+00
   1.88396E+00  3.04603E+00  2.81129E+00  1.94464E+00  3.67973E+00  4.82341E+00  2.54768E+00  3.38984E+00  3.33305E+00  2.00477E+00
   2.86516E+00  3.61419E+00  2.77190E+00  1.23855E+00  1.26078E+00  5.62406E-01  3.34255E+00  2.63527E+00  2.41457E+00  1.45962E+00
   2.43825E+00  2.49871E+00  3.69674E+00  2.41569E+00  2.29242E+00  3.25671E+00  8.27536E-01  2.28583E+00  2.97105E+00  7.78558E-01
   3.77099E+00  2.90608E+00  1.45711E+00  1.65004E+00  1.77338E+00  1.41973E+00  2.99007E+00  4.41485E+00  4.60629E+00  2.86193E+00
   1.19755E+00  1.78834E+00  3.44830E+00  3.49751E+00  3.52759E+00  3.25527E+00  2.49119E+00  1.31025E+00
 NY points of the fit to the data follow
   1.28971E+01  1.31377E+01  1.38429E+01  1.50613E+01  1.68836E+01  1.91025E+01  2.16783E+01  2.45315E+01  2.73688E+01  2.97316E+01
   3.11394E+01  3.12799E+01  3.01121E+01  2.79026E+01  2.51264E+01  2.22660E+01  1.96658E+01  1.74644E+01  1.56598E+01  1.43201E+01
   1.32442E+01  1.24836E+01  1.23388E+01  1.24627E+01  1.26689E+01  1.30351E+01  1.36995E+01  1.46863E+01  1.58176E+01  1.68796E+01
   1.76587E+01  1.79595E+01  1.77021E+01  1.68729E+01  1.55983E+01  1.41847E+01  1.29017E+01  1.18501E+01  1.09841E+01  1.04460E+01
   1.04464E+01  1.07555E+01  1.11559E+01  1.16054E+01  1.21333E+01  1.26963E+01  1.31279E+01  1.33103E+01  1.31826E+01  1.27171E+01
   1.19717E+01  1.10620E+01  1.01632E+01  9.44288E+00  8.95763E+00  8.63024E+00  8.40823E+00  8.30838E+00  8.32745E+00  8.38082E+00
   8.37768E+00  8.26333E+00  8.03116E+00  7.70519E+00  7.35952E+00  7.06685E+00  6.87290E+00  6.78801E+00  6.77946E+00  6.81983E+00
   6.88635E+00  6.93679E+00  6.94715E+00  6.89678E+00  6.78715E+00  6.63145E+00  6.44727E+00  6.26810E+00  6.15724E+00  6.17225E+00
   6.22611E+00  6.26090E+00  6.33373E+00  6.47469E+00  6.64549E+00  6.76781E+00  6.76705E+00  6.60528E+00  6.30483E+00  5.93009E+00
   5.53754E+00  5.20463E+00  5.00916E+00  4.99076E+00  5.26374E+00  6.36685E+00  8.24681E+00  1.03966E+01  1.28602E+01  1.59300E+01
   1.96411E+01  2.35250E+01  2.67572E+01  2.85234E+01  2.83971E+01  2.64411E+01  2.30651E+01  1.89596E+01  1.49738E+01  1.17537E+01
   9.37101E+00  7.40665E+00  5.63325E+00  4.58398E+00  4.27651E+00  4.18493E+00  4.17917E+00  4.27358E+00  4.68121E+00  6.14491E+00
   8.59400E+00  1.13470E+01  1.44986E+01  1.84177E+01  2.31099E+01  2.80053E+01  3.21007E+01  3.43789E+01  3.43504E+01  3.21240E+01
   2.81627E+01  2.32590E+01  1.83876E+01  1.42832E+01  1.10515E+01  8.25689E+00  5.74120E+00  4.24011E+00  3.82547E+00  3.85682E+00
   4.06285E+00  4.27223E+00  4.37156E+00  4.35348E+00  4.24047E+00  4.03013E+00  3.76321E+00  3.47520E+00  3.17907E+00  2.89672E+00
   2.63268E+00  2.40384E+00  2.20890E+00  1.99866E+00  1.79995E+00  1.63535E+00  1.49905E+00  1.37490E+00  1.20251E+00  9.91020E-01
   7.99438E-01  6.75597E-01  6.21886E-01  6.02707E-01  5.64735E-01  4.56168E-01  2.50142E-01 -6.07389E-02 -4.54545E-01 -8.21855E-01
  -1.08960E+00 -1.32615E+00 -1.58413E+00 -1.89198E+00 -2.15815E+00 -2.28456E+00 -2.30523E+00 -2.28749E+00 -2.27754E+00 -2.30333E+00
  -2.31592E+00 -2.28868E+00 -2.21930E+00 -2.07299E+00 -1.79582E+00 -1.38834E+00 -8.90951E-01 -2.94745E-01  4.01065E-01  1.10460E+00
   1.64334E+00  1.91720E+00  1.92931E+00  1.74074E+00  1.44953E+00  1.18970E+00  1.10120E+00  1.21290E+00  1.55889E+00  2.09474E+00
   2.69987E+00  3.24755E+00  3.60001E+00  3.68215E+00  3.39359E+00  2.69256E+00  1.74796E+00  7.79674E-01  3.05249E-02 -3.10635E-01
  -2.33287E-01  3.12369E-01  1.29849E+00  2.56112E+00  3.76823E+00  4.54060E+00  4.74964E+00  4.41114E+00  3.50073E+00  2.11828E+00
   5.81737E-01 -6.03165E-01 -1.11859E+00 -9.70862E-01 -2.86672E-01  7.74349E-01  2.06494E+00  3.28344E+00  4.13665E+00  4.65566E+00
   4.98925E+00  5.26864E+00  5.53603E+00  5.77339E+00  6.04330E+00  6.38503E+00  6.69897E+00  6.89071E+00  6.90648E+00  6.71983E+00
   6.39739E+00  6.04644E+00  5.82391E+00  5.88979E+00  6.26292E+00  6.84563E+00  7.53353E+00  8.26299E+00  8.97100E+00  9.57790E+00
   1.01288E+01  1.10486E+01  1.35852E+01  1.74260E+01  2.15037E+01  2.59854E+01  3.13921E+01  3.76682E+01  4.39571E+01  4.89367E+01
   5.13407E+01  5.05505E+01  4.67313E+01  4.05650E+01  3.31699E+01  2.60174E+01  2.02610E+01  1.59539E+01  1.22635E+01  8.85905E+00
   6.83147E+00  6.06876E+00  5.66693E+00  5.40447E+00  5.23116E+00  5.10173E+00  4.95265E+00  4.77593E+00  4.57462E+00  4.35908E+00
   4.14789E+00  3.96092E+00  3.80237E+00  3.67623E+00  3.59326E+00  3.55393E+00  3.54921E+00  3.57158E+00  3.61770E+00  3.68850E+00
   3.78437E+00  3.90074E+00  4.03900E+00  4.20072E+00  4.38392E+00  4.58650E+00  4.80782E+00  5.04544E+00  5.29542E+00  5.55364E+00
   5.81554E+00  6.07506E+00  6.32642E+00  6.56385E+00  6.78078E+00  6.97167E+00  7.13239E+00  7.26020E+00  7.35359E+00  7.41208E+00
   7.43713E+00  7.43149E+00  7.39886E+00  7.34432E+00  7.27417E+00  7.19555E+00  7.11669E+00  7.04779E+00  7.00460E+00  7.00894E+00
   7.03348E+00  7.04732E+00  7.06604E+00  7.09669E+00  7.11649E+00  7.08238E+00  6.95576E+00  6.75989E+00  6.55238E+00  6.35391E+00
   6.19894E+00  6.14569E+00  6.24744E+00  6.51180E+00  6.88731E+00  7.29350E+00  7.67475E+00  8.01770E+00  8.28229E+00  8.44380E+00
   8.51958E+00  8.53814E+00  8.54788E+00  8.56257E+00  8.55777E+00  8.53741E+00  8.52030E+00  8.51293E+00  8.52735E+00  8.56538E+00
   8.63903E+00  8.76684E+00  8.95837E+00  9.19449E+00  9.42317E+00  9.58000E+00  9.62329E+00  9.54850E+00  9.34817E+00  9.01941E+00
   8.60177E+00  8.14580E+00  7.69009E+00  7.24880E+00  6.82469E+00  6.44260E+00  6.11592E+00  5.83478E+00  5.59137E+00  5.37942E+00
   5.19359E+00  5.02957E+00  4.88412E+00  4.75506E+00  4.64105E+00  4.54148E+00  4.45625E+00  4.38560E+00  4.32995E+00  4.28984E+00
   4.26586E+00  4.25863E+00  4.26871E+00  4.29666E+00  4.34290E+00  4.40773E+00  4.49130E+00  4.59359E+00  4.71431E+00  4.85286E+00
   5.00826E+00  5.17910E+00  5.36356E+00  5.55931E+00  5.76351E+00  5.97284E+00  6.18350E+00  6.39136E+00  6.59200E+00  6.78086E+00
   6.95340E+00  7.10523E+00  7.23232E+00  7.33116E+00  7.39894E+00  7.43364E+00  7.43411E+00  7.40016E+00  7.33252E+00  7.23286E+00
   7.10367E+00  6.94810E+00  6.76986E+00  6.57302E+00  6.36185E+00  6.14068E+00  5.91370E+00  5.68481E+00  5.45754E+00  5.23496E+00
   5.01966E+00  4.81372E+00  4.61870E+00  4.43566E+00  4.26522E+00  4.10764E+00  3.96285E+00  3.83054E+00  3.71018E+00  3.60112E+00
   3.50258E+00  3.41378E+00  3.33390E+00  3.26215E+00  3.19776E+00  3.13996E+00  3.08810E+00  3.04155E+00  2.99975E+00  2.96221E+00
   2.92844E+00  2.89806E+00  2.87068E+00  2.84601E+00  2.82378E+00  2.80372E+00  2.78561E+00  2.76926E+00  2.75448E+00  2.74116E+00
   2.72914E+00  2.71831E+00  2.70854E+00  2.69975E+00  2.69186E+00  2.68481E+00  2.67852E+00  2.67293E+00  2.66798E+00  2.66361E+00
   2.65980E+00  2.65651E+00  2.65369E+00  2.65131E+00  2.64934E+00  2.64775E+00  2.64652E+00  2.64564E+00  2.64507E+00  2.64479E+00
   2.64478E+00  2.64504E+00  2.64556E+00  2.64632E+00  2.64729E+00  2.64847E+00  2.64986E+00  2.65144E+00  2.65321E+00  2.65515E+00
   2.65726E+00  2.65951E+00  2.66193E+00  2.66450E+00  2.66722E+00  2.67007E+00  2.67305E+00  2.67615E+00  2.67939E+00  2.68276E+00
   2.68625E+00  2.68986E+00  2.69358E+00  2.69742E+00  2.70138E+00  2.70546E+00  2.70967E+00  2.71399E+00
 NY background values follow
     1.027E+01    1.019E+01    1.012E+01    1.004E+01    9.964E+00    9.888E+00    9.812E+00    9.735E+00    9.659E+00    9.583E+00
     9.507E+00    9.431E+00    9.355E+00    9.279E+00    9.203E+00    9.127E+00    9.051E+00    8.975E+00    8.899E+00    8.824E+00
     8.748E+00    8.672E+00    8.596E+00    8.521E+00    8.445E+00    8.370E+00    8.294E+00    8.219E+00    8.144E+00    8.068E+00
     7.993E+00    7.918E+00    7.843E+00    7.769E+00    7.694E+00    7.619E+00    7.545E+00    7.471E+00    7.397E+00    7.323E+00
     7.249E+00    7.175E+00    7.101E+00    7.028E+00    6.955E+00    6.881E+00    6.808E+00    6.736E+00    6.663E+00    6.591E+00
     6.518E+00    6.446E+00    6.375E+00    6.303E+00    6.232E+00    6.160E+00    6.089E+00    6.019E+00    5.948E+00    5.878E+00
     5.808E+00    5.738E+00    5.669E+00    5.600E+00    5.531E+00    5.462E+00    5.394E+00    5.326E+00    5.258E+00    5.190E+00
     5.123E+00    5.057E+00    4.990E+00    4.924E+00    4.858E+00    4.793E+00    4.727E+00    4.663E+00    4.598E+00    4.534E+00
     4.470E+00    4.407E+00    4.344E+00    4.282E+00    4.219E+00    4.158E+00    4.096E+00    4.035E+00    3.975E+00    3.915E+00
     3.855E+00    3.796E+00    3.737E+00    3.679E+00    3.621E+00    3.563E+00    3.506E+00    3.450E+00    3.394E+00    3.338E+00
     3.283E+00    3.228E+00    3.173E+00    3.119E+00    3.066E+00    3.013E+00    2.960E+00    2.908E+00    2.856E+00    2.805E+00
     2.754E+00    2.703E+00    2.653E+00    2.604E+00    2.555E+00    2.506E+00    2.457E+00    2.410E+00    2.362E+00    2.315E+00
     2.269E+00    2.222E+00    2.177E+00    2.131E+00    2.087E+00    2.042E+00    1.998E+00    1.955E+00    1.911E+00    1.869E+00
     1.826E+00    1.785E+00    1.743E+00    1.702E+00    1.662E+00    1.622E+00    1.582E+00    1.543E+00    1.504E+00    1.465E+00
     1.427E+00    1.390E+00    1.353E+00    1.316E+00    1.280E+00    1.244E+00    1.209E+00    1.174E+00    1.140E+00    1.106E+00
     1.073E+00    1.040E+00    1.008E+00    9.760E-01    9.446E-01    9.138E-01    8.834E-01    8.536E-01    8.242E-01    7.954E-01
     7.671E-01    7.393E-01    7.120E-01    6.852E-01    6.590E-01    6.334E-01    6.082E-01    5.836E-01    5.596E-01    5.361E-01
     5.132E-01    4.908E-01    4.690E-01    4.477E-01    4.271E-01    4.070E-01    3.875E-01    3.685E-01    3.502E-01    3.324E-01
     3.152E-01    2.987E-01    2.827E-01    2.673E-01    2.525E-01    2.383E-01    2.246E-01    2.115E-01    1.989E-01    1.869E-01
     1.754E-01    1.645E-01    1.540E-01    1.441E-01    1.346E-01    1.257E-01    1.172E-01    1.093E-01    1.017E-01    9.470E-02
     8.810E-02    8.194E-02    7.623E-02    7.094E-02    6.607E-02    6.161E-02    5.755E-02    5.390E-02    5.062E-02    4.773E-02
     4.521E-02    4.306E-02    4.126E-02    3.980E-02    3.869E-02    3.791E-02    3.745E-02    3.731E-02    3.747E-02    3.793E-02
     3.868E-02    3.972E-02    4.103E-02    4.260E-02    4.444E-02    4.653E-02    4.885E-02    5.142E-02    5.421E-02    5.723E-02
     6.048E-02    6.395E-02    6.763E-02    7.152E-02    7.563E-02    7.994E-02    8.446E-02    8.917E-02    9.407E-02    9.917E-02
     1.045E-01    1.099E-01    1.156E-01    1.214E-01    1.274E-01    1.336E-01    1.399E-01    1.464E-01    1.531E-01    1.599E-01
     1.669E-01    1.740E-01    1.812E-01    1.886E-01    1.962E-01    2.038E-01    2.116E-01    2.196E-01    2.276E-01    2.358E-01
     2.441E-01    2.525E-01    2.610E-01    2.696E-01    2.783E-01    2.871E-01    2.960E-01    3.050E-01    3.141E-01    3.233E-01
     3.325E-01    3.418E-01    3.512E-01    3.607E-01    3.702E-01    3.798E-01    3.895E-01    3.992E-01    4.090E-01    4.188E-01
     4.287E-01    4.387E-01    4.487E-01    4.588E-01    4.689E-01    4.790E-01    4.892E-01    4.995E-01    5.098E-01    5.201E-01
     5.305E-01    5.409E-01    5.513E-01    5.618E-01    5.723E-01    5.828E-01    5.934E-01    6.039E-01    6.145E-01    6.252E-01
     6.358E-01    6.465E-01    6.571E-01    6.678E-01    6.785E-01    6.892E-01    7.000E-01    7.107E-01    7.214E-01    7.321E-01
     7.429E-01    7.536E-01    7.643E-01    7.750E-01    7.857E-01    7.964E-01    8.071E-01    8.178E-01    8.284E-01    8.391E-01
     8.497E-01    8.603E-01    8.709E-01    8.815E-01    8.921E-01    9.027E-01    9.132E-01    9.237E-01    9.343E-01    9.448E-01
     9.553E-01    9.657E-01    9.762E-01    9.866E-01    9.971E-01    1.007E+00    1.018E+00    1.028E+00    1.039E+00    1.049E+00
     1.059E+00    1.070E+00    1.080E+00    1.090E+00    1.101E+00    1.111E+00    1.121E+00    1.131E+00    1.142E+00    1.152E+00
     1.162E+00    1.172E+00    1.182E+00    1.192E+00    1.203E+00    1.213E+00    1.223E+00    1.233E+00    1.243E+00    1.253E+00
     1.263E+00    1.273E+00    1.283E+00    1.293E+00    1.303E+00    1.313E+00    1.323E+00    1.333E+00    1.343E+00    1.353E+00
     1.363E+00    1.372E+00    1.382E+00    1.392E+00    1.402E+00    1.412E+00    1.422E+00    1.431E+00    1.441E+00    1.451E+00
     1.461E+00    1.470E+00    1.480E+00    1.490E+00    1.499E+00    1.509E+00    1.519E+00    1.528E+00    1.538E+00    1.548E+00
     1.557E+00    1.567E+00    1.576E+00    1.586E+00    1.596E+00    1.605E+00    1.615E+00    1.624E+00    1.634E+00    1.643E+00
     1.653E+00    1.662E+00    1.671E+00    1.681E+00    1.690E+00    1.700E+00    1.709E+00    1.718E+00    1.728E+00    1.737E+00
     1.746E+00    1.756E+00    1.765E+00    1.774E+00    1.784E+00    1.793E+00    1.802E+00    1.811E+00    1.821E+00    1.830E+00
     1.839E+00    1.848E+00    1.857E+00    1.866E+00    1.875E+00    1.884E+00    1.893E+00    1.902E+00    1.911E+00    1.920E+00
     1.929E+00    1.938E+00    1.947E+00    1.956E+00    1.964E+00    1.973E+00    1.982E+00    1.991E+00    1.999E+00    2.008E+00
     2.017E+00    2.025E+00    2.034E+00    2.042E+00    2.051E+00    2.059E+00    2.068E+00    2.076E+00    2.084E+00    2.092E+00
     2.101E+00    2.109E+00    2.117E+00    2.125E+00    2.133E+00    2.141E+00    2.149E+00    2.157E+00    2.165E+00    2.173E+00
     2.181E+00    2.189E+00    2.197E+00    2.204E+00    2.212E+00    2.220E+00    2.227E+00    2.235E+00    2.243E+00    2.250E+00
     2.258E+00    2.266E+00    2.273E+00    2.281E+00    2.288E+00    2.296E+00    2.303E+00    2.311E+00    2.318E+00    2.326E+00
     2.333E+00    2.341E+00    2.348E+00    2.356E+00    2.363E+00    2.371E+00    2.378E+00    2.386E+00    2.393E+00    2.400E+00
     2.408E+00    2.415E+00    2.423E+00    2.430E+00    2.438E+00    2.446E+00    2.453E+00    2.461E+00
 Ala      Conc. = 1.01E+02
