 LCModel (Version 6.3-1L) Copyright: S.W. Provencher.          Ref.: Magn. Reson. Med. 30:672-679 (1993).                
 Slice#3 Row#7 Col#3  PD_05_press_1_raw_act
 36 lines in following concentration table = NCONC+1
    Conc.  %SD /Cr+PCr  Metabolite                                         
   26.702 178% 5.2E-02 Ala                                                 
   87.593  87%   0.172 Asp                                                 
    0.000 999%   0.000 Cr                                                  
  508.757   5%   1.000 PCr                                                 
    0.000 999%   0.000 GABA                                                
    0.000 999%   0.000 Glc                                                 
  207.668  48%   0.408 Gln                                                 
  396.869  28%   0.780 Glu                                                 
  111.741   8%   0.220 GPC                                                 
    0.000 999%   0.000 PCh                                                 
  162.485  20%   0.319 GSH                                                 
   91.528 117%   0.180 Ins                                                 
    0.000 999%   0.000 Lac                                                 
  795.996   4%   1.565 NAA                                                 
    0.000 999%   0.000 NAAG                                                
    0.000 999%   0.000 Scyllo                                              
    0.000 999%   0.000 Tau                                                 
    0.000 999%   0.000 -CrCH2                                              
  111.741   8%   0.220 GPC+PCh                                             
  795.996   4%   1.565 NAA+NAAG                                            
  508.757   5%   1.000 Cr+PCr                                              
  604.537  26%   1.188 Glu+Gln                                             
    0.000 999%   0.000 Lip13a                                              
   35.985 125% 7.1E-02 Lip13b                                              
   15.166 175% 3.0E-02 Lip09                                               
  282.692  27%   0.556 MM09                                                
    5.538 323% 1.1E-02 Lip20                                               
  209.807  69%   0.412 MM20                                                
   92.950  67%   0.183 MM12                                                
    0.000 999%   0.000 MM14                                                
    0.000 999%   0.000 MM17                                                
   35.985 125% 7.1E-02 Lip13a+Lip13b                                       
  128.935  53%   0.253 MM14+Lip13a+Lip13b+MM12                             
  297.857  25%   0.585 MM09+Lip09                                          
  215.345  67%   0.423 MM20+Lip20                                          
   6 lines in following misc. output table
  FWHM = 0.061 ppm    S/N =   8                                            
  Data shift = 0.038 ppm                                                   
  Ph: -23 deg     -16.2 deg/ppm                                            
  alphaB,S = 3.3E-01,   9.5E+01                                            
   14 spline knots.   Ns = 7(1)                                            
  (10) 2 infls.   ( 5) 1 extrs.                                            
  498 points on ppm-axis = NY
      4.000000     3.992357     3.984714     3.977070     3.969427     3.961784     3.954141     3.946497     3.938854     3.931211
      3.923568     3.915925     3.908281     3.900638     3.892995     3.885352     3.877708     3.870065     3.862422     3.854779
      3.847136     3.839492     3.831849     3.824206     3.816563     3.808919     3.801276     3.793633     3.785990     3.778347
      3.770703     3.763060     3.755417     3.747774     3.740130     3.732487     3.724844     3.717201     3.709558     3.701914
      3.694271     3.686628     3.678985     3.671341     3.663698     3.656055     3.648412     3.640769     3.633125     3.625482
      3.617839     3.610196     3.602552     3.594909     3.587266     3.579623     3.571980     3.564336     3.556693     3.549050
      3.541407     3.533763     3.526120     3.518477     3.510834     3.503191     3.495547     3.487904     3.480261     3.472618
      3.464974     3.457331     3.449688     3.442045     3.434402     3.426758     3.419115     3.411472     3.403829     3.396185
      3.388542     3.380899     3.373256     3.365613     3.357969     3.350326     3.342683     3.335040     3.327396     3.319753
      3.312110     3.304467     3.296824     3.289180     3.281537     3.273894     3.266251     3.258607     3.250964     3.243321
      3.235678     3.228034     3.220391     3.212748     3.205105     3.197462     3.189818     3.182175     3.174532     3.166889
      3.159245     3.151602     3.143959     3.136316     3.128673     3.121029     3.113386     3.105743     3.098100     3.090456
      3.082813     3.075170     3.067527     3.059884     3.052240     3.044597     3.036954     3.029311     3.021667     3.014024
      3.006381     2.998738     2.991095     2.983451     2.975808     2.968165     2.960522     2.952878     2.945235     2.937592
      2.929949     2.922306     2.914662     2.907019     2.899376     2.891733     2.884089     2.876446     2.868803     2.861160
      2.853517     2.845873     2.838230     2.830587     2.822944     2.815300     2.807657     2.800014     2.792371     2.784728
      2.777084     2.769441     2.761798     2.754155     2.746511     2.738868     2.731225     2.723582     2.715939     2.708295
      2.700652     2.693009     2.685366     2.677722     2.670079     2.662436     2.654793     2.647150     2.639506     2.631863
      2.624220     2.616577     2.608933     2.601290     2.593647     2.586004     2.578361     2.570717     2.563074     2.555431
      2.547788     2.540144     2.532501     2.524858     2.517215     2.509572     2.501928     2.494285     2.486642     2.478999
      2.471355     2.463712     2.456069     2.448426     2.440783     2.433139     2.425496     2.417853     2.410210     2.402566
      2.394923     2.387280     2.379637     2.371994     2.364350     2.356707     2.349064     2.341421     2.333777     2.326134
      2.318491     2.310848     2.303205     2.295561     2.287918     2.280275     2.272632     2.264988     2.257345     2.249702
      2.242059     2.234416     2.226772     2.219129     2.211486     2.203843     2.196199     2.188556     2.180913     2.173270
      2.165627     2.157983     2.150340     2.142697     2.135054     2.127410     2.119767     2.112124     2.104481     2.096838
      2.089194     2.081551     2.073908     2.066265     2.058621     2.050978     2.043335     2.035692     2.028049     2.020405
      2.012762     2.005119     1.997476     1.989833     1.982190     1.974546     1.966903     1.959260     1.951617     1.943974
      1.936331     1.928688     1.921045     1.913402     1.905759     1.898115     1.890472     1.882829     1.875186     1.867543
      1.859900     1.852257     1.844614     1.836971     1.829327     1.821684     1.814041     1.806398     1.798755     1.791112
      1.783469     1.775826     1.768183     1.760540     1.752896     1.745253     1.737610     1.729967     1.722324     1.714681
      1.707038     1.699395     1.691752     1.684108     1.676465     1.668822     1.661179     1.653536     1.645893     1.638250
      1.630607     1.622964     1.615321     1.607677     1.600034     1.592391     1.584748     1.577105     1.569462     1.561819
      1.554176     1.546533     1.538890     1.531246     1.523603     1.515960     1.508317     1.500674     1.493031     1.485388
      1.477745     1.470102     1.462458     1.454815     1.447172     1.439529     1.431886     1.424243     1.416600     1.408957
      1.401314     1.393671     1.386027     1.378384     1.370741     1.363098     1.355455     1.347812     1.340169     1.332526
      1.324883     1.317240     1.309596     1.301953     1.294310     1.286667     1.279024     1.271381     1.263738     1.256095
      1.248452     1.240808     1.233165     1.225522     1.217879     1.210236     1.202593     1.194950     1.187307     1.179664
      1.172021     1.164377     1.156734     1.149091     1.141448     1.133805     1.126162     1.118519     1.110876     1.103233
      1.095590     1.087946     1.080303     1.072660     1.065017     1.057374     1.049731     1.042088     1.034445     1.026802
      1.019158     1.011515     1.003872     0.996229     0.988586     0.980943     0.973300     0.965657     0.958014     0.950371
      0.942727     0.935084     0.927441     0.919798     0.912155     0.904512     0.896869     0.889226     0.881583     0.873940
      0.866296     0.858653     0.851010     0.843367     0.835724     0.828081     0.820438     0.812795     0.805152     0.797508
      0.789865     0.782222     0.774579     0.766936     0.759293     0.751650     0.744007     0.736364     0.728721     0.721077
      0.713434     0.705791     0.698148     0.690505     0.682862     0.675219     0.667576     0.659933     0.652290     0.644646
      0.637003     0.629360     0.621717     0.614074     0.606431     0.598788     0.591145     0.583502     0.575858     0.568215
      0.560572     0.552929     0.545286     0.537643     0.530000     0.522357     0.514714     0.507071     0.499427     0.491784
      0.484141     0.476498     0.468855     0.461212     0.453569     0.445925     0.438282     0.430639     0.422996     0.415353
      0.407710     0.400067     0.392424     0.384780     0.377137     0.369494     0.361851     0.354208     0.346565     0.338922
      0.331278     0.323635     0.315992     0.308349     0.300706     0.293063     0.285420     0.277777     0.270133     0.262490
      0.254847     0.247204     0.239561     0.231918     0.224275     0.216631     0.208988     0.201345
 NY phased data points follow
  -2.31870E+00 -3.59933E+00 -2.49443E+00 -2.22669E+00  1.78714E+00 -4.40260E-01  1.53461E+00  5.70561E+00  9.28267E+00  7.75712E+00
   1.01154E+01  7.49885E+00  6.42519E+00  7.24331E+00  6.24775E+00  3.70248E+00 -6.94697E-01 -4.89139E-02 -1.65868E+00  1.57515E+00
  -5.82751E-01 -6.15249E-01  7.49516E-01  1.59210E+00 -1.39047E+00  2.51121E+00  3.75231E-01  1.57357E+00  2.08057E+00  4.24223E+00
   2.52170E-01  2.07697E+00  1.92855E+00  1.60419E+00  3.49087E+00  6.77253E-01 -3.89076E-01  1.09637E-01 -1.33578E+00  2.33353E-01
  -1.14984E+00  1.55649E+00  2.63011E-01  1.18166E+00  2.31140E+00  1.50322E+00  1.25795E+00  3.57205E+00  2.84065E+00  4.96295E-01
   3.47937E+00  2.16189E+00  1.46679E+00  1.24518E+00  1.96944E+00  1.90173E-01  4.30135E-01  1.38377E+00  1.97748E+00  5.89222E-01
  -6.26727E-01 -6.58440E-01 -1.83070E+00 -3.23612E+00 -2.35012E+00 -1.25540E+00 -1.14163E+00 -2.72385E+00 -1.72073E+00  2.35791E-01
  -1.25154E+00 -8.79191E-03 -1.25086E+00  1.66570E+00 -7.86379E-01 -1.71293E+00 -2.74807E-01 -9.22782E-01  1.35172E+00  1.42687E+00
  -3.96612E-01  5.09526E-01  1.30769E+00 -5.69291E-01 -1.32978E+00  1.64568E+00  1.50752E+00  8.20497E-01  1.66687E+00  1.72702E+00
   6.83305E-02  3.77956E-02  2.73393E+00  1.69589E+00  2.75666E+00  6.25834E-01  2.46481E+00  2.00706E+00  4.80569E+00  6.89025E+00
   8.19675E+00  1.17717E+01  1.11807E+01  1.31483E+01  1.17879E+01  1.28009E+01  1.08441E+01  9.60249E+00  6.49258E+00  4.89644E+00
   5.20094E+00  5.41077E+00  5.18884E+00  5.43146E+00  6.07995E+00  2.91034E+00  3.93989E+00  4.83147E+00  2.36566E+00  5.33616E+00
   3.59915E+00  5.99330E+00  4.69711E+00  7.61360E+00  1.33755E+01  1.59332E+01  1.70842E+01  2.03684E+01  2.15832E+01  2.10759E+01
   1.91195E+01  1.76158E+01  1.57286E+01  1.18721E+01  1.03779E+01  8.49934E+00  8.12623E+00  8.19288E+00  8.62541E+00  3.93165E+00
   5.04176E+00  4.87668E+00  6.10893E+00  5.84096E+00  6.86464E+00  5.78731E+00  7.42828E+00  5.96449E+00  8.05720E+00  4.76970E+00
   5.78634E+00  5.80036E+00  8.23801E+00  5.04809E+00  5.33526E+00  5.81490E+00  7.73398E+00  7.77110E+00  7.78136E+00  8.85968E+00
   5.30523E+00  7.25840E+00  7.33038E+00  5.86655E+00  8.74714E+00  5.82193E+00  7.12734E+00  7.58714E+00  5.22284E+00  8.22022E+00
   7.90516E+00  6.89759E+00  5.80785E+00  4.47199E+00  7.41719E+00  5.12384E+00  6.20400E+00  4.70373E+00  6.99073E+00  8.72471E+00
   6.74675E+00  7.62802E+00  8.36152E+00  5.16623E+00  8.95383E+00  6.86032E+00  7.41801E+00  8.79853E+00  7.49774E+00  8.26755E+00
   1.17606E+01  9.18347E+00  9.60888E+00  1.08457E+01  1.21016E+01  1.31841E+01  1.10255E+01  1.13254E+01  8.51454E+00  1.06250E+01
   1.18072E+01  1.13762E+01  1.15749E+01  1.38181E+01  1.25804E+01  1.29008E+01  9.66239E+00  9.75651E+00  8.67189E+00  1.02717E+01
   8.24843E+00  8.08385E+00  8.49517E+00  8.95609E+00  1.13086E+01  1.25138E+01  1.33114E+01  1.02073E+01  1.14401E+01  8.85354E+00
   7.93281E+00  1.00461E+01  7.51796E+00  7.67530E+00  7.00117E+00  6.54722E+00  8.48697E+00  9.12342E+00  8.29905E+00  7.44668E+00
   7.29852E+00  5.82553E+00  8.19209E+00  7.66358E+00  7.46458E+00  8.19998E+00  4.99595E+00  6.53788E+00  5.85380E+00  4.28057E+00
   6.49152E+00  4.36808E+00  3.00925E+00  5.72022E+00  4.81383E+00  4.55887E+00  2.51376E+00  4.25721E+00  4.74036E+00  3.51419E+00
   6.56192E+00  6.31555E+00  1.87894E+00  5.07151E+00  4.45382E+00  4.43346E+00  7.89162E+00  1.60089E+01  2.05142E+01  2.49451E+01
   2.61866E+01  2.90021E+01  2.76141E+01  2.36402E+01  2.00417E+01  1.44882E+01  1.17776E+01  8.70379E+00  8.10486E+00  8.79420E+00
   3.57693E+00  4.28031E+00  2.96889E+00  1.94153E+00  3.30401E+00  1.50584E+00  3.49783E-01 -7.48605E-01  1.05011E-01  5.95881E-01
   9.02098E-01 -7.69595E-01  9.59947E-02 -7.29707E-01 -2.64513E+00 -1.77397E+00 -1.37338E+00 -2.60613E+00 -3.07840E+00 -3.87618E+00
  -1.82398E+00 -4.71838E+00 -6.98394E-01 -3.17059E+00 -4.02790E+00 -2.90233E+00 -3.78756E+00 -3.44964E+00 -4.42585E+00 -3.04572E+00
  -4.02426E+00 -3.13118E+00 -3.72510E+00 -4.87038E+00 -5.46025E+00 -4.24848E+00 -5.45623E+00 -4.67824E+00 -3.93631E+00 -3.74029E+00
  -2.61532E+00 -5.63372E+00 -1.32831E+00 -2.80057E+00 -1.91042E+00 -3.01744E+00 -1.88462E+00 -1.21933E+00 -5.04032E+00 -1.75139E+00
  -2.48391E+00 -5.62355E+00 -9.17610E-01 -2.93557E+00 -4.98022E-01 -2.54585E+00 -4.67289E+00 -2.07537E+00 -4.19176E+00 -3.59155E+00
  -3.33368E+00 -5.24514E+00 -3.54668E+00 -4.56055E+00 -4.39894E+00 -3.91466E+00 -4.37316E+00 -3.67145E+00 -6.29272E+00 -3.46494E+00
  -3.92329E+00 -4.83638E+00 -4.41021E+00 -5.41642E+00 -7.01789E+00 -3.37568E+00 -3.79169E+00 -4.89144E+00 -4.21412E+00 -3.13311E+00
  -4.48176E+00 -4.47312E+00 -4.11634E+00 -3.28439E+00 -1.37589E+00 -3.38222E+00 -5.80621E-01 -3.20947E+00 -4.79527E+00 -2.04961E+00
  -3.58705E+00 -2.16912E+00 -1.55899E+00 -3.69856E+00 -3.16544E+00 -4.18240E+00 -3.29700E+00 -1.86126E+00 -3.46026E+00 -8.09543E-01
  -2.51071E+00 -3.32366E+00 -2.46767E+00 -1.82004E+00 -3.85917E+00 -2.52732E+00 -1.74955E+00 -1.61547E+00 -8.41237E-01 -2.95901E+00
  -3.78984E+00 -1.34370E+00 -3.48491E+00 -1.00043E+00 -6.29393E-01 -1.51937E+00 -1.79622E+00 -2.66496E+00 -2.08058E+00 -1.51361E+00
  -2.73499E-02  2.07953E+00 -1.94853E+00  1.38669E+00 -3.60538E-01  9.69894E-02 -1.68931E+00 -1.54200E+00 -1.40130E+00 -6.46080E-01
   1.85104E-01 -1.01760E+00 -1.06774E+00  6.79150E-01 -1.38077E-01 -1.26555E+00  2.66590E+00 -1.84231E-01  1.09289E+00 -1.25115E+00
   2.57778E+00  1.77267E+00 -5.35501E-01 -4.20967E-01 -3.74462E-01 -5.50924E-01 -3.85679E-01  4.07761E-01  1.25352E+00 -6.60677E-01
   3.45934E-01  8.17457E-02  1.14309E+00 -1.28480E+00 -6.45656E-01 -2.24039E+00  8.12612E-02  9.04640E-01 -3.40173E-01 -1.73406E+00
   1.51080E-02 -3.80077E-01 -1.97740E+00  3.11854E-01  6.79764E-01  3.77563E-01 -7.78729E-02  1.29898E+00  4.32654E-01 -5.66735E-01
   3.98501E-01 -4.76215E-01  9.52776E-01 -9.73514E-01 -6.48634E-01  2.15741E+00  1.84066E-01 -1.42700E-01  1.21898E+00  1.41688E-01
   2.20126E-01  1.50095E+00  6.05078E-01  9.15896E-01 -5.32321E-01  2.09260E+00 -1.84377E+00  5.72662E-01  1.76805E-01 -4.81473E-01
   5.40489E-01  2.00393E+00  1.93827E-01  6.17464E-02  9.03969E-01  1.49573E+00  1.46398E+00  1.29093E+00 -1.29425E+00  1.91753E+00
   7.37232E-01 -2.44053E+00 -1.74220E+00  1.87272E+00 -1.07635E+00 -1.65895E+00  6.74944E-01  1.90928E+00 -2.35261E+00  5.03975E-01
  -1.57156E+00 -6.90052E-01  2.83519E+00  4.02104E-01 -1.84463E-01  1.56622E+00  1.08924E+00 -5.38534E-02  1.17843E+00  5.86628E-01
   1.93063E+00 -1.09279E+00  2.69575E+00  4.24025E+00  1.36330E+00  7.95219E-01 -1.08127E+00  6.53958E-01
 NY points of the fit to the data follow
  -2.36071E+00 -2.28920E+00 -2.17934E+00 -1.96349E+00 -1.22457E+00  3.88297E-01  2.71838E+00  5.17164E+00  7.19114E+00  8.50321E+00
   9.02626E+00  8.75042E+00  7.81248E+00  6.44778E+00  4.87977E+00  3.33292E+00  1.96763E+00  7.68417E-01 -1.65598E-01 -5.34844E-01
  -6.41820E-01 -6.79867E-01 -7.29136E-01 -8.10136E-01 -7.69157E-01 -4.50340E-01  1.46299E-01  8.87403E-01  1.64939E+00  2.33982E+00
   2.85106E+00  3.07264E+00  2.95563E+00  2.53218E+00  1.91722E+00  1.24655E+00  6.30242E-01  8.87201E-02 -2.79054E-01 -3.67802E-01
  -3.30961E-01 -2.10825E-01 -9.06626E-03  2.40061E-01  4.88021E-01  6.80172E-01  8.11589E-01  8.65423E-01  8.43413E-01  7.74832E-01
   6.69426E-01  5.44333E-01  4.30269E-01  3.27320E-01  2.34604E-01  1.79479E-01  1.77292E-01  2.11588E-01  2.54917E-01  2.96995E-01
   3.23934E-01  3.31694E-01  3.23495E-01  3.08533E-01  2.99624E-01  3.04397E-01  3.27595E-01  3.69746E-01  4.32074E-01  5.09032E-01
   5.89321E-01  6.66354E-01  7.34052E-01  7.90774E-01  8.37668E-01  8.77498E-01  9.15028E-01  9.53575E-01  9.95583E-01  1.04075E+00
   1.08843E+00  1.13832E+00  1.18133E+00  1.20932E+00  1.22255E+00  1.22936E+00  1.24090E+00  1.26651E+00  1.31388E+00  1.38687E+00
   1.48578E+00  1.60713E+00  1.74252E+00  1.88134E+00  2.01628E+00  2.13441E+00  2.27909E+00  2.84778E+00  4.25346E+00  6.43810E+00
   8.85013E+00  1.09073E+01  1.23059E+01  1.29498E+01  1.27968E+01  1.19461E+01  1.06360E+01  9.11548E+00  7.61767E+00  6.30918E+00
   5.17818E+00  4.26439E+00  3.90848E+00  3.88035E+00  3.92593E+00  3.99303E+00  4.06839E+00  4.15147E+00  4.24908E+00  4.36995E+00
   4.50038E+00  4.84555E+00  6.10156E+00  8.70765E+00  1.22867E+01  1.58920E+01  1.87545E+01  2.05697E+01  2.12595E+01  2.07860E+01
   1.93120E+01  1.71543E+01  1.46551E+01  1.21820E+01  9.96685E+00  8.01645E+00  6.63779E+00  6.21559E+00  6.20759E+00  6.33583E+00
   6.51720E+00  6.70939E+00  6.90226E+00  7.06846E+00  7.16820E+00  7.20578E+00  7.19463E+00  7.14488E+00  7.08658E+00  7.02802E+00
   6.99287E+00  6.98553E+00  7.00033E+00  7.03801E+00  7.09441E+00  7.15169E+00  7.16512E+00  7.10918E+00  7.00569E+00  6.91348E+00
   6.89178E+00  6.95429E+00  7.07372E+00  7.21067E+00  7.33599E+00  7.43710E+00  7.50178E+00  7.52417E+00  7.51486E+00  7.48877E+00
   7.42725E+00  7.29534E+00  7.11198E+00  6.92966E+00  6.83170E+00  6.82833E+00  6.85050E+00  6.86307E+00  6.87893E+00  6.91989E+00
   6.98383E+00  7.03966E+00  7.05105E+00  7.03980E+00  7.08523E+00  7.24938E+00  7.53419E+00  7.93353E+00  8.38286E+00  8.80723E+00
   9.12441E+00  9.27812E+00  9.27971E+00  9.15874E+00  8.96753E+00  8.77761E+00  8.62888E+00  8.55307E+00  8.61908E+00  8.84858E+00
   9.22210E+00  9.66493E+00  1.00519E+01  1.02843E+01  1.02764E+01  9.96851E+00  9.40665E+00  8.71331E+00  8.01297E+00  7.40391E+00
   7.03063E+00  7.03730E+00  7.41360E+00  8.01342E+00  8.64313E+00  9.14259E+00  9.37759E+00  9.23967E+00  8.71876E+00  7.90261E+00
   7.05438E+00  6.40868E+00  6.03092E+00  5.92147E+00  6.07048E+00  6.43699E+00  6.87345E+00  7.21009E+00  7.40465E+00  7.48059E+00
   7.46407E+00  7.36448E+00  7.21826E+00  7.11057E+00  7.07684E+00  7.05847E+00  7.01692E+00  6.90681E+00  6.67440E+00  6.32446E+00
   5.91807E+00  5.53273E+00  5.23148E+00  5.03931E+00  4.94670E+00  4.90433E+00  4.89979E+00  4.90515E+00  4.88941E+00  4.86084E+00
   4.84742E+00  4.86437E+00  4.86072E+00  4.79433E+00  4.92547E+00  6.33591E+00  9.83312E+00  1.49848E+01  2.03472E+01  2.46419E+01
   2.72776E+01  2.80556E+01  2.69220E+01  2.42079E+01  2.05137E+01  1.64248E+01  1.24857E+01  9.00947E+00  5.90735E+00  3.48351E+00
   2.44385E+00  2.01695E+00  1.74437E+00  1.54365E+00  1.38440E+00  1.23195E+00  1.07953E+00  9.21689E-01  7.56610E-01  5.87307E-01
   4.18068E-01  2.48568E-01  8.22765E-02 -7.45613E-02 -2.21011E-01 -3.59891E-01 -4.93531E-01 -6.23296E-01 -7.49436E-01 -8.72473E-01
  -9.94351E-01 -1.11410E+00 -1.23090E+00 -1.34455E+00 -1.45509E+00 -1.56267E+00 -1.66732E+00 -1.76927E+00 -1.86879E+00 -1.96553E+00
  -2.05938E+00 -2.15063E+00 -2.23934E+00 -2.32551E+00 -2.40920E+00 -2.49048E+00 -2.56936E+00 -2.64583E+00 -2.71984E+00 -2.79132E+00
  -2.86015E+00 -2.92628E+00 -2.98957E+00 -3.04983E+00 -3.10695E+00 -3.16076E+00 -3.21096E+00 -3.25717E+00 -3.29882E+00 -3.33509E+00
  -3.36359E+00 -3.37469E+00 -3.36368E+00 -3.34644E+00 -3.35030E+00 -3.39289E+00 -3.47384E+00 -3.58472E+00 -3.72110E+00 -3.87086E+00
  -4.00142E+00 -4.07964E+00 -4.09300E+00 -4.05271E+00 -3.98099E+00 -3.89450E+00 -3.79884E+00 -3.71572E+00 -3.66322E+00 -3.63813E+00
  -3.63368E+00 -3.64058E+00 -3.65209E+00 -3.66911E+00 -3.67989E+00 -3.66890E+00 -3.64039E+00 -3.59693E+00 -3.53920E+00 -3.46804E+00
  -3.38530E+00 -3.29421E+00 -3.19948E+00 -3.10688E+00 -3.02255E+00 -2.95208E+00 -2.89961E+00 -2.86708E+00 -2.85390E+00 -2.85716E+00
  -2.87223E+00 -2.89366E+00 -2.91614E+00 -2.93529E+00 -2.94806E+00 -2.95291E+00 -2.94956E+00 -2.93871E+00 -2.92157E+00 -2.89949E+00
  -2.87368E+00 -2.84504E+00 -2.81411E+00 -2.78112E+00 -2.74601E+00 -2.70851E+00 -2.66821E+00 -2.62456E+00 -2.57698E+00 -2.52485E+00
  -2.46755E+00 -2.40446E+00 -2.33496E+00 -2.25846E+00 -2.17442E+00 -2.08240E+00 -1.98207E+00 -1.87322E+00 -1.75581E+00 -1.63002E+00
  -1.49633E+00 -1.35547E+00 -1.20852E+00 -1.05686E+00 -9.02207E-01 -7.46598E-01 -5.92332E-01 -4.41911E-01 -2.97942E-01 -1.63035E-01
  -3.97028E-02  6.97522E-02  1.63351E-01  2.39551E-01  2.97324E-01  3.36214E-01  3.56340E-01  3.58395E-01  3.43609E-01  3.13701E-01
   2.70766E-01  2.17164E-01  1.55395E-01  8.79864E-02  1.73941E-02 -5.40856E-02 -1.24392E-01 -1.91762E-01 -2.54764E-01 -3.12300E-01
  -3.63591E-01 -4.08150E-01 -4.45756E-01 -4.76420E-01 -5.00342E-01 -5.17858E-01 -5.29396E-01 -5.35439E-01 -5.36504E-01 -5.33120E-01
  -5.25810E-01 -5.15062E-01 -5.01327E-01 -4.85009E-01 -4.66482E-01 -4.46079E-01 -4.24098E-01 -4.00792E-01 -3.76376E-01 -3.51035E-01
  -3.24939E-01 -2.98236E-01 -2.71054E-01 -2.43495E-01 -2.15646E-01 -1.87588E-01 -1.59396E-01 -1.31140E-01 -1.02875E-01 -7.46430E-02
  -4.64841E-02 -1.84382E-02  9.45465E-03  3.71651E-02  6.46847E-02  9.20123E-02  1.19145E-01  1.46075E-01  1.72795E-01  1.99303E-01
   2.25606E-01  2.51712E-01  2.77624E-01  3.03340E-01  3.28861E-01  3.54195E-01  3.79353E-01  4.04347E-01  4.29180E-01  4.53854E-01
   4.78376E-01  5.02759E-01  5.27019E-01  5.51165E-01  5.75203E-01  5.99137E-01  6.22979E-01  6.46745E-01  6.70449E-01  6.94100E-01
   7.17702E-01  7.41265E-01  7.64803E-01  7.88334E-01  8.11871E-01  8.35421E-01  8.58992E-01  8.82596E-01  9.06250E-01  9.29971E-01
   9.53771E-01  9.77657E-01  1.00164E+00  1.02573E+00  1.04996E+00  1.07433E+00  1.09886E+00  1.12356E+00
 NY background values follow
    -2.797E+00   -2.756E+00   -2.716E+00   -2.676E+00   -2.635E+00   -2.595E+00   -2.555E+00   -2.516E+00   -2.476E+00   -2.436E+00
    -2.396E+00   -2.357E+00   -2.317E+00   -2.277E+00   -2.238E+00   -2.198E+00   -2.159E+00   -2.119E+00   -2.079E+00   -2.040E+00
    -2.000E+00   -1.960E+00   -1.920E+00   -1.880E+00   -1.840E+00   -1.800E+00   -1.759E+00   -1.719E+00   -1.678E+00   -1.637E+00
    -1.596E+00   -1.555E+00   -1.514E+00   -1.472E+00   -1.430E+00   -1.388E+00   -1.346E+00   -1.303E+00   -1.261E+00   -1.218E+00
    -1.174E+00   -1.131E+00   -1.087E+00   -1.042E+00   -9.978E-01   -9.528E-01   -9.075E-01   -8.618E-01   -8.158E-01   -7.693E-01
    -7.225E-01   -6.752E-01   -6.275E-01   -5.794E-01   -5.308E-01   -4.818E-01   -4.323E-01   -3.822E-01   -3.317E-01   -2.807E-01
    -2.292E-01   -1.771E-01   -1.244E-01   -7.123E-02   -1.746E-02    3.691E-02    9.187E-02    1.474E-01    2.036E-01    2.605E-01
     3.180E-01    3.761E-01    4.349E-01    4.944E-01    5.547E-01    6.156E-01    6.772E-01    7.396E-01    8.027E-01    8.666E-01
     9.312E-01    9.967E-01    1.063E+00    1.130E+00    1.198E+00    1.267E+00    1.336E+00    1.406E+00    1.478E+00    1.550E+00
     1.623E+00    1.697E+00    1.772E+00    1.847E+00    1.924E+00    2.001E+00    2.080E+00    2.159E+00    2.238E+00    2.319E+00
     2.400E+00    2.481E+00    2.564E+00    2.647E+00    2.730E+00    2.814E+00    2.899E+00    2.984E+00    3.070E+00    3.156E+00
     3.242E+00    3.329E+00    3.416E+00    3.504E+00    3.592E+00    3.680E+00    3.768E+00    3.857E+00    3.946E+00    4.035E+00
     4.124E+00    4.213E+00    4.303E+00    4.392E+00    4.482E+00    4.571E+00    4.661E+00    4.750E+00    4.840E+00    4.929E+00
     5.019E+00    5.108E+00    5.197E+00    5.286E+00    5.374E+00    5.463E+00    5.551E+00    5.638E+00    5.726E+00    5.813E+00
     5.899E+00    5.986E+00    6.071E+00    6.156E+00    6.240E+00    6.324E+00    6.407E+00    6.489E+00    6.570E+00    6.650E+00
     6.729E+00    6.807E+00    6.885E+00    6.961E+00    7.036E+00    7.109E+00    7.182E+00    7.253E+00    7.323E+00    7.391E+00
     7.458E+00    7.524E+00    7.588E+00    7.650E+00    7.711E+00    7.769E+00    7.827E+00    7.882E+00    7.935E+00    7.987E+00
     8.037E+00    8.084E+00    8.130E+00    8.173E+00    8.215E+00    8.254E+00    8.290E+00    8.325E+00    8.357E+00    8.387E+00
     8.414E+00    8.439E+00    8.461E+00    8.481E+00    8.498E+00    8.512E+00    8.524E+00    8.534E+00    8.540E+00    8.545E+00
     8.546E+00    8.545E+00    8.541E+00    8.535E+00    8.526E+00    8.515E+00    8.501E+00    8.484E+00    8.465E+00    8.443E+00
     8.418E+00    8.390E+00    8.360E+00    8.328E+00    8.292E+00    8.254E+00    8.213E+00    8.170E+00    8.124E+00    8.075E+00
     8.023E+00    7.969E+00    7.912E+00    7.852E+00    7.789E+00    7.724E+00    7.656E+00    7.585E+00    7.511E+00    7.435E+00
     7.356E+00    7.274E+00    7.189E+00    7.101E+00    7.011E+00    6.918E+00    6.822E+00    6.723E+00    6.621E+00    6.517E+00
     6.411E+00    6.301E+00    6.190E+00    6.076E+00    5.960E+00    5.842E+00    5.722E+00    5.600E+00    5.476E+00    5.350E+00
     5.223E+00    5.094E+00    4.964E+00    4.832E+00    4.699E+00    4.565E+00    4.430E+00    4.293E+00    4.156E+00    4.018E+00
     3.879E+00    3.739E+00    3.599E+00    3.458E+00    3.317E+00    3.176E+00    3.034E+00    2.892E+00    2.751E+00    2.609E+00
     2.467E+00    2.326E+00    2.184E+00    2.044E+00    1.903E+00    1.764E+00    1.625E+00    1.486E+00    1.349E+00    1.212E+00
     1.077E+00    9.425E-01    8.093E-01    6.774E-01    5.467E-01    4.172E-01    2.891E-01    1.624E-01    3.695E-02   -8.707E-02
    -2.097E-01   -3.308E-01   -4.505E-01   -5.687E-01   -6.853E-01   -8.004E-01   -9.139E-01   -1.026E+00   -1.136E+00   -1.245E+00
    -1.352E+00   -1.457E+00   -1.560E+00   -1.662E+00   -1.762E+00   -1.860E+00   -1.956E+00   -2.050E+00   -2.143E+00   -2.233E+00
    -2.322E+00   -2.408E+00   -2.493E+00   -2.575E+00   -2.656E+00   -2.734E+00   -2.810E+00   -2.884E+00   -2.956E+00   -3.025E+00
    -3.093E+00   -3.158E+00   -3.221E+00   -3.281E+00   -3.340E+00   -3.395E+00   -3.449E+00   -3.500E+00   -3.548E+00   -3.595E+00
    -3.639E+00   -3.680E+00   -3.719E+00   -3.756E+00   -3.791E+00   -3.824E+00   -3.854E+00   -3.883E+00   -3.909E+00   -3.933E+00
    -3.955E+00   -3.975E+00   -3.993E+00   -4.010E+00   -4.024E+00   -4.036E+00   -4.047E+00   -4.055E+00   -4.062E+00   -4.067E+00
    -4.071E+00   -4.073E+00   -4.073E+00   -4.071E+00   -4.068E+00   -4.063E+00   -4.057E+00   -4.049E+00   -4.040E+00   -4.029E+00
    -4.017E+00   -4.003E+00   -3.988E+00   -3.972E+00   -3.954E+00   -3.936E+00   -3.916E+00   -3.894E+00   -3.872E+00   -3.848E+00
    -3.824E+00   -3.798E+00   -3.771E+00   -3.743E+00   -3.714E+00   -3.684E+00   -3.654E+00   -3.622E+00   -3.589E+00   -3.556E+00
    -3.522E+00   -3.487E+00   -3.451E+00   -3.414E+00   -3.377E+00   -3.339E+00   -3.300E+00   -3.261E+00   -3.221E+00   -3.180E+00
    -3.139E+00   -3.097E+00   -3.055E+00   -3.012E+00   -2.969E+00   -2.926E+00   -2.882E+00   -2.837E+00   -2.793E+00   -2.748E+00
    -2.702E+00   -2.657E+00   -2.611E+00   -2.565E+00   -2.519E+00   -2.472E+00   -2.426E+00   -2.379E+00   -2.333E+00   -2.286E+00
    -2.239E+00   -2.192E+00   -2.145E+00   -2.099E+00   -2.052E+00   -2.006E+00   -1.959E+00   -1.913E+00   -1.867E+00   -1.821E+00
    -1.775E+00   -1.730E+00   -1.685E+00   -1.640E+00   -1.595E+00   -1.550E+00   -1.506E+00   -1.462E+00   -1.418E+00   -1.374E+00
    -1.331E+00   -1.288E+00   -1.245E+00   -1.202E+00   -1.160E+00   -1.118E+00   -1.076E+00   -1.035E+00   -9.935E-01   -9.526E-01
    -9.121E-01   -8.718E-01   -8.319E-01   -7.923E-01   -7.531E-01   -7.142E-01   -6.756E-01   -6.374E-01   -5.996E-01   -5.621E-01
    -5.250E-01   -4.882E-01   -4.519E-01   -4.159E-01   -3.803E-01   -3.451E-01   -3.103E-01   -2.760E-01   -2.420E-01   -2.085E-01
    -1.754E-01   -1.428E-01   -1.105E-01   -7.876E-02   -4.741E-02   -1.648E-02    1.405E-02    4.419E-02    7.396E-02    1.034E-01
     1.324E-01    1.611E-01    1.895E-01    2.176E-01    2.453E-01    2.728E-01    3.000E-01    3.270E-01    3.537E-01    3.802E-01
     4.065E-01    4.325E-01    4.584E-01    4.840E-01    5.095E-01    5.349E-01    5.601E-01    5.852E-01    6.102E-01    6.350E-01
     6.598E-01    6.845E-01    7.092E-01    7.338E-01    7.583E-01    7.829E-01    8.074E-01    8.319E-01    8.565E-01    8.810E-01
     9.056E-01    9.303E-01    9.551E-01    9.799E-01    1.005E+00    1.030E+00    1.055E+00    1.080E+00
 Ala      Conc. = 2.67E+01
