 LCModel (Version 6.3-1L) Copyright: S.W. Provencher.          Ref.: Magn. Reson. Med. 30:672-679 (1993).                
 Slice#2 Row#2 Col#9  PD_05_press_1_raw_act
 36 lines in following concentration table = NCONC+1
    Conc.  %SD /Cr+PCr  Metabolite                                         
    0.000 999%   0.000 Ala                                                 
    0.000 999%   0.000 Asp                                                 
   62.023 269%   0.114 Cr                                                  
  483.730  35%   0.886 PCr                                                 
   47.685 143% 8.7E-02 GABA                                                
   14.487 456% 2.7E-02 Glc                                                 
    0.000 999%   0.000 Gln                                                 
  504.177  46%   0.924 Glu                                                 
  177.488   8%   0.325 GPC                                                 
    0.000 999%   0.000 PCh                                                 
   67.403  75%   0.124 GSH                                                 
  243.532  66%   0.446 Ins                                                 
    0.000 999%   0.000 Lac                                                 
  772.867  12%   1.416 NAA                                                 
  233.967  44%   0.429 NAAG                                                
   46.472  34% 8.5E-02 Scyllo                                              
  106.924  92%   0.196 Tau                                                 
  267.268  23%   0.490 -CrCH2                                              
  177.488   8%   0.325 GPC+PCh                                             
 1.01E+03   5%   1.845 NAA+NAAG                                            
  545.753   6%   1.000 Cr+PCr                                              
  504.177  46%   0.924 Glu+Gln                                             
    0.000 999%   0.000 Lip13a                                              
    0.000 999%   0.000 Lip13b                                              
 2.46E-03 999% 4.5E-06 Lip09                                               
  775.964  12%   1.422 MM09                                                
    0.000 999%   0.000 Lip20                                               
 1.01E+03  19%   1.843 MM20                                                
  125.247  62%   0.229 MM12                                                
   20.891 577% 3.8E-02 MM14                                                
  396.919  27%   0.727 MM17                                                
    0.000 999%   0.000 Lip13a+Lip13b                                       
  146.138  93%   0.268 MM14+Lip13a+Lip13b+MM12                             
  775.967  12%   1.422 MM09+Lip09                                          
 1.01E+03  19%   1.843 MM20+Lip20                                          
   6 lines in following misc. output table
  FWHM = 0.076 ppm    S/N =   6                                            
  Data shift = 0.069 ppm                                                   
  Ph:  14 deg      -3.7 deg/ppm                                            
  alphaB,S = 8.5E+01,   4.5E+02                                            
   14 spline knots.   Ns = 9(1)                                            
   2 inflections.     1 extrema                                            
  498 points on ppm-axis = NY
      4.000000     3.992357     3.984714     3.977070     3.969427     3.961784     3.954141     3.946497     3.938854     3.931211
      3.923568     3.915925     3.908281     3.900638     3.892995     3.885352     3.877708     3.870065     3.862422     3.854779
      3.847136     3.839492     3.831849     3.824206     3.816563     3.808919     3.801276     3.793633     3.785990     3.778347
      3.770703     3.763060     3.755417     3.747774     3.740130     3.732487     3.724844     3.717201     3.709558     3.701914
      3.694271     3.686628     3.678985     3.671341     3.663698     3.656055     3.648412     3.640769     3.633125     3.625482
      3.617839     3.610196     3.602552     3.594909     3.587266     3.579623     3.571980     3.564336     3.556693     3.549050
      3.541407     3.533763     3.526120     3.518477     3.510834     3.503191     3.495547     3.487904     3.480261     3.472618
      3.464974     3.457331     3.449688     3.442045     3.434402     3.426758     3.419115     3.411472     3.403829     3.396185
      3.388542     3.380899     3.373256     3.365613     3.357969     3.350326     3.342683     3.335040     3.327396     3.319753
      3.312110     3.304467     3.296824     3.289180     3.281537     3.273894     3.266251     3.258607     3.250964     3.243321
      3.235678     3.228034     3.220391     3.212748     3.205105     3.197462     3.189818     3.182175     3.174532     3.166889
      3.159245     3.151602     3.143959     3.136316     3.128673     3.121029     3.113386     3.105743     3.098100     3.090456
      3.082813     3.075170     3.067527     3.059884     3.052240     3.044597     3.036954     3.029311     3.021667     3.014024
      3.006381     2.998738     2.991095     2.983451     2.975808     2.968165     2.960522     2.952878     2.945235     2.937592
      2.929949     2.922306     2.914662     2.907019     2.899376     2.891733     2.884089     2.876446     2.868803     2.861160
      2.853517     2.845873     2.838230     2.830587     2.822944     2.815300     2.807657     2.800014     2.792371     2.784728
      2.777084     2.769441     2.761798     2.754155     2.746511     2.738868     2.731225     2.723582     2.715939     2.708295
      2.700652     2.693009     2.685366     2.677722     2.670079     2.662436     2.654793     2.647150     2.639506     2.631863
      2.624220     2.616577     2.608933     2.601290     2.593647     2.586004     2.578361     2.570717     2.563074     2.555431
      2.547788     2.540144     2.532501     2.524858     2.517215     2.509572     2.501928     2.494285     2.486642     2.478999
      2.471355     2.463712     2.456069     2.448426     2.440783     2.433139     2.425496     2.417853     2.410210     2.402566
      2.394923     2.387280     2.379637     2.371994     2.364350     2.356707     2.349064     2.341421     2.333777     2.326134
      2.318491     2.310848     2.303205     2.295561     2.287918     2.280275     2.272632     2.264988     2.257345     2.249702
      2.242059     2.234416     2.226772     2.219129     2.211486     2.203843     2.196199     2.188556     2.180913     2.173270
      2.165627     2.157983     2.150340     2.142697     2.135054     2.127410     2.119767     2.112124     2.104481     2.096838
      2.089194     2.081551     2.073908     2.066265     2.058621     2.050978     2.043335     2.035692     2.028049     2.020405
      2.012762     2.005119     1.997476     1.989833     1.982190     1.974546     1.966903     1.959260     1.951617     1.943974
      1.936331     1.928688     1.921045     1.913402     1.905759     1.898115     1.890472     1.882829     1.875186     1.867543
      1.859900     1.852257     1.844614     1.836971     1.829327     1.821684     1.814041     1.806398     1.798755     1.791112
      1.783469     1.775826     1.768183     1.760540     1.752896     1.745253     1.737610     1.729967     1.722324     1.714681
      1.707038     1.699395     1.691752     1.684108     1.676465     1.668822     1.661179     1.653536     1.645893     1.638250
      1.630607     1.622964     1.615321     1.607677     1.600034     1.592391     1.584748     1.577105     1.569462     1.561819
      1.554176     1.546533     1.538890     1.531246     1.523603     1.515960     1.508317     1.500674     1.493031     1.485388
      1.477745     1.470102     1.462458     1.454815     1.447172     1.439529     1.431886     1.424243     1.416600     1.408957
      1.401314     1.393671     1.386027     1.378384     1.370741     1.363098     1.355455     1.347812     1.340169     1.332526
      1.324883     1.317240     1.309596     1.301953     1.294310     1.286667     1.279024     1.271381     1.263738     1.256095
      1.248452     1.240808     1.233165     1.225522     1.217879     1.210236     1.202593     1.194950     1.187307     1.179664
      1.172021     1.164377     1.156734     1.149091     1.141448     1.133805     1.126162     1.118519     1.110876     1.103233
      1.095590     1.087946     1.080303     1.072660     1.065017     1.057374     1.049731     1.042088     1.034445     1.026802
      1.019158     1.011515     1.003872     0.996229     0.988586     0.980943     0.973300     0.965657     0.958014     0.950371
      0.942727     0.935084     0.927441     0.919798     0.912155     0.904512     0.896869     0.889226     0.881583     0.873940
      0.866296     0.858653     0.851010     0.843367     0.835724     0.828081     0.820438     0.812795     0.805152     0.797508
      0.789865     0.782222     0.774579     0.766936     0.759293     0.751650     0.744007     0.736364     0.728721     0.721077
      0.713434     0.705791     0.698148     0.690505     0.682862     0.675219     0.667576     0.659933     0.652290     0.644646
      0.637003     0.629360     0.621717     0.614074     0.606431     0.598788     0.591145     0.583502     0.575858     0.568215
      0.560572     0.552929     0.545286     0.537643     0.530000     0.522357     0.514714     0.507071     0.499427     0.491784
      0.484141     0.476498     0.468855     0.461212     0.453569     0.445925     0.438282     0.430639     0.422996     0.415353
      0.407710     0.400067     0.392424     0.384780     0.377137     0.369494     0.361851     0.354208     0.346565     0.338922
      0.331278     0.323635     0.315992     0.308349     0.300706     0.293063     0.285420     0.277777     0.270133     0.262490
      0.254847     0.247204     0.239561     0.231918     0.224275     0.216631     0.208988     0.201345
 NY phased data points follow
   1.28783E+00 -7.71745E-01 -8.02138E-01  8.33831E-01  2.09455E+00  7.92201E-01  1.71121E+00  1.88627E+00  4.56248E+00  6.15100E+00
   3.09870E+00  5.01733E+00  4.30541E+00  2.96961E+00 -2.65148E-02 -1.64711E+00 -3.05752E-01  2.45755E-01 -1.90851E-01 -1.64098E+00
   1.74027E+00  1.61666E+00 -2.40375E+00  1.57948E+00 -1.10533E+00 -4.60480E-01  1.00300E+00 -4.11296E-02 -2.34730E+00 -2.15253E+00
   8.02986E-01 -8.02263E-01  9.67716E-01  1.32755E+00 -3.50159E-01 -2.93543E+00  5.48550E-02  2.41859E+00  6.06348E-01  4.80692E-01
   9.44453E-01 -6.30145E-01  1.34597E+00  1.02578E+00 -1.62622E-02 -9.04764E-01  1.82225E+00  4.63507E+00  1.60270E+00  1.69462E+00
   1.89697E+00  1.93329E+00  3.19354E+00  1.62773E+00  1.33574E+00 -3.26666E+00 -5.55283E+00  6.58701E-01 -1.72712E-01 -5.82868E-01
  -1.53716E+00 -3.00038E+00 -3.94433E+00 -9.18520E-01 -2.59908E+00 -1.95729E+00 -7.43265E-01  5.72580E-02  8.04792E-01  1.54064E+00
  -1.12074E+00 -5.37566E+00  1.18900E-01 -2.29952E+00 -3.05970E-01 -2.09809E+00  9.06038E-01 -1.87132E+00  3.53539E-01  6.59429E-03
   4.19330E-01  5.92086E-01  7.84209E-01 -9.38573E-01  2.19678E-03  1.22856E+00 -5.34903E-02  2.76038E+00  1.54987E+00 -7.17922E-01
   3.05142E+00  4.39365E+00  4.84178E+00  5.36431E+00  4.45872E+00  4.61326E+00  1.68926E+00  2.58776E+00  7.55315E+00  6.46970E+00
   1.15121E+01  1.05139E+01  1.42301E+01  1.33187E+01  1.03197E+01  8.93558E+00  8.18748E+00  1.60063E+00  4.02837E+00  3.84792E-01
   3.75397E+00 -3.31976E-03  1.11843E+00  6.14403E-01  5.02879E-02  1.34808E+00  2.40652E+00  3.20831E+00  3.66128E+00  3.75852E+00
   5.46266E+00  7.13200E+00  6.30448E+00  6.20800E+00  9.06878E+00  1.01946E+01  1.36669E+01  1.30687E+01  1.23292E+01  9.14203E+00
   1.09276E+01  7.36535E+00  4.90637E+00  2.46672E+00  1.46773E+00 -1.92645E+00 -2.73037E-01  2.07747E-01  4.50309E-01 -2.68311E+00
   2.83388E-01  3.39810E+00 -9.63341E-01 -1.29516E+00 -2.13743E+00 -1.03466E+00  1.46152E+00  1.15634E+00 -2.01130E+00 -2.44431E+00
  -4.18144E+00 -1.89607E+00 -2.43217E-01 -1.00956E+00 -2.75722E+00  5.81997E-02  9.57337E-01  1.71716E-02 -1.51440E+00 -7.68693E-01
  -1.22600E+00  9.77881E-01 -3.10247E+00 -1.89323E+00 -1.68928E+00 -2.03911E+00 -2.81881E-01 -5.28873E+00 -1.42975E+00 -5.62468E+00
  -5.10867E+00 -4.17020E+00 -2.85088E+00 -2.38122E+00 -8.95523E+00 -7.76524E+00 -8.07740E+00 -4.94915E+00 -4.68965E+00 -2.67568E+00
  -3.03185E+00 -2.80646E+00 -4.60461E+00 -1.41575E+00 -2.46506E+00 -1.28353E+00 -5.73270E+00 -3.58086E+00 -3.53284E+00  3.00331E+00
  -1.19078E-01 -1.35841E+00  2.53300E-01  6.81884E-01 -2.40804E+00 -2.03495E+00 -2.26192E+00 -4.04054E+00  9.08472E-01 -1.91111E+00
  -2.20741E+00 -7.85004E-01 -3.05741E+00  1.27312E+00 -2.03341E+00  3.64142E+00 -1.40595E-01 -3.82775E-01 -3.89426E-01 -1.83964E+00
  -1.46073E+00  1.33552E+00  1.50119E-01 -2.63837E+00  2.95617E+00  3.20646E+00  1.58956E+00  2.14432E-01  3.73367E+00 -6.54463E-01
   4.23512E-01 -3.57505E+00 -1.13339E-01 -9.43367E-01 -1.06109E+00 -2.50180E+00 -2.08008E+00  1.27414E+00  2.96365E+00  1.23979E+00
  -2.22039E+00  1.99888E-01  1.07687E+00  2.77005E+00  7.35782E-01 -1.34312E+00 -4.28764E+00  4.53141E+00  3.06036E+00  2.51664E+00
  -1.05748E+00  1.13338E+00  1.39071E+00  9.31953E-01  6.56035E-01  1.60027E+00  5.17148E+00  4.63616E+00  9.80008E+00  8.41597E+00
   9.09430E+00  9.05824E+00  1.18735E+01  1.24969E+01  1.57489E+01  1.63252E+01  1.35753E+01  2.03021E+01  2.27267E+01  2.76133E+01
   3.05240E+01  2.73937E+01  2.69748E+01  1.88493E+01  1.31684E+01  1.22197E+01  8.34695E+00  3.67418E+00  3.42761E+00  3.04495E+00
   1.91421E-01  1.68646E+00  1.91079E+00  2.48760E+00  7.28127E-01  3.23667E+00  2.26884E+00  1.72964E+00  1.72476E+00  2.39430E-01
   2.36959E-01  9.64508E-01 -4.17532E-01  6.42042E-01  1.57878E+00  8.14482E-01  1.19502E+00 -8.73519E-01 -2.95882E+00 -9.72183E-01
   9.64277E-01 -4.10283E-01 -4.94639E-01 -5.93124E-01 -2.64207E+00  6.28971E-01 -4.91495E-01 -5.67712E-01 -7.65213E-01  4.83695E-01
   2.50303E+00  1.20939E+00 -1.39920E+00  9.43374E-02  2.39712E+00  4.89536E+00  1.24380E+00  3.92477E+00  1.86869E+00  3.29885E+00
   2.18713E+00  2.41825E+00  1.64255E+00  1.00865E+00  1.64073E+00  2.59032E+00  4.00317E+00  5.90135E-01  2.67897E+00  1.83379E+00
   2.76795E-01 -1.47739E+00  2.07396E+00 -6.68352E-01  1.57054E+00  2.65178E+00  9.84360E-01  2.12294E+00  2.15734E+00 -1.37416E-01
  -1.82018E+00  2.88781E+00 -1.68173E+00  1.48333E+00  5.66686E-01  9.83378E-01  4.91187E+00  3.53540E-01 -2.79929E-02 -2.13024E+00
   2.27031E+00  4.85064E-01  6.18495E-02 -1.56081E+00 -2.27689E+00 -1.33738E-01 -1.96220E+00 -1.26064E+00 -4.38699E+00  1.62262E+00
  -1.20704E+00 -1.78317E+00  5.74996E-01 -3.26690E-01 -1.45353E+00  4.65186E-01 -5.85292E-01 -4.38501E-01  1.22102E-02 -1.18845E+00
  -1.72316E+00 -7.07814E-01 -1.95965E+00  5.57874E-01  1.03448E+00 -3.11571E+00  9.72657E-01 -3.40327E-01  1.54845E+00  2.12317E-02
  -3.68594E+00  1.03906E+00  2.20119E+00  1.55478E+00  4.31608E+00  4.53751E+00  1.52819E+00  2.19446E+00  1.86292E+00  1.43130E+00
   1.85237E-01 -3.04471E-01  2.08982E+00 -6.53824E-01 -1.45266E+00 -5.47377E-01  6.15308E+00  1.19740E+00  1.73696E+00  3.16657E+00
   5.32736E+00  4.81439E+00  4.76782E+00  5.90524E+00  5.71790E+00  7.10798E+00  8.74930E+00  9.56692E+00  6.77364E+00  5.51166E+00
   4.95834E+00  4.59806E+00  6.03195E+00  5.62171E+00  2.46871E+00  4.63512E+00  4.39031E+00  6.72115E+00  4.27742E+00  4.62897E+00
   4.20802E+00  5.72577E+00  3.10537E+00  5.59367E+00  3.66764E+00  4.61482E+00  7.09476E+00  5.58561E+00  1.21136E+00  3.01501E+00
   3.37101E+00  2.43470E+00  1.39078E+00 -5.86526E-02 -1.14852E+00  1.96000E+00 -2.44583E-01  1.16573E+00  1.57690E+00 -2.07827E+00
   1.58377E+00  8.70947E-01  2.15738E+00  2.68954E+00  4.15143E-01 -2.30748E+00  3.95002E+00  1.88820E+00 -1.48136E+00  6.20518E-01
   3.14344E+00  2.17089E-01  7.59132E-02  1.15218E+00  8.99141E-01  1.97925E+00  1.78998E+00  1.38689E+00  2.54462E+00 -6.29716E-01
   1.69052E+00 -9.66377E-01 -6.21606E-01 -6.72935E-01  4.47120E-01 -1.96954E+00  1.21782E+00  4.98145E-01 -5.33360E-01  2.25636E+00
  -6.00904E-01 -2.80917E-01 -1.17024E+00 -1.54017E+00 -2.47627E+00  1.83196E+00  4.80515E-01  3.63382E+00  2.27280E+00  1.35484E+00
  -8.02076E-01  2.68223E+00  1.18888E+00  2.85957E+00  1.32242E+00  1.75153E-01  2.97556E-01 -2.83461E+00 -4.55592E-01  1.98485E+00
   5.55530E-01  1.89880E+00 -2.65876E+00  1.27777E-01  1.29707E+00 -9.75816E-01 -4.81561E-01  3.17760E+00  4.16975E+00 -3.59845E-01
   1.79180E+00  1.30627E+00  1.71556E+00  7.52712E-01  2.89871E+00 -1.92220E+00  8.79720E-01  1.61840E+00
 NY points of the fit to the data follow
   1.88293E-01  5.28604E-01  9.56057E-01  1.46068E+00  2.01444E+00  2.58616E+00  3.13626E+00  3.60950E+00  3.93441E+00  4.05130E+00
   3.93305E+00  3.59143E+00  3.07033E+00  2.43408E+00  1.75257E+00  1.08819E+00  4.95800E-01  1.76049E-02 -3.25572E-01 -5.51946E-01
  -6.88217E-01 -7.49545E-01 -7.46187E-01 -6.98755E-01 -6.13625E-01 -4.87167E-01 -3.26333E-01 -1.49934E-01  3.02253E-02  2.05708E-01
   3.57628E-01  4.68122E-01  5.25820E-01  5.26857E-01  4.65288E-01  3.36529E-01  1.64340E-01 -9.41901E-03 -1.45936E-01 -2.13653E-01
  -1.91499E-01 -8.89230E-02  6.04375E-02  2.34773E-01  4.16406E-01  5.80606E-01  6.96502E-01  7.37554E-01  6.91688E-01  5.58528E-01
   3.57498E-01  1.23436E-01 -1.11334E-01 -3.22368E-01 -4.98699E-01 -6.31721E-01 -7.10736E-01 -7.33959E-01 -7.11454E-01 -6.65087E-01
  -6.17533E-01 -5.90376E-01 -5.90914E-01 -6.07813E-01 -6.30143E-01 -6.50065E-01 -6.54218E-01 -6.31654E-01 -5.88233E-01 -5.32493E-01
  -4.70204E-01 -4.09405E-01 -3.56973E-01 -3.14494E-01 -2.86126E-01 -2.75015E-01 -2.75306E-01 -2.51065E-01 -1.65521E-01 -4.20103E-02
   1.00788E-01  2.62559E-01  4.51270E-01  6.68736E-01  8.92527E-01  1.08405E+00  1.20675E+00  1.23634E+00  1.16674E+00  1.02143E+00
   8.45685E-01  6.88984E-01  6.53717E-01  1.00997E+00  1.84920E+00  2.97479E+00  4.25537E+00  5.64945E+00  7.13139E+00  8.63482E+00
   1.00311E+01  1.11242E+01  1.17048E+01  1.16285E+01  1.08693E+01  9.52547E+00  7.78041E+00  5.85171E+00  3.94867E+00  2.24733E+00
   8.72756E-01 -1.08374E-01 -6.70199E-01 -8.41499E-01 -7.87656E-01 -6.58751E-01 -4.39534E-01  5.85554E-02  1.02915E+00  2.31265E+00
   3.73235E+00  5.22398E+00  6.78647E+00  8.40560E+00  9.98981E+00  1.13515E+01  1.22524E+01  1.24966E+01  1.20012E+01  1.08185E+01
   9.11170E+00  7.09987E+00  5.00985E+00  3.04430E+00  1.35838E+00  5.58599E-02 -8.10057E-01 -1.23909E+00 -1.35126E+00 -1.35158E+00
  -1.31743E+00 -1.27033E+00 -1.22452E+00 -1.19066E+00 -1.17557E+00 -1.18601E+00 -1.22401E+00 -1.28007E+00 -1.34338E+00 -1.40388E+00
  -1.45350E+00 -1.49914E+00 -1.55682E+00 -1.62278E+00 -1.68628E+00 -1.73542E+00 -1.76405E+00 -1.79071E+00 -1.83096E+00 -1.88622E+00
  -1.94994E+00 -2.01512E+00 -2.07372E+00 -2.12363E+00 -2.17309E+00 -2.23397E+00 -2.31803E+00 -2.43331E+00 -2.56269E+00 -2.67897E+00
  -2.77397E+00 -2.85655E+00 -2.94041E+00 -3.01435E+00 -3.06177E+00 -3.06791E+00 -3.03536E+00 -2.98437E+00 -2.93155E+00 -2.86587E+00
  -2.77262E+00 -2.64494E+00 -2.47941E+00 -2.27721E+00 -2.04707E+00 -1.79804E+00 -1.53264E+00 -1.24701E+00 -9.41643E-01 -6.47298E-01
  -3.92856E-01 -1.95038E-01 -6.53447E-02 -1.06399E-03  1.54615E-02  6.78949E-03 -1.86699E-02 -4.91250E-02 -7.21428E-02 -7.52382E-02
  -5.45245E-02 -2.54829E-02 -3.99966E-03 -1.13657E-02 -7.33229E-02 -1.82335E-01 -3.12153E-01 -4.15935E-01 -4.80602E-01 -5.23479E-01
  -5.34047E-01 -4.93262E-01 -3.96283E-01 -2.70945E-01 -1.59592E-01 -8.69891E-02 -7.18771E-02 -1.45450E-01 -3.22094E-01 -5.82800E-01
  -8.75225E-01 -1.13047E+00 -1.28397E+00 -1.28806E+00 -1.11714E+00 -7.78488E-01 -3.16404E-01  2.03695E-01  7.02794E-01  1.12261E+00
   1.44372E+00  1.66627E+00  1.80191E+00  1.87403E+00  1.91022E+00  1.94831E+00  2.00645E+00  2.07681E+00  2.14592E+00  2.21211E+00
   2.28446E+00  2.37379E+00  2.49098E+00  2.65354E+00  2.87800E+00  3.16681E+00  3.54616E+00  4.10882E+00  4.82235E+00  5.60377E+00
   6.52272E+00  7.99464E+00  1.01187E+01  1.25923E+01  1.51789E+01  1.77528E+01  2.02283E+01  2.24854E+01  2.43293E+01  2.54988E+01
   2.57368E+01  2.48922E+01  2.29956E+01  2.02529E+01  1.69804E+01  1.35293E+01  1.02276E+01  7.32498E+00  4.93693E+00  3.13571E+00
   1.97299E+00  1.41376E+00  1.18589E+00  1.05235E+00  9.56024E-01  8.76683E-01  7.99519E-01  7.17079E-01  6.29625E-01  5.38113E-01
   4.46167E-01  3.59141E-01  2.82747E-01  2.22259E-01  1.80697E-01  1.57600E-01  1.49545E-01  1.52648E-01  1.64765E-01  1.85907E-01
   2.16267E-01  2.56580E-01  3.07685E-01  3.70506E-01  4.45213E-01  5.30810E-01  6.26031E-01  7.30271E-01  8.42744E-01  9.62747E-01
   1.08947E+00  1.22141E+00  1.35634E+00  1.49146E+00  1.62253E+00  1.74475E+00  1.85370E+00  1.94546E+00  2.01676E+00  2.06511E+00
   2.08898E+00  2.08824E+00  2.06344E+00  2.01567E+00  1.94674E+00  1.85906E+00  1.75552E+00  1.63937E+00  1.51408E+00  1.38316E+00
   1.25001E+00  1.11772E+00  9.89050E-01  8.66286E-01  7.51227E-01  6.45168E-01  5.48954E-01  4.62990E-01  3.87316E-01  3.21643E-01
   2.65467E-01  2.18108E-01  1.78799E-01  1.46713E-01  1.21037E-01  1.00982E-01  8.58441E-02  7.49913E-02  6.78947E-02  6.41038E-02
   6.32701E-02  6.51171E-02  6.94586E-02  7.61578E-02  8.51370E-02  9.63356E-02  1.09727E-01  1.25281E-01  1.42980E-01  1.62772E-01
   1.84595E-01  2.08331E-01  2.33838E-01  2.60920E-01  2.89352E-01  3.18853E-01  3.49118E-01  3.79799E-01  4.10554E-01  4.41027E-01
   4.70895E-01  4.99855E-01  5.27669E-01  5.54156E-01  5.79246E-01  6.02962E-01  6.25459E-01  6.47011E-01  6.68045E-01  6.89121E-01
   7.10975E-01  7.34477E-01  7.60672E-01  7.90740E-01  8.26032E-01  8.68034E-01  9.18395E-01  9.78874E-01  1.05136E+00  1.13780E+00
   1.24020E+00  1.36053E+00  1.50068E+00  1.66235E+00  1.84692E+00  2.05533E+00  2.28795E+00  2.54443E+00  2.82353E+00  3.12306E+00
   3.43974E+00  3.76919E+00  4.10597E+00  4.44362E+00  4.77493E+00  5.09205E+00  5.38693E+00  5.65155E+00  5.87840E+00  6.06082E+00
   6.19335E+00  6.27201E+00  6.29458E+00  6.26066E+00  6.17171E+00  6.03095E+00  5.84318E+00  5.61445E+00  5.35180E+00  5.06283E+00
   4.75536E+00  4.43702E+00  4.11501E+00  3.79579E+00  3.48493E+00  3.18699E+00  2.90549E+00  2.64290E+00  2.40078E+00  2.17980E+00
   1.97995E+00  1.80063E+00  1.64084E+00  1.49923E+00  1.37433E+00  1.26454E+00  1.16828E+00  1.08401E+00  1.01028E+00  9.45773E-01
   8.89287E-01  8.39749E-01  7.96240E-01  7.57937E-01  7.24151E-01  6.94268E-01  6.67787E-01  6.44261E-01  6.23330E-01  6.04664E-01
   5.88004E-01  5.73104E-01  5.59779E-01  5.47847E-01  5.37173E-01  5.27615E-01  5.19073E-01  5.11435E-01  5.04631E-01  4.98572E-01
   4.93205E-01  4.88457E-01  4.84287E-01  4.80634E-01  4.77472E-01  4.74749E-01  4.72445E-01  4.70513E-01  4.68939E-01  4.67684E-01
   4.66740E-01  4.66071E-01  4.65671E-01  4.65508E-01  4.65578E-01  4.65854E-01  4.66338E-01  4.67001E-01  4.67846E-01  4.68846E-01
   4.70007E-01  4.71305E-01  4.72748E-01  4.74311E-01  4.76000E-01  4.77793E-01  4.79699E-01  4.81698E-01  4.83798E-01  4.85978E-01
   4.88244E-01  4.90579E-01  4.92993E-01  4.95466E-01  4.98008E-01  5.00598E-01  5.03247E-01  5.05936E-01  5.08676E-01  5.11449E-01
   5.14264E-01  5.17099E-01  5.19968E-01  5.22850E-01  5.25756E-01  5.28667E-01  5.31589E-01  5.34503E-01
 NY background values follow
    -2.408E+00   -2.403E+00   -2.398E+00   -2.393E+00   -2.388E+00   -2.383E+00   -2.378E+00   -2.373E+00   -2.368E+00   -2.363E+00
    -2.358E+00   -2.353E+00   -2.348E+00   -2.343E+00   -2.338E+00   -2.333E+00   -2.328E+00   -2.323E+00   -2.318E+00   -2.313E+00
    -2.308E+00   -2.303E+00   -2.298E+00   -2.293E+00   -2.288E+00   -2.283E+00   -2.278E+00   -2.273E+00   -2.268E+00   -2.262E+00
    -2.257E+00   -2.252E+00   -2.247E+00   -2.242E+00   -2.237E+00   -2.232E+00   -2.227E+00   -2.222E+00   -2.217E+00   -2.212E+00
    -2.207E+00   -2.202E+00   -2.196E+00   -2.191E+00   -2.186E+00   -2.181E+00   -2.176E+00   -2.171E+00   -2.166E+00   -2.161E+00
    -2.156E+00   -2.150E+00   -2.145E+00   -2.140E+00   -2.135E+00   -2.130E+00   -2.125E+00   -2.120E+00   -2.115E+00   -2.109E+00
    -2.104E+00   -2.099E+00   -2.094E+00   -2.089E+00   -2.084E+00   -2.079E+00   -2.073E+00   -2.068E+00   -2.063E+00   -2.058E+00
    -2.053E+00   -2.048E+00   -2.043E+00   -2.037E+00   -2.032E+00   -2.027E+00   -2.022E+00   -2.017E+00   -2.011E+00   -2.006E+00
    -2.001E+00   -1.996E+00   -1.991E+00   -1.986E+00   -1.980E+00   -1.975E+00   -1.970E+00   -1.965E+00   -1.960E+00   -1.954E+00
    -1.949E+00   -1.944E+00   -1.939E+00   -1.934E+00   -1.928E+00   -1.923E+00   -1.918E+00   -1.913E+00   -1.907E+00   -1.902E+00
    -1.897E+00   -1.892E+00   -1.887E+00   -1.881E+00   -1.876E+00   -1.871E+00   -1.866E+00   -1.860E+00   -1.855E+00   -1.850E+00
    -1.845E+00   -1.839E+00   -1.834E+00   -1.829E+00   -1.824E+00   -1.818E+00   -1.813E+00   -1.808E+00   -1.803E+00   -1.797E+00
    -1.792E+00   -1.787E+00   -1.782E+00   -1.776E+00   -1.771E+00   -1.766E+00   -1.761E+00   -1.755E+00   -1.750E+00   -1.745E+00
    -1.739E+00   -1.734E+00   -1.729E+00   -1.724E+00   -1.718E+00   -1.713E+00   -1.708E+00   -1.702E+00   -1.697E+00   -1.692E+00
    -1.686E+00   -1.681E+00   -1.676E+00   -1.671E+00   -1.665E+00   -1.660E+00   -1.655E+00   -1.649E+00   -1.644E+00   -1.639E+00
    -1.633E+00   -1.628E+00   -1.623E+00   -1.617E+00   -1.612E+00   -1.607E+00   -1.601E+00   -1.596E+00   -1.591E+00   -1.585E+00
    -1.580E+00   -1.575E+00   -1.569E+00   -1.564E+00   -1.559E+00   -1.553E+00   -1.548E+00   -1.543E+00   -1.537E+00   -1.532E+00
    -1.527E+00   -1.521E+00   -1.516E+00   -1.511E+00   -1.505E+00   -1.500E+00   -1.495E+00   -1.489E+00   -1.484E+00   -1.479E+00
    -1.473E+00   -1.468E+00   -1.462E+00   -1.457E+00   -1.452E+00   -1.446E+00   -1.441E+00   -1.436E+00   -1.430E+00   -1.425E+00
    -1.420E+00   -1.414E+00   -1.409E+00   -1.403E+00   -1.398E+00   -1.393E+00   -1.387E+00   -1.382E+00   -1.376E+00   -1.371E+00
    -1.366E+00   -1.360E+00   -1.355E+00   -1.350E+00   -1.344E+00   -1.339E+00   -1.333E+00   -1.328E+00   -1.323E+00   -1.317E+00
    -1.312E+00   -1.306E+00   -1.301E+00   -1.296E+00   -1.290E+00   -1.285E+00   -1.279E+00   -1.274E+00   -1.269E+00   -1.263E+00
    -1.258E+00   -1.252E+00   -1.247E+00   -1.241E+00   -1.236E+00   -1.231E+00   -1.225E+00   -1.220E+00   -1.214E+00   -1.209E+00
    -1.204E+00   -1.198E+00   -1.193E+00   -1.187E+00   -1.182E+00   -1.176E+00   -1.171E+00   -1.166E+00   -1.160E+00   -1.155E+00
    -1.149E+00   -1.144E+00   -1.138E+00   -1.133E+00   -1.127E+00   -1.122E+00   -1.117E+00   -1.111E+00   -1.106E+00   -1.100E+00
    -1.095E+00   -1.089E+00   -1.084E+00   -1.079E+00   -1.073E+00   -1.068E+00   -1.062E+00   -1.057E+00   -1.051E+00   -1.046E+00
    -1.040E+00   -1.035E+00   -1.030E+00   -1.024E+00   -1.019E+00   -1.013E+00   -1.008E+00   -1.002E+00   -9.968E-01   -9.913E-01
    -9.859E-01   -9.804E-01   -9.749E-01   -9.695E-01   -9.640E-01   -9.586E-01   -9.531E-01   -9.476E-01   -9.422E-01   -9.367E-01
    -9.313E-01   -9.258E-01   -9.203E-01   -9.149E-01   -9.094E-01   -9.039E-01   -8.985E-01   -8.930E-01   -8.875E-01   -8.820E-01
    -8.766E-01   -8.711E-01   -8.656E-01   -8.602E-01   -8.547E-01   -8.492E-01   -8.437E-01   -8.383E-01   -8.328E-01   -8.273E-01
    -8.218E-01   -8.164E-01   -8.109E-01   -8.054E-01   -7.999E-01   -7.945E-01   -7.890E-01   -7.835E-01   -7.780E-01   -7.726E-01
    -7.671E-01   -7.616E-01   -7.561E-01   -7.506E-01   -7.451E-01   -7.397E-01   -7.342E-01   -7.287E-01   -7.232E-01   -7.177E-01
    -7.123E-01   -7.068E-01   -7.013E-01   -6.958E-01   -6.903E-01   -6.848E-01   -6.793E-01   -6.739E-01   -6.684E-01   -6.629E-01
    -6.574E-01   -6.519E-01   -6.464E-01   -6.409E-01   -6.355E-01   -6.300E-01   -6.245E-01   -6.190E-01   -6.135E-01   -6.080E-01
    -6.025E-01   -5.970E-01   -5.916E-01   -5.861E-01   -5.806E-01   -5.751E-01   -5.696E-01   -5.641E-01   -5.586E-01   -5.531E-01
    -5.476E-01   -5.422E-01   -5.367E-01   -5.312E-01   -5.257E-01   -5.202E-01   -5.147E-01   -5.092E-01   -5.037E-01   -4.982E-01
    -4.927E-01   -4.873E-01   -4.818E-01   -4.763E-01   -4.708E-01   -4.653E-01   -4.598E-01   -4.543E-01   -4.488E-01   -4.433E-01
    -4.378E-01   -4.324E-01   -4.269E-01   -4.214E-01   -4.159E-01   -4.104E-01   -4.049E-01   -3.994E-01   -3.939E-01   -3.884E-01
    -3.830E-01   -3.775E-01   -3.720E-01   -3.665E-01   -3.610E-01   -3.555E-01   -3.500E-01   -3.445E-01   -3.390E-01   -3.336E-01
    -3.281E-01   -3.226E-01   -3.171E-01   -3.116E-01   -3.061E-01   -3.006E-01   -2.952E-01   -2.897E-01   -2.842E-01   -2.787E-01
    -2.732E-01   -2.677E-01   -2.623E-01   -2.568E-01   -2.513E-01   -2.458E-01   -2.403E-01   -2.348E-01   -2.294E-01   -2.239E-01
    -2.184E-01   -2.129E-01   -2.074E-01   -2.020E-01   -1.965E-01   -1.910E-01   -1.855E-01   -1.800E-01   -1.746E-01   -1.691E-01
    -1.636E-01   -1.581E-01   -1.527E-01   -1.472E-01   -1.417E-01   -1.362E-01   -1.308E-01   -1.253E-01   -1.198E-01   -1.143E-01
    -1.089E-01   -1.034E-01   -9.793E-02   -9.246E-02   -8.699E-02   -8.153E-02   -7.606E-02   -7.059E-02   -6.512E-02   -5.966E-02
    -5.419E-02   -4.873E-02   -4.326E-02   -3.780E-02   -3.234E-02   -2.687E-02   -2.141E-02   -1.595E-02   -1.049E-02   -5.030E-03
     4.288E-04    5.887E-03    1.134E-02    1.680E-02    2.226E-02    2.771E-02    3.317E-02    3.862E-02    4.407E-02    4.953E-02
     5.498E-02    6.043E-02    6.588E-02    7.133E-02    7.678E-02    8.223E-02    8.767E-02    9.312E-02    9.856E-02    1.040E-01
     1.095E-01    1.149E-01    1.203E-01    1.258E-01    1.312E-01    1.367E-01    1.421E-01    1.475E-01    1.530E-01    1.584E-01
     1.638E-01    1.693E-01    1.747E-01    1.801E-01    1.856E-01    1.910E-01    1.964E-01    2.019E-01    2.073E-01    2.127E-01
     2.181E-01    2.236E-01    2.290E-01    2.344E-01    2.398E-01    2.452E-01    2.507E-01    2.561E-01
 Cr       Conc. = 6.20E+01
