 LCModel (Version 6.3-1L) Copyright: S.W. Provencher.          Ref.: Magn. Reson. Med. 30:672-679 (1993).                
 Slice#2 Row#5 Col#1  PD_05_press_1_raw_act
 36 lines in following concentration table = NCONC+1
    Conc.  %SD /Cr+PCr  Metabolite                                         
   90.533  32%   1.049 Ala                                                 
    9.595 136%   0.111 Asp                                                 
   38.908  95%   0.451 Cr                                                  
   47.395  78%   0.549 PCr                                                 
    6.969 112% 8.1E-02 GABA                                                
    5.197 151% 6.0E-02 Glc                                                 
  110.672  50%   1.282 Gln                                                 
   74.262  81%   0.860 Glu                                                 
   18.358  28%   0.213 GPC                                                 
    0.000 999%   0.000 PCh                                                 
    4.986 385% 5.8E-02 GSH                                                 
    0.000 999%   0.000 Ins                                                 
    0.000 999%   0.000 Lac                                                 
  104.886  15%   1.215 NAA                                                 
    0.000 999%   0.000 NAAG                                                
    2.077 120% 2.4E-02 Scyllo                                              
    6.423 202% 7.4E-02 Tau                                                 
    0.000 999%   0.000 -CrCH2                                              
   18.358  28%   0.213 GPC+PCh                                             
  104.886  15%   1.215 NAA+NAAG                                            
   86.303  16%   1.000 Cr+PCr                                              
  184.934  44%   2.143 Glu+Gln                                             
  690.528  12%   8.001 Lip13a                                              
    0.000 999%   0.000 Lip13b                                              
    0.000 999%   0.000 Lip09                                               
    0.000 999%   0.000 MM09                                                
   81.887  75%   0.949 Lip20                                               
    0.000 999%   0.000 MM20                                                
 5.88E-05 999% 6.8E-07 MM12                                                
    0.000 999%   0.000 MM14                                                
 1.09E-02 999% 1.3E-04 MM17                                                
  690.528  12%   8.001 Lip13a+Lip13b                                       
  690.528  12%   8.001 MM14+Lip13a+Lip13b+MM12                             
    0.000 999%   0.000 MM09+Lip09                                          
   81.887  75%   0.949 MM20+Lip20                                          
   6 lines in following misc. output table
  FWHM = 0.046 ppm    S/N =   2                                            
  Data shift =-0.023 ppm                                                   
  Ph: 100 deg     -20.9 deg/ppm                                            
  alphaB,S = 7.4E-01,   2.6E+01                                            
   14 spline knots.   Ns = 5(1)                                            
  ( 6) 4 infls.   ( 6) 1 extrs.                                            
  498 points on ppm-axis = NY
      4.000000     3.992357     3.984714     3.977070     3.969427     3.961784     3.954141     3.946497     3.938854     3.931211
      3.923568     3.915925     3.908281     3.900638     3.892995     3.885352     3.877708     3.870065     3.862422     3.854779
      3.847136     3.839492     3.831849     3.824206     3.816563     3.808919     3.801276     3.793633     3.785990     3.778347
      3.770703     3.763060     3.755417     3.747774     3.740130     3.732487     3.724844     3.717201     3.709558     3.701914
      3.694271     3.686628     3.678985     3.671341     3.663698     3.656055     3.648412     3.640769     3.633125     3.625482
      3.617839     3.610196     3.602552     3.594909     3.587266     3.579623     3.571980     3.564336     3.556693     3.549050
      3.541407     3.533763     3.526120     3.518477     3.510834     3.503191     3.495547     3.487904     3.480261     3.472618
      3.464974     3.457331     3.449688     3.442045     3.434402     3.426758     3.419115     3.411472     3.403829     3.396185
      3.388542     3.380899     3.373256     3.365613     3.357969     3.350326     3.342683     3.335040     3.327396     3.319753
      3.312110     3.304467     3.296824     3.289180     3.281537     3.273894     3.266251     3.258607     3.250964     3.243321
      3.235678     3.228034     3.220391     3.212748     3.205105     3.197462     3.189818     3.182175     3.174532     3.166889
      3.159245     3.151602     3.143959     3.136316     3.128673     3.121029     3.113386     3.105743     3.098100     3.090456
      3.082813     3.075170     3.067527     3.059884     3.052240     3.044597     3.036954     3.029311     3.021667     3.014024
      3.006381     2.998738     2.991095     2.983451     2.975808     2.968165     2.960522     2.952878     2.945235     2.937592
      2.929949     2.922306     2.914662     2.907019     2.899376     2.891733     2.884089     2.876446     2.868803     2.861160
      2.853517     2.845873     2.838230     2.830587     2.822944     2.815300     2.807657     2.800014     2.792371     2.784728
      2.777084     2.769441     2.761798     2.754155     2.746511     2.738868     2.731225     2.723582     2.715939     2.708295
      2.700652     2.693009     2.685366     2.677722     2.670079     2.662436     2.654793     2.647150     2.639506     2.631863
      2.624220     2.616577     2.608933     2.601290     2.593647     2.586004     2.578361     2.570717     2.563074     2.555431
      2.547788     2.540144     2.532501     2.524858     2.517215     2.509572     2.501928     2.494285     2.486642     2.478999
      2.471355     2.463712     2.456069     2.448426     2.440783     2.433139     2.425496     2.417853     2.410210     2.402566
      2.394923     2.387280     2.379637     2.371994     2.364350     2.356707     2.349064     2.341421     2.333777     2.326134
      2.318491     2.310848     2.303205     2.295561     2.287918     2.280275     2.272632     2.264988     2.257345     2.249702
      2.242059     2.234416     2.226772     2.219129     2.211486     2.203843     2.196199     2.188556     2.180913     2.173270
      2.165627     2.157983     2.150340     2.142697     2.135054     2.127410     2.119767     2.112124     2.104481     2.096838
      2.089194     2.081551     2.073908     2.066265     2.058621     2.050978     2.043335     2.035692     2.028049     2.020405
      2.012762     2.005119     1.997476     1.989833     1.982190     1.974546     1.966903     1.959260     1.951617     1.943974
      1.936331     1.928688     1.921045     1.913402     1.905759     1.898115     1.890472     1.882829     1.875186     1.867543
      1.859900     1.852257     1.844614     1.836971     1.829327     1.821684     1.814041     1.806398     1.798755     1.791112
      1.783469     1.775826     1.768183     1.760540     1.752896     1.745253     1.737610     1.729967     1.722324     1.714681
      1.707038     1.699395     1.691752     1.684108     1.676465     1.668822     1.661179     1.653536     1.645893     1.638250
      1.630607     1.622964     1.615321     1.607677     1.600034     1.592391     1.584748     1.577105     1.569462     1.561819
      1.554176     1.546533     1.538890     1.531246     1.523603     1.515960     1.508317     1.500674     1.493031     1.485388
      1.477745     1.470102     1.462458     1.454815     1.447172     1.439529     1.431886     1.424243     1.416600     1.408957
      1.401314     1.393671     1.386027     1.378384     1.370741     1.363098     1.355455     1.347812     1.340169     1.332526
      1.324883     1.317240     1.309596     1.301953     1.294310     1.286667     1.279024     1.271381     1.263738     1.256095
      1.248452     1.240808     1.233165     1.225522     1.217879     1.210236     1.202593     1.194950     1.187307     1.179664
      1.172021     1.164377     1.156734     1.149091     1.141448     1.133805     1.126162     1.118519     1.110876     1.103233
      1.095590     1.087946     1.080303     1.072660     1.065017     1.057374     1.049731     1.042088     1.034445     1.026802
      1.019158     1.011515     1.003872     0.996229     0.988586     0.980943     0.973300     0.965657     0.958014     0.950371
      0.942727     0.935084     0.927441     0.919798     0.912155     0.904512     0.896869     0.889226     0.881583     0.873940
      0.866296     0.858653     0.851010     0.843367     0.835724     0.828081     0.820438     0.812795     0.805152     0.797508
      0.789865     0.782222     0.774579     0.766936     0.759293     0.751650     0.744007     0.736364     0.728721     0.721077
      0.713434     0.705791     0.698148     0.690505     0.682862     0.675219     0.667576     0.659933     0.652290     0.644646
      0.637003     0.629360     0.621717     0.614074     0.606431     0.598788     0.591145     0.583502     0.575858     0.568215
      0.560572     0.552929     0.545286     0.537643     0.530000     0.522357     0.514714     0.507071     0.499427     0.491784
      0.484141     0.476498     0.468855     0.461212     0.453569     0.445925     0.438282     0.430639     0.422996     0.415353
      0.407710     0.400067     0.392424     0.384780     0.377137     0.369494     0.361851     0.354208     0.346565     0.338922
      0.331278     0.323635     0.315992     0.308349     0.300706     0.293063     0.285420     0.277777     0.270133     0.262490
      0.254847     0.247204     0.239561     0.231918     0.224275     0.216631     0.208988     0.201345
 NY phased data points follow
   3.44404E+01  3.37115E+01  3.47253E+01  3.46985E+01  3.43814E+01  3.30541E+01  3.14539E+01  3.34343E+01  3.21704E+01  3.26103E+01
   3.19622E+01  3.30355E+01  3.14201E+01  3.25168E+01  3.18394E+01  3.01367E+01  2.89388E+01  2.91168E+01  2.89406E+01  2.80270E+01
   2.66901E+01  2.83993E+01  2.90015E+01  2.75318E+01  2.71250E+01  2.61814E+01  2.71167E+01  2.47854E+01  2.57970E+01  2.64783E+01
   2.75343E+01  2.62749E+01  2.54619E+01  2.52476E+01  2.57976E+01  2.56579E+01  2.47624E+01  2.64260E+01  2.51042E+01  2.45427E+01
   2.26950E+01  2.59282E+01  2.36921E+01  2.23497E+01  2.36975E+01  2.41257E+01  2.30477E+01  2.41369E+01  2.24178E+01  2.16374E+01
   2.42105E+01  2.23570E+01  2.43270E+01  2.11920E+01  2.03472E+01  2.06389E+01  2.16426E+01  2.05763E+01  2.03313E+01  2.09377E+01
   2.00165E+01  1.96948E+01  2.22100E+01  2.12615E+01  2.01596E+01  1.84233E+01  1.98498E+01  1.99988E+01  2.10258E+01  1.98306E+01
   2.07172E+01  1.72405E+01  1.87009E+01  2.00885E+01  1.84466E+01  1.83572E+01  1.87699E+01  1.65172E+01  1.84269E+01  1.77576E+01
   1.85856E+01  1.73190E+01  1.67949E+01  1.88835E+01  1.72427E+01  1.79625E+01  1.84083E+01  1.86321E+01  1.76560E+01  1.81122E+01
   1.46744E+01  1.74960E+01  1.67661E+01  1.58827E+01  1.48050E+01  1.73180E+01  1.54552E+01  1.62911E+01  1.80386E+01  1.77019E+01
   1.63639E+01  1.88791E+01  1.90238E+01  1.63847E+01  1.71635E+01  1.77411E+01  1.70796E+01  1.63817E+01  1.69727E+01  1.53162E+01
   1.56732E+01  1.54549E+01  1.40576E+01  1.46789E+01  1.49867E+01  1.66019E+01  1.43768E+01  1.38165E+01  1.55508E+01  1.30710E+01
   1.50169E+01  1.41020E+01  1.41667E+01  1.49754E+01  1.47114E+01  1.27412E+01  1.72400E+01  1.59422E+01  1.74238E+01  1.65594E+01
   1.51333E+01  1.21810E+01  1.36503E+01  1.30033E+01  1.23919E+01  1.32558E+01  1.20993E+01  1.45558E+01  1.44408E+01  1.21913E+01
   1.36962E+01  1.19353E+01  1.32509E+01  1.30398E+01  1.32909E+01  1.43771E+01  1.29447E+01  1.37133E+01  1.45712E+01  1.21828E+01
   1.08190E+01  1.21266E+01  1.32418E+01  1.27764E+01  1.21833E+01  1.08568E+01  1.30382E+01  1.12679E+01  1.03253E+01  1.16908E+01
   1.21561E+01  1.23980E+01  1.20484E+01  1.17088E+01  1.15103E+01  8.66955E+00  1.20052E+01  9.78257E+00  1.19963E+01  1.02077E+01
   1.06011E+01  1.19276E+01  1.15982E+01  1.17637E+01  1.20945E+01  1.10846E+01  1.02858E+01  1.01822E+01  1.08043E+01  1.02090E+01
   1.26344E+01  8.62182E+00  8.77045E+00  8.24161E+00  9.29354E+00  6.66100E+00  8.54659E+00  8.22163E+00  8.17667E+00  9.20584E+00
   1.09713E+01  1.03076E+01  1.10152E+01  1.01856E+01  1.05753E+01  1.11207E+01  9.28697E+00  9.00904E+00  9.64336E+00  1.03473E+01
   9.89728E+00  1.01703E+01  1.00266E+01  9.06170E+00  1.12214E+01  8.08535E+00  1.04445E+01  7.55122E+00  7.18454E+00  7.44910E+00
   7.57182E+00  8.60987E+00  8.78927E+00  1.08028E+01  8.56174E+00  7.17609E+00  9.70046E+00  1.07278E+01  1.02095E+01  9.58695E+00
   8.00878E+00  7.39490E+00  7.70098E+00  7.67257E+00  1.06549E+01  8.29668E+00  8.41037E+00  8.79981E+00  9.39825E+00  8.30561E+00
   8.29791E+00  7.04369E+00  8.42348E+00  7.74822E+00  8.14559E+00  8.02584E+00  7.84867E+00  6.66987E+00  6.95600E+00  8.53519E+00
   8.18097E+00  7.08177E+00  8.12737E+00  7.10829E+00  8.59009E+00  6.95436E+00  7.48712E+00  5.69836E+00  8.36259E+00  8.80484E+00
   5.56607E+00  5.99372E+00  7.79773E+00  7.52448E+00  7.67738E+00  6.05430E+00  8.49859E+00  9.41701E+00  8.99723E+00  7.80063E+00
   1.20151E+01  1.21239E+01  1.17439E+01  1.04865E+01  1.04645E+01  6.93796E+00  6.23067E+00  6.76358E+00  5.88074E+00  6.80347E+00
   6.98171E+00  6.84701E+00  7.27939E+00  7.88146E+00  7.08741E+00  8.33950E+00  7.24795E+00  8.01571E+00  5.80824E+00  7.89344E+00
   7.83891E+00  7.10279E+00  5.34804E+00  6.32800E+00  8.42247E+00  6.43782E+00  6.27551E+00  5.44899E+00  6.48497E+00  5.72173E+00
   5.79976E+00  6.61400E+00  5.90962E+00  6.84088E+00  4.64842E+00  6.87459E+00  7.13455E+00  7.36448E+00  5.30218E+00  7.67962E+00
   5.91070E+00  5.92622E+00  7.35611E+00  5.59521E+00  6.86550E+00  4.97357E+00  8.17215E+00  7.29940E+00  7.78649E+00  5.48174E+00
   6.20331E+00  6.35711E+00  5.68178E+00  8.42180E+00  6.35996E+00  6.67816E+00  5.19879E+00  6.52609E+00  6.46141E+00  5.99164E+00
   7.54989E+00  7.01771E+00  5.84361E+00  6.35934E+00  6.86068E+00  6.14533E+00  7.16847E+00  4.57886E+00  4.88500E+00  6.22677E+00
   4.87694E+00  4.27481E+00  4.10283E+00  3.76036E+00  5.30110E+00  5.68237E+00  4.84721E+00  6.25417E+00  6.86346E+00  7.92195E+00
   7.32011E+00  6.88499E+00  6.59813E+00  7.98498E+00  9.72820E+00  8.58851E+00  8.65602E+00  8.33726E+00  9.05393E+00  8.77366E+00
   8.75103E+00  9.64358E+00  8.70256E+00  9.80551E+00  9.29312E+00  8.96817E+00  9.12504E+00  7.86461E+00  6.55258E+00  7.14411E+00
   7.04674E+00  6.77547E+00  6.51479E+00  7.51292E+00  7.47494E+00  7.73095E+00  8.00458E+00  5.93804E+00  8.19999E+00  7.31534E+00
   7.09868E+00  4.99494E+00  5.07808E+00  4.37778E+00  2.80982E+00  3.83942E+00  5.16224E+00  3.37247E+00  5.52091E+00  5.72439E+00
   5.60611E+00  6.45958E+00  3.81577E+00  2.80984E+00  3.90840E+00  5.64184E+00  4.44272E+00  3.87417E+00  2.03620E+00  4.73565E+00
   4.41291E+00  3.34402E+00  2.51513E+00  3.21225E+00  3.38292E+00  2.77757E+00  3.69581E+00  3.66485E+00  4.00893E+00  3.82483E+00
   2.55204E+00  4.12451E+00  3.45238E+00  2.55841E+00  3.74332E+00  4.40312E+00  2.42616E+00  1.73092E+00  4.76371E+00  3.82880E+00
   1.16246E+00  2.30200E+00  4.43385E+00  3.39676E+00  4.18586E+00  2.30570E+00  5.50004E+00  2.05216E+00  3.03122E+00  2.79402E+00
   3.65901E+00  4.10733E+00  2.26964E+00  2.48660E+00  5.04099E+00  2.62750E+00  4.64645E+00  3.02031E+00  2.82944E+00  3.07347E+00
   3.51645E+00  4.27163E+00  5.23424E+00  4.05270E+00  4.95297E+00  2.80798E+00  3.23519E+00  4.59337E+00  2.30165E+00  3.18835E+00
   3.89134E+00  4.04882E+00  2.57239E+00  4.31469E+00  3.84837E+00  3.15052E+00  3.06987E+00  2.15106E+00  3.68909E+00  2.24220E+00
   3.05106E+00  2.99474E+00  4.02091E+00  1.60689E+00  2.45142E+00  2.78638E+00  4.12789E+00  2.19774E+00  3.19528E+00  1.55935E+00
   3.17607E+00  3.67041E+00  2.40428E+00  2.94825E+00  2.45521E+00  2.70488E+00  2.34818E+00  1.62792E+00  3.72349E+00  2.51218E+00
   1.55205E+00  1.39720E+00  4.17200E+00  2.62183E+00  1.81698E+00  2.11631E+00  1.93777E+00  5.66936E-01  2.06984E+00  2.94237E+00
   1.50204E+00  3.11518E+00  3.32516E+00  3.75860E+00  1.17611E+00  6.26007E-01  2.09542E+00  5.73841E+00  2.31265E+00  4.04239E+00
   2.57538E+00  2.28965E+00  2.89379E+00  1.80766E+00  9.65259E-01  2.62126E+00  1.59591E+00  7.66817E-01
 NY points of the fit to the data follow
   3.16458E+01  3.14908E+01  3.13495E+01  3.12476E+01  3.12313E+01  3.12639E+01  3.13543E+01  3.15268E+01  3.17226E+01  3.18658E+01
   3.19011E+01  3.17390E+01  3.13279E+01  3.07301E+01  3.00774E+01  2.94830E+01  2.90143E+01  2.86832E+01  2.84573E+01  2.82969E+01
   2.81836E+01  2.80835E+01  2.79674E+01  2.78157E+01  2.76050E+01  2.73174E+01  2.69708E+01  2.66114E+01  2.62992E+01  2.61256E+01
   2.61198E+01  2.62129E+01  2.62968E+01  2.62905E+01  2.61483E+01  2.58683E+01  2.54991E+01  2.51329E+01  2.48442E+01  2.46518E+01
   2.45320E+01  2.44412E+01  2.43270E+01  2.41736E+01  2.40063E+01  2.38426E+01  2.36731E+01  2.34960E+01  2.33223E+01  2.31574E+01
   2.29992E+01  2.28451E+01  2.26881E+01  2.25212E+01  2.23461E+01  2.21709E+01  2.20006E+01  2.18345E+01  2.16711E+01  2.15110E+01
   2.13555E+01  2.12050E+01  2.10583E+01  2.09127E+01  2.07683E+01  2.06250E+01  2.04821E+01  2.03394E+01  2.01966E+01  2.00530E+01
   1.99122E+01  1.97774E+01  1.96468E+01  1.95195E+01  1.93961E+01  1.92732E+01  1.91459E+01  1.90120E+01  1.88713E+01  1.87267E+01
   1.85875E+01  1.84676E+01  1.83650E+01  1.82683E+01  1.81756E+01  1.80865E+01  1.79918E+01  1.78818E+01  1.77509E+01  1.75985E+01
   1.74370E+01  1.72853E+01  1.71523E+01  1.70350E+01  1.69288E+01  1.68328E+01  1.67604E+01  1.67737E+01  1.69317E+01  1.71284E+01
   1.73296E+01  1.75992E+01  1.78944E+01  1.80515E+01  1.79460E+01  1.75221E+01  1.68535E+01  1.61662E+01  1.56749E+01  1.54076E+01
   1.52642E+01  1.51568E+01  1.50590E+01  1.49665E+01  1.48778E+01  1.47914E+01  1.47078E+01  1.46284E+01  1.45533E+01  1.44864E+01
   1.44438E+01  1.44977E+01  1.47668E+01  1.51376E+01  1.55230E+01  1.60129E+01  1.65862E+01  1.69980E+01  1.70223E+01  1.65443E+01
   1.56320E+01  1.46038E+01  1.38260E+01  1.34050E+01  1.32105E+01  1.30932E+01  1.29958E+01  1.29104E+01  1.28380E+01  1.27786E+01
   1.27279E+01  1.26794E+01  1.26264E+01  1.25655E+01  1.24995E+01  1.24327E+01  1.23662E+01  1.22989E+01  1.22296E+01  1.21583E+01
   1.20875E+01  1.20200E+01  1.19559E+01  1.18937E+01  1.18317E+01  1.17682E+01  1.16980E+01  1.16212E+01  1.15430E+01  1.14625E+01
   1.13810E+01  1.13015E+01  1.12298E+01  1.11771E+01  1.11460E+01  1.11200E+01  1.10764E+01  1.10043E+01  1.09089E+01  1.08076E+01
   1.07162E+01  1.06348E+01  1.05560E+01  1.04833E+01  1.04140E+01  1.03423E+01  1.02705E+01  1.02102E+01  1.01700E+01  1.01434E+01
   1.01131E+01  1.00651E+01  9.99934E+00  9.93525E+00  9.89435E+00  9.86935E+00  9.84204E+00  9.81075E+00  9.78284E+00  9.76375E+00
   9.75100E+00  9.71941E+00  9.65430E+00  9.55608E+00  9.44138E+00  9.34285E+00  9.29487E+00  9.29914E+00  9.34083E+00  9.42398E+00
   9.54207E+00  9.65524E+00  9.72546E+00  9.72274E+00  9.60089E+00  9.34690E+00  9.03684E+00  8.70475E+00  8.35473E+00  8.07403E+00
   7.98000E+00  8.11092E+00  8.40797E+00  8.76470E+00  9.07086E+00  9.25203E+00  9.29239E+00  9.20249E+00  8.99878E+00  8.72378E+00
   8.44478E+00  8.22041E+00  8.09321E+00  8.07857E+00  8.16274E+00  8.31178E+00  8.46818E+00  8.56630E+00  8.57775E+00  8.51459E+00
   8.39504E+00  8.25024E+00  8.12898E+00  8.03990E+00  7.97413E+00  7.94762E+00  7.97947E+00  8.04876E+00  8.14425E+00  8.24637E+00
   8.27833E+00  8.17409E+00  7.95628E+00  7.69882E+00  7.47297E+00  7.34116E+00  7.32548E+00  7.38805E+00  7.48109E+00  7.58012E+00
   7.67333E+00  7.74943E+00  7.80686E+00  7.84258E+00  7.87839E+00  8.05214E+00  8.47123E+00  8.93515E+00  9.43373E+00  1.01193E+01
   1.08798E+01  1.13665E+01  1.13286E+01  1.06528E+01  9.49824E+00  8.32702E+00  7.54905E+00  7.19034E+00  7.05081E+00  6.97595E+00
   6.92209E+00  6.87951E+00  6.84823E+00  6.82891E+00  6.81789E+00  6.80844E+00  6.79302E+00  6.76709E+00  6.73111E+00  6.68880E+00
   6.64505E+00  6.60420E+00  6.56837E+00  6.53801E+00  6.51289E+00  6.49170E+00  6.47214E+00  6.45249E+00  6.43204E+00  6.41027E+00
   6.38727E+00  6.36382E+00  6.34044E+00  6.31715E+00  6.29414E+00  6.27175E+00  6.25017E+00  6.22945E+00  6.20955E+00  6.19033E+00
   6.17161E+00  6.15331E+00  6.13552E+00  6.11829E+00  6.10169E+00  6.08574E+00  6.07044E+00  6.05584E+00  6.04207E+00  6.02932E+00
   6.01780E+00  6.00775E+00  5.99942E+00  5.99317E+00  5.98950E+00  5.98909E+00  5.99285E+00  6.00216E+00  6.01916E+00  6.04750E+00
   6.09411E+00  6.17531E+00  6.32033E+00  6.47329E+00  6.55194E+00  6.59003E+00  6.58609E+00  6.43057E+00  6.04772E+00  5.47004E+00
   4.86665E+00  4.49590E+00  4.45587E+00  4.71583E+00  5.21690E+00  5.87337E+00  6.56618E+00  7.17507E+00  7.56257E+00  7.66146E+00
   7.56879E+00  7.46777E+00  7.46091E+00  7.54120E+00  7.66764E+00  7.81707E+00  7.97714E+00  8.13898E+00  8.29516E+00  8.43898E+00
   8.56431E+00  8.66568E+00  8.73837E+00  8.77859E+00  8.78359E+00  8.75181E+00  8.68294E+00  8.57791E+00  8.43886E+00  8.26899E+00
   8.07240E+00  7.85384E+00  7.61845E+00  7.37160E+00  7.11857E+00  6.86436E+00  6.61348E+00  6.36984E+00  6.13665E+00  5.91642E+00
   5.71090E+00  5.52117E+00  5.34767E+00  5.19031E+00  5.04857E+00  4.92162E+00  4.80838E+00  4.70765E+00  4.61813E+00  4.53853E+00
   4.46761E+00  4.40423E+00  4.34731E+00  4.29592E+00  4.24919E+00  4.20642E+00  4.16697E+00  4.13035E+00  4.09610E+00  4.06385E+00
   4.03330E+00  4.00420E+00  3.97635E+00  3.94958E+00  3.92375E+00  3.89874E+00  3.87445E+00  3.85080E+00  3.82773E+00  3.80520E+00
   3.78314E+00  3.76152E+00  3.74029E+00  3.71943E+00  3.69893E+00  3.67876E+00  3.65889E+00  3.63930E+00  3.61999E+00  3.60093E+00
   3.58212E+00  3.56354E+00  3.54516E+00  3.52698E+00  3.50898E+00  3.49116E+00  3.47351E+00  3.45602E+00  3.43867E+00  3.42145E+00
   3.40437E+00  3.38741E+00  3.37057E+00  3.35383E+00  3.33719E+00  3.32064E+00  3.30418E+00  3.28780E+00  3.27150E+00  3.25526E+00
   3.23908E+00  3.22295E+00  3.20689E+00  3.19087E+00  3.17488E+00  3.15893E+00  3.14301E+00  3.12712E+00  3.11124E+00  3.09539E+00
   3.07954E+00  3.06369E+00  3.04784E+00  3.03199E+00  3.01613E+00  3.00026E+00  2.98437E+00  2.96845E+00  2.95251E+00  2.93653E+00
   2.92052E+00  2.90447E+00  2.88837E+00  2.87221E+00  2.85602E+00  2.83978E+00  2.82349E+00  2.80716E+00  2.79078E+00  2.77437E+00
   2.75791E+00  2.74142E+00  2.72490E+00  2.70833E+00  2.69173E+00  2.67511E+00  2.65845E+00  2.64177E+00  2.62506E+00  2.60831E+00
   2.59155E+00  2.57476E+00  2.55796E+00  2.54114E+00  2.52429E+00  2.50743E+00  2.49056E+00  2.47367E+00  2.45678E+00  2.43987E+00
   2.42296E+00  2.40604E+00  2.38911E+00  2.37219E+00  2.35527E+00  2.33834E+00  2.32142E+00  2.30450E+00  2.28760E+00  2.27070E+00
   2.25381E+00  2.23694E+00  2.22007E+00  2.20323E+00  2.18641E+00  2.16962E+00  2.15284E+00  2.13609E+00
 NY background values follow
     3.151E+01    3.133E+01    3.115E+01    3.097E+01    3.079E+01    3.061E+01    3.043E+01    3.025E+01    3.007E+01    2.988E+01
     2.970E+01    2.952E+01    2.934E+01    2.916E+01    2.898E+01    2.880E+01    2.862E+01    2.845E+01    2.827E+01    2.809E+01
     2.791E+01    2.773E+01    2.755E+01    2.738E+01    2.720E+01    2.702E+01    2.685E+01    2.667E+01    2.650E+01    2.632E+01
     2.615E+01    2.598E+01    2.580E+01    2.563E+01    2.546E+01    2.529E+01    2.512E+01    2.495E+01    2.478E+01    2.461E+01
     2.445E+01    2.428E+01    2.411E+01    2.395E+01    2.379E+01    2.362E+01    2.346E+01    2.330E+01    2.314E+01    2.298E+01
     2.282E+01    2.266E+01    2.251E+01    2.235E+01    2.219E+01    2.204E+01    2.189E+01    2.174E+01    2.158E+01    2.143E+01
     2.128E+01    2.114E+01    2.099E+01    2.084E+01    2.070E+01    2.055E+01    2.041E+01    2.027E+01    2.013E+01    1.999E+01
     1.985E+01    1.971E+01    1.957E+01    1.944E+01    1.930E+01    1.917E+01    1.903E+01    1.890E+01    1.877E+01    1.864E+01
     1.851E+01    1.839E+01    1.826E+01    1.813E+01    1.801E+01    1.789E+01    1.777E+01    1.764E+01    1.753E+01    1.741E+01
     1.729E+01    1.717E+01    1.706E+01    1.694E+01    1.683E+01    1.672E+01    1.661E+01    1.650E+01    1.639E+01    1.629E+01
     1.618E+01    1.607E+01    1.597E+01    1.587E+01    1.576E+01    1.566E+01    1.556E+01    1.546E+01    1.537E+01    1.527E+01
     1.517E+01    1.508E+01    1.498E+01    1.489E+01    1.480E+01    1.471E+01    1.462E+01    1.453E+01    1.444E+01    1.435E+01
     1.426E+01    1.418E+01    1.409E+01    1.400E+01    1.392E+01    1.384E+01    1.376E+01    1.367E+01    1.359E+01    1.351E+01
     1.343E+01    1.335E+01    1.328E+01    1.320E+01    1.312E+01    1.305E+01    1.297E+01    1.290E+01    1.282E+01    1.275E+01
     1.268E+01    1.260E+01    1.253E+01    1.246E+01    1.239E+01    1.232E+01    1.225E+01    1.218E+01    1.211E+01    1.205E+01
     1.198E+01    1.191E+01    1.185E+01    1.178E+01    1.172E+01    1.165E+01    1.159E+01    1.153E+01    1.146E+01    1.140E+01
     1.134E+01    1.128E+01    1.122E+01    1.116E+01    1.110E+01    1.104E+01    1.098E+01    1.092E+01    1.086E+01    1.081E+01
     1.075E+01    1.069E+01    1.064E+01    1.058E+01    1.052E+01    1.047E+01    1.041E+01    1.036E+01    1.031E+01    1.025E+01
     1.020E+01    1.015E+01    1.009E+01    1.004E+01    9.988E+00    9.937E+00    9.886E+00    9.835E+00    9.784E+00    9.734E+00
     9.684E+00    9.635E+00    9.585E+00    9.537E+00    9.488E+00    9.440E+00    9.392E+00    9.345E+00    9.297E+00    9.251E+00
     9.204E+00    9.158E+00    9.112E+00    9.067E+00    9.022E+00    8.977E+00    8.932E+00    8.888E+00    8.845E+00    8.801E+00
     8.758E+00    8.715E+00    8.673E+00    8.631E+00    8.589E+00    8.548E+00    8.507E+00    8.466E+00    8.426E+00    8.386E+00
     8.346E+00    8.307E+00    8.268E+00    8.229E+00    8.190E+00    8.152E+00    8.115E+00    8.077E+00    8.040E+00    8.004E+00
     7.967E+00    7.931E+00    7.896E+00    7.860E+00    7.825E+00    7.790E+00    7.756E+00    7.722E+00    7.688E+00    7.654E+00
     7.621E+00    7.588E+00    7.555E+00    7.522E+00    7.490E+00    7.458E+00    7.426E+00    7.395E+00    7.364E+00    7.333E+00
     7.302E+00    7.272E+00    7.242E+00    7.212E+00    7.182E+00    7.152E+00    7.123E+00    7.094E+00    7.065E+00    7.037E+00
     7.008E+00    6.980E+00    6.952E+00    6.924E+00    6.897E+00    6.869E+00    6.842E+00    6.815E+00    6.788E+00    6.761E+00
     6.735E+00    6.709E+00    6.682E+00    6.656E+00    6.631E+00    6.605E+00    6.579E+00    6.554E+00    6.529E+00    6.503E+00
     6.478E+00    6.454E+00    6.429E+00    6.404E+00    6.380E+00    6.355E+00    6.331E+00    6.306E+00    6.282E+00    6.258E+00
     6.234E+00    6.210E+00    6.186E+00    6.163E+00    6.139E+00    6.115E+00    6.092E+00    6.068E+00    6.044E+00    6.021E+00
     5.997E+00    5.974E+00    5.951E+00    5.927E+00    5.904E+00    5.880E+00    5.857E+00    5.834E+00    5.810E+00    5.787E+00
     5.763E+00    5.740E+00    5.717E+00    5.693E+00    5.670E+00    5.646E+00    5.622E+00    5.599E+00    5.575E+00    5.551E+00
     5.527E+00    5.504E+00    5.480E+00    5.456E+00    5.432E+00    5.408E+00    5.384E+00    5.360E+00    5.336E+00    5.312E+00
     5.288E+00    5.264E+00    5.240E+00    5.216E+00    5.192E+00    5.168E+00    5.144E+00    5.119E+00    5.095E+00    5.072E+00
     5.048E+00    5.024E+00    5.000E+00    4.976E+00    4.952E+00    4.928E+00    4.904E+00    4.881E+00    4.857E+00    4.833E+00
     4.810E+00    4.786E+00    4.763E+00    4.740E+00    4.716E+00    4.693E+00    4.670E+00    4.647E+00    4.624E+00    4.601E+00
     4.578E+00    4.555E+00    4.533E+00    4.510E+00    4.488E+00    4.466E+00    4.443E+00    4.421E+00    4.399E+00    4.377E+00
     4.355E+00    4.334E+00    4.312E+00    4.290E+00    4.269E+00    4.248E+00    4.226E+00    4.205E+00    4.184E+00    4.163E+00
     4.143E+00    4.122E+00    4.101E+00    4.081E+00    4.061E+00    4.040E+00    4.020E+00    4.000E+00    3.980E+00    3.960E+00
     3.941E+00    3.921E+00    3.902E+00    3.882E+00    3.863E+00    3.844E+00    3.825E+00    3.806E+00    3.788E+00    3.769E+00
     3.751E+00    3.732E+00    3.714E+00    3.696E+00    3.678E+00    3.660E+00    3.642E+00    3.625E+00    3.607E+00    3.590E+00
     3.572E+00    3.555E+00    3.538E+00    3.521E+00    3.505E+00    3.488E+00    3.471E+00    3.455E+00    3.438E+00    3.422E+00
     3.405E+00    3.389E+00    3.373E+00    3.357E+00    3.341E+00    3.325E+00    3.309E+00    3.293E+00    3.277E+00    3.261E+00
     3.246E+00    3.230E+00    3.214E+00    3.199E+00    3.183E+00    3.167E+00    3.152E+00    3.136E+00    3.120E+00    3.105E+00
     3.089E+00    3.074E+00    3.058E+00    3.042E+00    3.027E+00    3.011E+00    2.995E+00    2.979E+00    2.963E+00    2.948E+00
     2.932E+00    2.916E+00    2.900E+00    2.884E+00    2.868E+00    2.851E+00    2.835E+00    2.819E+00    2.803E+00    2.786E+00
     2.770E+00    2.754E+00    2.737E+00    2.721E+00    2.704E+00    2.687E+00    2.671E+00    2.654E+00    2.637E+00    2.621E+00
     2.604E+00    2.587E+00    2.570E+00    2.553E+00    2.537E+00    2.520E+00    2.503E+00    2.486E+00    2.469E+00    2.452E+00
     2.435E+00    2.418E+00    2.401E+00    2.384E+00    2.367E+00    2.350E+00    2.333E+00    2.316E+00    2.299E+00    2.283E+00
     2.266E+00    2.249E+00    2.232E+00    2.215E+00    2.198E+00    2.181E+00    2.164E+00    2.147E+00
 Ala      Conc. = 9.05E+01
