 LCModel (Version 6.3-1L) Copyright: S.W. Provencher.          Ref.: Magn. Reson. Med. 30:672-679 (1993).                
 Slice#3 Row#1 Col#9  PD_05_press_1_raw_act
 36 lines in following concentration table = NCONC+1
    Conc.  %SD /Cr+PCr  Metabolite                                         
    0.000 999%   0.000 Ala                                                 
   11.712  92%   0.192 Asp                                                 
    0.000 999%   0.000 Cr                                                  
   60.921  29%   1.000 PCr                                                 
    7.393  87%   0.121 GABA                                                
    7.539  86%   0.124 Glc                                                 
    0.000 999%   0.000 Gln                                                 
    5.733 999% 9.4E-02 Glu                                                 
    0.000 999%   0.000 GPC                                                 
   19.440  34%   0.319 PCh                                                 
   65.821  40%   1.080 GSH                                                 
   91.185  90%   1.497 Ins                                                 
   17.972 280%   0.295 Lac                                                 
  125.652  17%   2.063 NAA                                                 
    0.000 999%   0.000 NAAG                                                
    3.127  68% 5.1E-02 Scyllo                                              
   13.702  78%   0.225 Tau                                                 
    9.907 149%   0.163 -CrCH2                                              
   19.440  34%   0.319 GPC+PCh                                             
  125.652  17%   2.063 NAA+NAAG                                            
   60.921  29%   1.000 Cr+PCr                                              
    5.733 999% 9.4E-02 Glu+Gln                                             
    0.000 999%   0.000 Lip13a                                              
  445.002  17%   7.305 Lip13b                                              
   74.067  58%   1.216 Lip09                                               
   35.050 139%   0.575 MM09                                                
   89.181  34%   1.464 Lip20                                               
   59.392 124%   0.975 MM20                                                
   10.730 143%   0.176 MM12                                                
   27.086 154%   0.445 MM14                                                
   13.225 168%   0.217 MM17                                                
  445.002  17%   7.305 Lip13a+Lip13b                                       
  482.818  15%   7.925 MM14+Lip13a+Lip13b+MM12                             
  109.117  38%   1.791 MM09+Lip09                                          
  148.573  48%   2.439 MM20+Lip20                                          
   6 lines in following misc. output table
  FWHM = 0.061 ppm    S/N =   2                                            
  Data shift = 0.115 ppm                                                   
  Ph: -13 deg     -47.1 deg/ppm                                            
  alphaB,S = 8.5E+01,   5.1E+01                                            
   14 spline knots.   Ns = 6(1)                                            
  ( 7) 2 infls.   ( 6) 1 extrs.                                            
  498 points on ppm-axis = NY
      4.000000     3.992357     3.984714     3.977070     3.969427     3.961784     3.954141     3.946497     3.938854     3.931211
      3.923568     3.915925     3.908281     3.900638     3.892995     3.885352     3.877708     3.870065     3.862422     3.854779
      3.847136     3.839492     3.831849     3.824206     3.816563     3.808919     3.801276     3.793633     3.785990     3.778347
      3.770703     3.763060     3.755417     3.747774     3.740130     3.732487     3.724844     3.717201     3.709558     3.701914
      3.694271     3.686628     3.678985     3.671341     3.663698     3.656055     3.648412     3.640769     3.633125     3.625482
      3.617839     3.610196     3.602552     3.594909     3.587266     3.579623     3.571980     3.564336     3.556693     3.549050
      3.541407     3.533763     3.526120     3.518477     3.510834     3.503191     3.495547     3.487904     3.480261     3.472618
      3.464974     3.457331     3.449688     3.442045     3.434402     3.426758     3.419115     3.411472     3.403829     3.396185
      3.388542     3.380899     3.373256     3.365613     3.357969     3.350326     3.342683     3.335040     3.327396     3.319753
      3.312110     3.304467     3.296824     3.289180     3.281537     3.273894     3.266251     3.258607     3.250964     3.243321
      3.235678     3.228034     3.220391     3.212748     3.205105     3.197462     3.189818     3.182175     3.174532     3.166889
      3.159245     3.151602     3.143959     3.136316     3.128673     3.121029     3.113386     3.105743     3.098100     3.090456
      3.082813     3.075170     3.067527     3.059884     3.052240     3.044597     3.036954     3.029311     3.021667     3.014024
      3.006381     2.998738     2.991095     2.983451     2.975808     2.968165     2.960522     2.952878     2.945235     2.937592
      2.929949     2.922306     2.914662     2.907019     2.899376     2.891733     2.884089     2.876446     2.868803     2.861160
      2.853517     2.845873     2.838230     2.830587     2.822944     2.815300     2.807657     2.800014     2.792371     2.784728
      2.777084     2.769441     2.761798     2.754155     2.746511     2.738868     2.731225     2.723582     2.715939     2.708295
      2.700652     2.693009     2.685366     2.677722     2.670079     2.662436     2.654793     2.647150     2.639506     2.631863
      2.624220     2.616577     2.608933     2.601290     2.593647     2.586004     2.578361     2.570717     2.563074     2.555431
      2.547788     2.540144     2.532501     2.524858     2.517215     2.509572     2.501928     2.494285     2.486642     2.478999
      2.471355     2.463712     2.456069     2.448426     2.440783     2.433139     2.425496     2.417853     2.410210     2.402566
      2.394923     2.387280     2.379637     2.371994     2.364350     2.356707     2.349064     2.341421     2.333777     2.326134
      2.318491     2.310848     2.303205     2.295561     2.287918     2.280275     2.272632     2.264988     2.257345     2.249702
      2.242059     2.234416     2.226772     2.219129     2.211486     2.203843     2.196199     2.188556     2.180913     2.173270
      2.165627     2.157983     2.150340     2.142697     2.135054     2.127410     2.119767     2.112124     2.104481     2.096838
      2.089194     2.081551     2.073908     2.066265     2.058621     2.050978     2.043335     2.035692     2.028049     2.020405
      2.012762     2.005119     1.997476     1.989833     1.982190     1.974546     1.966903     1.959260     1.951617     1.943974
      1.936331     1.928688     1.921045     1.913402     1.905759     1.898115     1.890472     1.882829     1.875186     1.867543
      1.859900     1.852257     1.844614     1.836971     1.829327     1.821684     1.814041     1.806398     1.798755     1.791112
      1.783469     1.775826     1.768183     1.760540     1.752896     1.745253     1.737610     1.729967     1.722324     1.714681
      1.707038     1.699395     1.691752     1.684108     1.676465     1.668822     1.661179     1.653536     1.645893     1.638250
      1.630607     1.622964     1.615321     1.607677     1.600034     1.592391     1.584748     1.577105     1.569462     1.561819
      1.554176     1.546533     1.538890     1.531246     1.523603     1.515960     1.508317     1.500674     1.493031     1.485388
      1.477745     1.470102     1.462458     1.454815     1.447172     1.439529     1.431886     1.424243     1.416600     1.408957
      1.401314     1.393671     1.386027     1.378384     1.370741     1.363098     1.355455     1.347812     1.340169     1.332526
      1.324883     1.317240     1.309596     1.301953     1.294310     1.286667     1.279024     1.271381     1.263738     1.256095
      1.248452     1.240808     1.233165     1.225522     1.217879     1.210236     1.202593     1.194950     1.187307     1.179664
      1.172021     1.164377     1.156734     1.149091     1.141448     1.133805     1.126162     1.118519     1.110876     1.103233
      1.095590     1.087946     1.080303     1.072660     1.065017     1.057374     1.049731     1.042088     1.034445     1.026802
      1.019158     1.011515     1.003872     0.996229     0.988586     0.980943     0.973300     0.965657     0.958014     0.950371
      0.942727     0.935084     0.927441     0.919798     0.912155     0.904512     0.896869     0.889226     0.881583     0.873940
      0.866296     0.858653     0.851010     0.843367     0.835724     0.828081     0.820438     0.812795     0.805152     0.797508
      0.789865     0.782222     0.774579     0.766936     0.759293     0.751650     0.744007     0.736364     0.728721     0.721077
      0.713434     0.705791     0.698148     0.690505     0.682862     0.675219     0.667576     0.659933     0.652290     0.644646
      0.637003     0.629360     0.621717     0.614074     0.606431     0.598788     0.591145     0.583502     0.575858     0.568215
      0.560572     0.552929     0.545286     0.537643     0.530000     0.522357     0.514714     0.507071     0.499427     0.491784
      0.484141     0.476498     0.468855     0.461212     0.453569     0.445925     0.438282     0.430639     0.422996     0.415353
      0.407710     0.400067     0.392424     0.384780     0.377137     0.369494     0.361851     0.354208     0.346565     0.338922
      0.331278     0.323635     0.315992     0.308349     0.300706     0.293063     0.285420     0.277777     0.270133     0.262490
      0.254847     0.247204     0.239561     0.231918     0.224275     0.216631     0.208988     0.201345
 NY phased data points follow
   8.83884E-01 -1.61350E+00  2.82626E+00 -1.05725E-01  1.22016E+00  1.61821E+00  3.44677E+00  1.05932E+00  2.60296E+00 -6.96448E-01
   1.53908E+00  1.80249E+00  3.72459E+00  1.91815E+00  7.89473E-01  1.47568E+00 -5.89202E-02  9.49163E-01  1.26365E+00  4.08323E-01
   1.11634E+00  9.31327E-01  1.25870E+00 -7.89528E-01 -2.88263E-01 -9.69205E-01 -2.66103E-01  1.12069E+00  2.09652E+00  2.87790E+00
   2.20380E+00  1.20112E+00  2.21829E+00  4.28418E-04  3.84503E+00  3.83884E+00  3.54480E-01  1.73303E+00  2.30095E+00  1.28597E+00
   1.51651E+00  2.46922E+00  4.28551E-01  1.81039E+00  4.19192E-01 -1.31200E+00  1.86998E+00  2.32107E+00  3.55871E+00  4.22848E+00
  -5.38426E-01  2.96877E+00  5.33018E-01  9.72399E-01  9.07184E-01  1.44936E+00  4.04143E-01  1.26308E-01  1.87425E+00  1.49202E+00
   2.32491E+00  2.93777E+00 -4.78002E-01  1.81708E+00  2.89793E+00  2.19889E+00 -1.90422E+00 -1.08141E+00  2.69156E+00 -1.40665E+00
   2.00412E+00  1.77450E+00  1.85940E+00  1.55475E+00  1.89557E+00  7.53745E-01  2.26998E+00  1.63023E+00  1.20711E+00  1.05061E+00
   3.37020E-01  2.00464E+00  2.82434E+00  6.54549E-01  2.90876E+00  1.93474E+00  6.59874E-01  1.27257E+00  3.25525E+00  3.46868E-01
   2.87263E+00  2.24187E+00  1.46833E+00  1.50910E+00  2.23807E+00  3.06920E-01  7.62574E-01  2.75965E+00  2.35161E+00  3.77641E-01
   4.47294E+00  1.98145E+00  2.97121E+00  2.63574E+00  2.41249E+00  3.32453E+00  2.77109E+00  1.34193E+00  3.70490E+00  3.44465E+00
   8.94737E-01  2.61408E+00  1.97737E+00  4.22955E+00  1.93506E+00 -1.06091E+00  2.82870E+00 -5.71145E-01 -2.96945E-01  4.60126E-01
   3.50130E+00  8.16909E-01  6.94579E-01  1.85460E+00  2.93659E+00  4.12982E+00  2.89414E+00  4.46660E+00  3.44953E+00  3.93090E+00
   2.00775E+00  2.99747E+00  3.29852E+00  1.13837E+00  1.34344E+00  2.43739E+00  9.83379E-01  4.44102E+00  2.48076E+00  2.34401E+00
   2.17618E+00  1.05325E+00  6.28058E+00  3.46705E+00  1.60754E+00 -3.01368E-02  2.10001E+00 -5.72761E-01  3.69635E+00  2.46500E+00
   2.71852E+00  1.96076E+00  2.79735E+00  9.73682E-01 -3.50000E-01  3.19862E+00  2.12304E+00  4.87526E-01  1.60129E+00  3.72185E+00
   2.03943E+00  3.15904E+00  2.98217E+00  2.78806E+00  6.46212E-01  1.50060E+00  1.97502E+00  1.83192E+00  2.66784E+00  4.56965E+00
   3.25325E+00  2.37803E+00 -2.80725E-02 -9.19734E-02  3.59046E+00  1.62049E+00  9.30815E-01  2.98640E+00  2.45674E+00  1.83599E+00
   1.11292E+00  2.84244E+00  2.28078E+00  9.71702E-01  4.43534E+00  4.81234E-01  3.23337E+00  4.95147E-01  2.06202E+00  7.65569E-01
   2.96442E+00  1.68080E+00  2.00083E-01  3.83258E+00  3.04198E+00  3.89301E+00  3.15638E+00  1.64623E-01  8.04023E-01  2.69350E+00
   2.42166E+00  1.20441E+00  2.37612E+00  2.77946E+00  3.46033E+00  4.02049E+00  5.15185E+00  2.65573E+00  3.20422E+00  2.46715E+00
   2.17438E+00  1.37677E+00 -9.93083E-01  4.63701E+00  1.74547E+00  3.56443E+00  1.38915E+00  2.85042E+00  1.98843E+00  3.13423E-01
   2.48268E+00  1.65070E+00  3.15330E+00  3.09462E+00  1.44695E+00  7.29927E-01  9.48005E-01  1.23669E+00  1.21415E+00  1.49115E+00
   2.04991E+00  4.53296E-01  8.82533E-01  2.46898E+00  1.48355E+00  9.65031E-01  4.24491E+00  1.89514E+00  2.45459E+00  1.79334E+00
   7.14136E-01  1.32471E+00  2.38144E+00  3.70959E+00  1.86785E+00  4.40092E+00  3.40598E+00  2.44531E+00  4.31211E+00  2.19609E+00
   3.30183E+00  3.12350E+00  3.29206E+00  8.75959E-01  2.42011E+00  1.24110E+00  4.09069E+00  4.59276E+00  6.78285E+00  4.58566E+00
   5.37135E+00  6.01192E+00  6.77136E+00  2.51830E+00  4.92798E+00  5.30299E+00  2.74327E+00  2.91506E+00  3.05905E+00  2.59107E+00
   1.22168E+00  2.11784E+00  2.61117E+00  4.36126E+00  1.17508E+00  9.20024E-01  4.43222E+00  3.56032E+00  6.07978E-03  2.77764E+00
   1.12800E+00  2.75054E+00  3.02093E-01  3.45441E+00  2.08433E+00  2.80715E+00  1.69655E+00  2.64815E+00  4.88699E-01  2.34051E+00
  -6.10724E-01  2.35027E+00  1.19166E+00  1.64567E-01 -3.88722E-01  6.28453E-01  2.52433E+00  6.48063E-01  3.59668E-01  3.46357E+00
   2.29321E+00  3.56165E+00  4.74779E+00  3.94516E+00  2.82348E+00 -3.16972E-01  1.02190E+00  2.63235E-01  1.93000E+00 -6.10120E-01
   2.39947E+00 -1.18325E+00  6.72221E-01  1.04244E+00  1.41459E+00  3.63042E-01  1.26111E+00  2.28456E+00  2.19421E+00  2.32252E+00
   2.29108E+00 -3.37828E-02  1.91879E+00  1.66441E+00  3.00600E+00  3.51319E+00  2.28354E+00  3.15751E+00  2.88026E+00  2.59421E+00
   2.84135E+00  1.81853E+00  2.57419E+00  2.23837E+00 -6.08481E-01  1.32051E+00  1.30673E+00  4.78179E+00  6.53247E-01  6.07565E-01
   1.69970E+00  9.79438E-01  1.72529E+00  1.29111E+00  1.65609E+00  4.58340E+00  1.89311E+00  2.94415E+00  3.16814E+00  2.80557E+00
   3.35753E+00  2.58198E+00  6.78812E+00  5.27257E+00  6.65102E+00  6.47401E+00  6.90924E+00  4.65188E+00  6.30081E+00  4.43331E+00
   5.92040E+00  5.20085E+00  3.79980E+00  4.13085E+00  1.90603E+00  8.13556E-01  3.83151E+00  1.02806E+00  1.84870E+00  2.56338E+00
   2.58567E+00  2.60095E+00  4.59538E+00  1.81207E+00  2.82697E+00 -1.02057E-01  1.84854E+00  1.53556E+00 -1.19519E+00 -2.98458E+00
  -3.91194E-01 -5.79930E-01  4.59535E-01  5.13213E-01  9.82559E-01  3.63760E-01 -1.25346E+00  2.87093E+00  7.95177E-01  1.72847E+00
   7.44938E-02  9.32139E-01  1.15780E+00 -2.07982E+00  1.15668E+00  9.94383E-01  1.07883E+00  1.09311E+00  7.03021E-02  1.23782E+00
   2.65446E-01  5.21849E-01 -4.05502E-01  3.32582E-01  1.75464E+00 -3.23205E-01 -1.09455E-01  1.60956E+00  1.98866E+00  1.43560E+00
   8.11489E-01  1.57889E+00  2.29757E+00  2.74092E+00  2.88433E+00  2.25415E-01  2.63445E+00  2.33731E+00 -1.22870E+00 -4.02913E-01
   3.50551E+00  1.23045E+00  9.81262E-01 -1.85380E+00  1.09815E+00  1.55852E+00  4.63166E-01  7.87241E-01  7.98709E-01  1.42783E-02
  -1.34056E+00  9.59257E-01 -9.22337E-01 -1.60925E+00  9.01592E-01  1.94615E+00 -1.39303E+00  1.16331E+00 -4.68352E-01  1.63873E+00
   3.78329E-01  8.41865E-01  7.60179E-01 -2.07797E-01  2.46081E+00 -1.30382E+00  2.25372E-01 -3.69423E-01  3.23956E-01  3.84324E-01
  -9.68259E-01  5.70952E-01 -2.77455E-01  1.16624E+00 -8.83287E-02 -9.68459E-01  1.37775E+00  7.83679E-01  1.43409E+00 -9.73208E-01
  -2.09700E-01  6.57222E-01  4.38236E-01  1.17825E+00  1.22796E+00 -5.36771E-01  1.56021E-01  1.33445E+00  1.82862E+00  1.20129E+00
   2.74997E+00  1.24218E+00  3.14242E+00  2.22942E+00 -3.95525E-01  1.97144E+00  3.22903E-01  9.80667E-01  1.24830E+00  1.50668E-01
  -5.83072E-01  2.79794E-01  6.93547E-01 -1.60992E+00  4.31663E-01  3.27334E-01 -5.08721E-01  3.78881E-01  9.06460E-02  2.22898E+00
  -1.48517E+00  6.39886E-01 -1.17127E+00  1.10792E+00 -1.16837E+00 -4.99269E-01 -6.08719E-01 -1.58477E+00
 NY points of the fit to the data follow
   8.35607E-01  7.40000E-01  6.37371E-01  5.82368E-01  6.34741E-01  7.98659E-01  1.03081E+00  1.27155E+00  1.47585E+00  1.62353E+00
   1.70877E+00  1.73468E+00  1.71428E+00  1.65434E+00  1.54793E+00  1.40199E+00  1.25514E+00  1.15451E+00  1.09312E+00  1.04082E+00
   9.79394E-01  8.98337E-01  7.90996E-01  6.58733E-01  5.73855E-01  6.42677E-01  8.89529E-01  1.25971E+00  1.65658E+00  2.00069E+00
   2.25171E+00  2.39716E+00  2.44502E+00  2.42444E+00  2.35721E+00  2.23285E+00  2.04603E+00  1.83687E+00  1.67225E+00  1.56165E+00
   1.46757E+00  1.38889E+00  1.35480E+00  1.38921E+00  1.48720E+00  1.61984E+00  1.74860E+00  1.84121E+00  1.88416E+00  1.88046E+00
   1.84021E+00  1.77607E+00  1.69376E+00  1.59461E+00  1.49518E+00  1.42817E+00  1.42025E+00  1.46329E+00  1.52668E+00  1.58334E+00
   1.61907E+00  1.63042E+00  1.62054E+00  1.59831E+00  1.57240E+00  1.54391E+00  1.51598E+00  1.49796E+00  1.49697E+00  1.51316E+00
   1.54494E+00  1.58557E+00  1.62634E+00  1.65909E+00  1.67705E+00  1.67878E+00  1.66783E+00  1.64851E+00  1.62417E+00  1.59911E+00
   1.58526E+00  1.58874E+00  1.60086E+00  1.60748E+00  1.59676E+00  1.56443E+00  1.51692E+00  1.46375E+00  1.41118E+00  1.36334E+00
   1.32261E+00  1.28842E+00  1.25776E+00  1.23250E+00  1.21163E+00  1.18239E+00  1.13230E+00  1.10941E+00  1.22524E+00  1.50985E+00
   1.90950E+00  2.32208E+00  2.66005E+00  2.88524E+00  2.99512E+00  2.99995E+00  2.92132E+00  2.78524E+00  2.59316E+00  2.34780E+00
   2.09405E+00  1.90168E+00  1.79410E+00  1.72590E+00  1.67137E+00  1.61919E+00  1.56451E+00  1.50396E+00  1.43564E+00  1.36218E+00
   1.32386E+00  1.43747E+00  1.74628E+00  2.19383E+00  2.66874E+00  3.06901E+00  3.34704E+00  3.50697E+00  3.57598E+00  3.57227E+00
   3.49861E+00  3.33198E+00  3.05112E+00  2.69883E+00  2.37581E+00  2.15453E+00  2.02261E+00  1.96034E+00  1.94918E+00  1.96736E+00
   2.00388E+00  2.05691E+00  2.11873E+00  2.17137E+00  2.20206E+00  2.20681E+00  2.18569E+00  2.14603E+00  2.10006E+00  2.05570E+00
   2.01946E+00  1.99015E+00  1.96839E+00  1.95515E+00  1.94848E+00  1.94052E+00  1.92335E+00  1.89693E+00  1.86638E+00  1.84292E+00
   1.83370E+00  1.83488E+00  1.83866E+00  1.83884E+00  1.83388E+00  1.82530E+00  1.81545E+00  1.80571E+00  1.79443E+00  1.77644E+00
   1.74607E+00  1.70139E+00  1.65192E+00  1.61043E+00  1.58204E+00  1.56156E+00  1.54080E+00  1.51702E+00  1.49428E+00  1.47453E+00
   1.45457E+00  1.42880E+00  1.39441E+00  1.35931E+00  1.33998E+00  1.35813E+00  1.42899E+00  1.54293E+00  1.67118E+00  1.78401E+00
   1.86466E+00  1.90691E+00  1.90027E+00  1.84730E+00  1.76673E+00  1.68175E+00  1.61182E+00  1.56947E+00  1.56403E+00  1.59761E+00
   1.65994E+00  1.73172E+00  1.79895E+00  1.85744E+00  1.90112E+00  1.92177E+00  1.91721E+00  1.89507E+00  1.85834E+00  1.80937E+00
   1.75828E+00  1.71843E+00  1.69725E+00  1.69138E+00  1.69537E+00  1.70581E+00  1.72008E+00  1.73743E+00  1.75976E+00  1.78848E+00
   1.81995E+00  1.84842E+00  1.87281E+00  1.89446E+00  1.91126E+00  1.91259E+00  1.88680E+00  1.83904E+00  1.78707E+00  1.75073E+00
   1.74518E+00  1.78193E+00  1.86521E+00  1.97237E+00  2.06492E+00  2.11269E+00  2.10834E+00  2.06080E+00  1.98034E+00  1.88265E+00
   1.79814E+00  1.75434E+00  1.75588E+00  1.79318E+00  1.85810E+00  1.94315E+00  2.03027E+00  2.09567E+00  2.13149E+00  2.14401E+00
   2.14046E+00  2.12730E+00  2.11782E+00  2.14930E+00  2.36265E+00  2.92885E+00  3.77811E+00  4.69072E+00  5.42449E+00  5.83670E+00
   5.91654E+00  5.72154E+00  5.32080E+00  4.79506E+00  4.21034E+00  3.57989E+00  2.93586E+00  2.39282E+00  2.07027E+00  1.94659E+00
   1.88799E+00  1.84932E+00  1.82100E+00  1.79836E+00  1.77863E+00  1.76017E+00  1.74177E+00  1.72263E+00  1.70259E+00  1.68257E+00
   1.66378E+00  1.64717E+00  1.63325E+00  1.62229E+00  1.61433E+00  1.60888E+00  1.60508E+00  1.60238E+00  1.60040E+00  1.59877E+00
   1.59726E+00  1.59574E+00  1.59430E+00  1.59328E+00  1.59286E+00  1.59295E+00  1.59349E+00  1.59443E+00  1.59565E+00  1.59699E+00
   1.59835E+00  1.59961E+00  1.60065E+00  1.60140E+00  1.60185E+00  1.60203E+00  1.60198E+00  1.60174E+00  1.60139E+00  1.60099E+00
   1.60067E+00  1.60055E+00  1.60076E+00  1.60142E+00  1.60264E+00  1.60454E+00  1.60722E+00  1.61079E+00  1.61531E+00  1.62085E+00
   1.62743E+00  1.63509E+00  1.64383E+00  1.65366E+00  1.66458E+00  1.67658E+00  1.68965E+00  1.70381E+00  1.71911E+00  1.73561E+00
   1.75344E+00  1.77276E+00  1.79384E+00  1.81704E+00  1.84291E+00  1.87217E+00  1.90585E+00  1.94540E+00  1.99296E+00  2.05182E+00
   2.12770E+00  2.22900E+00  2.35114E+00  2.47941E+00  2.60679E+00  2.73883E+00  2.89140E+00  3.08122E+00  3.32086E+00  3.62799E+00
   4.00945E+00  4.44713E+00  4.90362E+00  5.33615E+00  5.70366E+00  5.96549E+00  6.08276E+00  6.03644E+00  5.83145E+00  5.48411E+00
   5.01932E+00  4.47427E+00  3.89653E+00  3.33256E+00  2.81094E+00  2.34896E+00  1.95782E+00  1.64097E+00  1.39513E+00  1.21234E+00
   1.08222E+00  9.93837E-01  9.37022E-01  9.03153E-01  8.85403E-01  8.78686E-01  8.79409E-01  8.85152E-01  8.94360E-01  9.06073E-01
   9.19730E-01  9.35025E-01  9.51809E-01  9.70027E-01  9.89666E-01  1.01073E+00  1.03320E+00  1.05706E+00  1.08223E+00  1.10860E+00
   1.13600E+00  1.16416E+00  1.19277E+00  1.22142E+00  1.24963E+00  1.27685E+00  1.30247E+00  1.32584E+00  1.34628E+00  1.36312E+00
   1.37573E+00  1.38355E+00  1.38610E+00  1.38303E+00  1.37412E+00  1.35932E+00  1.33874E+00  1.31266E+00  1.28152E+00  1.24587E+00
   1.20639E+00  1.16385E+00  1.11907E+00  1.07287E+00  1.02606E+00  9.79401E-01  9.33593E-01  8.89243E-01  8.46854E-01  8.06817E-01
   7.69416E-01  7.34830E-01  7.03148E-01  6.74374E-01  6.48439E-01  6.25215E-01  6.04537E-01  5.86211E-01  5.70029E-01  5.55778E-01
   5.43240E-01  5.32206E-01  5.22482E-01  5.13891E-01  5.06274E-01  4.99486E-01  4.93397E-01  4.87896E-01  4.82886E-01  4.78289E-01
   4.74037E-01  4.70069E-01  4.66335E-01  4.62791E-01  4.59404E-01  4.56148E-01  4.53000E-01  4.49938E-01  4.46942E-01  4.44000E-01
   4.41101E-01  4.38238E-01  4.35404E-01  4.32590E-01  4.29788E-01  4.26995E-01  4.24210E-01  4.21431E-01  4.18653E-01  4.15874E-01
   4.13090E-01  4.10302E-01  4.07512E-01  4.04718E-01  4.01919E-01  3.99112E-01  3.96298E-01  3.93479E-01  3.90657E-01  3.87831E-01
   3.84999E-01  3.82161E-01  3.79318E-01  3.76474E-01  3.73630E-01  3.70784E-01  3.67937E-01  3.65088E-01  3.62241E-01  3.59398E-01
   3.56560E-01  3.53727E-01  3.50898E-01  3.48076E-01  3.45265E-01  3.42466E-01  3.39682E-01  3.36911E-01  3.34156E-01  3.31420E-01
   3.28709E-01  3.26025E-01  3.23370E-01  3.20746E-01  3.18158E-01  3.15613E-01  3.13118E-01  3.10679E-01
 NY background values follow
     1.255E+00    1.261E+00    1.267E+00    1.273E+00    1.278E+00    1.284E+00    1.289E+00    1.295E+00    1.300E+00    1.306E+00
     1.311E+00    1.317E+00    1.322E+00    1.327E+00    1.333E+00    1.338E+00    1.343E+00    1.348E+00    1.353E+00    1.358E+00
     1.363E+00    1.368E+00    1.373E+00    1.378E+00    1.383E+00    1.388E+00    1.393E+00    1.398E+00    1.403E+00    1.407E+00
     1.412E+00    1.417E+00    1.421E+00    1.426E+00    1.430E+00    1.435E+00    1.439E+00    1.444E+00    1.448E+00    1.453E+00
     1.457E+00    1.461E+00    1.465E+00    1.470E+00    1.474E+00    1.478E+00    1.482E+00    1.486E+00    1.490E+00    1.494E+00
     1.498E+00    1.502E+00    1.506E+00    1.510E+00    1.513E+00    1.517E+00    1.521E+00    1.525E+00    1.528E+00    1.532E+00
     1.536E+00    1.539E+00    1.543E+00    1.546E+00    1.549E+00    1.553E+00    1.556E+00    1.560E+00    1.563E+00    1.566E+00
     1.569E+00    1.573E+00    1.576E+00    1.579E+00    1.582E+00    1.585E+00    1.588E+00    1.591E+00    1.594E+00    1.597E+00
     1.599E+00    1.602E+00    1.605E+00    1.608E+00    1.610E+00    1.613E+00    1.616E+00    1.618E+00    1.621E+00    1.623E+00
     1.626E+00    1.628E+00    1.631E+00    1.633E+00    1.636E+00    1.638E+00    1.640E+00    1.642E+00    1.645E+00    1.647E+00
     1.649E+00    1.651E+00    1.653E+00    1.655E+00    1.657E+00    1.659E+00    1.661E+00    1.663E+00    1.664E+00    1.666E+00
     1.668E+00    1.670E+00    1.671E+00    1.673E+00    1.675E+00    1.676E+00    1.678E+00    1.679E+00    1.681E+00    1.682E+00
     1.684E+00    1.685E+00    1.686E+00    1.688E+00    1.689E+00    1.690E+00    1.691E+00    1.693E+00    1.694E+00    1.695E+00
     1.696E+00    1.697E+00    1.698E+00    1.699E+00    1.700E+00    1.701E+00    1.702E+00    1.702E+00    1.703E+00    1.704E+00
     1.705E+00    1.705E+00    1.706E+00    1.707E+00    1.707E+00    1.708E+00    1.708E+00    1.709E+00    1.709E+00    1.710E+00
     1.710E+00    1.710E+00    1.711E+00    1.711E+00    1.711E+00    1.711E+00    1.712E+00    1.712E+00    1.712E+00    1.712E+00
     1.712E+00    1.712E+00    1.712E+00    1.712E+00    1.712E+00    1.712E+00    1.712E+00    1.712E+00    1.711E+00    1.711E+00
     1.711E+00    1.711E+00    1.710E+00    1.710E+00    1.709E+00    1.709E+00    1.709E+00    1.708E+00    1.708E+00    1.707E+00
     1.706E+00    1.706E+00    1.705E+00    1.704E+00    1.704E+00    1.703E+00    1.702E+00    1.701E+00    1.701E+00    1.700E+00
     1.699E+00    1.698E+00    1.697E+00    1.696E+00    1.695E+00    1.694E+00    1.693E+00    1.692E+00    1.691E+00    1.690E+00
     1.688E+00    1.687E+00    1.686E+00    1.685E+00    1.683E+00    1.682E+00    1.681E+00    1.679E+00    1.678E+00    1.676E+00
     1.675E+00    1.673E+00    1.672E+00    1.670E+00    1.669E+00    1.667E+00    1.666E+00    1.664E+00    1.662E+00    1.661E+00
     1.659E+00    1.657E+00    1.655E+00    1.653E+00    1.651E+00    1.650E+00    1.648E+00    1.646E+00    1.644E+00    1.642E+00
     1.640E+00    1.638E+00    1.636E+00    1.634E+00    1.631E+00    1.629E+00    1.627E+00    1.625E+00    1.623E+00    1.621E+00
     1.618E+00    1.616E+00    1.614E+00    1.611E+00    1.609E+00    1.607E+00    1.604E+00    1.602E+00    1.599E+00    1.597E+00
     1.594E+00    1.592E+00    1.589E+00    1.587E+00    1.584E+00    1.581E+00    1.579E+00    1.576E+00    1.573E+00    1.571E+00
     1.568E+00    1.565E+00    1.562E+00    1.559E+00    1.557E+00    1.554E+00    1.551E+00    1.548E+00    1.545E+00    1.542E+00
     1.539E+00    1.536E+00    1.533E+00    1.530E+00    1.527E+00    1.524E+00    1.521E+00    1.518E+00    1.515E+00    1.511E+00
     1.508E+00    1.505E+00    1.502E+00    1.499E+00    1.495E+00    1.492E+00    1.489E+00    1.486E+00    1.482E+00    1.479E+00
     1.475E+00    1.472E+00    1.469E+00    1.465E+00    1.462E+00    1.458E+00    1.455E+00    1.451E+00    1.448E+00    1.444E+00
     1.441E+00    1.437E+00    1.434E+00    1.430E+00    1.426E+00    1.423E+00    1.419E+00    1.415E+00    1.412E+00    1.408E+00
     1.404E+00    1.401E+00    1.397E+00    1.393E+00    1.389E+00    1.385E+00    1.382E+00    1.378E+00    1.374E+00    1.370E+00
     1.366E+00    1.362E+00    1.358E+00    1.355E+00    1.351E+00    1.347E+00    1.343E+00    1.339E+00    1.335E+00    1.331E+00
     1.327E+00    1.323E+00    1.319E+00    1.315E+00    1.310E+00    1.306E+00    1.302E+00    1.298E+00    1.294E+00    1.290E+00
     1.286E+00    1.282E+00    1.277E+00    1.273E+00    1.269E+00    1.265E+00    1.261E+00    1.256E+00    1.252E+00    1.248E+00
     1.244E+00    1.239E+00    1.235E+00    1.231E+00    1.227E+00    1.222E+00    1.218E+00    1.214E+00    1.209E+00    1.205E+00
     1.200E+00    1.196E+00    1.192E+00    1.187E+00    1.183E+00    1.179E+00    1.174E+00    1.170E+00    1.165E+00    1.161E+00
     1.156E+00    1.152E+00    1.147E+00    1.143E+00    1.138E+00    1.134E+00    1.129E+00    1.125E+00    1.120E+00    1.116E+00
     1.111E+00    1.107E+00    1.102E+00    1.098E+00    1.093E+00    1.089E+00    1.084E+00    1.080E+00    1.075E+00    1.070E+00
     1.066E+00    1.061E+00    1.057E+00    1.052E+00    1.047E+00    1.043E+00    1.038E+00    1.034E+00    1.029E+00    1.024E+00
     1.020E+00    1.015E+00    1.010E+00    1.006E+00    1.001E+00    9.965E-01    9.918E-01    9.871E-01    9.825E-01    9.778E-01
     9.732E-01    9.685E-01    9.638E-01    9.592E-01    9.545E-01    9.498E-01    9.451E-01    9.404E-01    9.358E-01    9.311E-01
     9.264E-01    9.217E-01    9.170E-01    9.123E-01    9.077E-01    9.030E-01    8.983E-01    8.936E-01    8.889E-01    8.842E-01
     8.795E-01    8.748E-01    8.702E-01    8.655E-01    8.608E-01    8.561E-01    8.514E-01    8.467E-01    8.420E-01    8.374E-01
     8.327E-01    8.280E-01    8.233E-01    8.187E-01    8.140E-01    8.093E-01    8.046E-01    8.000E-01    7.953E-01    7.906E-01
     7.860E-01    7.813E-01    7.767E-01    7.720E-01    7.674E-01    7.627E-01    7.581E-01    7.535E-01    7.488E-01    7.442E-01
     7.396E-01    7.350E-01    7.303E-01    7.257E-01    7.211E-01    7.165E-01    7.119E-01    7.073E-01    7.027E-01    6.981E-01
     6.936E-01    6.890E-01    6.844E-01    6.799E-01    6.753E-01    6.708E-01    6.662E-01    6.617E-01    6.571E-01    6.526E-01
     6.481E-01    6.436E-01    6.391E-01    6.346E-01    6.301E-01    6.256E-01    6.211E-01    6.167E-01    6.122E-01    6.077E-01
     6.033E-01    5.988E-01    5.944E-01    5.900E-01    5.856E-01    5.812E-01    5.768E-01    5.724E-01
 Asp      Conc. = 1.17E+01
