 LCModel (Version 6.3-1L) Copyright: S.W. Provencher.          Ref.: Magn. Reson. Med. 30:672-679 (1993).                
 Slice#3 Row#5 Col#11  PD_05_press_1_raw_act
 36 lines in following concentration table = NCONC+1
    Conc.  %SD /Cr+PCr  Metabolite                                         
   31.386 307% 4.0E-02 Ala                                                 
    0.000 999%   0.000 Asp                                                 
  457.147  38%   0.582 Cr                                                  
  327.836  54%   0.418 PCr                                                 
    3.287 999% 4.2E-03 GABA                                                
    0.000 999%   0.000 Glc                                                 
    0.000 999%   0.000 Gln                                                 
  520.174  44%   0.663 Glu                                                 
  203.383   8%   0.259 GPC                                                 
    0.000 999%   0.000 PCh                                                 
  343.124  17%   0.437 GSH                                                 
 1.04E+03  23%   1.323 Ins                                                 
    0.000 999%   0.000 Lac                                                 
 1.08E+03  10%   1.371 NAA                                                 
  269.001  43%   0.343 NAAG                                                
   12.543 158% 1.6E-02 Scyllo                                              
    0.000 999%   0.000 Tau                                                 
  298.518  29%   0.380 -CrCH2                                              
  203.383   8%   0.259 GPC+PCh                                             
 1.35E+03   5%   1.714 NAA+NAAG                                            
  784.983   5%   1.000 Cr+PCr                                              
  520.174  44%   0.663 Glu+Gln                                             
 1.74E+03  16%   2.223 Lip13a                                              
    0.000 999%   0.000 Lip13b                                              
    0.000 999%   0.000 Lip09                                               
 1.02E+03  14%   1.295 MM09                                                
  674.613  25%   0.859 Lip20                                               
 2.41E+03  11%   3.072 MM20                                                
  321.092  30%   0.409 MM12                                                
    0.000 999%   0.000 MM14                                                
  967.859  19%   1.233 MM17                                                
 1.74E+03  16%   2.223 Lip13a+Lip13b                                       
 2.07E+03  13%   2.632 MM14+Lip13a+Lip13b+MM12                             
 1.02E+03  14%   1.295 MM09+Lip09                                          
 3.09E+03   9%   3.931 MM20+Lip20                                          
   6 lines in following misc. output table
  FWHM = 0.069 ppm    S/N =  10                                            
  Data shift =-0.008 ppm                                                   
  Ph:  64 deg      12.3 deg/ppm                                            
  alphaB,S = 3.4E-01,   9.0E+01                                            
   14 spline knots.   Ns = 9(1)                                            
  (14) 7 infls.   (15) 1 extrs.                                            
  498 points on ppm-axis = NY
      4.000000     3.992357     3.984714     3.977070     3.969427     3.961784     3.954141     3.946497     3.938854     3.931211
      3.923568     3.915925     3.908281     3.900638     3.892995     3.885352     3.877708     3.870065     3.862422     3.854779
      3.847136     3.839492     3.831849     3.824206     3.816563     3.808919     3.801276     3.793633     3.785990     3.778347
      3.770703     3.763060     3.755417     3.747774     3.740130     3.732487     3.724844     3.717201     3.709558     3.701914
      3.694271     3.686628     3.678985     3.671341     3.663698     3.656055     3.648412     3.640769     3.633125     3.625482
      3.617839     3.610196     3.602552     3.594909     3.587266     3.579623     3.571980     3.564336     3.556693     3.549050
      3.541407     3.533763     3.526120     3.518477     3.510834     3.503191     3.495547     3.487904     3.480261     3.472618
      3.464974     3.457331     3.449688     3.442045     3.434402     3.426758     3.419115     3.411472     3.403829     3.396185
      3.388542     3.380899     3.373256     3.365613     3.357969     3.350326     3.342683     3.335040     3.327396     3.319753
      3.312110     3.304467     3.296824     3.289180     3.281537     3.273894     3.266251     3.258607     3.250964     3.243321
      3.235678     3.228034     3.220391     3.212748     3.205105     3.197462     3.189818     3.182175     3.174532     3.166889
      3.159245     3.151602     3.143959     3.136316     3.128673     3.121029     3.113386     3.105743     3.098100     3.090456
      3.082813     3.075170     3.067527     3.059884     3.052240     3.044597     3.036954     3.029311     3.021667     3.014024
      3.006381     2.998738     2.991095     2.983451     2.975808     2.968165     2.960522     2.952878     2.945235     2.937592
      2.929949     2.922306     2.914662     2.907019     2.899376     2.891733     2.884089     2.876446     2.868803     2.861160
      2.853517     2.845873     2.838230     2.830587     2.822944     2.815300     2.807657     2.800014     2.792371     2.784728
      2.777084     2.769441     2.761798     2.754155     2.746511     2.738868     2.731225     2.723582     2.715939     2.708295
      2.700652     2.693009     2.685366     2.677722     2.670079     2.662436     2.654793     2.647150     2.639506     2.631863
      2.624220     2.616577     2.608933     2.601290     2.593647     2.586004     2.578361     2.570717     2.563074     2.555431
      2.547788     2.540144     2.532501     2.524858     2.517215     2.509572     2.501928     2.494285     2.486642     2.478999
      2.471355     2.463712     2.456069     2.448426     2.440783     2.433139     2.425496     2.417853     2.410210     2.402566
      2.394923     2.387280     2.379637     2.371994     2.364350     2.356707     2.349064     2.341421     2.333777     2.326134
      2.318491     2.310848     2.303205     2.295561     2.287918     2.280275     2.272632     2.264988     2.257345     2.249702
      2.242059     2.234416     2.226772     2.219129     2.211486     2.203843     2.196199     2.188556     2.180913     2.173270
      2.165627     2.157983     2.150340     2.142697     2.135054     2.127410     2.119767     2.112124     2.104481     2.096838
      2.089194     2.081551     2.073908     2.066265     2.058621     2.050978     2.043335     2.035692     2.028049     2.020405
      2.012762     2.005119     1.997476     1.989833     1.982190     1.974546     1.966903     1.959260     1.951617     1.943974
      1.936331     1.928688     1.921045     1.913402     1.905759     1.898115     1.890472     1.882829     1.875186     1.867543
      1.859900     1.852257     1.844614     1.836971     1.829327     1.821684     1.814041     1.806398     1.798755     1.791112
      1.783469     1.775826     1.768183     1.760540     1.752896     1.745253     1.737610     1.729967     1.722324     1.714681
      1.707038     1.699395     1.691752     1.684108     1.676465     1.668822     1.661179     1.653536     1.645893     1.638250
      1.630607     1.622964     1.615321     1.607677     1.600034     1.592391     1.584748     1.577105     1.569462     1.561819
      1.554176     1.546533     1.538890     1.531246     1.523603     1.515960     1.508317     1.500674     1.493031     1.485388
      1.477745     1.470102     1.462458     1.454815     1.447172     1.439529     1.431886     1.424243     1.416600     1.408957
      1.401314     1.393671     1.386027     1.378384     1.370741     1.363098     1.355455     1.347812     1.340169     1.332526
      1.324883     1.317240     1.309596     1.301953     1.294310     1.286667     1.279024     1.271381     1.263738     1.256095
      1.248452     1.240808     1.233165     1.225522     1.217879     1.210236     1.202593     1.194950     1.187307     1.179664
      1.172021     1.164377     1.156734     1.149091     1.141448     1.133805     1.126162     1.118519     1.110876     1.103233
      1.095590     1.087946     1.080303     1.072660     1.065017     1.057374     1.049731     1.042088     1.034445     1.026802
      1.019158     1.011515     1.003872     0.996229     0.988586     0.980943     0.973300     0.965657     0.958014     0.950371
      0.942727     0.935084     0.927441     0.919798     0.912155     0.904512     0.896869     0.889226     0.881583     0.873940
      0.866296     0.858653     0.851010     0.843367     0.835724     0.828081     0.820438     0.812795     0.805152     0.797508
      0.789865     0.782222     0.774579     0.766936     0.759293     0.751650     0.744007     0.736364     0.728721     0.721077
      0.713434     0.705791     0.698148     0.690505     0.682862     0.675219     0.667576     0.659933     0.652290     0.644646
      0.637003     0.629360     0.621717     0.614074     0.606431     0.598788     0.591145     0.583502     0.575858     0.568215
      0.560572     0.552929     0.545286     0.537643     0.530000     0.522357     0.514714     0.507071     0.499427     0.491784
      0.484141     0.476498     0.468855     0.461212     0.453569     0.445925     0.438282     0.430639     0.422996     0.415353
      0.407710     0.400067     0.392424     0.384780     0.377137     0.369494     0.361851     0.354208     0.346565     0.338922
      0.331278     0.323635     0.315992     0.308349     0.300706     0.293063     0.285420     0.277777     0.270133     0.262490
      0.254847     0.247204     0.239561     0.231918     0.224275     0.216631     0.208988     0.201345
 NY phased data points follow
   2.48623E-01  1.83439E+00  3.42899E-01  5.83616E-01  2.72797E+00  1.18869E+00  4.24661E+00  4.36959E+00  7.20153E+00  7.81360E+00
   6.60203E+00  9.50485E+00  8.17235E+00  7.32708E+00  8.25969E+00  6.93584E+00  5.05297E+00  2.68745E+00  3.05287E+00  3.40548E+00
   4.41915E+00  2.81529E+00  4.21730E+00  5.05636E+00  3.20795E+00  3.92745E+00  4.01909E+00  4.69522E+00  5.28484E+00  7.82191E+00
   8.01709E+00  6.00622E+00  5.09818E+00  5.30445E+00  5.66971E+00  4.37330E+00  4.30450E+00  5.91887E+00  5.57225E+00  6.43331E+00
   5.06928E+00  5.40583E+00  7.90450E+00  8.10262E+00  7.44540E+00  8.43039E+00  8.29172E+00  1.11787E+01  9.99198E+00  8.13244E+00
   1.21756E+01  6.85286E+00  8.04293E+00  6.66327E+00  8.55642E+00  4.93590E+00  4.19453E+00  5.61485E+00  6.71358E+00  5.15899E+00
   4.31667E+00  6.13314E+00  5.62991E+00  4.64482E+00  1.79484E+00  3.93293E+00  2.10540E-01  3.37783E+00  4.89749E+00  3.36802E+00
   2.92953E+00  4.78570E+00  5.48474E+00  2.54539E+00  3.19209E+00  3.21207E+00  6.16831E+00  2.96798E+00  3.82529E+00  2.94603E+00
   5.11784E+00  2.29928E+00  3.55404E+00  3.25026E+00  4.93973E+00  5.25690E+00  3.96546E+00  3.33631E+00  5.79736E+00  5.73150E+00
   8.43417E+00  8.74770E+00  6.85741E+00  5.71057E+00  1.07881E+01  1.11929E+01  9.45998E+00  1.32872E+01  1.31254E+01  1.60190E+01
   1.82618E+01  1.63968E+01  1.67682E+01  2.10323E+01  1.88646E+01  2.03109E+01  2.03752E+01  1.63193E+01  1.72681E+01  1.38235E+01
   1.14657E+01  1.03228E+01  6.88670E+00  7.80047E+00  8.61543E+00  1.09270E+01  1.11174E+01  1.19640E+01  1.49583E+01  1.37736E+01
   1.80150E+01  1.82633E+01  1.93975E+01  2.25265E+01  2.25350E+01  2.52448E+01  3.17640E+01  3.17055E+01  3.16899E+01  3.20951E+01
   2.83858E+01  2.66717E+01  1.91969E+01  2.05536E+01  1.90291E+01  1.67897E+01  1.57393E+01  1.13495E+01  1.25894E+01  1.48749E+01
   1.50465E+01  1.64806E+01  1.53592E+01  1.44724E+01  1.51723E+01  1.52391E+01  1.35079E+01  1.24625E+01  1.40574E+01  1.65310E+01
   1.58990E+01  1.33353E+01  1.51729E+01  1.50847E+01  1.19433E+01  1.39130E+01  1.53599E+01  1.46487E+01  1.54928E+01  1.25824E+01
   1.32909E+01  1.32287E+01  1.30874E+01  1.34983E+01  1.49202E+01  1.33488E+01  1.31344E+01  1.19606E+01  1.29671E+01  1.29807E+01
   1.23270E+01  1.18004E+01  1.19670E+01  9.14869E+00  9.51594E+00  7.56812E+00  9.24602E+00  8.84444E+00  1.14064E+01  9.55449E+00
   1.15988E+01  1.01437E+01  1.18386E+01  9.48376E+00  1.22239E+01  1.18277E+01  1.16797E+01  1.05570E+01  1.38876E+01  1.41756E+01
   1.37617E+01  1.52320E+01  1.46054E+01  1.47359E+01  1.67347E+01  1.19263E+01  1.29354E+01  1.56797E+01  1.26180E+01  1.50710E+01
   1.62661E+01  1.69453E+01  1.53964E+01  1.66971E+01  1.84014E+01  1.82384E+01  1.86463E+01  1.89490E+01  2.11767E+01  2.18969E+01
   1.88396E+01  2.08414E+01  2.06979E+01  2.02054E+01  2.07773E+01  2.10892E+01  2.34400E+01  2.13060E+01  2.04062E+01  2.10135E+01
   2.00382E+01  2.03315E+01  1.92204E+01  1.74308E+01  1.90462E+01  2.03532E+01  2.12486E+01  2.09418E+01  2.04938E+01  2.20632E+01
   2.08417E+01  2.18621E+01  1.95790E+01  2.26005E+01  2.01110E+01  2.08162E+01  2.07663E+01  2.07047E+01  1.90044E+01  2.31868E+01
   2.25821E+01  2.32292E+01  1.99814E+01  2.18527E+01  2.34311E+01  2.50255E+01  2.27123E+01  2.64476E+01  2.80498E+01  2.89217E+01
   3.06254E+01  3.27630E+01  3.58675E+01  3.62766E+01  3.76966E+01  4.23624E+01  4.68924E+01  4.77693E+01  5.09281E+01  5.35511E+01
   5.19001E+01  5.69930E+01  5.13448E+01  4.93751E+01  4.23783E+01  3.38691E+01  3.07485E+01  2.82371E+01  2.54122E+01  1.77257E+01
   1.84912E+01  1.78859E+01  1.88432E+01  1.75979E+01  1.50294E+01  1.87674E+01  1.79770E+01  1.79734E+01  1.59318E+01  1.60518E+01
   1.87943E+01  1.57618E+01  1.48254E+01  1.56352E+01  1.52529E+01  1.58203E+01  1.50207E+01  1.44182E+01  1.40377E+01  1.48589E+01
   1.33897E+01  1.30273E+01  1.49361E+01  1.39764E+01  1.22554E+01  1.30107E+01  1.56589E+01  1.05089E+01  1.41738E+01  1.28052E+01
   1.14063E+01  1.25519E+01  1.27132E+01  1.25222E+01  1.31143E+01  1.16905E+01  1.24574E+01  1.37683E+01  1.11105E+01  1.07060E+01
   1.06481E+01  1.27732E+01  9.76691E+00  8.95174E+00  9.81346E+00  8.86092E+00  7.17446E+00  8.28171E+00  7.32607E+00  6.17662E+00
   5.87170E+00  5.12575E+00  5.05326E+00  4.55614E+00  5.93628E+00  2.30940E+00  4.38891E+00  3.62861E+00 -7.81221E-02  1.66335E+00
  -4.37381E-01  2.38655E+00  7.59560E-01 -1.56740E+00 -7.21062E-01 -2.61953E+00 -4.42385E-01 -2.35010E+00 -1.91505E+00 -3.26950E+00
  -2.36241E+00 -2.76950E-01 -5.74376E-01 -2.58494E-01  3.20368E+00  3.75242E+00  4.76227E+00  3.77739E+00  4.88160E+00  3.34407E+00
   4.81805E+00  4.22663E+00  3.40411E+00  6.79110E+00  6.95296E+00  7.29976E+00  9.28271E+00  8.45428E+00  7.13052E+00  7.86930E+00
   1.10573E+01  9.42262E+00  1.25580E+01  1.11875E+01  7.28184E+00  9.12784E+00  9.04447E+00  8.34198E+00  7.81269E+00  1.02508E+01
   9.54795E+00  1.02646E+01  6.50828E+00  6.37908E+00  6.62048E+00  2.99555E+00  4.95330E+00  4.10455E+00  1.75384E+00  3.23956E+00
   1.69392E+00  1.02908E+00  2.14728E+00  2.96060E+00  3.29078E-01  1.60460E+00 -1.65657E+00  1.47408E+00 -4.46720E-01 -1.60134E+00
  -7.12504E-01 -1.86970E+00 -5.56706E-01 -1.80573E+00  1.49672E+00  1.15543E+00  2.97123E+00  1.59283E-01  1.25590E+00  1.96478E+00
   2.93986E+00  3.20213E+00  3.18612E+00  1.02587E+00  3.52422E+00  2.69383E+00  1.62410E+00  1.39900E+00  2.95780E+00  2.40080E-01
   1.61962E+00  1.33601E+00  3.48216E-01  1.00871E+00 -2.37228E+00  1.15673E+00 -1.21341E-01 -1.59962E+00 -2.10074E+00 -3.19661E+00
  -6.72735E-01 -3.39094E+00 -4.19312E+00 -5.03362E+00 -4.77349E+00 -4.56515E+00 -5.50815E+00 -2.31769E+00 -2.98045E+00 -2.74656E+00
  -3.84840E+00 -3.05085E+00 -2.41730E+00 -5.58556E+00 -6.33375E+00 -2.33636E+00 -3.28753E+00 -4.64546E+00 -4.30808E+00 -3.87406E+00
  -4.23151E+00 -1.23001E+00 -1.18221E+00 -1.63576E+00 -2.50907E+00 -4.19373E+00 -3.36088E+00 -2.78489E+00 -5.29541E+00 -5.01024E+00
  -3.09359E+00 -2.40480E+00 -6.03343E+00 -4.18492E+00 -3.83176E+00 -3.87292E+00 -2.90927E+00 -3.06895E+00 -3.47312E+00 -2.95803E+00
  -3.62421E+00 -4.71549E+00 -2.03110E+00 -2.42796E+00 -3.98473E+00 -3.58052E+00 -3.20112E+00 -4.25180E+00 -2.93595E+00 -4.08085E+00
  -4.92368E+00 -3.16670E+00 -3.46903E+00 -2.77341E+00 -2.13686E+00 -4.48378E+00 -3.12682E+00 -2.35723E+00 -3.21649E+00 -2.79544E+00
  -3.24600E+00 -5.01984E+00 -3.23916E+00 -4.57411E+00 -5.70252E+00 -4.68833E+00 -5.11559E+00 -2.46217E+00 -1.39396E+00 -3.91668E+00
  -1.78462E+00 -1.71479E+00 -1.70495E+00 -2.41269E+00 -5.03538E+00 -4.90831E+00 -2.02084E+00 -2.56342E+00
 NY points of the fit to the data follow
   7.19089E-01  5.62698E-01  1.00869E+00  1.89436E+00  2.61172E+00  3.25011E+00  4.04651E+00  4.96627E+00  5.87210E+00  6.75164E+00
   7.65252E+00  8.42181E+00  8.76138E+00  8.50335E+00  7.64857E+00  6.34401E+00  4.97688E+00  3.92350E+00  3.18069E+00  2.49455E+00
   2.15297E+00  2.50139E+00  2.96413E+00  3.29988E+00  3.74507E+00  4.35211E+00  4.99099E+00  5.67960E+00  6.56936E+00  7.48105E+00
   8.04437E+00  8.16902E+00  7.85775E+00  7.13544E+00  6.22609E+00  5.44083E+00  4.85170E+00  4.42276E+00  4.26155E+00  4.41256E+00
   4.66634E+00  4.89913E+00  5.27378E+00  5.80308E+00  6.38103E+00  6.98520E+00  7.63333E+00  8.18102E+00  8.31464E+00  7.92159E+00
   7.15968E+00  6.20449E+00  5.37009E+00  4.84887E+00  4.53759E+00  4.30318E+00  4.22944E+00  4.44811E+00  4.87294E+00  5.29738E+00
   5.61609E+00  5.75693E+00  5.73414E+00  5.57015E+00  5.32033E+00  5.12475E+00  5.07325E+00  5.15139E+00  5.32177E+00  5.56555E+00
   5.84596E+00  6.12053E+00  6.32760E+00  6.43023E+00  6.42750E+00  6.33472E+00  6.20433E+00  6.07387E+00  5.93408E+00  5.74215E+00
   5.53420E+00  5.37629E+00  5.25861E+00  5.14802E+00  5.04998E+00  4.96002E+00  4.85839E+00  4.77589E+00  4.71479E+00  4.72478E+00
   4.87501E+00  5.19397E+00  5.66619E+00  6.47167E+00  8.19237E+00  1.00437E+01  1.13077E+01  1.23238E+01  1.34517E+01  1.46622E+01
   1.59197E+01  1.74509E+01  1.92689E+01  2.08504E+01  2.15314E+01  2.10100E+01  1.93620E+01  1.69986E+01  1.47079E+01  1.30106E+01
   1.16847E+01  1.03780E+01  9.38543E+00  9.13478E+00  9.27524E+00  9.50541E+00  9.85961E+00  1.06877E+01  1.27128E+01  1.50298E+01
   1.67456E+01  1.83053E+01  2.01670E+01  2.22369E+01  2.44066E+01  2.67917E+01  2.92824E+01  3.12938E+01  3.20606E+01  3.11842E+01
   2.88200E+01  2.55594E+01  2.24318E+01  2.00091E+01  1.79357E+01  1.57870E+01  1.39894E+01  1.31727E+01  1.30345E+01  1.31894E+01
   1.35035E+01  1.38263E+01  1.40893E+01  1.42797E+01  1.43594E+01  1.43105E+01  1.41928E+01  1.40700E+01  1.39533E+01  1.38482E+01
   1.37650E+01  1.36962E+01  1.35837E+01  1.34759E+01  1.34221E+01  1.34272E+01  1.34846E+01  1.35189E+01  1.35177E+01  1.34790E+01
   1.33809E+01  1.32360E+01  1.31207E+01  1.30915E+01  1.31183E+01  1.31253E+01  1.30268E+01  1.27848E+01  1.25252E+01  1.23692E+01
   1.22761E+01  1.21735E+01  1.20279E+01  1.18870E+01  1.17870E+01  1.17151E+01  1.16372E+01  1.16044E+01  1.16305E+01  1.17520E+01
   1.19448E+01  1.21555E+01  1.23964E+01  1.27268E+01  1.31312E+01  1.35321E+01  1.38995E+01  1.43003E+01  1.47702E+01  1.52934E+01
   1.58706E+01  1.63593E+01  1.66114E+01  1.66182E+01  1.65204E+01  1.64158E+01  1.62764E+01  1.61486E+01  1.61351E+01  1.62567E+01
   1.64849E+01  1.67623E+01  1.70551E+01  1.72784E+01  1.73693E+01  1.74217E+01  1.74722E+01  1.75177E+01  1.74855E+01  1.73807E+01
   1.72981E+01  1.72674E+01  1.72683E+01  1.72950E+01  1.74162E+01  1.77176E+01  1.81331E+01  1.84217E+01  1.84672E+01  1.82991E+01
   1.80073E+01  1.77107E+01  1.74596E+01  1.73590E+01  1.75399E+01  1.80181E+01  1.87480E+01  1.95660E+01  2.03062E+01  2.08351E+01
   2.11393E+01  2.13162E+01  2.14172E+01  2.14912E+01  2.16044E+01  2.18401E+01  2.21757E+01  2.24536E+01  2.25468E+01  2.25083E+01
   2.24193E+01  2.23186E+01  2.23097E+01  2.25178E+01  2.29740E+01  2.36126E+01  2.44591E+01  2.57256E+01  2.69504E+01  2.77762E+01
   2.87741E+01  3.14959E+01  3.50378E+01  3.76677E+01  3.99933E+01  4.28351E+01  4.58241E+01  4.83231E+01  5.05198E+01  5.26474E+01
   5.41301E+01  5.40962E+01  5.20694E+01  4.79371E+01  4.21752E+01  3.63384E+01  3.18243E+01  2.82807E+01  2.47902E+01  2.16784E+01
   1.99048E+01  1.90511E+01  1.83665E+01  1.77771E+01  1.72689E+01  1.68034E+01  1.63482E+01  1.59065E+01  1.54820E+01  1.50827E+01
   1.47199E+01  1.43989E+01  1.41168E+01  1.38782E+01  1.36873E+01  1.35396E+01  1.34234E+01  1.33301E+01  1.32629E+01  1.32254E+01
   1.32135E+01  1.32254E+01  1.32617E+01  1.33166E+01  1.33789E+01  1.34348E+01  1.34738E+01  1.34873E+01  1.34707E+01  1.34195E+01
   1.33283E+01  1.31943E+01  1.30189E+01  1.28002E+01  1.25353E+01  1.22232E+01  1.18673E+01  1.14732E+01  1.10455E+01  1.05893E+01
   1.01127E+01  9.62344E+00  9.12880E+00  8.63553E+00  8.14984E+00  7.67715E+00  7.22298E+00  6.79433E+00  6.40084E+00  6.02484E+00
   5.64688E+00  5.28270E+00  4.94198E+00  4.61769E+00  4.30191E+00  3.99355E+00  3.70593E+00  3.44361E+00  3.17401E+00  2.88852E+00
   2.60730E+00  2.35282E+00  2.14033E+00  1.97723E+00  1.86182E+00  1.78805E+00  1.75358E+00  1.75112E+00  1.75609E+00  1.74981E+00
   1.74158E+00  1.75558E+00  1.81045E+00  1.90632E+00  2.04256E+00  2.23668E+00  2.50393E+00  2.84086E+00  3.24548E+00  3.71559E+00
   4.24719E+00  4.83358E+00  5.46533E+00  6.12996E+00  6.81238E+00  7.49503E+00  8.15870E+00  8.78298E+00  9.34746E+00  9.83246E+00
   1.02204E+01  1.04965E+01  1.06496E+01  1.06730E+01  1.05646E+01  1.03270E+01  9.96752E+00  9.49768E+00  8.93243E+00  8.28919E+00
   7.58721E+00  6.84629E+00  6.08616E+00  5.32541E+00  4.58105E+00  3.86775E+00  3.19790E+00  2.58119E+00  2.02499E+00  1.53415E+00
   1.11158E+00  7.58246E-01  4.73827E-01  2.56716E-01  1.04558E-01  1.41250E-02 -1.82412E-02  3.16526E-03  7.37641E-02  1.88379E-01
   3.41479E-01  5.26838E-01  7.37830E-01  9.67163E-01  1.20725E+00  1.45003E+00  1.68733E+00  1.91089E+00  2.11280E+00  2.28559E+00
   2.42275E+00  2.51868E+00  2.56918E+00  2.57136E+00  2.52405E+00  2.42750E+00  2.28368E+00  2.09578E+00  1.86831E+00  1.60660E+00
   1.31679E+00  1.00532E+00  6.78843E-01  3.43699E-01  5.96581E-03 -3.28995E-01 -6.56365E-01 -9.72250E-01 -1.27343E+00 -1.55766E+00
  -1.82331E+00 -2.06955E+00 -2.29600E+00 -2.50289E+00 -2.69070E+00 -2.86037E+00 -3.01289E+00 -3.14951E+00 -3.27136E+00 -3.37975E+00
  -3.47583E+00 -3.56083E+00 -3.63578E+00 -3.70173E+00 -3.75949E+00 -3.80997E+00 -3.85383E+00 -3.89182E+00 -3.92445E+00 -3.95228E+00
  -3.97571E+00 -3.99521E+00 -4.01109E+00 -4.02374E+00 -4.03338E+00 -4.04032E+00 -4.04471E+00 -4.04685E+00 -4.04686E+00 -4.04499E+00
  -4.04131E+00 -4.03602E+00 -4.02919E+00 -4.02102E+00 -4.01153E+00 -4.00087E+00 -3.98904E+00 -3.97616E+00 -3.96225E+00 -3.94744E+00
  -3.93172E+00 -3.91521E+00 -3.89787E+00 -3.87981E+00 -3.86102E+00 -3.84162E+00 -3.82158E+00 -3.80098E+00 -3.77977E+00 -3.75808E+00
  -3.73586E+00 -3.71324E+00 -3.69014E+00 -3.66666E+00 -3.64275E+00 -3.61852E+00 -3.59392E+00 -3.56906E+00 -3.54386E+00 -3.51842E+00
  -3.49269E+00 -3.46677E+00 -3.44062E+00 -3.41432E+00 -3.38781E+00 -3.36117E+00 -3.33436E+00 -3.30749E+00 -3.28049E+00 -3.25346E+00
  -3.22632E+00 -3.19918E+00 -3.17198E+00 -3.14484E+00 -3.11769E+00 -3.09061E+00 -3.06356E+00 -3.03663E+00
 NY background values follow
    -2.793E+00   -2.709E+00   -2.625E+00   -2.541E+00   -2.457E+00   -2.374E+00   -2.290E+00   -2.207E+00   -2.123E+00   -2.040E+00
    -1.957E+00   -1.874E+00   -1.791E+00   -1.708E+00   -1.625E+00   -1.542E+00   -1.459E+00   -1.376E+00   -1.293E+00   -1.211E+00
    -1.128E+00   -1.045E+00   -9.629E-01   -8.804E-01   -7.980E-01   -7.155E-01   -6.331E-01   -5.508E-01   -4.685E-01   -3.862E-01
    -3.039E-01   -2.217E-01   -1.394E-01   -5.724E-02    2.494E-02    1.071E-01    1.893E-01    2.714E-01    3.535E-01    4.357E-01
     5.178E-01    5.999E-01    6.820E-01    7.642E-01    8.463E-01    9.284E-01    1.011E+00    1.093E+00    1.175E+00    1.257E+00
     1.340E+00    1.422E+00    1.505E+00    1.588E+00    1.670E+00    1.754E+00    1.837E+00    1.921E+00    2.004E+00    2.088E+00
     2.173E+00    2.258E+00    2.343E+00    2.428E+00    2.514E+00    2.600E+00    2.687E+00    2.774E+00    2.861E+00    2.949E+00
     3.038E+00    3.127E+00    3.216E+00    3.306E+00    3.397E+00    3.488E+00    3.580E+00    3.673E+00    3.766E+00    3.860E+00
     3.955E+00    4.050E+00    4.146E+00    4.243E+00    4.341E+00    4.439E+00    4.539E+00    4.639E+00    4.740E+00    4.842E+00
     4.945E+00    5.049E+00    5.154E+00    5.259E+00    5.366E+00    5.473E+00    5.581E+00    5.689E+00    5.799E+00    5.909E+00
     6.019E+00    6.130E+00    6.241E+00    6.353E+00    6.465E+00    6.578E+00    6.691E+00    6.804E+00    6.917E+00    7.030E+00
     7.144E+00    7.257E+00    7.371E+00    7.484E+00    7.598E+00    7.711E+00    7.824E+00    7.937E+00    8.050E+00    8.162E+00
     8.274E+00    8.386E+00    8.497E+00    8.608E+00    8.718E+00    8.827E+00    8.936E+00    9.045E+00    9.152E+00    9.259E+00
     9.365E+00    9.470E+00    9.574E+00    9.678E+00    9.780E+00    9.881E+00    9.981E+00    1.008E+01    1.018E+01    1.028E+01
     1.037E+01    1.047E+01    1.056E+01    1.065E+01    1.075E+01    1.084E+01    1.093E+01    1.102E+01    1.110E+01    1.119E+01
     1.128E+01    1.136E+01    1.145E+01    1.153E+01    1.161E+01    1.170E+01    1.178E+01    1.186E+01    1.194E+01    1.202E+01
     1.210E+01    1.218E+01    1.225E+01    1.233E+01    1.241E+01    1.248E+01    1.256E+01    1.263E+01    1.270E+01    1.278E+01
     1.285E+01    1.292E+01    1.299E+01    1.307E+01    1.314E+01    1.321E+01    1.328E+01    1.335E+01    1.341E+01    1.348E+01
     1.355E+01    1.362E+01    1.369E+01    1.375E+01    1.382E+01    1.389E+01    1.395E+01    1.402E+01    1.408E+01    1.415E+01
     1.421E+01    1.427E+01    1.433E+01    1.439E+01    1.445E+01    1.450E+01    1.456E+01    1.461E+01    1.467E+01    1.472E+01
     1.477E+01    1.482E+01    1.486E+01    1.491E+01    1.495E+01    1.499E+01    1.503E+01    1.506E+01    1.510E+01    1.513E+01
     1.516E+01    1.519E+01    1.521E+01    1.524E+01    1.526E+01    1.527E+01    1.529E+01    1.530E+01    1.531E+01    1.531E+01
     1.532E+01    1.532E+01    1.531E+01    1.531E+01    1.530E+01    1.529E+01    1.527E+01    1.525E+01    1.523E+01    1.520E+01
     1.517E+01    1.514E+01    1.510E+01    1.506E+01    1.502E+01    1.497E+01    1.492E+01    1.487E+01    1.481E+01    1.475E+01
     1.469E+01    1.462E+01    1.456E+01    1.448E+01    1.441E+01    1.433E+01    1.425E+01    1.417E+01    1.408E+01    1.399E+01
     1.390E+01    1.380E+01    1.371E+01    1.361E+01    1.350E+01    1.340E+01    1.329E+01    1.318E+01    1.306E+01    1.295E+01
     1.283E+01    1.271E+01    1.258E+01    1.246E+01    1.233E+01    1.220E+01    1.206E+01    1.193E+01    1.179E+01    1.165E+01
     1.150E+01    1.136E+01    1.121E+01    1.106E+01    1.091E+01    1.075E+01    1.060E+01    1.044E+01    1.028E+01    1.012E+01
     9.952E+00    9.787E+00    9.620E+00    9.452E+00    9.282E+00    9.111E+00    8.939E+00    8.766E+00    8.591E+00    8.415E+00
     8.238E+00    8.060E+00    7.882E+00    7.702E+00    7.522E+00    7.341E+00    7.160E+00    6.978E+00    6.795E+00    6.612E+00
     6.429E+00    6.246E+00    6.062E+00    5.878E+00    5.694E+00    5.510E+00    5.327E+00    5.143E+00    4.960E+00    4.777E+00
     4.594E+00    4.411E+00    4.230E+00    4.048E+00    3.868E+00    3.688E+00    3.508E+00    3.330E+00    3.152E+00    2.976E+00
     2.800E+00    2.626E+00    2.452E+00    2.279E+00    2.108E+00    1.937E+00    1.768E+00    1.600E+00    1.433E+00    1.267E+00
     1.103E+00    9.397E-01    7.779E-01    6.175E-01    4.585E-01    3.010E-01    1.449E-01   -9.615E-03   -1.626E-01   -3.141E-01
    -4.639E-01   -6.121E-01   -7.587E-01   -9.035E-01   -1.047E+00   -1.188E+00   -1.327E+00   -1.465E+00   -1.601E+00   -1.735E+00
    -1.867E+00   -1.997E+00   -2.125E+00   -2.251E+00   -2.375E+00   -2.497E+00   -2.616E+00   -2.734E+00   -2.849E+00   -2.962E+00
    -3.073E+00   -3.181E+00   -3.288E+00   -3.391E+00   -3.493E+00   -3.592E+00   -3.689E+00   -3.784E+00   -3.876E+00   -3.966E+00
    -4.054E+00   -4.140E+00   -4.223E+00   -4.305E+00   -4.384E+00   -4.461E+00   -4.535E+00   -4.608E+00   -4.679E+00   -4.747E+00
    -4.813E+00   -4.877E+00   -4.940E+00   -5.000E+00   -5.058E+00   -5.114E+00   -5.168E+00   -5.220E+00   -5.270E+00   -5.318E+00
    -5.364E+00   -5.408E+00   -5.451E+00   -5.491E+00   -5.530E+00   -5.566E+00   -5.601E+00   -5.634E+00   -5.665E+00   -5.694E+00
    -5.722E+00   -5.747E+00   -5.771E+00   -5.793E+00   -5.814E+00   -5.832E+00   -5.849E+00   -5.864E+00   -5.878E+00   -5.889E+00
    -5.900E+00   -5.908E+00   -5.915E+00   -5.921E+00   -5.925E+00   -5.927E+00   -5.928E+00   -5.928E+00   -5.926E+00   -5.923E+00
    -5.919E+00   -5.913E+00   -5.907E+00   -5.899E+00   -5.889E+00   -5.879E+00   -5.867E+00   -5.855E+00   -5.841E+00   -5.826E+00
    -5.810E+00   -5.794E+00   -5.776E+00   -5.758E+00   -5.738E+00   -5.718E+00   -5.697E+00   -5.675E+00   -5.652E+00   -5.629E+00
    -5.605E+00   -5.580E+00   -5.555E+00   -5.529E+00   -5.503E+00   -5.476E+00   -5.448E+00   -5.420E+00   -5.392E+00   -5.363E+00
    -5.334E+00   -5.304E+00   -5.274E+00   -5.244E+00   -5.214E+00   -5.183E+00   -5.152E+00   -5.121E+00   -5.089E+00   -5.058E+00
    -5.026E+00   -4.994E+00   -4.961E+00   -4.929E+00   -4.896E+00   -4.863E+00   -4.830E+00   -4.797E+00   -4.764E+00   -4.730E+00
    -4.696E+00   -4.662E+00   -4.629E+00   -4.594E+00   -4.560E+00   -4.526E+00   -4.492E+00   -4.457E+00   -4.423E+00   -4.388E+00
    -4.354E+00   -4.319E+00   -4.285E+00   -4.250E+00   -4.215E+00   -4.181E+00   -4.146E+00   -4.111E+00   -4.076E+00   -4.042E+00
    -4.007E+00   -3.973E+00   -3.938E+00   -3.904E+00   -3.869E+00   -3.835E+00   -3.801E+00   -3.767E+00
 Ala      Conc. = 3.14E+01
