 LCModel (Version 6.3-1L) Copyright: S.W. Provencher.          Ref.: Magn. Reson. Med. 30:672-679 (1993).                
 Slice#3 Row#4 Col#14  PD_05_press_1_raw_act
 36 lines in following concentration table = NCONC+1
    Conc.  %SD /Cr+PCr  Metabolite                                         
 3.21E+03  36%  52.356 Ala                                                 
    5.086  84% 8.3E-02 Asp                                                 
   61.270  64%   1.000 Cr                                                  
    0.000 999%   0.000 PCr                                                 
    3.028  84% 4.9E-02 GABA                                                
    3.047  84% 5.0E-02 Glc                                                 
    0.000 999%   0.000 Gln                                                 
    0.000 999%   0.000 Glu                                                 
    0.000 999%   0.000 GPC                                                 
   13.464 417%   0.220 PCh                                                 
   64.831  92%   1.058 GSH                                                 
  200.898  90%   3.279 Ins                                                 
 1.58E+03  57%  25.840 Lac                                                 
    0.000 999%   0.000 NAA                                                 
    0.000 999%   0.000 NAAG                                                
    1.017  84% 1.7E-02 Scyllo                                              
    5.074  84% 8.3E-02 Tau                                                 
    6.127  64%   0.100 -CrCH2                                              
   13.464 125%   0.220 GPC+PCh                                             
    0.000 999%   0.000 NAA+NAAG                                            
   61.270  64%   1.000 Cr+PCr                                              
    0.000 999%   0.000 Glu+Gln                                             
 1.11E+04  16% 180.589 Lip13a                                              
 4.02E+03  40%  65.539 Lip13b                                              
 4.12E+03   8%  67.186 Lip09                                               
    0.000 999%   0.000 MM09                                                
 2.03E+03  11%  33.132 Lip20                                               
    0.000 999%   0.000 MM20                                                
 6.22E-02 999% 1.0E-03 MM12                                                
    0.564 999% 9.2E-03 MM14                                                
    0.000 999%   0.000 MM17                                                
 1.51E+04   8% 246.128 Lip13a+Lip13b                                       
 1.51E+04   8% 246.139 MM14+Lip13a+Lip13b+MM12                             
 4.12E+03   8%  67.186 MM09+Lip09                                          
 2.03E+03  11%  33.132 MM20+Lip20                                          
   6 lines in following misc. output table
  FWHM = 0.138 ppm    S/N =  24                                            
  Data shift = 0.000 ppm                                                   
  Ph:-170 deg      37.8 deg/ppm                                            
  alphaB,S = 3.9E+00,   1.0E+02                                            
    8 spline knots.   Ns = 9(2)                                            
  (12) 2 infls.   (11) 1 extrs.                                            
  498 points on ppm-axis = NY
      4.000000     3.992357     3.984714     3.977070     3.969427     3.961784     3.954141     3.946497     3.938854     3.931211
      3.923568     3.915925     3.908281     3.900638     3.892995     3.885352     3.877708     3.870065     3.862422     3.854779
      3.847136     3.839492     3.831849     3.824206     3.816563     3.808919     3.801276     3.793633     3.785990     3.778347
      3.770703     3.763060     3.755417     3.747774     3.740130     3.732487     3.724844     3.717201     3.709558     3.701914
      3.694271     3.686628     3.678985     3.671341     3.663698     3.656055     3.648412     3.640769     3.633125     3.625482
      3.617839     3.610196     3.602552     3.594909     3.587266     3.579623     3.571980     3.564336     3.556693     3.549050
      3.541407     3.533763     3.526120     3.518477     3.510834     3.503191     3.495547     3.487904     3.480261     3.472618
      3.464974     3.457331     3.449688     3.442045     3.434402     3.426758     3.419115     3.411472     3.403829     3.396185
      3.388542     3.380899     3.373256     3.365613     3.357969     3.350326     3.342683     3.335040     3.327396     3.319753
      3.312110     3.304467     3.296824     3.289180     3.281537     3.273894     3.266251     3.258607     3.250964     3.243321
      3.235678     3.228034     3.220391     3.212748     3.205105     3.197462     3.189818     3.182175     3.174532     3.166889
      3.159245     3.151602     3.143959     3.136316     3.128673     3.121029     3.113386     3.105743     3.098100     3.090456
      3.082813     3.075170     3.067527     3.059884     3.052240     3.044597     3.036954     3.029311     3.021667     3.014024
      3.006381     2.998738     2.991095     2.983451     2.975808     2.968165     2.960522     2.952878     2.945235     2.937592
      2.929949     2.922306     2.914662     2.907019     2.899376     2.891733     2.884089     2.876446     2.868803     2.861160
      2.853517     2.845873     2.838230     2.830587     2.822944     2.815300     2.807657     2.800014     2.792371     2.784728
      2.777084     2.769441     2.761798     2.754155     2.746511     2.738868     2.731225     2.723582     2.715939     2.708295
      2.700652     2.693009     2.685366     2.677722     2.670079     2.662436     2.654793     2.647150     2.639506     2.631863
      2.624220     2.616577     2.608933     2.601290     2.593647     2.586004     2.578361     2.570717     2.563074     2.555431
      2.547788     2.540144     2.532501     2.524858     2.517215     2.509572     2.501928     2.494285     2.486642     2.478999
      2.471355     2.463712     2.456069     2.448426     2.440783     2.433139     2.425496     2.417853     2.410210     2.402566
      2.394923     2.387280     2.379637     2.371994     2.364350     2.356707     2.349064     2.341421     2.333777     2.326134
      2.318491     2.310848     2.303205     2.295561     2.287918     2.280275     2.272632     2.264988     2.257345     2.249702
      2.242059     2.234416     2.226772     2.219129     2.211486     2.203843     2.196199     2.188556     2.180913     2.173270
      2.165627     2.157983     2.150340     2.142697     2.135054     2.127410     2.119767     2.112124     2.104481     2.096838
      2.089194     2.081551     2.073908     2.066265     2.058621     2.050978     2.043335     2.035692     2.028049     2.020405
      2.012762     2.005119     1.997476     1.989833     1.982190     1.974546     1.966903     1.959260     1.951617     1.943974
      1.936331     1.928688     1.921045     1.913402     1.905759     1.898115     1.890472     1.882829     1.875186     1.867543
      1.859900     1.852257     1.844614     1.836971     1.829327     1.821684     1.814041     1.806398     1.798755     1.791112
      1.783469     1.775826     1.768183     1.760540     1.752896     1.745253     1.737610     1.729967     1.722324     1.714681
      1.707038     1.699395     1.691752     1.684108     1.676465     1.668822     1.661179     1.653536     1.645893     1.638250
      1.630607     1.622964     1.615321     1.607677     1.600034     1.592391     1.584748     1.577105     1.569462     1.561819
      1.554176     1.546533     1.538890     1.531246     1.523603     1.515960     1.508317     1.500674     1.493031     1.485388
      1.477745     1.470102     1.462458     1.454815     1.447172     1.439529     1.431886     1.424243     1.416600     1.408957
      1.401314     1.393671     1.386027     1.378384     1.370741     1.363098     1.355455     1.347812     1.340169     1.332526
      1.324883     1.317240     1.309596     1.301953     1.294310     1.286667     1.279024     1.271381     1.263738     1.256095
      1.248452     1.240808     1.233165     1.225522     1.217879     1.210236     1.202593     1.194950     1.187307     1.179664
      1.172021     1.164377     1.156734     1.149091     1.141448     1.133805     1.126162     1.118519     1.110876     1.103233
      1.095590     1.087946     1.080303     1.072660     1.065017     1.057374     1.049731     1.042088     1.034445     1.026802
      1.019158     1.011515     1.003872     0.996229     0.988586     0.980943     0.973300     0.965657     0.958014     0.950371
      0.942727     0.935084     0.927441     0.919798     0.912155     0.904512     0.896869     0.889226     0.881583     0.873940
      0.866296     0.858653     0.851010     0.843367     0.835724     0.828081     0.820438     0.812795     0.805152     0.797508
      0.789865     0.782222     0.774579     0.766936     0.759293     0.751650     0.744007     0.736364     0.728721     0.721077
      0.713434     0.705791     0.698148     0.690505     0.682862     0.675219     0.667576     0.659933     0.652290     0.644646
      0.637003     0.629360     0.621717     0.614074     0.606431     0.598788     0.591145     0.583502     0.575858     0.568215
      0.560572     0.552929     0.545286     0.537643     0.530000     0.522357     0.514714     0.507071     0.499427     0.491784
      0.484141     0.476498     0.468855     0.461212     0.453569     0.445925     0.438282     0.430639     0.422996     0.415353
      0.407710     0.400067     0.392424     0.384780     0.377137     0.369494     0.361851     0.354208     0.346565     0.338922
      0.331278     0.323635     0.315992     0.308349     0.300706     0.293063     0.285420     0.277777     0.270133     0.262490
      0.254847     0.247204     0.239561     0.231918     0.224275     0.216631     0.208988     0.201345
 NY phased data points follow
  -1.47855E+00  2.32074E-01 -1.43711E+00 -8.43930E-01 -4.86966E-01 -9.25986E-01 -7.44818E-01 -7.20954E-01 -3.09726E+00 -1.32853E+00
   5.80455E-01 -5.33976E-01 -1.28066E+00 -1.22282E+00 -4.34601E-01 -3.54782E-01 -1.14304E+00  1.76563E+00 -7.04876E-01 -3.20172E-01
  -1.02407E-01 -1.74738E+00 -9.85997E-01 -5.26145E-01 -5.48394E-01 -2.42372E+00 -2.34956E+00 -2.24915E+00 -9.57764E-01 -2.07126E+00
  -1.09261E+00 -1.58274E+00 -2.99028E+00 -3.26417E+00 -9.82818E-01 -1.90560E-01  2.55643E-01 -5.08401E-01 -1.25808E+00 -1.06552E+00
  -1.95016E+00 -1.29211E+00 -2.11472E+00 -1.34168E+00 -2.67194E+00 -2.06038E-01 -8.78074E-01 -4.93102E-01 -1.58306E+00 -1.34526E+00
  -7.15954E-01  1.25100E-01  3.96168E-01 -7.02182E-01  1.89762E-01 -6.40339E-01 -1.29249E+00 -1.69179E+00  1.42344E+00 -1.07838E+00
  -1.82620E+00 -2.24595E+00 -2.32657E+00 -2.20440E+00 -1.01722E-01 -1.52081E+00 -1.26042E+00 -2.53346E+00 -8.82965E-01 -2.13386E+00
  -5.55210E-01 -4.17414E+00 -2.00566E+00 -3.36925E+00 -1.19597E+00 -9.49575E-01 -2.64316E+00 -1.11831E+00 -1.75998E+00 -2.15350E+00
  -1.27590E+00 -1.18461E+00 -1.90225E+00 -1.09059E+00 -2.89474E-01 -1.03788E+00 -1.64784E+00 -2.10913E+00 -2.63699E+00 -2.26311E+00
  -2.89586E+00 -4.76850E-01 -1.59915E+00 -1.62628E+00 -1.38414E+00 -2.66849E+00 -3.47606E+00 -2.99385E+00 -1.78112E+00 -6.61350E-01
  -3.45693E+00 -2.96063E+00 -3.82012E+00 -2.07895E+00 -1.47736E+00 -1.59332E+00 -1.09036E+00 -1.58306E+00 -2.69832E-01 -2.76130E+00
  -1.71448E+00 -2.16907E+00 -1.10886E+00 -1.96695E+00 -1.20756E+00 -2.44508E+00 -2.62298E+00 -3.35574E+00 -2.82770E+00 -1.04857E+00
  -2.46598E+00 -1.10595E+00 -1.38774E+00 -3.16576E+00 -1.65740E+00 -2.45408E+00 -3.90431E+00 -2.61556E+00 -5.75060E-01 -1.29906E+00
  -1.56065E+00 -8.85116E-01  5.90175E-01 -1.09707E-01 -1.97721E+00 -4.03736E-01 -2.10622E+00 -1.62452E+00 -1.64177E+00 -3.13841E+00
  -1.01297E+00 -2.10953E+00 -1.94378E+00 -1.99108E+00 -1.08023E+00 -3.82436E+00 -1.77335E+00 -1.98436E+00 -3.15906E+00 -2.34529E+00
  -2.60188E+00 -3.02525E+00 -2.95973E+00 -1.97861E+00 -1.91483E+00 -3.12994E+00 -2.43733E+00 -2.30036E+00 -3.17208E+00 -4.19075E+00
  -2.91615E+00 -1.34398E+00 -2.73030E+00 -1.83320E+00 -3.73295E+00 -2.89160E+00 -3.85993E+00 -2.07415E+00 -3.44766E+00 -2.86734E+00
  -7.12440E-01 -2.49759E+00 -2.75538E+00 -3.05286E+00 -3.38815E+00 -2.46677E+00 -1.67182E+00 -3.49703E+00 -1.96668E+00 -3.13523E+00
  -3.34716E+00 -3.15085E+00 -3.73953E+00 -4.29242E+00 -2.93217E+00 -3.61039E+00 -2.62063E+00 -3.96346E+00 -5.36511E+00 -3.80289E+00
  -4.41272E+00 -3.15249E+00 -2.74332E+00 -2.34139E+00 -5.02667E+00 -2.99996E+00 -1.52359E+00 -2.93074E+00 -3.57524E+00 -4.50060E+00
  -2.92137E+00 -3.45045E+00 -3.03275E+00 -3.64988E+00 -6.09306E+00 -2.20692E+00 -4.73792E+00 -3.96451E+00 -2.17237E+00 -3.70545E+00
  -4.36646E+00 -4.01192E+00 -4.09771E+00 -4.92852E+00 -4.18601E+00 -3.12976E+00 -5.02483E+00 -3.17363E+00 -5.39768E+00 -2.87918E+00
  -4.10696E+00 -5.16877E+00 -3.56469E+00 -4.92998E+00 -4.13045E+00 -4.03856E+00 -4.26184E+00 -5.33987E+00 -4.98030E+00 -6.03366E+00
  -4.48434E+00 -3.98486E+00 -4.42682E+00 -5.16958E+00 -5.80934E+00 -6.05354E+00 -6.23478E+00 -4.42381E+00 -5.48873E+00 -6.83195E+00
  -6.13325E+00 -7.88227E+00 -6.97301E+00 -7.21448E+00 -8.92707E+00 -7.61022E+00 -7.63323E+00 -7.37626E+00 -6.66861E+00 -8.25261E+00
  -8.21212E+00 -7.05177E+00 -7.69168E+00 -7.68729E+00 -5.74262E+00 -6.33657E+00 -5.50133E+00 -8.21144E+00 -7.43984E+00 -6.89433E+00
  -5.05345E+00 -4.29336E+00 -3.23264E+00 -5.23093E+00 -6.08805E+00 -6.71743E+00 -7.14390E+00 -6.26943E+00 -7.61402E+00 -8.55026E+00
  -7.78241E+00 -7.86810E+00 -7.55409E+00 -7.97661E+00 -7.34858E+00 -9.40028E+00 -9.11435E+00 -1.13011E+01 -8.36885E+00 -7.63076E+00
  -8.15398E+00 -8.38665E+00 -8.17183E+00 -7.57148E+00 -9.47883E+00 -8.34656E+00 -7.63881E+00 -8.22247E+00 -7.50877E+00 -8.21669E+00
  -7.84510E+00 -7.95078E+00 -8.55370E+00 -6.33166E+00 -6.08093E+00 -6.51667E+00 -7.12810E+00 -7.96358E+00 -7.69601E+00 -7.22904E+00
  -7.95522E+00 -6.53369E+00 -5.60241E+00 -4.74506E+00 -2.52946E+00 -4.93706E+00 -4.30237E+00 -4.16613E+00 -4.04690E+00 -2.54927E+00
  -1.49257E+00  4.22406E-02  1.22807E+00  1.72734E+00  2.55203E+00  4.82926E+00  6.73586E+00  8.29115E+00  1.09536E+01  1.28451E+01
   1.31129E+01  1.70022E+01  1.96070E+01  2.14422E+01  2.57792E+01  2.91465E+01  2.96119E+01  3.39490E+01  3.78610E+01  3.92732E+01
   4.19434E+01  4.53654E+01  4.86827E+01  5.34821E+01  5.35766E+01  5.39219E+01  5.65382E+01  5.87147E+01  5.97375E+01  6.03891E+01
   5.98995E+01  6.36107E+01  6.23264E+01  6.12936E+01  6.21387E+01  6.27254E+01  6.12243E+01  6.00551E+01  5.95422E+01  5.79935E+01
   5.59706E+01  5.51844E+01  5.26756E+01  4.95536E+01  4.83907E+01  4.65498E+01  4.42900E+01  4.36769E+01  4.07377E+01  3.81973E+01
   3.79224E+01  3.44585E+01  3.13446E+01  3.01569E+01  2.76208E+01  2.75321E+01  2.52600E+01  2.26323E+01  2.10787E+01  2.00745E+01
   2.01170E+01  1.90528E+01  1.64684E+01  1.52576E+01  1.36899E+01  1.45251E+01  1.25203E+01  1.28032E+01  1.01387E+01  1.23450E+01
   1.30474E+01  1.33689E+01  1.09915E+01  1.10963E+01  9.44458E+00  1.18949E+01  9.99927E+00  9.97631E+00  1.00476E+01  1.00457E+01
   1.05998E+01  8.41746E+00  8.98301E+00  9.51350E+00  6.64882E+00  6.52483E+00  7.84445E+00  7.67799E+00  7.72568E+00  7.70083E+00
   6.44515E+00  5.19297E+00  6.33120E+00  6.67915E+00  5.90891E+00  3.48039E+00  4.21598E+00  2.69938E+00  3.63384E+00  3.53112E+00
   3.94761E+00  3.12427E+00  3.35661E+00  2.26820E+00  3.78571E-01  2.55903E+00 -8.49645E-01  1.54932E+00  1.05334E+00  1.14528E+00
   1.39304E+00  4.94266E-01  3.29591E+00 -3.93871E-01 -1.47737E+00  9.49508E-01  2.15084E-01  4.84115E-01 -4.04474E-01 -1.40332E+00
  -6.04630E-01 -1.85164E+00 -1.33046E+00 -1.86967E+00 -2.33651E+00 -2.45015E+00 -2.40587E+00 -3.99236E-01 -1.87261E+00 -2.95789E+00
  -2.66973E+00 -2.56732E+00 -1.64833E+00 -3.02580E+00 -2.89199E+00 -2.37013E+00 -4.18669E+00 -1.90934E+00 -2.32968E+00 -2.71235E+00
  -1.05519E+00 -4.07050E+00 -3.57754E+00 -2.72075E+00 -2.67829E+00 -1.78395E+00 -3.68523E+00 -2.52302E+00 -2.30879E+00 -2.42610E+00
  -3.04564E+00 -2.18787E+00 -1.60748E+00 -2.08326E+00 -3.26825E+00 -3.72107E+00 -3.52996E+00 -2.08199E+00 -3.09545E+00 -2.54479E+00
  -2.88498E+00 -3.88650E+00 -1.98456E+00 -3.97562E+00 -2.54705E+00 -2.26262E+00 -3.51749E+00 -2.90872E+00 -2.44611E+00 -1.75706E+00
  -4.21455E+00 -2.48779E+00 -4.37307E+00 -3.57820E+00 -2.78979E+00 -1.94968E+00 -3.27319E+00 -3.71704E+00 -2.13077E+00 -5.15716E+00
  -3.95455E+00 -3.42890E+00 -3.38985E+00 -3.09989E+00 -1.97552E+00 -3.22721E+00 -3.32640E+00 -4.30075E+00
 NY points of the fit to the data follow
  -8.85120E-01 -2.65848E-01 -7.49405E-01 -3.09614E-01 -7.04428E-01 -2.53743E-01 -6.30546E-01 -4.01367E-01 -7.32382E-01 -5.17983E-01
  -7.73050E-01 -6.58441E-01 -9.78422E-01 -8.05080E-01 -9.92213E-01 -7.49944E-01 -9.99517E-01 -6.83297E-01 -9.93316E-01 -5.90408E-01
  -9.12180E-01 -4.86945E-01 -9.39059E-01 -4.68486E-01 -1.05351E+00 -5.57287E-01 -1.19010E+00 -7.73639E-01 -1.40196E+00 -9.63080E-01
  -1.48722E+00 -1.09104E+00 -1.53847E+00 -1.24350E+00 -1.46155E+00 -1.27990E+00 -1.42738E+00 -1.46075E+00 -1.39257E+00 -1.51490E+00
  -1.31141E+00 -1.56595E+00 -1.21366E+00 -1.40954E+00 -9.32557E-01 -1.24526E+00 -6.95677E-01 -9.15668E-01 -5.51738E-01 -9.56746E-01
  -8.17583E-01 -1.21393E+00 -1.07305E+00 -1.50384E+00 -1.51124E+00 -1.67938E+00 -1.54222E+00 -1.58485E+00 -1.44792E+00 -1.45113E+00
  -1.31707E+00 -1.29805E+00 -1.28288E+00 -1.33423E+00 -1.33771E+00 -1.39211E+00 -1.38476E+00 -1.44421E+00 -1.43141E+00 -1.46584E+00
  -1.42108E+00 -1.45811E+00 -1.42732E+00 -1.48261E+00 -1.46341E+00 -1.52606E+00 -1.51512E+00 -1.57935E+00 -1.57143E+00 -1.63991E+00
  -1.64163E+00 -1.70668E+00 -1.70676E+00 -1.77243E+00 -1.78164E+00 -1.85943E+00 -1.87593E+00 -1.95208E+00 -1.96705E+00 -2.02942E+00
  -2.03112E+00 -2.09732E+00 -2.09445E+00 -2.14506E+00 -2.12042E+00 -2.15776E+00 -2.11600E+00 -2.14946E+00 -2.09482E+00 -2.11813E+00
  -2.04577E+00 -2.06517E+00 -1.98000E+00 -2.00807E+00 -1.91761E+00 -1.96209E+00 -1.87255E+00 -1.93532E+00 -1.85197E+00 -1.93992E+00
  -1.86456E+00 -1.96611E+00 -1.89671E+00 -1.97604E+00 -1.91601E+00 -2.01651E+00 -1.97403E+00 -2.03490E+00 -1.99404E+00 -2.01782E+00
  -1.99088E+00 -1.98245E+00 -1.96510E+00 -1.91818E+00 -1.90190E+00 -1.79157E+00 -1.75893E+00 -1.65091E+00 -1.62382E+00 -1.53189E+00
  -1.51478E+00 -1.45032E+00 -1.44032E+00 -1.40449E+00 -1.40828E+00 -1.42642E+00 -1.43966E+00 -1.48690E+00 -1.50777E+00 -1.60659E+00
  -1.62894E+00 -1.74928E+00 -1.77037E+00 -1.90586E+00 -1.91812E+00 -2.04363E+00 -2.04967E+00 -2.17225E+00 -2.16050E+00 -2.21978E+00
  -2.20177E+00 -2.25622E+00 -2.24898E+00 -2.30598E+00 -2.31440E+00 -2.36425E+00 -2.38463E+00 -2.44145E+00 -2.48116E+00 -2.54246E+00
  -2.59838E+00 -2.65992E+00 -2.72197E+00 -2.77934E+00 -2.84096E+00 -2.90069E+00 -2.96489E+00 -3.02695E+00 -3.09401E+00 -3.16001E+00
  -3.22918E+00 -3.29844E+00 -3.37078E+00 -3.44252E+00 -3.51515E+00 -3.58791E+00 -3.65822E+00 -3.73179E+00 -3.80000E+00 -3.87440E+00
  -3.94024E+00 -4.01584E+00 -4.07861E+00 -4.15323E+00 -4.21264E+00 -4.27963E+00 -4.33222E+00 -4.39548E+00 -4.44499E+00 -4.50099E+00
  -4.54746E+00 -4.59529E+00 -4.64039E+00 -4.68057E+00 -4.72632E+00 -4.75740E+00 -4.80350E+00 -4.82317E+00 -4.86974E+00 -4.88105E+00
  -4.92756E+00 -4.92996E+00 -4.97484E+00 -4.97302E+00 -5.01582E+00 -5.00581E+00 -5.04051E+00 -5.03078E+00 -5.05839E+00 -5.04326E+00
  -5.06046E+00 -5.04678E+00 -5.05397E+00 -5.03740E+00 -5.03467E+00 -5.02530E+00 -5.02322E+00 -5.02029E+00 -5.01921E+00 -5.02477E+00
  -5.02727E+00 -5.02893E+00 -5.02788E+00 -5.02728E+00 -5.02671E+00 -5.03038E+00 -5.03287E+00 -5.03627E+00 -5.04026E+00 -5.04508E+00
  -5.05039E+00 -5.05509E+00 -5.05929E+00 -5.06591E+00 -5.07094E+00 -5.08047E+00 -5.08627E+00 -5.10305E+00 -5.11009E+00 -5.13159E+00
  -5.13804E+00 -5.16562E+00 -5.17212E+00 -5.20140E+00 -5.20651E+00 -5.24361E+00 -5.25266E+00 -5.29232E+00 -5.30518E+00 -5.35381E+00
  -5.37669E+00 -5.42522E+00 -5.45412E+00 -5.51134E+00 -5.55480E+00 -5.61039E+00 -5.66023E+00 -5.71968E+00 -5.78012E+00 -5.83709E+00
  -5.90253E+00 -5.97100E+00 -6.05009E+00 -6.12658E+00 -6.21158E+00 -6.29368E+00 -6.38328E+00 -6.46352E+00 -6.54706E+00 -6.62452E+00
  -6.70352E+00 -6.77796E+00 -6.85112E+00 -6.92103E+00 -6.98851E+00 -7.05251E+00 -7.11242E+00 -7.16735E+00 -7.21722E+00 -7.26124E+00
  -7.29941E+00 -7.33085E+00 -7.35569E+00 -7.37305E+00 -7.38303E+00 -7.38471E+00 -7.37813E+00 -7.36259E+00 -7.33796E+00 -7.30333E+00
  -7.25850E+00 -7.20264E+00 -7.13529E+00 -7.05523E+00 -6.96198E+00 -6.85391E+00 -6.73041E+00 -6.58942E+00 -6.42982E+00 -6.24905E+00
  -6.04548E+00 -5.81567E+00 -5.55699E+00 -5.26486E+00 -4.93513E+00 -4.56168E+00 -4.13872E+00 -3.65998E+00 -3.12582E+00 -2.50467E+00
  -1.58615E+00 -4.95682E-01  7.22051E-01  2.22666E+00  3.24741E+00  4.71001E+00  6.14845E+00  8.09232E+00  9.55188E+00  1.20171E+01
   1.35676E+01  1.68492E+01  1.89738E+01  2.25216E+01  2.44157E+01  2.83854E+01  3.01642E+01  3.43276E+01  3.60787E+01  4.00983E+01
   4.17438E+01  4.57529E+01  4.74953E+01  5.13944E+01  5.27778E+01  5.54958E+01  5.69904E+01  5.90161E+01  5.99948E+01  6.07165E+01
   6.15666E+01  6.19284E+01  6.27700E+01  6.19194E+01  6.23282E+01  6.13358E+01  6.13849E+01  5.96310E+01  5.95135E+01  5.81660E+01
   5.69604E+01  5.49316E+01  5.29452E+01  5.11516E+01  4.88034E+01  4.65376E+01  4.36506E+01  4.23598E+01  3.99076E+01  3.84480E+01
   3.61033E+01  3.47357E+01  3.24079E+01  3.07023E+01  2.84901E+01  2.70412E+01  2.50576E+01  2.34034E+01  2.18880E+01  2.08443E+01
   1.94034E+01  1.80239E+01  1.67182E+01  1.54613E+01  1.44118E+01  1.30344E+01  1.21363E+01  1.15302E+01  1.10991E+01  1.07900E+01
   1.05694E+01  1.04141E+01  1.03052E+01  1.02282E+01  1.01704E+01  1.01220E+01  1.00738E+01  1.00190E+01  9.95109E+00  9.86557E+00
   9.75826E+00  9.62658E+00  9.46819E+00  9.28222E+00  9.06799E+00  8.82612E+00  8.55730E+00  8.26333E+00  7.94588E+00  7.60758E+00
   7.25081E+00  6.87875E+00  6.49408E+00  6.10014E+00  5.69959E+00  5.29565E+00  4.89078E+00  4.48785E+00  4.08892E+00  3.69641E+00
   3.31183E+00  2.93709E+00  2.57323E+00  2.22164E+00  1.88285E+00  1.55779E+00  1.24656E+00  9.49735E-01  6.67078E-01  3.98863E-01
   1.44604E-01 -9.56585E-02 -3.22580E-01 -5.36242E-01 -7.37400E-01 -9.26221E-01 -1.10353E+00 -1.26953E+00 -1.42505E+00 -1.57031E+00
  -1.70610E+00 -1.83263E+00 -1.95069E+00 -2.06046E+00 -2.16267E+00 -2.25745E+00 -2.34552E+00 -2.42696E+00 -2.50245E+00 -2.57203E+00
  -2.63634E+00 -2.69538E+00 -2.74974E+00 -2.79940E+00 -2.84494E+00 -2.88627E+00 -2.92395E+00 -2.95786E+00 -2.98853E+00 -3.01583E+00
  -3.04026E+00 -3.06167E+00 -3.08052E+00 -3.09665E+00 -3.11051E+00 -3.12193E+00 -3.13134E+00 -3.13853E+00 -3.14392E+00 -3.14731E+00
  -3.14911E+00 -3.14909E+00 -3.14765E+00 -3.14456E+00 -3.14021E+00 -3.13434E+00 -3.12736E+00 -3.11900E+00 -3.10965E+00 -3.09903E+00
  -3.08752E+00 -3.07486E+00 -3.06141E+00 -3.04690E+00 -3.03169E+00 -3.01550E+00 -2.99869E+00 -2.98098E+00 -2.96273E+00 -2.94364E+00
  -2.92406E+00 -2.90371E+00 -2.88293E+00 -2.86145E+00 -2.83958E+00 -2.81705E+00 -2.79419E+00 -2.77071E+00 -2.74694E+00 -2.72259E+00
  -2.69799E+00 -2.67285E+00 -2.64748E+00 -2.62160E+00 -2.59553E+00 -2.56897E+00 -2.54225E+00 -2.51504E+00
 NY background values follow
    -1.668E+00   -1.678E+00   -1.687E+00   -1.696E+00   -1.705E+00   -1.715E+00   -1.724E+00   -1.733E+00   -1.742E+00   -1.751E+00
    -1.760E+00   -1.769E+00   -1.779E+00   -1.788E+00   -1.797E+00   -1.806E+00   -1.815E+00   -1.824E+00   -1.833E+00   -1.843E+00
    -1.852E+00   -1.861E+00   -1.870E+00   -1.880E+00   -1.889E+00   -1.899E+00   -1.908E+00   -1.918E+00   -1.927E+00   -1.937E+00
    -1.947E+00   -1.957E+00   -1.967E+00   -1.977E+00   -1.987E+00   -1.997E+00   -2.007E+00   -2.018E+00   -2.028E+00   -2.039E+00
    -2.049E+00   -2.060E+00   -2.071E+00   -2.082E+00   -2.093E+00   -2.105E+00   -2.116E+00   -2.128E+00   -2.139E+00   -2.151E+00
    -2.163E+00   -2.175E+00   -2.188E+00   -2.200E+00   -2.213E+00   -2.226E+00   -2.239E+00   -2.252E+00   -2.265E+00   -2.279E+00
    -2.292E+00   -2.306E+00   -2.320E+00   -2.335E+00   -2.349E+00   -2.364E+00   -2.379E+00   -2.394E+00   -2.410E+00   -2.425E+00
    -2.441E+00   -2.457E+00   -2.473E+00   -2.490E+00   -2.507E+00   -2.524E+00   -2.541E+00   -2.559E+00   -2.577E+00   -2.595E+00
    -2.613E+00   -2.632E+00   -2.651E+00   -2.670E+00   -2.689E+00   -2.709E+00   -2.729E+00   -2.749E+00   -2.770E+00   -2.791E+00
    -2.812E+00   -2.834E+00   -2.856E+00   -2.878E+00   -2.900E+00   -2.923E+00   -2.947E+00   -2.970E+00   -2.994E+00   -3.018E+00
    -3.043E+00   -3.068E+00   -3.093E+00   -3.119E+00   -3.145E+00   -3.171E+00   -3.198E+00   -3.225E+00   -3.252E+00   -3.280E+00
    -3.308E+00   -3.336E+00   -3.365E+00   -3.394E+00   -3.424E+00   -3.453E+00   -3.484E+00   -3.514E+00   -3.545E+00   -3.576E+00
    -3.608E+00   -3.640E+00   -3.672E+00   -3.705E+00   -3.738E+00   -3.771E+00   -3.805E+00   -3.839E+00   -3.873E+00   -3.908E+00
    -3.943E+00   -3.979E+00   -4.015E+00   -4.051E+00   -4.087E+00   -4.124E+00   -4.161E+00   -4.199E+00   -4.237E+00   -4.275E+00
    -4.314E+00   -4.353E+00   -4.392E+00   -4.432E+00   -4.472E+00   -4.513E+00   -4.553E+00   -4.595E+00   -4.636E+00   -4.678E+00
    -4.720E+00   -4.763E+00   -4.806E+00   -4.849E+00   -4.893E+00   -4.937E+00   -4.981E+00   -5.026E+00   -5.071E+00   -5.116E+00
    -5.162E+00   -5.208E+00   -5.255E+00   -5.301E+00   -5.349E+00   -5.396E+00   -5.444E+00   -5.492E+00   -5.541E+00   -5.590E+00
    -5.639E+00   -5.689E+00   -5.739E+00   -5.790E+00   -5.840E+00   -5.892E+00   -5.943E+00   -5.995E+00   -6.047E+00   -6.100E+00
    -6.153E+00   -6.206E+00   -6.260E+00   -6.314E+00   -6.368E+00   -6.423E+00   -6.478E+00   -6.533E+00   -6.589E+00   -6.645E+00
    -6.702E+00   -6.759E+00   -6.816E+00   -6.874E+00   -6.932E+00   -6.990E+00   -7.049E+00   -7.108E+00   -7.167E+00   -7.227E+00
    -7.287E+00   -7.348E+00   -7.408E+00   -7.470E+00   -7.531E+00   -7.593E+00   -7.655E+00   -7.717E+00   -7.779E+00   -7.842E+00
    -7.904E+00   -7.967E+00   -8.030E+00   -8.093E+00   -8.157E+00   -8.220E+00   -8.284E+00   -8.347E+00   -8.411E+00   -8.474E+00
    -8.538E+00   -8.601E+00   -8.665E+00   -8.728E+00   -8.792E+00   -8.855E+00   -8.918E+00   -8.981E+00   -9.044E+00   -9.107E+00
    -9.169E+00   -9.232E+00   -9.294E+00   -9.356E+00   -9.418E+00   -9.479E+00   -9.540E+00   -9.601E+00   -9.661E+00   -9.722E+00
    -9.781E+00   -9.841E+00   -9.900E+00   -9.959E+00   -1.002E+01   -1.007E+01   -1.013E+01   -1.019E+01   -1.025E+01   -1.030E+01
    -1.036E+01   -1.041E+01   -1.047E+01   -1.052E+01   -1.057E+01   -1.062E+01   -1.068E+01   -1.073E+01   -1.078E+01   -1.083E+01
    -1.088E+01   -1.092E+01   -1.097E+01   -1.102E+01   -1.106E+01   -1.111E+01   -1.115E+01   -1.120E+01   -1.124E+01   -1.128E+01
    -1.132E+01   -1.136E+01   -1.140E+01   -1.144E+01   -1.148E+01   -1.151E+01   -1.155E+01   -1.158E+01   -1.161E+01   -1.165E+01
    -1.168E+01   -1.171E+01   -1.174E+01   -1.176E+01   -1.179E+01   -1.182E+01   -1.184E+01   -1.186E+01   -1.189E+01   -1.191E+01
    -1.192E+01   -1.194E+01   -1.196E+01   -1.198E+01   -1.199E+01   -1.200E+01   -1.201E+01   -1.202E+01   -1.203E+01   -1.204E+01
    -1.205E+01   -1.205E+01   -1.205E+01   -1.205E+01   -1.206E+01   -1.205E+01   -1.205E+01   -1.205E+01   -1.204E+01   -1.204E+01
    -1.203E+01   -1.202E+01   -1.201E+01   -1.200E+01   -1.199E+01   -1.198E+01   -1.196E+01   -1.195E+01   -1.193E+01   -1.191E+01
    -1.189E+01   -1.187E+01   -1.185E+01   -1.183E+01   -1.181E+01   -1.178E+01   -1.176E+01   -1.173E+01   -1.170E+01   -1.168E+01
    -1.165E+01   -1.162E+01   -1.159E+01   -1.156E+01   -1.152E+01   -1.149E+01   -1.146E+01   -1.142E+01   -1.139E+01   -1.135E+01
    -1.131E+01   -1.127E+01   -1.123E+01   -1.119E+01   -1.115E+01   -1.111E+01   -1.107E+01   -1.103E+01   -1.099E+01   -1.094E+01
    -1.090E+01   -1.085E+01   -1.081E+01   -1.076E+01   -1.072E+01   -1.067E+01   -1.062E+01   -1.057E+01   -1.052E+01   -1.047E+01
    -1.043E+01   -1.038E+01   -1.032E+01   -1.027E+01   -1.022E+01   -1.017E+01   -1.012E+01   -1.007E+01   -1.001E+01   -9.960E+00
    -9.907E+00   -9.853E+00   -9.799E+00   -9.745E+00   -9.690E+00   -9.635E+00   -9.580E+00   -9.525E+00   -9.470E+00   -9.414E+00
    -9.359E+00   -9.303E+00   -9.247E+00   -9.191E+00   -9.135E+00   -9.078E+00   -9.022E+00   -8.966E+00   -8.909E+00   -8.853E+00
    -8.797E+00   -8.740E+00   -8.684E+00   -8.628E+00   -8.571E+00   -8.515E+00   -8.459E+00   -8.403E+00   -8.347E+00   -8.292E+00
    -8.236E+00   -8.181E+00   -8.125E+00   -8.070E+00   -8.015E+00   -7.960E+00   -7.906E+00   -7.851E+00   -7.797E+00   -7.742E+00
    -7.688E+00   -7.634E+00   -7.580E+00   -7.526E+00   -7.472E+00   -7.419E+00   -7.365E+00   -7.312E+00   -7.259E+00   -7.206E+00
    -7.153E+00   -7.100E+00   -7.048E+00   -6.995E+00   -6.943E+00   -6.891E+00   -6.839E+00   -6.787E+00   -6.735E+00   -6.683E+00
    -6.632E+00   -6.580E+00   -6.529E+00   -6.478E+00   -6.427E+00   -6.376E+00   -6.325E+00   -6.274E+00   -6.224E+00   -6.174E+00
    -6.123E+00   -6.073E+00   -6.023E+00   -5.974E+00   -5.924E+00   -5.874E+00   -5.825E+00   -5.776E+00   -5.726E+00   -5.677E+00
    -5.628E+00   -5.580E+00   -5.531E+00   -5.483E+00   -5.434E+00   -5.386E+00   -5.338E+00   -5.290E+00   -5.242E+00   -5.194E+00
    -5.147E+00   -5.099E+00   -5.052E+00   -5.005E+00   -4.958E+00   -4.911E+00   -4.864E+00   -4.818E+00   -4.771E+00   -4.725E+00
    -4.678E+00   -4.632E+00   -4.586E+00   -4.541E+00   -4.495E+00   -4.449E+00   -4.404E+00   -4.358E+00   -4.313E+00   -4.268E+00
    -4.223E+00   -4.178E+00   -4.134E+00   -4.089E+00   -4.045E+00   -4.001E+00   -3.957E+00   -3.913E+00   -3.869E+00   -3.825E+00
    -3.781E+00   -3.738E+00   -3.695E+00   -3.651E+00   -3.608E+00   -3.565E+00   -3.522E+00   -3.480E+00
 Ala      Conc. = 3.21E+03
