 LCModel (Version 6.3-1L) Copyright: S.W. Provencher.          Ref.: Magn. Reson. Med. 30:672-679 (1993).                
 Slice#2 Row#8 Col#1  PD_05_press_1_raw_act
 36 lines in following concentration table = NCONC+1
    Conc.  %SD /Cr+PCr  Metabolite                                         
    0.000 999%   0.000 Ala                                                 
    6.764 101% 9.5E-02 Asp                                                 
    0.000 999%   0.000 Cr                                                  
   71.265  17%   1.000 PCr                                                 
    3.999 103% 5.6E-02 GABA                                                
    3.461 119% 4.9E-02 Glc                                                 
   40.755 135%   0.572 Gln                                                 
    0.000 999%   0.000 Glu                                                 
    8.092  56%   0.114 GPC                                                 
    0.000 999%   0.000 PCh                                                 
    1.277 999% 1.8E-02 GSH                                                 
    0.000 999%   0.000 Ins                                                 
    0.000 999%   0.000 Lac                                                 
   21.690  75%   0.304 NAA                                                 
   17.600  94%   0.247 NAAG                                                
    0.953 142% 1.3E-02 Scyllo                                              
    4.695 145% 6.6E-02 Tau                                                 
    0.000 999%   0.000 -CrCH2                                              
    8.092  56%   0.114 GPC+PCh                                             
   39.290  42%   0.551 NAA+NAAG                                            
   71.265  17%   1.000 Cr+PCr                                              
   40.755 135%   0.572 Glu+Gln                                             
  119.368 139%   1.675 Lip13a                                              
   30.618 205%   0.430 Lip13b                                              
   40.444  81%   0.568 Lip09                                               
   47.623  91%   0.668 MM09                                                
   23.147  81%   0.325 Lip20                                               
   74.906  92%   1.051 MM20                                                
   14.053 117%   0.197 MM12                                                
   14.945 329%   0.210 MM14                                                
   12.782 240%   0.179 MM17                                                
  149.986  78%   2.105 Lip13a+Lip13b                                       
  178.984  64%   2.512 MM14+Lip13a+Lip13b+MM12                             
   88.067  53%   1.236 MM09+Lip09                                          
   98.054  68%   1.376 MM20+Lip20                                          
   6 lines in following misc. output table
  FWHM = 0.054 ppm    S/N =   1                                            
  Data shift = 0.008 ppm                                                   
  Ph:  99 deg     -12.2 deg/ppm                                            
  alphaB,S = 7.1E-01,   4.8E+01                                            
   14 spline knots.   Ns = 5(1)                                            
  ( 7) 2 infls.   ( 7) 1 extrs.                                            
  498 points on ppm-axis = NY
      4.000000     3.992357     3.984714     3.977070     3.969427     3.961784     3.954141     3.946497     3.938854     3.931211
      3.923568     3.915925     3.908281     3.900638     3.892995     3.885352     3.877708     3.870065     3.862422     3.854779
      3.847136     3.839492     3.831849     3.824206     3.816563     3.808919     3.801276     3.793633     3.785990     3.778347
      3.770703     3.763060     3.755417     3.747774     3.740130     3.732487     3.724844     3.717201     3.709558     3.701914
      3.694271     3.686628     3.678985     3.671341     3.663698     3.656055     3.648412     3.640769     3.633125     3.625482
      3.617839     3.610196     3.602552     3.594909     3.587266     3.579623     3.571980     3.564336     3.556693     3.549050
      3.541407     3.533763     3.526120     3.518477     3.510834     3.503191     3.495547     3.487904     3.480261     3.472618
      3.464974     3.457331     3.449688     3.442045     3.434402     3.426758     3.419115     3.411472     3.403829     3.396185
      3.388542     3.380899     3.373256     3.365613     3.357969     3.350326     3.342683     3.335040     3.327396     3.319753
      3.312110     3.304467     3.296824     3.289180     3.281537     3.273894     3.266251     3.258607     3.250964     3.243321
      3.235678     3.228034     3.220391     3.212748     3.205105     3.197462     3.189818     3.182175     3.174532     3.166889
      3.159245     3.151602     3.143959     3.136316     3.128673     3.121029     3.113386     3.105743     3.098100     3.090456
      3.082813     3.075170     3.067527     3.059884     3.052240     3.044597     3.036954     3.029311     3.021667     3.014024
      3.006381     2.998738     2.991095     2.983451     2.975808     2.968165     2.960522     2.952878     2.945235     2.937592
      2.929949     2.922306     2.914662     2.907019     2.899376     2.891733     2.884089     2.876446     2.868803     2.861160
      2.853517     2.845873     2.838230     2.830587     2.822944     2.815300     2.807657     2.800014     2.792371     2.784728
      2.777084     2.769441     2.761798     2.754155     2.746511     2.738868     2.731225     2.723582     2.715939     2.708295
      2.700652     2.693009     2.685366     2.677722     2.670079     2.662436     2.654793     2.647150     2.639506     2.631863
      2.624220     2.616577     2.608933     2.601290     2.593647     2.586004     2.578361     2.570717     2.563074     2.555431
      2.547788     2.540144     2.532501     2.524858     2.517215     2.509572     2.501928     2.494285     2.486642     2.478999
      2.471355     2.463712     2.456069     2.448426     2.440783     2.433139     2.425496     2.417853     2.410210     2.402566
      2.394923     2.387280     2.379637     2.371994     2.364350     2.356707     2.349064     2.341421     2.333777     2.326134
      2.318491     2.310848     2.303205     2.295561     2.287918     2.280275     2.272632     2.264988     2.257345     2.249702
      2.242059     2.234416     2.226772     2.219129     2.211486     2.203843     2.196199     2.188556     2.180913     2.173270
      2.165627     2.157983     2.150340     2.142697     2.135054     2.127410     2.119767     2.112124     2.104481     2.096838
      2.089194     2.081551     2.073908     2.066265     2.058621     2.050978     2.043335     2.035692     2.028049     2.020405
      2.012762     2.005119     1.997476     1.989833     1.982190     1.974546     1.966903     1.959260     1.951617     1.943974
      1.936331     1.928688     1.921045     1.913402     1.905759     1.898115     1.890472     1.882829     1.875186     1.867543
      1.859900     1.852257     1.844614     1.836971     1.829327     1.821684     1.814041     1.806398     1.798755     1.791112
      1.783469     1.775826     1.768183     1.760540     1.752896     1.745253     1.737610     1.729967     1.722324     1.714681
      1.707038     1.699395     1.691752     1.684108     1.676465     1.668822     1.661179     1.653536     1.645893     1.638250
      1.630607     1.622964     1.615321     1.607677     1.600034     1.592391     1.584748     1.577105     1.569462     1.561819
      1.554176     1.546533     1.538890     1.531246     1.523603     1.515960     1.508317     1.500674     1.493031     1.485388
      1.477745     1.470102     1.462458     1.454815     1.447172     1.439529     1.431886     1.424243     1.416600     1.408957
      1.401314     1.393671     1.386027     1.378384     1.370741     1.363098     1.355455     1.347812     1.340169     1.332526
      1.324883     1.317240     1.309596     1.301953     1.294310     1.286667     1.279024     1.271381     1.263738     1.256095
      1.248452     1.240808     1.233165     1.225522     1.217879     1.210236     1.202593     1.194950     1.187307     1.179664
      1.172021     1.164377     1.156734     1.149091     1.141448     1.133805     1.126162     1.118519     1.110876     1.103233
      1.095590     1.087946     1.080303     1.072660     1.065017     1.057374     1.049731     1.042088     1.034445     1.026802
      1.019158     1.011515     1.003872     0.996229     0.988586     0.980943     0.973300     0.965657     0.958014     0.950371
      0.942727     0.935084     0.927441     0.919798     0.912155     0.904512     0.896869     0.889226     0.881583     0.873940
      0.866296     0.858653     0.851010     0.843367     0.835724     0.828081     0.820438     0.812795     0.805152     0.797508
      0.789865     0.782222     0.774579     0.766936     0.759293     0.751650     0.744007     0.736364     0.728721     0.721077
      0.713434     0.705791     0.698148     0.690505     0.682862     0.675219     0.667576     0.659933     0.652290     0.644646
      0.637003     0.629360     0.621717     0.614074     0.606431     0.598788     0.591145     0.583502     0.575858     0.568215
      0.560572     0.552929     0.545286     0.537643     0.530000     0.522357     0.514714     0.507071     0.499427     0.491784
      0.484141     0.476498     0.468855     0.461212     0.453569     0.445925     0.438282     0.430639     0.422996     0.415353
      0.407710     0.400067     0.392424     0.384780     0.377137     0.369494     0.361851     0.354208     0.346565     0.338922
      0.331278     0.323635     0.315992     0.308349     0.300706     0.293063     0.285420     0.277777     0.270133     0.262490
      0.254847     0.247204     0.239561     0.231918     0.224275     0.216631     0.208988     0.201345
 NY phased data points follow
   5.83127E+01  5.66624E+01  5.59045E+01  5.72149E+01  5.53980E+01  5.50304E+01  5.46544E+01  5.33670E+01  5.42370E+01  5.32221E+01
   5.33716E+01  5.23235E+01  5.13882E+01  5.14497E+01  5.10053E+01  5.04340E+01  4.98886E+01  4.80147E+01  4.81634E+01  4.80762E+01
   4.80599E+01  4.68820E+01  4.69303E+01  4.58132E+01  4.46884E+01  4.38849E+01  4.43245E+01  4.53167E+01  4.43657E+01  4.28224E+01
   4.39867E+01  4.24724E+01  4.38911E+01  4.26680E+01  4.26178E+01  4.08970E+01  4.09919E+01  4.04641E+01  3.95742E+01  3.93134E+01
   3.88139E+01  3.95420E+01  3.71842E+01  3.83613E+01  3.87985E+01  3.95175E+01  3.80009E+01  3.51228E+01  3.69913E+01  3.71845E+01
   3.74255E+01  3.66656E+01  3.61724E+01  3.54235E+01  3.50260E+01  3.60707E+01  3.51897E+01  3.39655E+01  3.28555E+01  3.23276E+01
   3.37924E+01  3.45877E+01  3.41967E+01  3.34283E+01  3.26712E+01  3.31929E+01  3.17545E+01  3.20715E+01  3.03553E+01  3.10986E+01
   3.18759E+01  2.95571E+01  3.03651E+01  3.05720E+01  3.07108E+01  2.87830E+01  2.92179E+01  2.96953E+01  2.94046E+01  2.81964E+01
   3.03531E+01  2.83208E+01  2.81986E+01  2.80528E+01  2.71285E+01  2.74575E+01  2.62374E+01  2.71265E+01  2.82698E+01  2.62896E+01
   2.69273E+01  2.65343E+01  2.76971E+01  2.78935E+01  2.60739E+01  2.49575E+01  2.46601E+01  2.44233E+01  2.56047E+01  2.64787E+01
   2.58413E+01  2.51368E+01  2.46134E+01  2.41398E+01  2.63279E+01  2.53706E+01  2.43525E+01  2.58941E+01  2.43978E+01  2.22050E+01
   2.37447E+01  2.30743E+01  2.22556E+01  2.37607E+01  2.30901E+01  2.24669E+01  2.28810E+01  2.22733E+01  2.17340E+01  2.35855E+01
   2.20652E+01  2.11097E+01  2.11720E+01  2.25697E+01  2.24447E+01  2.33513E+01  2.37520E+01  2.27897E+01  2.31236E+01  2.04860E+01
   2.28744E+01  2.16231E+01  2.30765E+01  2.06680E+01  2.13516E+01  2.10708E+01  2.00042E+01  2.14700E+01  2.03485E+01  1.90634E+01
   2.00376E+01  1.96563E+01  1.87205E+01  2.09458E+01  1.97035E+01  2.02306E+01  2.00747E+01  2.01851E+01  1.96817E+01  1.96057E+01
   1.84258E+01  1.97498E+01  1.85191E+01  1.99585E+01  1.88045E+01  1.95848E+01  1.83002E+01  1.79149E+01  1.79485E+01  1.68511E+01
   1.81666E+01  1.77611E+01  1.69689E+01  1.61452E+01  1.77265E+01  1.77531E+01  1.83678E+01  1.82969E+01  1.89795E+01  1.80524E+01
   1.59588E+01  1.66331E+01  1.63835E+01  1.85031E+01  1.59176E+01  1.78578E+01  1.66706E+01  1.73324E+01  1.59560E+01  1.60207E+01
   1.49963E+01  1.66401E+01  1.65669E+01  1.56511E+01  1.53550E+01  1.54565E+01  1.52360E+01  1.53046E+01  1.54927E+01  1.57905E+01
   1.60023E+01  1.55316E+01  1.65060E+01  1.44613E+01  1.70283E+01  1.53207E+01  1.54204E+01  1.39846E+01  1.60074E+01  1.57101E+01
   1.61002E+01  1.53972E+01  1.59750E+01  1.57872E+01  1.44428E+01  1.29384E+01  1.50908E+01  1.55446E+01  1.46957E+01  1.44414E+01
   1.41087E+01  1.45193E+01  1.60380E+01  1.54560E+01  1.40666E+01  1.59449E+01  1.37809E+01  1.45401E+01  1.45842E+01  1.50727E+01
   1.42056E+01  1.40212E+01  1.49330E+01  1.42043E+01  1.58263E+01  1.55412E+01  1.32745E+01  1.40799E+01  1.39633E+01  1.49608E+01
   1.36152E+01  1.34676E+01  1.54331E+01  1.43452E+01  1.43219E+01  1.36367E+01  1.16594E+01  1.36674E+01  1.35479E+01  1.25542E+01
   1.41982E+01  1.18069E+01  1.33131E+01  1.17116E+01  1.36049E+01  1.29830E+01  1.31595E+01  1.25973E+01  1.37468E+01  1.27862E+01
   1.43091E+01  1.33856E+01  1.48046E+01  1.29142E+01  1.54843E+01  1.39646E+01  1.17319E+01  1.25274E+01  1.34484E+01  1.39089E+01
   1.35645E+01  1.37205E+01  1.33083E+01  1.32828E+01  1.24521E+01  1.32179E+01  1.13801E+01  1.06727E+01  1.11403E+01  1.08286E+01
   1.21748E+01  1.09496E+01  1.03829E+01  1.13739E+01  1.15428E+01  1.24765E+01  1.18310E+01  1.32441E+01  1.11511E+01  1.03953E+01
   1.21683E+01  1.03360E+01  1.19424E+01  1.10978E+01  1.14247E+01  1.06236E+01  1.26144E+01  1.18251E+01  1.10728E+01  1.19245E+01
   1.10690E+01  1.14558E+01  1.20749E+01  1.13495E+01  1.27364E+01  9.75276E+00  1.11990E+01  1.01606E+01  1.01162E+01  9.22180E+00
   1.10921E+01  1.01269E+01  1.04536E+01  9.75095E+00  9.65475E+00  1.01988E+01  9.60932E+00  9.63175E+00  9.44780E+00  9.85990E+00
   9.45445E+00  1.08184E+01  9.63031E+00  1.00918E+01  9.46611E+00  8.98802E+00  1.01246E+01  8.89432E+00  9.91193E+00  1.20577E+01
   9.30565E+00  9.57442E+00  1.08184E+01  8.39534E+00  9.22583E+00  1.00685E+01  9.41621E+00  9.00875E+00  9.65352E+00  1.01468E+01
   9.72738E+00  9.85227E+00  7.75520E+00  9.85724E+00  8.91789E+00  9.18206E+00  8.24018E+00  8.74459E+00  9.03268E+00  8.93955E+00
   8.19784E+00  8.25655E+00  8.39280E+00  9.57495E+00  9.21677E+00  9.32588E+00  9.80602E+00  1.15333E+01  9.51396E+00  9.67242E+00
   7.94497E+00  9.81984E+00  9.33549E+00  8.23156E+00  1.00464E+01  1.01339E+01  1.01037E+01  9.93221E+00  7.34359E+00  8.57714E+00
   8.53649E+00  8.53364E+00  1.02981E+01  7.18186E+00  9.73878E+00  7.59763E+00  8.15642E+00  9.45703E+00  8.76083E+00  9.69167E+00
   8.01721E+00  1.02262E+01  7.72143E+00  7.46758E+00  8.15531E+00  8.19854E+00  6.97304E+00  9.65805E+00  7.52491E+00  8.80007E+00
   7.47359E+00  7.25249E+00  6.70315E+00  6.67513E+00  6.81385E+00  7.28949E+00  8.47890E+00  7.24040E+00  8.19690E+00  7.85202E+00
   8.27242E+00  7.77449E+00  8.72815E+00  8.85254E+00  8.06039E+00  9.06302E+00  1.00889E+01  7.26166E+00  7.14505E+00  7.84090E+00
   8.38914E+00  8.33775E+00  7.92931E+00  7.03526E+00  7.88954E+00  6.84495E+00  9.23673E+00  6.76047E+00  8.43165E+00  6.31494E+00
   6.54292E+00  6.75239E+00  8.02636E+00  8.41975E+00  7.90050E+00  6.32041E+00  8.24263E+00  7.78646E+00  7.15826E+00  8.22809E+00
   5.69709E+00  5.64125E+00  8.73538E+00  6.44461E+00  7.23243E+00  6.81230E+00  5.30925E+00  6.56479E+00  7.80877E+00  7.26712E+00
   6.43348E+00  4.77382E+00  6.46175E+00  6.64508E+00  7.34328E+00  6.95024E+00  5.84209E+00  5.52017E+00  6.44664E+00  8.12949E+00
   7.28721E+00  6.23638E+00  6.58338E+00  5.85548E+00  6.84495E+00  5.49618E+00  7.24842E+00  6.41909E+00  6.99098E+00  6.10846E+00
   6.83596E+00  5.98754E+00  6.79876E+00  5.93883E+00  5.32378E+00  5.97564E+00  5.09501E+00  4.51117E+00  5.65614E+00  5.58972E+00
   4.34580E+00  6.02760E+00  7.78607E+00  6.72681E+00  7.18184E+00  4.77693E+00  4.47765E+00  5.85557E+00  4.87545E+00  5.09175E+00
   4.91117E+00  4.95553E+00  5.53575E+00  4.39780E+00  6.67345E+00  3.73288E+00  4.83809E+00  6.10936E+00  5.13166E+00  4.75811E+00
   5.31020E+00  6.05524E+00  3.38075E+00  6.42466E+00  4.91923E+00  4.88735E+00  5.66138E+00  3.82311E+00  6.13136E+00  4.70419E+00
   5.52598E+00  5.22741E+00  4.17182E+00  5.05131E+00  3.13640E+00  5.36375E+00  4.41484E+00  4.62845E+00
 NY points of the fit to the data follow
   5.47879E+01  5.44285E+01  5.40811E+01  5.37720E+01  5.35964E+01  5.35595E+01  5.35474E+01  5.34690E+01  5.32717E+01  5.29416E+01
   5.24985E+01  5.19742E+01  5.13901E+01  5.07466E+01  5.00527E+01  4.93789E+01  4.88438E+01  4.84262E+01  4.80398E+01  4.76659E+01
   4.72993E+01  4.69297E+01  4.65512E+01  4.61673E+01  4.57833E+01  4.54045E+01  4.50373E+01  4.46930E+01  4.43691E+01  4.40501E+01
   4.37250E+01  4.33894E+01  4.30405E+01  4.26737E+01  4.22990E+01  4.19267E+01  4.15569E+01  4.11918E+01  4.08405E+01  4.05117E+01
   4.01956E+01  3.98822E+01  3.95679E+01  3.92473E+01  3.89173E+01  3.85844E+01  3.82593E+01  3.79415E+01  3.76261E+01  3.73137E+01
   3.70056E+01  3.66994E+01  3.63940E+01  3.60914E+01  3.57899E+01  3.54877E+01  3.51869E+01  3.48909E+01  3.45995E+01  3.43121E+01
   3.40283E+01  3.37485E+01  3.34733E+01  3.32016E+01  3.29327E+01  3.26655E+01  3.23996E+01  3.21358E+01  3.18750E+01  3.16173E+01
   3.13647E+01  3.11185E+01  3.08771E+01  3.06380E+01  3.03995E+01  3.01600E+01  2.99203E+01  2.96818E+01  2.94457E+01  2.92131E+01
   2.89845E+01  2.87640E+01  2.85543E+01  2.83516E+01  2.81502E+01  2.79467E+01  2.77403E+01  2.75317E+01  2.73219E+01  2.71116E+01
   2.69006E+01  2.66896E+01  2.64827E+01  2.62871E+01  2.61048E+01  2.59316E+01  2.57688E+01  2.56378E+01  2.55901E+01  2.56027E+01
   2.56147E+01  2.55831E+01  2.54865E+01  2.53247E+01  2.51115E+01  2.48639E+01  2.45907E+01  2.42891E+01  2.39703E+01  2.36827E+01
   2.34786E+01  2.33210E+01  2.31748E+01  2.30337E+01  2.28963E+01  2.27625E+01  2.26320E+01  2.25061E+01  2.23858E+01  2.22747E+01
   2.21840E+01  2.21695E+01  2.23820E+01  2.27852E+01  2.32027E+01  2.35044E+01  2.36206E+01  2.35410E+01  2.33004E+01  2.29433E+01
   2.24941E+01  2.19524E+01  2.13459E+01  2.08034E+01  2.04918E+01  2.03323E+01  2.02077E+01  2.00941E+01  1.99861E+01  1.98817E+01
   1.97805E+01  1.96823E+01  1.95860E+01  1.94901E+01  1.93933E+01  1.92952E+01  1.91972E+01  1.91005E+01  1.90048E+01  1.89084E+01
   1.88105E+01  1.87130E+01  1.86183E+01  1.85282E+01  1.84422E+01  1.83567E+01  1.82687E+01  1.81781E+01  1.80873E+01  1.79986E+01
   1.79137E+01  1.78306E+01  1.77483E+01  1.76671E+01  1.75869E+01  1.75079E+01  1.74312E+01  1.73559E+01  1.72808E+01  1.72060E+01
   1.71309E+01  1.70535E+01  1.69755E+01  1.68993E+01  1.68269E+01  1.67577E+01  1.66880E+01  1.66151E+01  1.65415E+01  1.64731E+01
   1.64123E+01  1.63572E+01  1.63025E+01  1.62456E+01  1.61894E+01  1.61372E+01  1.60891E+01  1.60432E+01  1.59929E+01  1.59322E+01
   1.58627E+01  1.57875E+01  1.57087E+01  1.56275E+01  1.55466E+01  1.54731E+01  1.54155E+01  1.53792E+01  1.53629E+01  1.53589E+01
   1.53585E+01  1.53507E+01  1.53262E+01  1.52751E+01  1.51877E+01  1.50549E+01  1.48973E+01  1.47503E+01  1.46344E+01  1.45570E+01
   1.45143E+01  1.44977E+01  1.45018E+01  1.45186E+01  1.45409E+01  1.45586E+01  1.45532E+01  1.45144E+01  1.44631E+01  1.44167E+01
   1.43725E+01  1.43285E+01  1.42850E+01  1.42399E+01  1.41918E+01  1.41400E+01  1.40834E+01  1.40229E+01  1.39614E+01  1.39022E+01
   1.38449E+01  1.37817E+01  1.37163E+01  1.36588E+01  1.36166E+01  1.35943E+01  1.35931E+01  1.35992E+01  1.35903E+01  1.35622E+01
   1.35184E+01  1.34616E+01  1.33915E+01  1.33068E+01  1.32195E+01  1.31417E+01  1.30839E+01  1.30548E+01  1.30553E+01  1.30720E+01
   1.31053E+01  1.31894E+01  1.33021E+01  1.34007E+01  1.34653E+01  1.35224E+01  1.35953E+01  1.36504E+01  1.36576E+01  1.35968E+01
   1.34573E+01  1.32542E+01  1.30352E+01  1.28459E+01  1.26591E+01  1.24514E+01  1.22435E+01  1.20916E+01  1.20063E+01  1.19407E+01
   1.18809E+01  1.18240E+01  1.17685E+01  1.17132E+01  1.16577E+01  1.16019E+01  1.15453E+01  1.14878E+01  1.14310E+01  1.13758E+01
   1.13224E+01  1.12712E+01  1.12224E+01  1.11753E+01  1.11289E+01  1.10827E+01  1.10367E+01  1.09914E+01  1.09472E+01  1.09038E+01
   1.08615E+01  1.08201E+01  1.07790E+01  1.07384E+01  1.06977E+01  1.06568E+01  1.06158E+01  1.05746E+01  1.05333E+01  1.04926E+01
   1.04526E+01  1.04129E+01  1.03735E+01  1.03341E+01  1.02949E+01  1.02553E+01  1.02152E+01  1.01747E+01  1.01341E+01  1.00933E+01
   1.00527E+01  1.00121E+01  9.97182E+00  9.93191E+00  9.89250E+00  9.85367E+00  9.81555E+00  9.77820E+00  9.74172E+00  9.70615E+00
   9.67157E+00  9.63798E+00  9.60542E+00  9.57390E+00  9.54343E+00  9.51402E+00  9.48567E+00  9.45840E+00  9.43220E+00  9.40710E+00
   9.38311E+00  9.36028E+00  9.33863E+00  9.31822E+00  9.29912E+00  9.28141E+00  9.26518E+00  9.25055E+00  9.23768E+00  9.22676E+00
   9.21806E+00  9.21191E+00  9.20873E+00  9.20900E+00  9.21326E+00  9.22196E+00  9.23539E+00  9.25348E+00  9.27566E+00  9.30065E+00
   9.32641E+00  9.35019E+00  9.36872E+00  9.37860E+00  9.37668E+00  9.36062E+00  9.32922E+00  9.28263E+00  9.22234E+00  9.15096E+00
   9.07174E+00  8.98816E+00  8.90342E+00  8.82018E+00  8.74031E+00  8.66490E+00  8.59442E+00  8.52882E+00  8.46776E+00  8.41078E+00
   8.35742E+00  8.30727E+00  8.26002E+00  8.21547E+00  8.17350E+00  8.13404E+00  8.09708E+00  8.06263E+00  8.03069E+00  8.00132E+00
   7.97453E+00  7.95038E+00  7.92891E+00  7.91015E+00  7.89414E+00  7.88091E+00  7.87046E+00  7.86276E+00  7.85776E+00  7.85534E+00
   7.85533E+00  7.85746E+00  7.86142E+00  7.86678E+00  7.87304E+00  7.87961E+00  7.88584E+00  7.89103E+00  7.89443E+00  7.89532E+00
   7.89297E+00  7.88675E+00  7.87609E+00  7.86056E+00  7.83985E+00  7.81383E+00  7.78250E+00  7.74607E+00  7.70486E+00  7.65934E+00
   7.61009E+00  7.55776E+00  7.50305E+00  7.44667E+00  7.38933E+00  7.33167E+00  7.27430E+00  7.21771E+00  7.16233E+00  7.10850E+00
   7.05646E+00  7.00635E+00  6.95826E+00  6.91219E+00  6.86811E+00  6.82593E+00  6.78554E+00  6.74678E+00  6.70952E+00  6.67361E+00
   6.63889E+00  6.60522E+00  6.57246E+00  6.54049E+00  6.50920E+00  6.47848E+00  6.44824E+00  6.41841E+00  6.38890E+00  6.35968E+00
   6.33067E+00  6.30184E+00  6.27315E+00  6.24456E+00  6.21604E+00  6.18757E+00  6.15912E+00  6.13068E+00  6.10223E+00  6.07375E+00
   6.04523E+00  6.01666E+00  5.98802E+00  5.95931E+00  5.93053E+00  5.90166E+00  5.87272E+00  5.84370E+00  5.81460E+00  5.78543E+00
   5.75617E+00  5.72684E+00  5.69743E+00  5.66795E+00  5.63840E+00  5.60878E+00  5.57909E+00  5.54933E+00  5.51952E+00  5.48965E+00
   5.45972E+00  5.42974E+00  5.39971E+00  5.36963E+00  5.33951E+00  5.30935E+00  5.27916E+00  5.24893E+00  5.21868E+00  5.18839E+00
   5.15809E+00  5.12778E+00  5.09745E+00  5.06711E+00  5.03676E+00  5.00641E+00  4.97607E+00  4.94573E+00  4.91540E+00  4.88509E+00
   4.85479E+00  4.82452E+00  4.79428E+00  4.76407E+00  4.73390E+00  4.70376E+00  4.67368E+00  4.64364E+00
 NY background values follow
     5.472E+01    5.434E+01    5.396E+01    5.358E+01    5.320E+01    5.283E+01    5.245E+01    5.207E+01    5.169E+01    5.132E+01
     5.094E+01    5.056E+01    5.019E+01    4.981E+01    4.944E+01    4.907E+01    4.869E+01    4.832E+01    4.795E+01    4.758E+01
     4.721E+01    4.684E+01    4.647E+01    4.611E+01    4.574E+01    4.538E+01    4.502E+01    4.466E+01    4.430E+01    4.394E+01
     4.359E+01    4.324E+01    4.288E+01    4.253E+01    4.219E+01    4.184E+01    4.150E+01    4.115E+01    4.081E+01    4.048E+01
     4.014E+01    3.981E+01    3.948E+01    3.915E+01    3.883E+01    3.850E+01    3.818E+01    3.787E+01    3.755E+01    3.724E+01
     3.693E+01    3.663E+01    3.632E+01    3.602E+01    3.572E+01    3.543E+01    3.514E+01    3.485E+01    3.456E+01    3.427E+01
     3.399E+01    3.371E+01    3.344E+01    3.316E+01    3.289E+01    3.263E+01    3.236E+01    3.210E+01    3.184E+01    3.158E+01
     3.133E+01    3.108E+01    3.083E+01    3.058E+01    3.034E+01    3.010E+01    2.986E+01    2.962E+01    2.939E+01    2.916E+01
     2.894E+01    2.871E+01    2.849E+01    2.827E+01    2.806E+01    2.784E+01    2.763E+01    2.743E+01    2.722E+01    2.702E+01
     2.682E+01    2.663E+01    2.643E+01    2.624E+01    2.605E+01    2.587E+01    2.569E+01    2.551E+01    2.533E+01    2.515E+01
     2.498E+01    2.481E+01    2.464E+01    2.448E+01    2.431E+01    2.415E+01    2.400E+01    2.384E+01    2.369E+01    2.353E+01
     2.338E+01    2.324E+01    2.309E+01    2.295E+01    2.281E+01    2.267E+01    2.253E+01    2.239E+01    2.226E+01    2.213E+01
     2.200E+01    2.187E+01    2.174E+01    2.162E+01    2.149E+01    2.137E+01    2.125E+01    2.113E+01    2.102E+01    2.090E+01
     2.079E+01    2.067E+01    2.056E+01    2.045E+01    2.034E+01    2.023E+01    2.013E+01    2.002E+01    1.992E+01    1.982E+01
     1.971E+01    1.961E+01    1.951E+01    1.942E+01    1.932E+01    1.922E+01    1.913E+01    1.903E+01    1.894E+01    1.885E+01
     1.876E+01    1.867E+01    1.858E+01    1.849E+01    1.841E+01    1.832E+01    1.824E+01    1.815E+01    1.807E+01    1.799E+01
     1.791E+01    1.783E+01    1.775E+01    1.767E+01    1.759E+01    1.751E+01    1.744E+01    1.736E+01    1.729E+01    1.721E+01
     1.714E+01    1.707E+01    1.699E+01    1.692E+01    1.685E+01    1.678E+01    1.671E+01    1.665E+01    1.658E+01    1.651E+01
     1.644E+01    1.638E+01    1.631E+01    1.625E+01    1.618E+01    1.612E+01    1.606E+01    1.599E+01    1.593E+01    1.587E+01
     1.581E+01    1.575E+01    1.569E+01    1.563E+01    1.557E+01    1.551E+01    1.545E+01    1.539E+01    1.534E+01    1.528E+01
     1.522E+01    1.517E+01    1.511E+01    1.505E+01    1.500E+01    1.494E+01    1.489E+01    1.483E+01    1.478E+01    1.473E+01
     1.467E+01    1.462E+01    1.457E+01    1.451E+01    1.446E+01    1.441E+01    1.435E+01    1.430E+01    1.425E+01    1.420E+01
     1.415E+01    1.410E+01    1.404E+01    1.399E+01    1.394E+01    1.389E+01    1.384E+01    1.379E+01    1.374E+01    1.369E+01
     1.364E+01    1.359E+01    1.354E+01    1.349E+01    1.343E+01    1.338E+01    1.333E+01    1.328E+01    1.323E+01    1.318E+01
     1.313E+01    1.308E+01    1.303E+01    1.299E+01    1.294E+01    1.289E+01    1.284E+01    1.279E+01    1.274E+01    1.269E+01
     1.264E+01    1.259E+01    1.254E+01    1.249E+01    1.245E+01    1.240E+01    1.235E+01    1.230E+01    1.225E+01    1.220E+01
     1.216E+01    1.211E+01    1.206E+01    1.201E+01    1.196E+01    1.192E+01    1.187E+01    1.182E+01    1.177E+01    1.173E+01
     1.168E+01    1.163E+01    1.159E+01    1.154E+01    1.149E+01    1.145E+01    1.140E+01    1.135E+01    1.131E+01    1.126E+01
     1.121E+01    1.117E+01    1.112E+01    1.108E+01    1.103E+01    1.099E+01    1.094E+01    1.090E+01    1.085E+01    1.081E+01
     1.076E+01    1.072E+01    1.067E+01    1.063E+01    1.058E+01    1.054E+01    1.050E+01    1.045E+01    1.041E+01    1.037E+01
     1.033E+01    1.028E+01    1.024E+01    1.020E+01    1.016E+01    1.012E+01    1.007E+01    1.003E+01    9.992E+00    9.951E+00
     9.910E+00    9.870E+00    9.830E+00    9.790E+00    9.751E+00    9.712E+00    9.673E+00    9.634E+00    9.596E+00    9.557E+00
     9.519E+00    9.482E+00    9.444E+00    9.407E+00    9.371E+00    9.334E+00    9.298E+00    9.262E+00    9.226E+00    9.190E+00
     9.155E+00    9.120E+00    9.085E+00    9.051E+00    9.017E+00    8.983E+00    8.949E+00    8.916E+00    8.883E+00    8.850E+00
     8.817E+00    8.785E+00    8.753E+00    8.721E+00    8.689E+00    8.658E+00    8.627E+00    8.596E+00    8.565E+00    8.535E+00
     8.505E+00    8.475E+00    8.446E+00    8.416E+00    8.387E+00    8.359E+00    8.330E+00    8.302E+00    8.274E+00    8.246E+00
     8.219E+00    8.191E+00    8.164E+00    8.138E+00    8.111E+00    8.085E+00    8.059E+00    8.033E+00    8.008E+00    7.982E+00
     7.957E+00    7.932E+00    7.907E+00    7.883E+00    7.858E+00    7.834E+00    7.810E+00    7.786E+00    7.762E+00    7.738E+00
     7.715E+00    7.691E+00    7.668E+00    7.645E+00    7.622E+00    7.599E+00    7.576E+00    7.553E+00    7.530E+00    7.507E+00
     7.485E+00    7.462E+00    7.439E+00    7.417E+00    7.394E+00    7.372E+00    7.350E+00    7.327E+00    7.305E+00    7.282E+00
     7.260E+00    7.237E+00    7.215E+00    7.192E+00    7.170E+00    7.147E+00    7.124E+00    7.101E+00    7.079E+00    7.056E+00
     7.033E+00    7.010E+00    6.987E+00    6.963E+00    6.940E+00    6.917E+00    6.893E+00    6.870E+00    6.846E+00    6.823E+00
     6.799E+00    6.775E+00    6.751E+00    6.727E+00    6.703E+00    6.678E+00    6.654E+00    6.630E+00    6.605E+00    6.580E+00
     6.556E+00    6.531E+00    6.506E+00    6.481E+00    6.455E+00    6.430E+00    6.405E+00    6.379E+00    6.353E+00    6.327E+00
     6.301E+00    6.275E+00    6.249E+00    6.223E+00    6.196E+00    6.170E+00    6.143E+00    6.116E+00    6.089E+00    6.062E+00
     6.035E+00    6.007E+00    5.979E+00    5.952E+00    5.924E+00    5.896E+00    5.868E+00    5.839E+00    5.811E+00    5.782E+00
     5.754E+00    5.725E+00    5.696E+00    5.667E+00    5.638E+00    5.609E+00    5.579E+00    5.550E+00    5.520E+00    5.491E+00
     5.461E+00    5.432E+00    5.402E+00    5.372E+00    5.342E+00    5.312E+00    5.282E+00    5.252E+00    5.222E+00    5.192E+00
     5.162E+00    5.132E+00    5.102E+00    5.071E+00    5.041E+00    5.011E+00    4.981E+00    4.950E+00    4.920E+00    4.890E+00
     4.860E+00    4.830E+00    4.799E+00    4.769E+00    4.739E+00    4.709E+00    4.679E+00    4.649E+00
 Asp      Conc. = 6.76E+00
