 LCModel (Version 6.3-1L) Copyright: S.W. Provencher.          Ref.: Magn. Reson. Med. 30:672-679 (1993).                
 Slice#3 Row#10 Col#9  PD_05_press_1_raw_act
 36 lines in following concentration table = NCONC+1
    Conc.  %SD /Cr+PCr  Metabolite                                         
    0.000 999%   0.000 Ala                                                 
    0.000 999%   0.000 Asp                                                 
  100.989 169% 8.0E-02 Cr                                                  
 1.16E+03  15%   0.920 PCr                                                 
    3.672 999% 2.9E-03 GABA                                                
    0.000 999%   0.000 Glc                                                 
  696.170  25%   0.552 Gln                                                 
 1.03E+03  20%   0.816 Glu                                                 
  368.112   4%   0.292 GPC                                                 
    0.000 999%   0.000 PCh                                                 
  351.588  14%   0.279 GSH                                                 
  407.858  42%   0.323 Ins                                                 
  121.068  76% 9.6E-02 Lac                                                 
 1.69E+03   5%   1.340 NAA                                                 
   15.428 601% 1.2E-02 NAAG                                                
   31.050  58% 2.5E-02 Scyllo                                              
    0.000 999%   0.000 Tau                                                 
    0.000 999%   0.000 -CrCH2                                              
  368.112   4%   0.292 GPC+PCh                                             
 1.71E+03   3%   1.352 NAA+NAAG                                            
 1.26E+03   3%   1.000 Cr+PCr                                              
 1.73E+03  18%   1.368 Glu+Gln                                             
  468.826  69%   0.372 Lip13a                                              
   78.036 196% 6.2E-02 Lip13b                                              
    0.000 999%   0.000 Lip09                                               
  778.629  17%   0.617 MM09                                                
  125.240  71% 9.9E-02 Lip20                                               
 2.12E+03  12%   1.681 MM20                                                
  282.673  34%   0.224 MM12                                                
  121.806 148% 9.7E-02 MM14                                                
  397.227  35%   0.315 MM17                                                
  546.862  41%   0.433 Lip13a+Lip13b                                       
  951.341  29%   0.754 MM14+Lip13a+Lip13b+MM12                             
  778.629  17%   0.617 MM09+Lip09                                          
 2.25E+03  11%   1.780 MM20+Lip20                                          
   6 lines in following misc. output table
  FWHM = 0.069 ppm    S/N =  13                                            
  Data shift = 0.046 ppm                                                   
  Ph: -10 deg      -8.4 deg/ppm                                            
  alphaB,S = 7.5E-01,   3.6E+02                                            
   14 spline knots.   Ns = 8(1)                                            
  (16) 4 infls.   ( 9) 1 extrs.                                            
  498 points on ppm-axis = NY
      4.000000     3.992357     3.984714     3.977070     3.969427     3.961784     3.954141     3.946497     3.938854     3.931211
      3.923568     3.915925     3.908281     3.900638     3.892995     3.885352     3.877708     3.870065     3.862422     3.854779
      3.847136     3.839492     3.831849     3.824206     3.816563     3.808919     3.801276     3.793633     3.785990     3.778347
      3.770703     3.763060     3.755417     3.747774     3.740130     3.732487     3.724844     3.717201     3.709558     3.701914
      3.694271     3.686628     3.678985     3.671341     3.663698     3.656055     3.648412     3.640769     3.633125     3.625482
      3.617839     3.610196     3.602552     3.594909     3.587266     3.579623     3.571980     3.564336     3.556693     3.549050
      3.541407     3.533763     3.526120     3.518477     3.510834     3.503191     3.495547     3.487904     3.480261     3.472618
      3.464974     3.457331     3.449688     3.442045     3.434402     3.426758     3.419115     3.411472     3.403829     3.396185
      3.388542     3.380899     3.373256     3.365613     3.357969     3.350326     3.342683     3.335040     3.327396     3.319753
      3.312110     3.304467     3.296824     3.289180     3.281537     3.273894     3.266251     3.258607     3.250964     3.243321
      3.235678     3.228034     3.220391     3.212748     3.205105     3.197462     3.189818     3.182175     3.174532     3.166889
      3.159245     3.151602     3.143959     3.136316     3.128673     3.121029     3.113386     3.105743     3.098100     3.090456
      3.082813     3.075170     3.067527     3.059884     3.052240     3.044597     3.036954     3.029311     3.021667     3.014024
      3.006381     2.998738     2.991095     2.983451     2.975808     2.968165     2.960522     2.952878     2.945235     2.937592
      2.929949     2.922306     2.914662     2.907019     2.899376     2.891733     2.884089     2.876446     2.868803     2.861160
      2.853517     2.845873     2.838230     2.830587     2.822944     2.815300     2.807657     2.800014     2.792371     2.784728
      2.777084     2.769441     2.761798     2.754155     2.746511     2.738868     2.731225     2.723582     2.715939     2.708295
      2.700652     2.693009     2.685366     2.677722     2.670079     2.662436     2.654793     2.647150     2.639506     2.631863
      2.624220     2.616577     2.608933     2.601290     2.593647     2.586004     2.578361     2.570717     2.563074     2.555431
      2.547788     2.540144     2.532501     2.524858     2.517215     2.509572     2.501928     2.494285     2.486642     2.478999
      2.471355     2.463712     2.456069     2.448426     2.440783     2.433139     2.425496     2.417853     2.410210     2.402566
      2.394923     2.387280     2.379637     2.371994     2.364350     2.356707     2.349064     2.341421     2.333777     2.326134
      2.318491     2.310848     2.303205     2.295561     2.287918     2.280275     2.272632     2.264988     2.257345     2.249702
      2.242059     2.234416     2.226772     2.219129     2.211486     2.203843     2.196199     2.188556     2.180913     2.173270
      2.165627     2.157983     2.150340     2.142697     2.135054     2.127410     2.119767     2.112124     2.104481     2.096838
      2.089194     2.081551     2.073908     2.066265     2.058621     2.050978     2.043335     2.035692     2.028049     2.020405
      2.012762     2.005119     1.997476     1.989833     1.982190     1.974546     1.966903     1.959260     1.951617     1.943974
      1.936331     1.928688     1.921045     1.913402     1.905759     1.898115     1.890472     1.882829     1.875186     1.867543
      1.859900     1.852257     1.844614     1.836971     1.829327     1.821684     1.814041     1.806398     1.798755     1.791112
      1.783469     1.775826     1.768183     1.760540     1.752896     1.745253     1.737610     1.729967     1.722324     1.714681
      1.707038     1.699395     1.691752     1.684108     1.676465     1.668822     1.661179     1.653536     1.645893     1.638250
      1.630607     1.622964     1.615321     1.607677     1.600034     1.592391     1.584748     1.577105     1.569462     1.561819
      1.554176     1.546533     1.538890     1.531246     1.523603     1.515960     1.508317     1.500674     1.493031     1.485388
      1.477745     1.470102     1.462458     1.454815     1.447172     1.439529     1.431886     1.424243     1.416600     1.408957
      1.401314     1.393671     1.386027     1.378384     1.370741     1.363098     1.355455     1.347812     1.340169     1.332526
      1.324883     1.317240     1.309596     1.301953     1.294310     1.286667     1.279024     1.271381     1.263738     1.256095
      1.248452     1.240808     1.233165     1.225522     1.217879     1.210236     1.202593     1.194950     1.187307     1.179664
      1.172021     1.164377     1.156734     1.149091     1.141448     1.133805     1.126162     1.118519     1.110876     1.103233
      1.095590     1.087946     1.080303     1.072660     1.065017     1.057374     1.049731     1.042088     1.034445     1.026802
      1.019158     1.011515     1.003872     0.996229     0.988586     0.980943     0.973300     0.965657     0.958014     0.950371
      0.942727     0.935084     0.927441     0.919798     0.912155     0.904512     0.896869     0.889226     0.881583     0.873940
      0.866296     0.858653     0.851010     0.843367     0.835724     0.828081     0.820438     0.812795     0.805152     0.797508
      0.789865     0.782222     0.774579     0.766936     0.759293     0.751650     0.744007     0.736364     0.728721     0.721077
      0.713434     0.705791     0.698148     0.690505     0.682862     0.675219     0.667576     0.659933     0.652290     0.644646
      0.637003     0.629360     0.621717     0.614074     0.606431     0.598788     0.591145     0.583502     0.575858     0.568215
      0.560572     0.552929     0.545286     0.537643     0.530000     0.522357     0.514714     0.507071     0.499427     0.491784
      0.484141     0.476498     0.468855     0.461212     0.453569     0.445925     0.438282     0.430639     0.422996     0.415353
      0.407710     0.400067     0.392424     0.384780     0.377137     0.369494     0.361851     0.354208     0.346565     0.338922
      0.331278     0.323635     0.315992     0.308349     0.300706     0.293063     0.285420     0.277777     0.270133     0.262490
      0.254847     0.247204     0.239561     0.231918     0.224275     0.216631     0.208988     0.201345
 NY phased data points follow
   2.32163E+01  2.36243E+01  2.35102E+01  2.59142E+01  2.60926E+01  2.81981E+01  3.33404E+01  3.91271E+01  4.15125E+01  4.20475E+01
   4.84433E+01  4.64445E+01  4.50378E+01  3.78300E+01  3.73709E+01  3.26391E+01  3.14087E+01  2.84640E+01  2.66952E+01  2.18290E+01
   2.08248E+01  1.87139E+01  2.07570E+01  2.08565E+01  2.17497E+01  2.11225E+01  2.17250E+01  2.16802E+01  2.04216E+01  2.20951E+01
   2.48479E+01  2.40344E+01  2.42305E+01  2.41991E+01  2.28517E+01  2.35405E+01  2.13128E+01  1.99972E+01  1.99557E+01  1.91484E+01
   1.84460E+01  1.69585E+01  1.84903E+01  1.69635E+01  1.76070E+01  2.23215E+01  2.34682E+01  2.24235E+01  2.21963E+01  2.01639E+01
   2.02247E+01  1.92956E+01  1.74604E+01  1.81731E+01  1.63630E+01  1.53458E+01  1.71770E+01  1.80231E+01  1.66873E+01  1.46537E+01
   1.33552E+01  1.13486E+01  1.01371E+01  1.05244E+01  1.02811E+01  7.38082E+00  7.16333E+00  8.72821E+00  7.62067E+00  6.26320E+00
   6.37161E+00  6.46211E+00  6.94415E+00  5.59577E+00  6.33473E+00  8.90199E+00  8.29620E+00  9.48073E+00  8.02998E+00  5.83466E+00
   9.70795E+00  8.80237E+00  8.25670E+00  9.18505E+00  8.94485E+00  8.13144E+00  8.46463E+00  8.40257E+00  9.52757E+00  8.74677E+00
   1.26279E+01  9.29930E+00  1.15352E+01  1.00184E+01  9.30646E+00  9.08605E+00  1.14807E+01  1.11303E+01  1.37327E+01  2.00141E+01
   2.79022E+01  3.16059E+01  3.65239E+01  3.49108E+01  3.51754E+01  3.20516E+01  2.74676E+01  2.69646E+01  2.27385E+01  1.97132E+01
   1.86449E+01  1.37602E+01  9.73676E+00  9.10498E+00  8.07041E+00  9.79737E+00  1.19181E+01  9.65465E+00  1.16577E+01  9.36952E+00
   9.54488E+00  8.93921E+00  1.18251E+01  1.86730E+01  2.79459E+01  3.33815E+01  3.98505E+01  4.28139E+01  4.04796E+01  3.87280E+01
   3.57102E+01  3.08600E+01  2.68653E+01  2.21691E+01  2.03140E+01  1.47989E+01  1.19922E+01  9.68956E+00  1.18190E+01  7.63442E+00
   5.82232E+00  7.43568E+00  7.24977E+00  6.92334E+00  7.90666E+00  8.16260E+00  7.43992E+00  8.76140E+00  7.08194E+00  5.82114E+00
   7.87077E+00  4.73142E+00  6.80604E+00  6.04657E+00  4.93711E+00  6.12787E+00  5.24906E+00  5.14246E+00  2.29433E+00  3.28027E+00
   2.69039E+00  1.95668E+00  1.67409E+00  3.28939E+00  5.14300E+00  3.12530E+00  2.49581E+00  2.33583E+00  1.52130E+00  1.70695E+00
   1.56390E+00  6.00068E-01  8.84185E-01 -1.24945E+00 -3.90860E+00 -3.18931E+00 -1.26200E+00 -1.86970E+00 -2.48543E+00 -3.69088E+00
  -4.42697E+00 -2.15307E+00 -3.29258E+00 -4.94307E+00 -3.05774E+00 -4.80311E+00 -3.34483E+00  1.83094E+00  2.04593E+00  5.19566E+00
   6.48809E+00  8.26589E+00  7.72786E+00  1.07498E+01  9.92490E+00  9.09312E+00  7.38939E+00  6.17185E+00  5.51076E+00  4.59333E+00
   7.70698E+00  5.27084E+00  5.24675E+00  6.09841E+00  8.05713E+00  2.05047E+00  2.49530E+00  1.91365E+00  2.57636E+00  9.39790E-01
   1.56393E+00  6.65353E-01  5.51840E+00  7.40955E+00  8.00861E+00  7.71991E+00  1.23862E+01  9.42849E+00  8.18248E+00  7.79161E+00
   5.36108E+00  3.91046E+00  6.14190E+00  4.45253E+00  5.18187E+00  9.04545E+00  9.42890E+00  8.27900E+00  1.16636E+01  8.30339E+00
   9.56680E+00  9.52109E+00  8.40816E+00  9.82773E+00  1.03267E+01  1.02172E+01  1.11814E+01  1.15661E+01  1.04978E+01  8.16854E+00
   9.67196E+00  5.42975E+00  6.67890E+00  8.67790E+00  1.06077E+01  9.52253E+00  1.06728E+01  1.34581E+01  1.38030E+01  1.53853E+01
   1.59845E+01  1.62859E+01  1.53279E+01  1.80376E+01  2.00110E+01  2.46835E+01  3.24005E+01  4.08664E+01  4.97157E+01  5.88872E+01
   5.89570E+01  5.92578E+01  5.28451E+01  4.51890E+01  3.83682E+01  3.43859E+01  2.93652E+01  2.39538E+01  1.93573E+01  1.49970E+01
   1.05925E+01  1.14461E+01  1.01091E+01  9.41615E+00  8.16068E+00  8.83850E+00  8.08480E+00  1.14667E+01  8.57691E+00  8.09296E+00
   6.96023E+00  6.83799E+00  5.76807E+00  6.83364E+00  6.72163E+00  6.12293E+00  5.61714E+00  5.89472E+00  7.34147E+00  5.10758E+00
   4.11661E+00  5.54900E+00  5.41293E+00  5.35250E+00  8.21976E+00  7.15230E+00  6.04499E+00  4.73727E+00  5.77529E+00  5.81914E+00
   5.92505E+00  5.76777E+00  6.54615E+00  6.00943E+00  8.23055E+00  6.80622E+00  8.43424E+00  9.35408E+00  6.61190E+00  5.73955E+00
   6.66004E+00  6.32461E+00  8.90615E+00  7.74441E+00  8.10909E+00  7.96620E+00  7.21121E+00  5.44540E+00  6.19929E+00  5.32780E+00
   5.24130E+00  5.39297E+00  4.79518E+00  6.93531E+00  4.01939E+00  4.35267E+00  4.39655E+00  6.99849E+00  5.53905E+00  5.92727E+00
   6.65851E+00  6.48652E+00  5.09935E+00  4.09214E+00  7.58724E+00  7.27503E+00  5.64953E+00  8.06289E+00  6.06755E+00  4.13739E+00
   4.65827E+00  7.97804E+00  6.73834E+00  6.79376E+00  7.62338E+00  7.10149E+00  5.42972E+00  7.44686E+00  5.68645E+00  6.91791E+00
   5.64618E+00  4.71797E+00  8.73650E+00  8.59802E+00  8.37981E+00  8.85955E+00  9.23774E+00  7.33670E+00  9.13337E+00  8.23274E+00
   1.02546E+01  8.10723E+00  1.06050E+01  8.69964E+00  6.96109E+00  9.04187E+00  8.28780E+00  7.85890E+00  9.45131E+00  5.19838E+00
   6.39077E+00  8.39446E+00  6.07951E+00  8.92354E+00  4.03288E+00  7.25832E+00  7.28507E+00  6.92539E+00  5.47391E+00  7.81016E+00
   6.64048E+00  6.23176E+00  5.31183E+00  4.51496E+00  5.45822E+00  7.02962E+00  3.85052E+00  5.39050E+00  7.56199E+00  7.24763E+00
   6.26020E+00  7.13955E+00  4.94221E+00  7.69132E+00  7.47076E+00  5.86148E+00  8.15749E+00  6.30995E+00  6.80902E+00  8.54959E+00
   9.80850E+00  6.55047E+00  5.59200E+00  8.56611E+00  8.02467E+00  6.57598E+00  7.02817E+00  7.78657E+00  9.29270E+00  1.03877E+01
   9.22645E+00  1.00154E+01  8.39970E+00  7.08158E+00  8.66467E+00  8.65001E+00  6.70749E+00  9.42893E+00  7.56809E+00  5.60972E+00
   6.57403E+00  6.19207E+00  3.64625E+00  4.77122E+00  4.52789E+00  6.00207E+00  4.60068E+00  5.71923E+00  4.45717E+00  4.01782E+00
   4.74801E+00  1.98926E+00  6.08750E+00  4.97423E+00  3.51349E+00  5.39244E+00  3.19385E+00  6.61470E+00  6.02346E+00  3.85254E+00
   4.18570E+00  3.87877E+00  3.92538E+00  4.38694E+00  2.43090E+00  3.73261E+00  4.25657E+00  5.34325E+00  3.75054E+00  4.46288E+00
   4.02958E+00  4.63160E+00  3.79131E+00  2.31425E+00  4.17251E+00  4.22219E+00  3.60473E+00  3.92554E+00  5.05649E+00  4.92006E+00
   4.16669E+00  3.58782E+00  1.75912E+00  5.02754E+00  4.09635E+00  1.55910E+00  2.94008E+00  1.48318E+00  3.84462E+00  3.50167E+00
   2.21267E+00  2.92628E+00  2.55465E+00  1.73238E+00  5.15641E+00  3.72318E+00  3.45320E+00  3.89177E+00  3.75269E+00  3.69642E+00
   2.67734E+00  3.19785E+00  1.48303E+00  4.19967E+00  4.46813E+00  4.76109E+00  4.35327E+00  4.47457E+00  3.34241E+00  2.89898E+00
   4.17014E+00  4.66659E+00  4.21571E+00  4.14043E+00  3.07678E+00  2.98126E+00  4.04654E+00  3.70067E+00
 NY points of the fit to the data follow
   2.17202E+01  2.17097E+01  2.22596E+01  2.36071E+01  2.58937E+01  2.92144E+01  3.33593E+01  3.77090E+01  4.14529E+01  4.38855E+01
   4.46356E+01  4.37610E+01  4.16834E+01  3.89844E+01  3.61413E+01  3.33698E+01  3.06666E+01  2.79637E+01  2.53504E+01  2.32001E+01
   2.18891E+01  2.10650E+01  2.03607E+01  1.97966E+01  1.94679E+01  1.95527E+01  2.02245E+01  2.14795E+01  2.30595E+01  2.45656E+01
   2.56185E+01  2.59552E+01  2.55374E+01  2.45442E+01  2.32605E+01  2.19463E+01  2.07703E+01  1.97627E+01  1.88469E+01  1.80576E+01
   1.75716E+01  1.75183E+01  1.77296E+01  1.80864E+01  1.85111E+01  1.88754E+01  1.90221E+01  1.88920E+01  1.85273E+01  1.79812E+01
   1.73483E+01  1.66965E+01  1.60731E+01  1.55219E+01  1.50420E+01  1.46093E+01  1.42596E+01  1.40288E+01  1.38627E+01  1.36754E+01
   1.34323E+01  1.31372E+01  1.28035E+01  1.24623E+01  1.21512E+01  1.18979E+01  1.17072E+01  1.15619E+01  1.14436E+01  1.13472E+01
   1.12656E+01  1.11815E+01  1.10818E+01  1.09530E+01  1.07952E+01  1.06159E+01  1.04260E+01  1.02398E+01  1.00762E+01  9.95363E+00
   9.87453E+00  9.84580E+00  9.86715E+00  9.89789E+00  9.88426E+00  9.78806E+00  9.60153E+00  9.34737E+00  9.07001E+00  8.81763E+00
   8.61879E+00  8.47522E+00  8.36878E+00  8.28721E+00  8.29299E+00  8.73466E+00  1.00539E+01  1.24637E+01  1.61508E+01  2.10280E+01
   2.64785E+01  3.15005E+01  3.50861E+01  3.65835E+01  3.59038E+01  3.34833E+01  3.00711E+01  2.63787E+01  2.27934E+01  1.93652E+01
   1.59980E+01  1.27241E+01  9.93143E+00  8.27657E+00  7.71621E+00  7.50764E+00  7.40917E+00  7.38292E+00  7.46657E+00  7.89632E+00
   9.19656E+00  1.16550E+01  1.55270E+01  2.08949E+01  2.72702E+01  3.36122E+01  3.87197E+01  4.16517E+01  4.20380E+01  4.01505E+01
   3.67091E+01  3.25329E+01  2.81937E+01  2.38707E+01  1.95276E+01  1.52006E+01  1.12708E+01  8.51808E+00  7.42415E+00  7.18071E+00
   7.16649E+00  7.18475E+00  7.16058E+00  7.09410E+00  7.02013E+00  6.93231E+00  6.79196E+00  6.59038E+00  6.32804E+00  6.01824E+00
   5.70336E+00  5.41733E+00  5.19148E+00  5.01256E+00  4.84405E+00  4.66128E+00  4.44243E+00  4.19405E+00  3.94309E+00  3.73241E+00
   3.60659E+00  3.56974E+00  3.58218E+00  3.57968E+00  3.50167E+00  3.32016E+00  3.05417E+00  2.75375E+00  2.45601E+00  2.16699E+00
   1.86843E+00  1.51231E+00  1.11726E+00  7.54980E-01  4.98091E-01  3.91933E-01  3.86320E-01  4.10935E-01  4.31432E-01  4.22764E-01
   3.84653E-01  3.44566E-01  3.35067E-01  4.04170E-01  6.02445E-01  9.54800E-01  1.45847E+00  2.10656E+00  2.87331E+00  3.63792E+00
   4.23118E+00  4.53510E+00  4.57795E+00  4.46935E+00  4.31195E+00  4.20287E+00  4.23322E+00  4.45503E+00  4.90423E+00  5.56222E+00
   6.29796E+00  6.92448E+00  7.24716E+00  7.13731E+00  6.55164E+00  5.56672E+00  4.39922E+00  3.31953E+00  2.53793E+00  2.23676E+00
   2.52967E+00  3.38503E+00  4.61943E+00  5.97604E+00  7.19806E+00  7.99862E+00  8.19785E+00  7.76530E+00  6.79214E+00  5.53523E+00
   4.37990E+00  3.67025E+00  3.49464E+00  3.77165E+00  4.39244E+00  5.23916E+00  6.18263E+00  7.02279E+00  7.61541E+00  8.00656E+00
   8.28703E+00  8.53201E+00  8.78227E+00  9.10281E+00  9.57759E+00  1.01757E+01  1.07108E+01  1.10030E+01  1.09711E+01  1.06478E+01
   1.01757E+01  9.73709E+00  9.48840E+00  9.52358E+00  9.81190E+00  1.02320E+01  1.07205E+01  1.12675E+01  1.18726E+01  1.25373E+01
   1.32381E+01  1.40044E+01  1.52299E+01  1.75608E+01  2.13062E+01  2.68609E+01  3.42491E+01  4.26166E+01  5.04378E+01  5.61212E+01
   5.85555E+01  5.74781E+01  5.34954E+01  4.77880E+01  4.15460E+01  3.54740E+01  2.97045E+01  2.40713E+01  1.85456E+01  1.36862E+01
   1.05815E+01  9.39416E+00  8.86301E+00  8.51875E+00  8.26282E+00  8.04138E+00  7.81551E+00  7.59115E+00  7.37324E+00  7.16514E+00
   6.96953E+00  6.78609E+00  6.61264E+00  6.45595E+00  6.32546E+00  6.22197E+00  6.14146E+00  6.08204E+00  6.04353E+00  6.02507E+00
   6.02364E+00  6.03585E+00  6.06276E+00  6.10478E+00  6.16074E+00  6.22902E+00  6.30797E+00  6.39547E+00  6.48875E+00  6.58467E+00
   6.68030E+00  6.77230E+00  6.85719E+00  6.93164E+00  6.99267E+00  7.03782E+00  7.06516E+00  7.07355E+00  7.06255E+00  7.03237E+00
   6.98388E+00  6.91858E+00  6.83859E+00  6.74668E+00  6.64595E+00  6.53943E+00  6.43012E+00  6.32094E+00  6.21464E+00  6.11376E+00
   6.02040E+00  5.93624E+00  5.86247E+00  5.79994E+00  5.74913E+00  5.71023E+00  5.68314E+00  5.66752E+00  5.66291E+00  5.66887E+00
   5.68499E+00  5.71097E+00  5.74664E+00  5.79206E+00  5.84771E+00  5.91465E+00  5.99491E+00  6.09227E+00  6.21495E+00  6.37860E+00
   6.58334E+00  6.81651E+00  7.06065E+00  7.27658E+00  7.41187E+00  7.42509E+00  7.30706E+00  7.10375E+00  6.88754E+00  6.73800E+00
   6.72901E+00  6.89543E+00  7.21550E+00  7.62552E+00  8.04940E+00  8.42819E+00  8.73414E+00  8.95657E+00  9.06314E+00  9.04854E+00
   8.94725E+00  8.78034E+00  8.55433E+00  8.27640E+00  7.97675E+00  7.71327E+00  7.49479E+00  7.30206E+00  7.12643E+00  6.96368E+00
   6.81133E+00  6.66796E+00  6.53299E+00  6.40646E+00  6.28891E+00  6.18119E+00  6.08430E+00  5.99928E+00  5.92721E+00  5.86913E+00
   5.82603E+00  5.79883E+00  5.78834E+00  5.79529E+00  5.82032E+00  5.86403E+00  5.92687E+00  6.00915E+00  6.11094E+00  6.23207E+00
   6.37208E+00  6.53014E+00  6.70496E+00  6.89473E+00  7.09707E+00  7.30903E+00  7.52710E+00  7.74727E+00  7.96499E+00  8.17536E+00
   8.37328E+00  8.55360E+00  8.71134E+00  8.84189E+00  8.94118E+00  9.00590E+00  9.03363E+00  9.02304E+00  8.97387E+00  8.88699E+00
   8.76428E+00  8.60862E+00  8.42371E+00  8.21389E+00  7.98397E+00  7.73893E+00  7.48377E+00  7.22333E+00  6.96211E+00  6.70416E+00
   6.45296E+00  6.21137E+00  5.98159E+00  5.76526E+00  5.56343E+00  5.37665E+00  5.20501E+00  5.04824E+00  4.90579E+00  4.77689E+00
   4.66068E+00  4.55619E+00  4.46240E+00  4.37829E+00  4.30289E+00  4.23528E+00  4.17464E+00  4.12018E+00  4.07120E+00  4.02704E+00
   3.98717E+00  3.95108E+00  3.91838E+00  3.88866E+00  3.86158E+00  3.83685E+00  3.81421E+00  3.79348E+00  3.77444E+00  3.75693E+00
   3.74078E+00  3.72586E+00  3.71207E+00  3.69931E+00  3.68751E+00  3.67656E+00  3.66638E+00  3.65692E+00  3.64813E+00  3.63998E+00
   3.63239E+00  3.62533E+00  3.61876E+00  3.61264E+00  3.60696E+00  3.60169E+00  3.59680E+00  3.59224E+00  3.58801E+00  3.58409E+00
   3.58048E+00  3.57716E+00  3.57409E+00  3.57126E+00  3.56867E+00  3.56632E+00  3.56419E+00  3.56227E+00  3.56053E+00  3.55898E+00
   3.55762E+00  3.55644E+00  3.55543E+00  3.55459E+00  3.55390E+00  3.55335E+00  3.55297E+00  3.55275E+00  3.55268E+00  3.55274E+00
   3.55295E+00  3.55329E+00  3.55380E+00  3.55446E+00  3.55527E+00  3.55623E+00  3.55735E+00  3.55864E+00
 NY background values follow
     2.038E+01    2.023E+01    2.007E+01    1.992E+01    1.976E+01    1.961E+01    1.945E+01    1.929E+01    1.914E+01    1.898E+01
     1.883E+01    1.867E+01    1.852E+01    1.836E+01    1.820E+01    1.805E+01    1.789E+01    1.774E+01    1.758E+01    1.743E+01
     1.727E+01    1.712E+01    1.696E+01    1.681E+01    1.666E+01    1.650E+01    1.635E+01    1.620E+01    1.604E+01    1.589E+01
     1.574E+01    1.559E+01    1.544E+01    1.529E+01    1.514E+01    1.499E+01    1.484E+01    1.469E+01    1.454E+01    1.439E+01
     1.424E+01    1.409E+01    1.395E+01    1.380E+01    1.366E+01    1.351E+01    1.337E+01    1.322E+01    1.308E+01    1.294E+01
     1.280E+01    1.266E+01    1.252E+01    1.238E+01    1.224E+01    1.210E+01    1.196E+01    1.183E+01    1.169E+01    1.155E+01
     1.142E+01    1.129E+01    1.115E+01    1.102E+01    1.089E+01    1.076E+01    1.063E+01    1.051E+01    1.038E+01    1.025E+01
     1.013E+01    1.000E+01    9.881E+00    9.759E+00    9.639E+00    9.519E+00    9.400E+00    9.283E+00    9.166E+00    9.051E+00
     8.937E+00    8.824E+00    8.712E+00    8.602E+00    8.492E+00    8.384E+00    8.277E+00    8.172E+00    8.068E+00    7.965E+00
     7.863E+00    7.763E+00    7.664E+00    7.566E+00    7.470E+00    7.374E+00    7.281E+00    7.188E+00    7.097E+00    7.007E+00
     6.918E+00    6.831E+00    6.745E+00    6.660E+00    6.576E+00    6.493E+00    6.412E+00    6.332E+00    6.253E+00    6.175E+00
     6.098E+00    6.022E+00    5.948E+00    5.875E+00    5.803E+00    5.732E+00    5.662E+00    5.593E+00    5.525E+00    5.458E+00
     5.393E+00    5.328E+00    5.264E+00    5.202E+00    5.140E+00    5.080E+00    5.020E+00    4.962E+00    4.904E+00    4.848E+00
     4.792E+00    4.737E+00    4.684E+00    4.631E+00    4.579E+00    4.528E+00    4.478E+00    4.429E+00    4.381E+00    4.333E+00
     4.287E+00    4.241E+00    4.197E+00    4.153E+00    4.110E+00    4.068E+00    4.027E+00    3.987E+00    3.948E+00    3.910E+00
     3.873E+00    3.836E+00    3.801E+00    3.767E+00    3.733E+00    3.700E+00    3.669E+00    3.638E+00    3.608E+00    3.579E+00
     3.551E+00    3.525E+00    3.499E+00    3.473E+00    3.449E+00    3.426E+00    3.404E+00    3.383E+00    3.363E+00    3.343E+00
     3.325E+00    3.308E+00    3.291E+00    3.276E+00    3.262E+00    3.248E+00    3.236E+00    3.224E+00    3.214E+00    3.204E+00
     3.196E+00    3.188E+00    3.182E+00    3.176E+00    3.172E+00    3.168E+00    3.165E+00    3.163E+00    3.162E+00    3.162E+00
     3.162E+00    3.163E+00    3.165E+00    3.168E+00    3.171E+00    3.175E+00    3.180E+00    3.185E+00    3.191E+00    3.197E+00
     3.204E+00    3.211E+00    3.219E+00    3.227E+00    3.236E+00    3.245E+00    3.255E+00    3.265E+00    3.275E+00    3.285E+00
     3.296E+00    3.307E+00    3.318E+00    3.329E+00    3.341E+00    3.353E+00    3.364E+00    3.376E+00    3.388E+00    3.400E+00
     3.412E+00    3.424E+00    3.436E+00    3.448E+00    3.460E+00    3.472E+00    3.483E+00    3.495E+00    3.506E+00    3.517E+00
     3.528E+00    3.539E+00    3.549E+00    3.560E+00    3.570E+00    3.580E+00    3.590E+00    3.600E+00    3.610E+00    3.619E+00
     3.628E+00    3.637E+00    3.646E+00    3.655E+00    3.664E+00    3.672E+00    3.680E+00    3.688E+00    3.696E+00    3.704E+00
     3.711E+00    3.719E+00    3.726E+00    3.733E+00    3.740E+00    3.746E+00    3.753E+00    3.759E+00    3.765E+00    3.771E+00
     3.777E+00    3.783E+00    3.788E+00    3.793E+00    3.798E+00    3.803E+00    3.808E+00    3.812E+00    3.816E+00    3.821E+00
     3.824E+00    3.828E+00    3.832E+00    3.835E+00    3.838E+00    3.841E+00    3.844E+00    3.847E+00    3.849E+00    3.851E+00
     3.853E+00    3.855E+00    3.857E+00    3.859E+00    3.860E+00    3.862E+00    3.863E+00    3.864E+00    3.865E+00    3.865E+00
     3.866E+00    3.866E+00    3.866E+00    3.867E+00    3.867E+00    3.866E+00    3.866E+00    3.866E+00    3.865E+00    3.865E+00
     3.864E+00    3.863E+00    3.862E+00    3.861E+00    3.860E+00    3.858E+00    3.857E+00    3.855E+00    3.854E+00    3.852E+00
     3.850E+00    3.848E+00    3.846E+00    3.844E+00    3.842E+00    3.839E+00    3.837E+00    3.835E+00    3.832E+00    3.829E+00
     3.827E+00    3.824E+00    3.821E+00    3.818E+00    3.815E+00    3.812E+00    3.809E+00    3.806E+00    3.803E+00    3.799E+00
     3.796E+00    3.792E+00    3.789E+00    3.785E+00    3.781E+00    3.778E+00    3.774E+00    3.770E+00    3.766E+00    3.762E+00
     3.758E+00    3.754E+00    3.750E+00    3.746E+00    3.741E+00    3.737E+00    3.733E+00    3.728E+00    3.724E+00    3.719E+00
     3.715E+00    3.710E+00    3.706E+00    3.701E+00    3.696E+00    3.691E+00    3.687E+00    3.682E+00    3.677E+00    3.672E+00
     3.667E+00    3.662E+00    3.657E+00    3.652E+00    3.646E+00    3.641E+00    3.636E+00    3.631E+00    3.626E+00    3.620E+00
     3.615E+00    3.610E+00    3.605E+00    3.599E+00    3.594E+00    3.589E+00    3.584E+00    3.578E+00    3.573E+00    3.568E+00
     3.563E+00    3.558E+00    3.553E+00    3.548E+00    3.543E+00    3.538E+00    3.533E+00    3.528E+00    3.524E+00    3.519E+00
     3.514E+00    3.510E+00    3.506E+00    3.501E+00    3.497E+00    3.493E+00    3.489E+00    3.485E+00    3.481E+00    3.477E+00
     3.473E+00    3.470E+00    3.466E+00    3.463E+00    3.460E+00    3.457E+00    3.454E+00    3.451E+00    3.448E+00    3.446E+00
     3.443E+00    3.441E+00    3.439E+00    3.437E+00    3.435E+00    3.433E+00    3.432E+00    3.430E+00    3.429E+00    3.427E+00
     3.426E+00    3.425E+00    3.424E+00    3.423E+00    3.422E+00    3.422E+00    3.421E+00    3.421E+00    3.420E+00    3.420E+00
     3.420E+00    3.420E+00    3.420E+00    3.420E+00    3.420E+00    3.420E+00    3.421E+00    3.421E+00    3.421E+00    3.422E+00
     3.422E+00    3.423E+00    3.424E+00    3.425E+00    3.425E+00    3.426E+00    3.427E+00    3.428E+00    3.429E+00    3.430E+00
     3.431E+00    3.433E+00    3.434E+00    3.435E+00    3.436E+00    3.438E+00    3.439E+00    3.440E+00    3.442E+00    3.443E+00
     3.445E+00    3.446E+00    3.448E+00    3.450E+00    3.451E+00    3.453E+00    3.455E+00    3.457E+00    3.458E+00    3.460E+00
     3.462E+00    3.464E+00    3.466E+00    3.468E+00    3.470E+00    3.472E+00    3.474E+00    3.476E+00    3.478E+00    3.480E+00
     3.482E+00    3.484E+00    3.486E+00    3.489E+00    3.491E+00    3.493E+00    3.495E+00    3.498E+00    3.500E+00    3.502E+00
     3.505E+00    3.507E+00    3.509E+00    3.512E+00    3.514E+00    3.517E+00    3.519E+00    3.522E+00
 Cr       Conc. = 1.01E+02
