 LCModel (Version 6.3-1L) Copyright: S.W. Provencher.          Ref.: Magn. Reson. Med. 30:672-679 (1993).                
 Slice#2 Row#5 Col#3  PD_05_press_1_raw_act
 36 lines in following concentration table = NCONC+1
    Conc.  %SD /Cr+PCr  Metabolite                                         
  140.125  55%   0.237 Ala                                                 
  205.585  53%   0.348 Asp                                                 
  554.602  23%   0.939 Cr                                                  
   35.899 359% 6.1E-02 PCr                                                 
  112.732  65%   0.191 GABA                                                
    0.000 999%   0.000 Glc                                                 
  134.565 127%   0.228 Gln                                                 
  513.324  38%   0.869 Glu                                                 
  181.806   7%   0.308 GPC                                                 
    0.000 999%   0.000 PCh                                                 
  346.886  15%   0.587 GSH                                                 
  975.668  21%   1.652 Ins                                                 
    0.000 999%   0.000 Lac                                                 
 1.15E+03   5%   1.939 NAA                                                 
   63.402 105%   0.107 NAAG                                                
   62.776  26%   0.106 Scyllo                                              
    0.000 999%   0.000 Tau                                                 
  151.134  47%   0.256 -CrCH2                                              
  181.806   7%   0.308 GPC+PCh                                             
 1.21E+03   4%   2.047 NAA+NAAG                                            
  590.501   6%   1.000 Cr+PCr                                              
  647.888  46%   1.097 Glu+Gln                                             
  501.737  35%   0.850 Lip13a                                              
    0.000 999%   0.000 Lip13b                                              
   49.434 169% 8.4E-02 Lip09                                               
  264.081  40%   0.447 MM09                                                
   87.585  64%   0.148 Lip20                                               
  518.772  32%   0.879 MM20                                                
   85.012  45%   0.144 MM12                                                
   60.559 178%   0.103 MM14                                                
   66.708 104%   0.113 MM17                                                
  501.737  35%   0.850 Lip13a+Lip13b                                       
  647.308  32%   1.096 MM14+Lip13a+Lip13b+MM12                             
  313.514  33%   0.531 MM09+Lip09                                          
  606.356  27%   1.027 MM20+Lip20                                          
   6 lines in following misc. output table
  FWHM = 0.061 ppm    S/N =   9                                            
  Data shift = 0.023 ppm                                                   
  Ph: -38 deg     -13.0 deg/ppm                                            
  alphaB,S = 6.0E-01,   5.1E+01                                            
   14 spline knots.   Ns = 8(1)                                            
  (13) 7 infls.   (13) 3 extrs.                                            
  498 points on ppm-axis = NY
      4.000000     3.992357     3.984714     3.977070     3.969427     3.961784     3.954141     3.946497     3.938854     3.931211
      3.923568     3.915925     3.908281     3.900638     3.892995     3.885352     3.877708     3.870065     3.862422     3.854779
      3.847136     3.839492     3.831849     3.824206     3.816563     3.808919     3.801276     3.793633     3.785990     3.778347
      3.770703     3.763060     3.755417     3.747774     3.740130     3.732487     3.724844     3.717201     3.709558     3.701914
      3.694271     3.686628     3.678985     3.671341     3.663698     3.656055     3.648412     3.640769     3.633125     3.625482
      3.617839     3.610196     3.602552     3.594909     3.587266     3.579623     3.571980     3.564336     3.556693     3.549050
      3.541407     3.533763     3.526120     3.518477     3.510834     3.503191     3.495547     3.487904     3.480261     3.472618
      3.464974     3.457331     3.449688     3.442045     3.434402     3.426758     3.419115     3.411472     3.403829     3.396185
      3.388542     3.380899     3.373256     3.365613     3.357969     3.350326     3.342683     3.335040     3.327396     3.319753
      3.312110     3.304467     3.296824     3.289180     3.281537     3.273894     3.266251     3.258607     3.250964     3.243321
      3.235678     3.228034     3.220391     3.212748     3.205105     3.197462     3.189818     3.182175     3.174532     3.166889
      3.159245     3.151602     3.143959     3.136316     3.128673     3.121029     3.113386     3.105743     3.098100     3.090456
      3.082813     3.075170     3.067527     3.059884     3.052240     3.044597     3.036954     3.029311     3.021667     3.014024
      3.006381     2.998738     2.991095     2.983451     2.975808     2.968165     2.960522     2.952878     2.945235     2.937592
      2.929949     2.922306     2.914662     2.907019     2.899376     2.891733     2.884089     2.876446     2.868803     2.861160
      2.853517     2.845873     2.838230     2.830587     2.822944     2.815300     2.807657     2.800014     2.792371     2.784728
      2.777084     2.769441     2.761798     2.754155     2.746511     2.738868     2.731225     2.723582     2.715939     2.708295
      2.700652     2.693009     2.685366     2.677722     2.670079     2.662436     2.654793     2.647150     2.639506     2.631863
      2.624220     2.616577     2.608933     2.601290     2.593647     2.586004     2.578361     2.570717     2.563074     2.555431
      2.547788     2.540144     2.532501     2.524858     2.517215     2.509572     2.501928     2.494285     2.486642     2.478999
      2.471355     2.463712     2.456069     2.448426     2.440783     2.433139     2.425496     2.417853     2.410210     2.402566
      2.394923     2.387280     2.379637     2.371994     2.364350     2.356707     2.349064     2.341421     2.333777     2.326134
      2.318491     2.310848     2.303205     2.295561     2.287918     2.280275     2.272632     2.264988     2.257345     2.249702
      2.242059     2.234416     2.226772     2.219129     2.211486     2.203843     2.196199     2.188556     2.180913     2.173270
      2.165627     2.157983     2.150340     2.142697     2.135054     2.127410     2.119767     2.112124     2.104481     2.096838
      2.089194     2.081551     2.073908     2.066265     2.058621     2.050978     2.043335     2.035692     2.028049     2.020405
      2.012762     2.005119     1.997476     1.989833     1.982190     1.974546     1.966903     1.959260     1.951617     1.943974
      1.936331     1.928688     1.921045     1.913402     1.905759     1.898115     1.890472     1.882829     1.875186     1.867543
      1.859900     1.852257     1.844614     1.836971     1.829327     1.821684     1.814041     1.806398     1.798755     1.791112
      1.783469     1.775826     1.768183     1.760540     1.752896     1.745253     1.737610     1.729967     1.722324     1.714681
      1.707038     1.699395     1.691752     1.684108     1.676465     1.668822     1.661179     1.653536     1.645893     1.638250
      1.630607     1.622964     1.615321     1.607677     1.600034     1.592391     1.584748     1.577105     1.569462     1.561819
      1.554176     1.546533     1.538890     1.531246     1.523603     1.515960     1.508317     1.500674     1.493031     1.485388
      1.477745     1.470102     1.462458     1.454815     1.447172     1.439529     1.431886     1.424243     1.416600     1.408957
      1.401314     1.393671     1.386027     1.378384     1.370741     1.363098     1.355455     1.347812     1.340169     1.332526
      1.324883     1.317240     1.309596     1.301953     1.294310     1.286667     1.279024     1.271381     1.263738     1.256095
      1.248452     1.240808     1.233165     1.225522     1.217879     1.210236     1.202593     1.194950     1.187307     1.179664
      1.172021     1.164377     1.156734     1.149091     1.141448     1.133805     1.126162     1.118519     1.110876     1.103233
      1.095590     1.087946     1.080303     1.072660     1.065017     1.057374     1.049731     1.042088     1.034445     1.026802
      1.019158     1.011515     1.003872     0.996229     0.988586     0.980943     0.973300     0.965657     0.958014     0.950371
      0.942727     0.935084     0.927441     0.919798     0.912155     0.904512     0.896869     0.889226     0.881583     0.873940
      0.866296     0.858653     0.851010     0.843367     0.835724     0.828081     0.820438     0.812795     0.805152     0.797508
      0.789865     0.782222     0.774579     0.766936     0.759293     0.751650     0.744007     0.736364     0.728721     0.721077
      0.713434     0.705791     0.698148     0.690505     0.682862     0.675219     0.667576     0.659933     0.652290     0.644646
      0.637003     0.629360     0.621717     0.614074     0.606431     0.598788     0.591145     0.583502     0.575858     0.568215
      0.560572     0.552929     0.545286     0.537643     0.530000     0.522357     0.514714     0.507071     0.499427     0.491784
      0.484141     0.476498     0.468855     0.461212     0.453569     0.445925     0.438282     0.430639     0.422996     0.415353
      0.407710     0.400067     0.392424     0.384780     0.377137     0.369494     0.361851     0.354208     0.346565     0.338922
      0.331278     0.323635     0.315992     0.308349     0.300706     0.293063     0.285420     0.277777     0.270133     0.262490
      0.254847     0.247204     0.239561     0.231918     0.224275     0.216631     0.208988     0.201345
 NY phased data points follow
  -7.17337E+01 -7.11657E+01 -7.21594E+01 -6.78053E+01 -6.79692E+01 -6.51008E+01 -6.06941E+01 -5.79695E+01 -5.73791E+01 -5.56787E+01
  -5.27924E+01 -5.48736E+01 -5.20413E+01 -5.38955E+01 -5.54065E+01 -5.36366E+01 -5.81713E+01 -5.84424E+01 -5.64525E+01 -5.32956E+01
  -5.35398E+01 -5.44695E+01 -5.43123E+01 -5.23403E+01 -5.37304E+01 -5.04506E+01 -5.19556E+01 -4.87257E+01 -4.68532E+01 -4.84391E+01
  -4.66050E+01 -4.65705E+01 -4.53111E+01 -4.69849E+01 -4.27490E+01 -4.78445E+01 -4.47153E+01 -4.69796E+01 -4.84510E+01 -4.37185E+01
  -4.42132E+01 -4.13365E+01 -4.26443E+01 -4.16234E+01 -3.88729E+01 -3.91762E+01 -3.99047E+01 -3.95335E+01 -3.98830E+01 -4.08768E+01
  -4.16342E+01 -3.93587E+01 -4.08826E+01 -4.09000E+01 -3.91055E+01 -4.07474E+01 -3.67688E+01 -3.81956E+01 -3.78353E+01 -3.89311E+01
  -3.84651E+01 -3.99601E+01 -3.97722E+01 -4.07595E+01 -3.93212E+01 -3.89933E+01 -3.94317E+01 -3.77010E+01 -3.86720E+01 -3.59656E+01
  -3.58798E+01 -3.52492E+01 -3.54677E+01 -3.62173E+01 -3.44511E+01 -3.62624E+01 -3.49061E+01 -3.29390E+01 -3.44629E+01 -3.30711E+01
  -3.16912E+01 -3.02270E+01 -3.19256E+01 -3.22552E+01 -3.22426E+01 -2.91239E+01 -2.93642E+01 -2.93332E+01 -2.96147E+01 -3.08149E+01
  -2.82013E+01 -2.78822E+01 -2.84422E+01 -2.76287E+01 -2.60589E+01 -2.79057E+01 -2.84743E+01 -2.52383E+01 -2.28139E+01 -2.04857E+01
  -1.97684E+01 -1.81034E+01 -1.51391E+01 -1.34629E+01 -1.47234E+01 -1.91903E+01 -1.95178E+01 -1.89432E+01 -1.80383E+01 -2.04477E+01
  -2.02128E+01 -2.17625E+01 -1.85436E+01 -1.96736E+01 -2.09059E+01 -2.07391E+01 -2.01586E+01 -2.49182E+01 -2.28857E+01 -2.14860E+01
  -2.19854E+01 -1.97635E+01 -1.86742E+01 -1.54874E+01 -1.08164E+01 -9.56304E+00 -3.83707E+00 -4.76187E+00 -6.31827E+00 -9.63107E+00
  -8.24009E+00 -9.55861E+00 -1.37600E+01 -1.51775E+01 -1.70954E+01 -1.63735E+01 -1.68490E+01 -1.66677E+01 -2.16633E+01 -1.90663E+01
  -1.91004E+01 -1.87472E+01 -1.84824E+01 -1.84856E+01 -1.66331E+01 -1.74983E+01 -1.94298E+01 -1.81425E+01 -2.12997E+01 -2.10905E+01
  -1.61569E+01 -1.86456E+01 -1.97738E+01 -1.67182E+01 -2.14790E+01 -1.78599E+01 -1.69636E+01 -1.93759E+01 -1.89299E+01 -1.80717E+01
  -2.09384E+01 -1.86642E+01 -1.86048E+01 -2.05352E+01 -1.84879E+01 -1.89108E+01 -1.87610E+01 -1.99110E+01 -1.78905E+01 -1.93056E+01
  -1.85114E+01 -1.56808E+01 -1.94737E+01 -1.83334E+01 -1.99540E+01 -1.68710E+01 -1.96380E+01 -1.52030E+01 -1.79695E+01 -1.67759E+01
  -1.73279E+01 -1.71991E+01 -1.49569E+01 -1.67555E+01 -1.65947E+01 -1.50969E+01 -1.46663E+01 -1.40593E+01 -1.30148E+01 -1.12892E+01
  -1.39934E+01 -1.49583E+01 -1.15860E+01 -1.05774E+01 -8.57925E+00 -1.24763E+01 -1.04927E+01 -1.09693E+01 -1.35904E+01 -1.03112E+01
  -1.06575E+01 -8.11664E+00 -1.02898E+01 -9.81438E+00 -5.90457E+00 -9.10424E+00 -9.07235E+00 -8.39507E+00 -1.04659E+01 -1.00559E+01
  -8.71890E+00 -8.70551E+00 -8.85561E+00 -8.49258E+00 -8.57140E+00 -8.02981E+00 -5.20722E+00 -5.77085E+00 -5.61071E+00 -8.21180E+00
  -8.96404E+00 -7.28017E+00 -7.49462E+00 -6.94684E+00 -5.61300E+00 -8.47009E+00 -8.94830E+00 -6.73480E+00 -5.38364E+00 -3.47850E+00
  -4.88969E+00 -8.32380E+00 -6.67028E+00 -6.10337E+00 -6.47878E+00 -4.49942E+00 -4.05742E+00 -5.43718E+00 -5.14838E+00 -4.58470E+00
  -4.90539E+00 -4.61968E+00 -5.03078E+00 -2.38276E+00 -3.53150E+00 -2.11783E+00 -1.95604E+00 -4.35756E-01 -9.04843E-01  1.33130E-01
  -7.58503E-01 -1.14632E+00  6.21455E-02  3.41354E+00  3.27645E+00  6.86989E+00  8.56149E+00  1.33786E+01  1.94466E+01  2.32323E+01
   2.81992E+01  2.63998E+01  2.80405E+01  2.21812E+01  1.80327E+01  1.40663E+01  9.57006E+00  4.89063E+00  4.31937E+00  1.07588E+00
   1.14329E+00 -1.76210E+00  1.15610E+00 -2.42556E+00 -2.28171E+00 -3.55647E+00 -4.64987E+00 -5.12294E+00 -3.88681E+00 -5.37967E+00
  -5.58172E+00 -5.58806E+00 -7.38767E+00 -7.41923E+00 -4.85243E+00 -5.09450E+00 -3.94737E+00 -4.99953E+00 -5.55937E+00 -6.06047E+00
  -4.47090E+00 -4.61010E+00 -6.02728E+00 -6.02252E+00 -6.73029E+00 -4.74534E+00 -5.51102E+00 -7.46910E+00 -3.82543E+00 -4.78623E+00
  -4.37860E+00 -6.23628E+00 -6.00770E+00 -6.05350E+00 -5.82769E+00 -5.48971E+00 -5.63022E+00 -6.70601E+00 -5.24629E+00 -4.01119E+00
  -3.23818E+00 -1.59730E+00 -5.15079E+00 -5.15453E+00 -5.05938E+00 -2.78160E+00 -2.87173E+00 -4.46459E+00 -2.83788E+00 -3.49900E+00
  -2.18736E+00 -2.19487E+00 -3.18327E+00 -4.86462E+00 -5.78976E+00 -6.06267E+00 -5.96235E+00 -5.10327E+00 -5.79544E+00 -5.80750E+00
  -5.99717E+00 -5.74106E+00 -6.87643E+00 -3.99434E+00 -5.16126E+00 -3.07096E+00 -3.92509E+00 -4.89603E+00 -6.09132E+00 -2.84468E+00
  -4.41888E+00 -2.34083E+00 -2.90847E+00 -2.67997E+00 -4.19151E+00 -3.24019E+00 -3.80186E+00 -1.84432E+00 -1.25641E-01 -1.32300E+00
   1.70033E+00  4.87365E-01  3.19526E-01 -2.55369E+00 -3.60299E+00 -1.37297E+00 -1.86258E-01 -2.50924E+00 -7.02131E-01 -2.74204E+00
  -1.70441E+00 -3.65041E+00 -1.50274E+00 -1.42257E+00 -1.35078E+00  4.85211E-01 -2.00843E-01 -1.87242E+00 -6.27929E-01  1.24206E+00
   3.38807E+00  4.56444E-01  3.12289E+00  1.72219E+00 -1.84113E+00 -8.41053E-02 -1.75688E+00 -2.98841E+00 -6.47394E-01 -1.58234E+00
  -1.52247E+00 -1.04494E+00 -1.18238E+00 -1.30028E+00 -1.31703E+00 -2.36941E+00 -4.25551E-01 -3.14352E+00  5.81733E-01  3.44550E-01
  -4.15475E+00 -3.05529E+00 -1.05112E+00 -1.70301E+00 -4.95066E+00 -6.63440E-01 -1.27700E+00 -4.64549E-01  8.70209E-01  2.35546E-01
  -5.20849E-01  2.18862E+00  1.61791E+00  9.68104E-02 -5.36374E-02 -8.33273E-01  5.74124E-01 -1.67240E+00 -1.03419E+00 -1.42950E+00
   9.52644E-01 -1.50339E+00 -1.29213E-01  1.46519E-01  1.70237E+00 -6.75874E-02  1.31821E+00  2.75212E+00 -1.18736E+00  2.16781E+00
   2.90811E-01  2.21684E+00 -4.73019E-01 -3.99112E-01 -4.99413E-01  1.52485E+00  1.42115E-01  1.52421E+00 -3.85019E-01 -1.25639E+00
   2.35095E-01  1.56818E+00 -1.68100E-01  8.18270E-01 -1.13248E+00 -4.86320E-01  3.89214E-01  1.16849E-01  5.46864E-01  1.41639E+00
  -1.01827E-01  1.75154E+00  1.51007E+00  1.42562E+00  9.38016E-01  2.21446E+00  1.44204E+00 -3.31487E-02  1.37133E+00  1.39310E+00
   1.99513E+00  5.13321E-01  4.39334E+00  4.11604E-01  1.37000E-01  1.12468E+00  9.46611E-01  2.47667E+00  8.71947E-01  1.99259E+00
   8.83731E-01  1.41735E+00 -6.52903E-01  5.65382E-01  5.83745E-01 -1.07268E+00  2.47641E+00  8.25865E-02  1.24358E+00  2.22727E+00
   6.75148E-01  2.89757E+00  1.82470E-02  4.15927E+00  2.01295E+00 -1.11604E+00 -8.07006E-01  1.19048E+00  6.10178E-01 -4.99975E-02
   6.64749E-01  1.36166E+00 -8.96995E-02 -1.08702E+00  4.90001E+00  1.34116E+00  2.88800E-01  1.61402E+00  4.78200E+00  1.89382E-01
   3.93580E+00  1.71745E+00  2.26272E+00  2.79189E+00  2.84419E+00  2.62740E+00  1.67503E+00  4.41726E+00
 NY points of the fit to the data follow
  -6.68490E+01 -6.68838E+01 -6.65298E+01 -6.58214E+01 -6.48158E+01 -6.37362E+01 -6.24915E+01 -6.08864E+01 -5.88009E+01 -5.64218E+01
  -5.43202E+01 -5.31411E+01 -5.29921E+01 -5.33409E+01 -5.36684E+01 -5.40934E+01 -5.49315E+01 -5.55461E+01 -5.53530E+01 -5.49603E+01
  -5.53208E+01 -5.59158E+01 -5.54167E+01 -5.45576E+01 -5.36031E+01 -5.24722E+01 -5.10966E+01 -4.94872E+01 -4.78041E+01 -4.63938E+01
  -4.56591E+01 -4.55448E+01 -4.56260E+01 -4.57047E+01 -4.61193E+01 -4.68123E+01 -4.72356E+01 -4.71220E+01 -4.68960E+01 -4.68846E+01
  -4.62865E+01 -4.52571E+01 -4.40990E+01 -4.27480E+01 -4.13973E+01 -4.04372E+01 -4.01609E+01 -4.03427E+01 -4.07845E+01 -4.12416E+01
  -4.15076E+01 -4.17003E+01 -4.17461E+01 -4.13359E+01 -4.06721E+01 -4.03406E+01 -4.01733E+01 -3.96949E+01 -3.90454E+01 -3.86352E+01
  -3.84907E+01 -3.84223E+01 -3.83072E+01 -3.81145E+01 -3.78420E+01 -3.74009E+01 -3.68419E+01 -3.63381E+01 -3.58689E+01 -3.54317E+01
  -3.50487E+01 -3.47086E+01 -3.44324E+01 -3.41626E+01 -3.38841E+01 -3.36664E+01 -3.34791E+01 -3.32762E+01 -3.29485E+01 -3.25882E+01
  -3.23300E+01 -3.20198E+01 -3.16396E+01 -3.12132E+01 -3.07808E+01 -3.04068E+01 -3.01726E+01 -3.00478E+01 -2.99555E+01 -2.97923E+01
  -2.95620E+01 -2.93952E+01 -2.92655E+01 -2.90420E+01 -2.87268E+01 -2.82111E+01 -2.72403E+01 -2.59208E+01 -2.42958E+01 -2.22259E+01
  -1.97309E+01 -1.70913E+01 -1.49368E+01 -1.40057E+01 -1.45015E+01 -1.57934E+01 -1.70885E+01 -1.82934E+01 -1.98260E+01 -2.12644E+01
  -2.18000E+01 -2.18705E+01 -2.28108E+01 -2.41938E+01 -2.45281E+01 -2.44380E+01 -2.42568E+01 -2.40091E+01 -2.35875E+01 -2.25024E+01
  -2.08513E+01 -1.91092E+01 -1.70412E+01 -1.44617E+01 -1.14265E+01 -8.31758E+00 -5.98573E+00 -5.25077E+00 -6.05222E+00 -7.63395E+00
  -9.23189E+00 -1.09071E+01 -1.30823E+01 -1.50891E+01 -1.60702E+01 -1.67221E+01 -1.83836E+01 -1.98642E+01 -1.99453E+01 -1.96092E+01
  -1.91711E+01 -1.88046E+01 -1.86426E+01 -1.85701E+01 -1.84294E+01 -1.83269E+01 -1.82670E+01 -1.82085E+01 -1.82043E+01 -1.82443E+01
  -1.83287E+01 -1.84152E+01 -1.84106E+01 -1.83704E+01 -1.83501E+01 -1.83424E+01 -1.83172E+01 -1.82938E+01 -1.82932E+01 -1.82993E+01
  -1.82849E+01 -1.82064E+01 -1.80321E+01 -1.77684E+01 -1.74857E+01 -1.72838E+01 -1.71628E+01 -1.70924E+01 -1.70700E+01 -1.70940E+01
  -1.71219E+01 -1.70775E+01 -1.70508E+01 -1.70653E+01 -1.71637E+01 -1.72770E+01 -1.72365E+01 -1.70780E+01 -1.68993E+01 -1.67684E+01
  -1.66985E+01 -1.65437E+01 -1.62401E+01 -1.58873E+01 -1.55444E+01 -1.51325E+01 -1.45233E+01 -1.37974E+01 -1.31206E+01 -1.25555E+01
  -1.21240E+01 -1.18026E+01 -1.16581E+01 -1.16662E+01 -1.17274E+01 -1.17683E+01 -1.16292E+01 -1.12200E+01 -1.07584E+01 -1.03428E+01
  -9.98083E+00 -9.61133E+00 -9.21656E+00 -8.90637E+00 -8.78147E+00 -8.84416E+00 -9.02704E+00 -9.24000E+00 -9.42406E+00 -9.51097E+00
  -9.50310E+00 -9.31083E+00 -8.91854E+00 -8.47027E+00 -8.09039E+00 -7.80677E+00 -7.74719E+00 -7.93037E+00 -8.24542E+00 -8.45256E+00
  -8.63710E+00 -8.81458E+00 -8.68239E+00 -8.16360E+00 -7.61043E+00 -7.28440E+00 -7.11240E+00 -6.84073E+00 -6.60495E+00 -6.45774E+00
  -6.29471E+00 -5.91551E+00 -5.31261E+00 -4.79043E+00 -4.48361E+00 -4.28868E+00 -4.20372E+00 -4.31465E+00 -4.62263E+00 -4.97010E+00
  -5.10357E+00 -5.05265E+00 -4.96810E+00 -4.74788E+00 -4.32638E+00 -3.85051E+00 -3.57322E+00 -3.40306E+00 -3.06702E+00 -2.69773E+00
  -2.38005E+00 -1.95316E+00 -9.16462E-01  1.46085E+00  4.47182E+00  7.42149E+00  1.08396E+01  1.50258E+01  1.98412E+01  2.45530E+01
   2.75847E+01  2.76877E+01  2.51260E+01  2.14011E+01  1.77768E+01  1.38520E+01  9.39440E+00  5.96524E+00  4.58937E+00  3.31579E+00
  -1.24814E-01 -2.98282E+00 -3.75424E+00 -4.00100E+00 -4.12100E+00 -4.17065E+00 -4.24957E+00 -4.35803E+00 -4.46123E+00 -4.55970E+00
  -4.66376E+00 -4.74656E+00 -4.80594E+00 -4.85571E+00 -4.89401E+00 -4.92366E+00 -4.94376E+00 -4.95021E+00 -4.95283E+00 -4.95420E+00
  -4.94691E+00 -4.94255E+00 -4.94025E+00 -4.93280E+00 -4.92850E+00 -4.92986E+00 -4.92695E+00 -4.91922E+00 -4.90987E+00 -4.89703E+00
  -4.87943E+00 -4.86234E+00 -4.84634E+00 -4.82768E+00 -4.80901E+00 -4.79210E+00 -4.77696E+00 -4.76222E+00 -4.74692E+00 -4.73231E+00
  -4.71743E+00 -4.70100E+00 -4.68218E+00 -4.65969E+00 -4.63120E+00 -4.59402E+00 -4.54395E+00 -4.47323E+00 -4.36292E+00 -4.19821E+00
  -4.05843E+00 -3.94997E+00 -3.84534E+00 -3.76294E+00 -3.75283E+00 -3.88290E+00 -4.19997E+00 -4.59416E+00 -4.94662E+00 -5.19048E+00
  -5.28725E+00 -5.26731E+00 -5.08356E+00 -4.64492E+00 -4.07563E+00 -3.65401E+00 -3.45385E+00 -3.21804E+00 -2.94023E+00 -2.73141E+00
  -2.64689E+00 -2.61082E+00 -2.47819E+00 -2.27898E+00 -2.23165E+00 -2.25211E+00 -2.19463E+00 -2.09685E+00 -1.98098E+00 -1.85652E+00
  -1.72915E+00 -1.60306E+00 -1.48162E+00 -1.36773E+00 -1.26390E+00 -1.17230E+00 -1.09466E+00 -1.03227E+00 -9.85924E-01 -9.55965E-01
  -9.42256E-01 -9.44230E-01 -9.60858E-01 -9.90726E-01 -1.03208E+00 -1.08299E+00 -1.14134E+00 -1.20500E+00 -1.27179E+00 -1.33962E+00
  -1.40651E+00 -1.47067E+00 -1.53054E+00 -1.58475E+00 -1.63212E+00 -1.67171E+00 -1.70275E+00 -1.72469E+00 -1.73712E+00 -1.73974E+00
  -1.73231E+00 -1.71470E+00 -1.68683E+00 -1.64867E+00 -1.60020E+00 -1.54146E+00 -1.47249E+00 -1.39341E+00 -1.30445E+00 -1.20595E+00
  -1.09838E+00 -9.82360E-01 -8.58737E-01 -7.28593E-01 -5.93268E-01 -4.54344E-01 -3.13625E-01 -1.73110E-01 -3.49707E-02  9.85139E-02
   2.25033E-01  3.42363E-01  4.48444E-01  5.41476E-01  6.19975E-01  6.82861E-01  7.29505E-01  7.59794E-01  7.74095E-01  7.73243E-01
   7.58474E-01  7.31387E-01  6.93853E-01  6.47959E-01  5.95873E-01  5.39761E-01  4.81676E-01  4.23530E-01  3.67017E-01  3.13611E-01
   2.64489E-01  2.20559E-01  1.82433E-01  1.50502E-01  1.24933E-01  1.05733E-01  9.27212E-02  8.56142E-02  8.40203E-02  8.75293E-02
   9.56894E-02  1.08063E-01  1.24180E-01  1.43607E-01  1.65915E-01  1.90747E-01  2.17754E-01  2.46643E-01  2.77113E-01  3.08921E-01
   3.41828E-01  3.75666E-01  4.10258E-01  4.45469E-01  4.81132E-01  5.17141E-01  5.53376E-01  5.89772E-01  6.26231E-01  6.62688E-01
   6.99045E-01  7.35257E-01  7.71256E-01  8.07030E-01  8.42550E-01  8.77821E-01  9.12815E-01  9.47556E-01  9.82037E-01  1.01629E+00
   1.05030E+00  1.08409E+00  1.11764E+00  1.15099E+00  1.18415E+00  1.21715E+00  1.24997E+00  1.28266E+00  1.31519E+00  1.34762E+00
   1.37996E+00  1.41224E+00  1.44445E+00  1.47662E+00  1.50876E+00  1.54093E+00  1.57312E+00  1.60536E+00  1.63765E+00  1.67004E+00
   1.70252E+00  1.73516E+00  1.76795E+00  1.80092E+00  1.83408E+00  1.86746E+00  1.90109E+00  1.93501E+00  1.96921E+00  2.00375E+00
   2.03860E+00  2.07385E+00  2.10948E+00  2.14556E+00  2.18207E+00  2.21907E+00  2.25656E+00  2.29461E+00
 NY background values follow
    -6.930E+01   -6.879E+01   -6.828E+01   -6.777E+01   -6.727E+01   -6.676E+01   -6.625E+01   -6.575E+01   -6.524E+01   -6.474E+01
    -6.423E+01   -6.373E+01   -6.323E+01   -6.273E+01   -6.223E+01   -6.173E+01   -6.123E+01   -6.074E+01   -6.024E+01   -5.975E+01
    -5.926E+01   -5.877E+01   -5.828E+01   -5.779E+01   -5.731E+01   -5.682E+01   -5.634E+01   -5.586E+01   -5.539E+01   -5.491E+01
    -5.444E+01   -5.397E+01   -5.350E+01   -5.303E+01   -5.257E+01   -5.211E+01   -5.165E+01   -5.119E+01   -5.074E+01   -5.028E+01
    -4.984E+01   -4.939E+01   -4.895E+01   -4.851E+01   -4.807E+01   -4.763E+01   -4.720E+01   -4.677E+01   -4.635E+01   -4.593E+01
    -4.551E+01   -4.509E+01   -4.468E+01   -4.427E+01   -4.386E+01   -4.346E+01   -4.306E+01   -4.266E+01   -4.227E+01   -4.188E+01
    -4.149E+01   -4.111E+01   -4.073E+01   -4.035E+01   -3.997E+01   -3.960E+01   -3.924E+01   -3.887E+01   -3.851E+01   -3.815E+01
    -3.779E+01   -3.744E+01   -3.709E+01   -3.675E+01   -3.640E+01   -3.607E+01   -3.573E+01   -3.540E+01   -3.507E+01   -3.474E+01
    -3.442E+01   -3.410E+01   -3.378E+01   -3.347E+01   -3.316E+01   -3.285E+01   -3.255E+01   -3.225E+01   -3.195E+01   -3.166E+01
    -3.137E+01   -3.108E+01   -3.080E+01   -3.052E+01   -3.024E+01   -2.997E+01   -2.970E+01   -2.943E+01   -2.917E+01   -2.891E+01
    -2.865E+01   -2.840E+01   -2.814E+01   -2.789E+01   -2.765E+01   -2.741E+01   -2.717E+01   -2.693E+01   -2.669E+01   -2.646E+01
    -2.623E+01   -2.601E+01   -2.578E+01   -2.556E+01   -2.534E+01   -2.513E+01   -2.491E+01   -2.470E+01   -2.449E+01   -2.429E+01
    -2.408E+01   -2.388E+01   -2.368E+01   -2.348E+01   -2.329E+01   -2.310E+01   -2.291E+01   -2.272E+01   -2.253E+01   -2.235E+01
    -2.217E+01   -2.199E+01   -2.181E+01   -2.164E+01   -2.146E+01   -2.129E+01   -2.112E+01   -2.095E+01   -2.078E+01   -2.062E+01
    -2.046E+01   -2.029E+01   -2.013E+01   -1.998E+01   -1.982E+01   -1.966E+01   -1.951E+01   -1.935E+01   -1.920E+01   -1.905E+01
    -1.890E+01   -1.875E+01   -1.860E+01   -1.845E+01   -1.831E+01   -1.816E+01   -1.802E+01   -1.787E+01   -1.773E+01   -1.758E+01
    -1.744E+01   -1.730E+01   -1.715E+01   -1.701E+01   -1.687E+01   -1.672E+01   -1.658E+01   -1.644E+01   -1.630E+01   -1.615E+01
    -1.601E+01   -1.587E+01   -1.572E+01   -1.558E+01   -1.543E+01   -1.529E+01   -1.514E+01   -1.499E+01   -1.485E+01   -1.470E+01
    -1.455E+01   -1.440E+01   -1.425E+01   -1.410E+01   -1.394E+01   -1.379E+01   -1.364E+01   -1.348E+01   -1.333E+01   -1.317E+01
    -1.302E+01   -1.286E+01   -1.271E+01   -1.255E+01   -1.240E+01   -1.224E+01   -1.209E+01   -1.193E+01   -1.178E+01   -1.162E+01
    -1.147E+01   -1.132E+01   -1.117E+01   -1.102E+01   -1.087E+01   -1.072E+01   -1.057E+01   -1.042E+01   -1.028E+01   -1.014E+01
    -9.993E+00   -9.853E+00   -9.714E+00   -9.577E+00   -9.442E+00   -9.309E+00   -9.177E+00   -9.048E+00   -8.921E+00   -8.797E+00
    -8.674E+00   -8.555E+00   -8.437E+00   -8.322E+00   -8.210E+00   -8.101E+00   -7.995E+00   -7.892E+00   -7.791E+00   -7.693E+00
    -7.599E+00   -7.507E+00   -7.418E+00   -7.331E+00   -7.247E+00   -7.166E+00   -7.088E+00   -7.012E+00   -6.938E+00   -6.867E+00
    -6.799E+00   -6.733E+00   -6.669E+00   -6.608E+00   -6.549E+00   -6.492E+00   -6.437E+00   -6.385E+00   -6.334E+00   -6.286E+00
    -6.240E+00   -6.196E+00   -6.154E+00   -6.114E+00   -6.075E+00   -6.039E+00   -6.004E+00   -5.972E+00   -5.941E+00   -5.911E+00
    -5.884E+00   -5.858E+00   -5.833E+00   -5.810E+00   -5.789E+00   -5.769E+00   -5.750E+00   -5.733E+00   -5.718E+00   -5.703E+00
    -5.690E+00   -5.678E+00   -5.668E+00   -5.658E+00   -5.650E+00   -5.642E+00   -5.636E+00   -5.630E+00   -5.626E+00   -5.622E+00
    -5.619E+00   -5.616E+00   -5.614E+00   -5.613E+00   -5.612E+00   -5.612E+00   -5.612E+00   -5.613E+00   -5.614E+00   -5.614E+00
    -5.616E+00   -5.617E+00   -5.618E+00   -5.619E+00   -5.621E+00   -5.622E+00   -5.623E+00   -5.623E+00   -5.624E+00   -5.624E+00
    -5.623E+00   -5.623E+00   -5.621E+00   -5.619E+00   -5.617E+00   -5.613E+00   -5.609E+00   -5.604E+00   -5.599E+00   -5.592E+00
    -5.584E+00   -5.576E+00   -5.566E+00   -5.555E+00   -5.543E+00   -5.529E+00   -5.515E+00   -5.498E+00   -5.481E+00   -5.462E+00
    -5.442E+00   -5.420E+00   -5.397E+00   -5.373E+00   -5.348E+00   -5.322E+00   -5.294E+00   -5.266E+00   -5.236E+00   -5.205E+00
    -5.174E+00   -5.141E+00   -5.107E+00   -5.073E+00   -5.037E+00   -5.001E+00   -4.964E+00   -4.926E+00   -4.887E+00   -4.847E+00
    -4.807E+00   -4.767E+00   -4.725E+00   -4.683E+00   -4.640E+00   -4.597E+00   -4.553E+00   -4.509E+00   -4.465E+00   -4.419E+00
    -4.374E+00   -4.328E+00   -4.282E+00   -4.236E+00   -4.189E+00   -4.142E+00   -4.095E+00   -4.047E+00   -4.000E+00   -3.952E+00
    -3.905E+00   -3.857E+00   -3.809E+00   -3.761E+00   -3.714E+00   -3.666E+00   -3.618E+00   -3.570E+00   -3.522E+00   -3.474E+00
    -3.426E+00   -3.378E+00   -3.330E+00   -3.282E+00   -3.234E+00   -3.186E+00   -3.138E+00   -3.090E+00   -3.041E+00   -2.993E+00
    -2.945E+00   -2.896E+00   -2.848E+00   -2.799E+00   -2.750E+00   -2.701E+00   -2.652E+00   -2.603E+00   -2.554E+00   -2.505E+00
    -2.456E+00   -2.406E+00   -2.357E+00   -2.307E+00   -2.257E+00   -2.207E+00   -2.157E+00   -2.107E+00   -2.057E+00   -2.007E+00
    -1.956E+00   -1.905E+00   -1.854E+00   -1.803E+00   -1.752E+00   -1.701E+00   -1.650E+00   -1.598E+00   -1.546E+00   -1.494E+00
    -1.442E+00   -1.390E+00   -1.338E+00   -1.285E+00   -1.233E+00   -1.181E+00   -1.128E+00   -1.076E+00   -1.023E+00   -9.710E-01
    -9.186E-01   -8.664E-01   -8.141E-01   -7.620E-01   -7.100E-01   -6.582E-01   -6.065E-01   -5.549E-01   -5.036E-01   -4.524E-01
    -4.015E-01   -3.508E-01   -3.004E-01   -2.502E-01   -2.003E-01   -1.507E-01   -1.015E-01   -5.253E-02   -3.971E-03    4.422E-02
     9.202E-02    1.394E-01    1.864E-01    2.329E-01    2.790E-01    3.245E-01    3.696E-01    4.142E-01    4.583E-01    5.018E-01
     5.447E-01    5.871E-01    6.288E-01    6.700E-01    7.105E-01    7.506E-01    7.900E-01    8.290E-01    8.675E-01    9.055E-01
     9.431E-01    9.803E-01    1.017E+00    1.053E+00    1.090E+00    1.125E+00    1.161E+00    1.196E+00    1.231E+00    1.266E+00
     1.300E+00    1.335E+00    1.369E+00    1.403E+00    1.437E+00    1.471E+00    1.505E+00    1.539E+00    1.572E+00    1.606E+00
     1.640E+00    1.674E+00    1.708E+00    1.743E+00    1.777E+00    1.811E+00    1.846E+00    1.881E+00    1.916E+00    1.952E+00
     1.987E+00    2.023E+00    2.060E+00    2.097E+00    2.134E+00    2.171E+00    2.209E+00    2.248E+00
 Ala      Conc. = 1.40E+02
