 LCModel (Version 6.3-1L) Copyright: S.W. Provencher.          Ref.: Magn. Reson. Med. 30:672-679 (1993).                
 Slice#3 Row#3 Col#14  PD_05_press_1_raw_act
 36 lines in following concentration table = NCONC+1
    Conc.  %SD /Cr+PCr  Metabolite                                         
    0.000 999%   0.000 Ala                                                 
   10.487  54%   0.000 Asp                                                 
    0.000 999%   0.000 Cr                                                  
    0.000 999%   0.000 PCr                                                 
    6.118  56%   0.000 GABA                                                
    6.268  54%   0.000 Glc                                                 
    0.000 999%   0.000 Gln                                                 
  168.466  57%   0.000 Glu                                                 
    0.000 999%   0.000 GPC                                                 
   14.256  55%   0.000 PCh                                                 
   38.139  73%   0.000 GSH                                                 
   15.205 510%   0.000 Ins                                                 
    0.000 999%   0.000 Lac                                                 
    0.000 999%   0.000 NAA                                                 
  161.875  29%   0.000 NAAG                                                
    2.131  53%   0.000 Scyllo                                              
   10.506  54%   0.000 Tau                                                 
    0.802 999%   0.000 -CrCH2                                              
   14.256  55%   0.000 GPC+PCh                                             
  161.875  29%   0.000 NAA+NAAG                                            
    0.000 999%   0.000 Cr+PCr                                              
  168.466  57%   0.000 Glu+Gln                                             
 6.29E+03  22%   0.000 Lip13a                                              
    0.000 999%   0.000 Lip13b                                              
  871.229  26%   0.000 Lip09                                               
    0.000 999%   0.000 MM09                                                
  396.264  50%   0.000 Lip20                                               
    0.000 999%   0.000 MM20                                                
 1.17E+03  57%   0.000 MM12                                                
 3.55E+03  25%   0.000 MM14                                                
    0.000 999%   0.000 MM17                                                
 6.29E+03  22%   0.000 Lip13a+Lip13b                                       
 1.10E+04   3%   0.000 MM14+Lip13a+Lip13b+MM12                             
  871.229  26%   0.000 MM09+Lip09                                          
  396.264  50%   0.000 MM20+Lip20                                          
   6 lines in following misc. output table
  FWHM = 0.290 ppm    S/N =  14                                            
  Data shift =-0.061 ppm                                                   
  Ph:  70 deg     108.8 deg/ppm                                            
  alphaB,S = 1.8E+00,   6.4E+00                                            
    7 spline knots.   Ns = 9(2)                                            
  (16)11 infls.   (10) 3 extrs.                                            
  498 points on ppm-axis = NY
      4.000000     3.992357     3.984714     3.977070     3.969427     3.961784     3.954141     3.946497     3.938854     3.931211
      3.923568     3.915925     3.908281     3.900638     3.892995     3.885352     3.877708     3.870065     3.862422     3.854779
      3.847136     3.839492     3.831849     3.824206     3.816563     3.808919     3.801276     3.793633     3.785990     3.778347
      3.770703     3.763060     3.755417     3.747774     3.740130     3.732487     3.724844     3.717201     3.709558     3.701914
      3.694271     3.686628     3.678985     3.671341     3.663698     3.656055     3.648412     3.640769     3.633125     3.625482
      3.617839     3.610196     3.602552     3.594909     3.587266     3.579623     3.571980     3.564336     3.556693     3.549050
      3.541407     3.533763     3.526120     3.518477     3.510834     3.503191     3.495547     3.487904     3.480261     3.472618
      3.464974     3.457331     3.449688     3.442045     3.434402     3.426758     3.419115     3.411472     3.403829     3.396185
      3.388542     3.380899     3.373256     3.365613     3.357969     3.350326     3.342683     3.335040     3.327396     3.319753
      3.312110     3.304467     3.296824     3.289180     3.281537     3.273894     3.266251     3.258607     3.250964     3.243321
      3.235678     3.228034     3.220391     3.212748     3.205105     3.197462     3.189818     3.182175     3.174532     3.166889
      3.159245     3.151602     3.143959     3.136316     3.128673     3.121029     3.113386     3.105743     3.098100     3.090456
      3.082813     3.075170     3.067527     3.059884     3.052240     3.044597     3.036954     3.029311     3.021667     3.014024
      3.006381     2.998738     2.991095     2.983451     2.975808     2.968165     2.960522     2.952878     2.945235     2.937592
      2.929949     2.922306     2.914662     2.907019     2.899376     2.891733     2.884089     2.876446     2.868803     2.861160
      2.853517     2.845873     2.838230     2.830587     2.822944     2.815300     2.807657     2.800014     2.792371     2.784728
      2.777084     2.769441     2.761798     2.754155     2.746511     2.738868     2.731225     2.723582     2.715939     2.708295
      2.700652     2.693009     2.685366     2.677722     2.670079     2.662436     2.654793     2.647150     2.639506     2.631863
      2.624220     2.616577     2.608933     2.601290     2.593647     2.586004     2.578361     2.570717     2.563074     2.555431
      2.547788     2.540144     2.532501     2.524858     2.517215     2.509572     2.501928     2.494285     2.486642     2.478999
      2.471355     2.463712     2.456069     2.448426     2.440783     2.433139     2.425496     2.417853     2.410210     2.402566
      2.394923     2.387280     2.379637     2.371994     2.364350     2.356707     2.349064     2.341421     2.333777     2.326134
      2.318491     2.310848     2.303205     2.295561     2.287918     2.280275     2.272632     2.264988     2.257345     2.249702
      2.242059     2.234416     2.226772     2.219129     2.211486     2.203843     2.196199     2.188556     2.180913     2.173270
      2.165627     2.157983     2.150340     2.142697     2.135054     2.127410     2.119767     2.112124     2.104481     2.096838
      2.089194     2.081551     2.073908     2.066265     2.058621     2.050978     2.043335     2.035692     2.028049     2.020405
      2.012762     2.005119     1.997476     1.989833     1.982190     1.974546     1.966903     1.959260     1.951617     1.943974
      1.936331     1.928688     1.921045     1.913402     1.905759     1.898115     1.890472     1.882829     1.875186     1.867543
      1.859900     1.852257     1.844614     1.836971     1.829327     1.821684     1.814041     1.806398     1.798755     1.791112
      1.783469     1.775826     1.768183     1.760540     1.752896     1.745253     1.737610     1.729967     1.722324     1.714681
      1.707038     1.699395     1.691752     1.684108     1.676465     1.668822     1.661179     1.653536     1.645893     1.638250
      1.630607     1.622964     1.615321     1.607677     1.600034     1.592391     1.584748     1.577105     1.569462     1.561819
      1.554176     1.546533     1.538890     1.531246     1.523603     1.515960     1.508317     1.500674     1.493031     1.485388
      1.477745     1.470102     1.462458     1.454815     1.447172     1.439529     1.431886     1.424243     1.416600     1.408957
      1.401314     1.393671     1.386027     1.378384     1.370741     1.363098     1.355455     1.347812     1.340169     1.332526
      1.324883     1.317240     1.309596     1.301953     1.294310     1.286667     1.279024     1.271381     1.263738     1.256095
      1.248452     1.240808     1.233165     1.225522     1.217879     1.210236     1.202593     1.194950     1.187307     1.179664
      1.172021     1.164377     1.156734     1.149091     1.141448     1.133805     1.126162     1.118519     1.110876     1.103233
      1.095590     1.087946     1.080303     1.072660     1.065017     1.057374     1.049731     1.042088     1.034445     1.026802
      1.019158     1.011515     1.003872     0.996229     0.988586     0.980943     0.973300     0.965657     0.958014     0.950371
      0.942727     0.935084     0.927441     0.919798     0.912155     0.904512     0.896869     0.889226     0.881583     0.873940
      0.866296     0.858653     0.851010     0.843367     0.835724     0.828081     0.820438     0.812795     0.805152     0.797508
      0.789865     0.782222     0.774579     0.766936     0.759293     0.751650     0.744007     0.736364     0.728721     0.721077
      0.713434     0.705791     0.698148     0.690505     0.682862     0.675219     0.667576     0.659933     0.652290     0.644646
      0.637003     0.629360     0.621717     0.614074     0.606431     0.598788     0.591145     0.583502     0.575858     0.568215
      0.560572     0.552929     0.545286     0.537643     0.530000     0.522357     0.514714     0.507071     0.499427     0.491784
      0.484141     0.476498     0.468855     0.461212     0.453569     0.445925     0.438282     0.430639     0.422996     0.415353
      0.407710     0.400067     0.392424     0.384780     0.377137     0.369494     0.361851     0.354208     0.346565     0.338922
      0.331278     0.323635     0.315992     0.308349     0.300706     0.293063     0.285420     0.277777     0.270133     0.262490
      0.254847     0.247204     0.239561     0.231918     0.224275     0.216631     0.208988     0.201345
 NY phased data points follow
  -5.13380E-02  1.30917E+00  6.71895E-01  1.87737E+00  1.08854E+00  1.52646E+00  1.72039E+00  1.76279E+00  2.83041E+00  2.17171E+00
   1.04691E+00  3.46521E-01  1.11701E-01  4.78069E+00  3.00251E+00  2.61711E+00  4.08982E+00  1.58615E+00  1.67833E+00  2.26831E-01
  -2.99283E-01  2.98567E+00  2.94589E+00  3.98869E-01  1.30163E+00  8.91793E-01  5.23678E-01  4.76509E-01  1.78847E+00  3.32772E+00
   1.18638E+00 -9.60814E-01  1.88419E+00  7.04868E-01  1.89582E+00  3.70999E-01  6.61118E-01  1.53153E+00  6.45310E-01  1.27091E+00
   1.96305E+00  1.42873E+00 -1.84523E-01 -5.66675E-01  5.98197E-01 -5.64097E-01  2.60023E+00  1.19105E+00  1.45947E+00  2.49769E-01
   1.98140E+00  3.33752E-01  4.48970E-01  8.97575E-01  2.29458E+00 -1.97971E-01  2.36103E+00  2.57813E+00  9.66512E-01 -6.31500E-01
   2.08936E-01 -5.87655E-02  1.24318E+00  1.21994E+00  9.20086E-01 -1.24612E+00  2.13320E+00  2.12505E+00  2.45604E+00  1.39403E+00
   1.95933E+00 -2.49340E-01  1.61246E-03  1.07254E+00  1.39957E+00  6.17783E-02 -4.10957E-01  3.21341E-01  1.95723E+00  1.93430E+00
  -2.04506E-01  7.24339E-01 -8.24223E-01  1.12963E+00 -7.43064E-01 -6.28674E-01  1.22353E+00 -9.90833E-01 -3.92384E-01  8.50439E-01
   2.67107E+00 -1.00982E+00  2.17435E+00  1.85425E+00  1.01155E+00  2.73545E+00  1.82456E+00  1.72939E-01 -1.73869E+00 -3.31015E-01
   7.10795E-01  6.05949E-02 -5.07392E-01  4.48509E-01  7.12287E-01  1.24377E+00  7.66039E-01  1.44780E+00  1.28357E-01  1.02135E+00
  -1.39571E+00 -3.29584E-01 -5.37734E-01 -1.81478E+00 -1.54662E+00 -1.23711E+00  2.42178E-01 -4.22160E-01 -1.61990E+00 -1.47064E+00
  -3.34052E-01 -2.80411E-01  6.82427E-01  8.68735E-01 -7.50628E-01 -8.66022E-02 -2.95363E-01  1.32964E+00  1.21434E+00  1.64659E-01
   3.97028E-01  8.16978E-01 -7.07588E-01  2.86841E-01 -9.31702E-01 -2.47338E+00 -1.33860E+00 -6.41973E-01 -3.42210E+00 -2.86894E+00
   8.68372E-02 -7.03509E-01 -1.93417E+00 -1.20855E+00 -2.16912E-01 -3.30333E+00 -1.11853E+00 -1.17767E-01 -7.62762E-01 -8.84167E-01
  -1.26044E+00 -1.39469E+00  4.62961E-02 -6.65197E-01 -3.04632E+00  1.55715E+00 -3.96771E-01  9.29290E-01 -6.91453E-01 -4.04547E-01
  -1.93660E+00 -7.84591E-01 -3.67587E-01 -1.59769E+00 -1.69672E+00 -1.17578E-01 -2.22484E+00  2.44808E-01 -8.27858E-01 -1.18860E-01
  -7.16888E-01  2.12394E-01 -1.89448E-01  1.59160E+00 -1.84128E+00 -5.85542E-01  4.65610E-01 -1.15516E+00  1.70938E+00 -1.18850E+00
  -4.42605E-01  1.39073E+00  7.40360E-01  6.55051E-01  1.54217E+00 -3.54996E-01  7.12138E-01  8.27548E-01  2.66865E-01 -8.95410E-01
  -2.48140E-02 -4.19485E-01  8.88783E-01 -4.43053E-01 -2.76540E-01  8.42268E-01  1.21969E-01  2.11200E-01 -9.19403E-01 -1.07612E+00
  -2.77452E-01 -1.58159E-01 -2.86056E+00 -7.95179E-01  2.56842E-01  4.37198E-01  5.36096E-01  1.19901E+00 -4.65710E-02  1.95630E+00
  -6.74389E-01  6.20408E-01 -1.84241E+00 -1.03058E+00 -2.48995E+00 -2.08551E+00 -8.11406E-01 -9.88822E-01 -1.83918E-01 -3.90013E-02
   1.87953E-01 -1.13634E+00 -1.52992E+00 -1.32270E+00 -2.98459E+00 -1.03606E+00 -1.42136E+00 -1.44741E+00 -8.08242E-01 -2.39746E+00
  -1.44235E+00  7.49154E-01 -7.62113E-01  4.44965E-01 -2.76901E-01 -4.46292E-01 -1.19573E+00  4.54232E-01  1.49303E-01  5.63499E-01
   5.15002E-01 -8.96677E-01 -1.15143E+00 -9.26853E-01 -6.69257E-01  1.17447E+00  3.31242E+00 -2.65979E+00 -1.38365E+00 -9.04608E-01
  -1.05782E+00 -9.01447E-02  8.74117E-02 -2.63482E+00 -9.27913E-01 -2.20089E+00 -1.32826E+00 -2.15917E+00 -3.66951E+00 -3.60296E+00
  -3.61539E+00 -4.77529E+00 -1.67219E+00 -2.74437E+00 -2.36807E+00 -6.15133E+00 -7.79462E+00 -8.22698E+00 -6.93752E+00 -6.89172E+00
  -4.07048E+00 -3.71000E+00 -5.19872E+00 -1.98960E+00 -3.93704E+00 -3.36713E+00 -3.12286E+00 -5.80722E+00 -3.58407E+00 -6.48282E+00
  -5.37006E+00 -5.77178E+00 -4.84702E+00 -4.86437E+00 -7.32614E+00 -8.00547E+00 -6.04434E+00 -8.08075E+00 -8.52158E+00 -8.78575E+00
  -9.28632E+00 -9.46883E+00 -1.07987E+01 -9.79549E+00 -1.03697E+01 -1.11100E+01 -1.03040E+01 -1.04618E+01 -1.23109E+01 -1.42916E+01
  -1.11491E+01 -1.20449E+01 -1.19033E+01 -1.42204E+01 -1.43076E+01 -1.54374E+01 -1.37548E+01 -1.36170E+01 -1.63205E+01 -1.69450E+01
  -1.60022E+01 -1.69618E+01 -1.78999E+01 -1.86379E+01 -1.96427E+01 -2.05742E+01 -1.88582E+01 -2.00171E+01 -1.87833E+01 -2.04364E+01
  -2.26735E+01 -2.19417E+01 -2.33136E+01 -2.47242E+01 -2.29563E+01 -2.27443E+01 -2.42761E+01 -2.46304E+01 -2.37927E+01 -2.47661E+01
  -2.31408E+01 -2.32450E+01 -1.93033E+01 -1.88376E+01 -1.92493E+01 -1.67954E+01 -1.55348E+01 -1.58397E+01 -1.31245E+01 -1.25922E+01
  -6.50298E+00 -3.20870E+00 -2.28110E+00 -1.24170E+00  2.77153E+00  5.41627E+00  8.03539E+00  9.62949E+00  1.24188E+01  1.64739E+01
   1.76741E+01  1.94751E+01  2.36103E+01  2.52434E+01  2.63554E+01  2.80240E+01  3.12736E+01  3.08144E+01  3.17057E+01  3.33828E+01
   3.35459E+01  3.40301E+01  3.43517E+01  3.22761E+01  3.22247E+01  3.36322E+01  3.29360E+01  3.16865E+01  3.16866E+01  2.91835E+01
   2.88538E+01  2.69426E+01  2.63922E+01  2.50678E+01  2.33008E+01  2.20741E+01  1.96783E+01  1.91766E+01  1.82483E+01  1.63786E+01
   1.43215E+01  1.14673E+01  1.17507E+01  1.29956E+01  1.17066E+01  1.02536E+01  1.21791E+01  1.10243E+01  1.23278E+01  1.07610E+01
   9.48749E+00  1.10129E+01  1.04387E+01  1.16940E+01  1.16748E+01  1.07138E+01  1.05310E+01  9.68343E+00  8.56484E+00  7.63204E+00
   7.62868E+00  7.49485E+00  5.97059E+00  5.89555E+00  8.03525E+00  6.39365E+00  5.56385E+00  7.21250E+00  2.67080E+00  3.89413E+00
   5.17816E+00  5.62079E+00  5.65615E+00  3.76952E+00  7.08620E+00  3.20168E+00  4.56913E+00  5.27420E+00  6.12229E+00  2.80695E+00
   4.51911E+00  3.00756E+00  3.38526E+00  3.62026E+00  1.02001E+00  3.05838E+00  2.59705E+00  2.28767E+00  1.70185E+00  2.42385E+00
   1.19478E+00 -9.66330E-01  1.11755E+00 -6.07863E-02  8.40183E-01  1.27678E-01 -1.40045E-01  1.95456E-01  1.08564E-01 -1.36434E+00
   2.71017E+00  7.07360E-01 -1.50765E+00 -1.59354E+00 -9.24382E-01  3.92635E-01  2.57828E-01 -2.01055E+00 -2.60537E-01 -1.64174E+00
   6.60138E-02 -3.00758E-02 -1.90416E+00 -3.13095E+00 -1.89677E+00 -5.40644E-01 -1.52435E+00 -1.07877E+00 -3.18713E-01 -2.82684E+00
  -2.85111E+00 -1.14238E+00 -1.08261E+00 -1.32165E+00 -1.09978E+00 -1.45196E+00 -2.23492E+00 -2.65841E+00 -4.94808E-03 -8.85251E-01
  -1.61945E+00 -7.29563E-01  3.57155E-01 -6.99491E-01  1.87601E-01 -8.00517E-01 -2.07491E+00 -3.64746E+00 -8.26967E-01 -2.20760E+00
  -2.29571E+00 -2.82584E+00 -1.02594E+00 -9.66177E-01 -8.13786E-01 -4.40542E-01  3.88719E-01 -2.10542E+00 -2.12460E+00 -6.52481E-01
  -3.16397E+00  5.33218E-01 -3.67016E+00  1.49831E-01 -2.42649E+00 -9.19286E-01 -3.01140E+00 -6.84996E-01
 NY points of the fit to the data follow
   1.53461E+00  1.47965E+00  1.44463E+00  1.44631E+00  1.47611E+00  1.49458E+00  1.50729E+00  1.54243E+00  1.59622E+00  1.60529E+00
   1.45328E+00  1.55999E+00  1.84367E+00  1.86839E+00  1.92419E+00  1.97653E+00  1.90812E+00  1.91048E+00  1.87829E+00  1.84298E+00
   1.79004E+00  1.73447E+00  1.74546E+00  1.72034E+00  1.60556E+00  1.50359E+00  1.31694E+00  1.22557E+00  1.23364E+00  1.23556E+00
   1.34801E+00  1.31064E+00  1.26880E+00  1.20203E+00  1.13121E+00  1.10480E+00  1.15643E+00  1.09900E+00  9.87940E-01  9.10614E-01
   6.66458E-01  6.16819E-01  5.56806E-01  5.86092E-01  8.41594E-01  9.77017E-01  1.30995E+00  1.46697E+00  1.57660E+00  1.55228E+00
   1.14501E+00  1.01183E+00  7.78040E-01  6.43284E-01  5.72563E-01  5.25841E-01  5.93450E-01  6.09798E-01  6.72992E-01  7.02791E-01
   6.81828E-01  6.55588E-01  6.42465E-01  6.25354E-01  6.22704E-01  5.90400E-01  5.65858E-01  5.13495E-01  5.01932E-01  4.65245E-01
   4.22862E-01  3.96780E-01  3.69108E-01  3.66474E-01  3.80221E-01  3.68186E-01  3.49094E-01  2.98054E-01  2.63746E-01  2.17352E-01
   1.88895E-01  1.81317E-01  1.30637E-01  1.03804E-01  8.47573E-02  3.25169E-01  8.08573E-01  6.93748E-01  8.07601E-01  6.15211E-01
   6.52263E-01  6.32206E-01  9.12965E-01  7.67129E-01  9.11193E-01  6.23094E-01  5.74010E-01  3.66199E-01  3.35510E-01  2.21948E-01
   1.94985E-01  1.75426E-01  2.11050E-01  1.91167E-01  2.27992E-01  1.19415E-01 -5.47360E-03 -5.37978E-02 -7.86128E-02 -7.26418E-02
  -3.56159E-02 -2.14379E-01 -5.55256E-01 -6.24233E-01 -9.75782E-01 -6.59338E-01 -4.61421E-01 -1.86897E-01  2.24375E-01  2.46860E-01
   5.73762E-01  4.35383E-01  6.14433E-01  3.08412E-01  1.40523E-01 -5.65258E-03 -4.42626E-02 -1.13940E-01 -9.34784E-02 -1.09085E-01
  -3.06380E-02 -1.64466E-02  4.90767E-02  3.40401E-02  5.04186E-02  2.65177E-03 -7.96458E-02 -1.25596E-01 -1.18944E-01 -8.98772E-02
  -5.48918E-03  2.80488E-02 -5.90600E-02 -6.55884E-02 -9.65171E-02 -7.77416E-03  1.24933E-01  2.46547E-01  3.08601E-01  3.23332E-01
   2.13690E-01  1.26171E-01 -7.81326E-02 -9.71511E-02 -1.07141E-01 -3.70904E-02  1.12767E-01  1.03712E-01  1.37366E-01  1.55381E-01
   1.55935E-01  1.69984E-01  2.08504E-01  2.11334E-01  1.63605E-01  1.20965E-01  1.00346E-01  3.49938E-02 -6.93311E-03 -8.81707E-02
  -9.11224E-02 -1.18924E-01  7.03607E-03  7.28714E-02  2.33099E-01  2.71191E-01  1.95748E-01  1.78415E-01  1.30211E-01  4.50137E-02
  -2.91049E-02 -6.47414E-02 -1.03912E-01 -1.27346E-01 -1.78371E-01 -1.97823E-01 -2.50572E-01 -2.61111E-01 -2.02462E-01 -2.12285E-01
  -1.59070E-01 -1.83682E-01 -3.79041E-01 -4.19571E-01 -6.37056E-01 -6.96437E-01 -7.60107E-01 -7.82082E-01 -5.42849E-01 -5.21971E-01
  -6.33861E-01 -7.26085E-01 -8.34929E-01 -8.65366E-01 -9.08146E-01 -1.01135E+00 -8.51573E-01 -7.07999E-01 -7.91528E-01 -8.22677E-01
  -1.22684E+00 -1.45934E+00 -1.74259E+00 -1.86645E+00 -1.89854E+00 -1.75464E+00 -1.60403E+00 -1.33962E+00 -1.08010E+00 -1.00257E+00
  -9.48786E-01 -1.03639E+00 -1.22136E+00 -1.41673E+00 -1.90418E+00 -2.19612E+00 -2.51053E+00 -2.62705E+00 -2.41699E+00 -2.38112E+00
  -1.91506E+00 -1.71015E+00 -1.50301E+00 -1.55525E+00 -1.83153E+00 -2.33562E+00 -3.01844E+00 -3.24464E+00 -1.50483E+00 -1.38843E+00
  -1.07778E+00 -1.27430E+00 -1.21729E+00 -1.15918E+00 -5.25924E-02 -1.42188E-01  4.77390E-01  6.71728E-02 -2.15045E-01 -5.99682E-01
  -9.00283E-01 -1.00582E+00 -1.25811E+00 -1.34822E+00 -1.44500E+00 -1.68722E+00 -1.84821E+00 -2.22867E+00 -2.80387E+00 -3.12718E+00
  -3.14943E+00 -3.10773E+00 -2.67646E+00 -2.86254E+00 -4.24127E+00 -5.03759E+00 -6.86599E+00 -7.33120E+00 -7.11221E+00 -6.82699E+00
  -5.24464E+00 -4.76683E+00 -3.48988E+00 -3.43692E+00 -3.12835E+00 -3.62398E+00 -4.80211E+00 -5.48756E+00 -5.80212E+00 -6.09545E+00
  -6.35801E+00 -6.62993E+00 -6.94950E+00 -7.22952E+00 -7.56986E+00 -7.83914E+00 -8.10181E+00 -8.33744E+00 -8.55848E+00 -8.77363E+00
  -8.98083E+00 -9.23016E+00 -9.48522E+00 -9.77180E+00 -1.00875E+01 -1.03999E+01 -1.07090E+01 -1.09948E+01 -1.12642E+01 -1.15552E+01
  -1.18423E+01 -1.21522E+01 -1.24824E+01 -1.28524E+01 -1.32289E+01 -1.36275E+01 -1.40181E+01 -1.44243E+01 -1.48267E+01 -1.52474E+01
  -1.56807E+01 -1.61450E+01 -1.66414E+01 -1.71744E+01 -1.77208E+01 -1.82940E+01 -1.88767E+01 -1.94716E+01 -2.00696E+01 -2.06573E+01
  -2.12391E+01 -2.17996E+01 -2.23249E+01 -2.27993E+01 -2.32033E+01 -2.35172E+01 -2.37200E+01 -2.37901E+01 -2.37071E+01 -2.34507E+01
  -2.30044E+01 -2.23535E+01 -2.14886E+01 -2.04041E+01 -1.90999E+01 -1.75816E+01 -1.58597E+01 -1.39496E+01 -1.18707E+01 -9.64547E+00
  -7.29811E+00 -4.85359E+00 -2.33681E+00  2.28700E-01  2.82105E+00  5.42063E+00  8.00964E+00  1.05721E+01  1.30931E+01  1.55579E+01
   1.79515E+01  2.02579E+01  2.24596E+01  2.45374E+01  2.64707E+01  2.82380E+01  2.98179E+01  3.11902E+01  3.23366E+01  3.32425E+01
   3.38978E+01  3.42978E+01  3.44434E+01  3.43417E+01  3.40052E+01  3.34519E+01  3.27039E+01  3.17865E+01  3.07272E+01  2.95544E+01
   2.82963E+01  2.69801E+01  2.56309E+01  2.42717E+01  2.29225E+01  2.16005E+01  2.03199E+01  1.90921E+01  1.79260E+01  1.68281E+01
   1.58031E+01  1.48538E+01  1.39816E+01  1.31867E+01  1.24682E+01  1.18244E+01  1.12526E+01  1.07494E+01  1.03106E+01  9.93157E+00
   9.60695E+00  9.33095E+00  9.09723E+00  8.89926E+00  8.73024E+00  8.58352E+00  8.45244E+00  8.33078E+00  8.21262E+00  8.09282E+00
   7.96682E+00  7.83107E+00  7.68267E+00  7.51976E+00  7.34115E+00  7.14664E+00  6.93659E+00  6.71212E+00  6.47465E+00  6.22611E+00
   5.96852E+00  5.70419E+00  5.43530E+00  5.16412E+00  4.89259E+00  4.62261E+00  4.35573E+00  4.09344E+00  3.83681E+00  3.58684E+00
   3.34412E+00  3.10921E+00  2.88237E+00  2.66386E+00  2.45368E+00  2.25183E+00  2.05810E+00  1.87238E+00  1.69438E+00  1.52395E+00
   1.36074E+00  1.20452E+00  1.05494E+00  9.11791E-01  7.74754E-01  6.43645E-01  5.18137E-01  3.98043E-01  2.83066E-01  1.73072E-01
   6.78081E-02 -3.28451E-02 -1.29147E-01 -2.21212E-01 -3.09259E-01 -3.93356E-01 -4.73693E-01 -5.50343E-01 -6.23509E-01 -6.93247E-01
  -7.59722E-01 -8.22953E-01 -8.83103E-01 -9.40206E-01 -9.94428E-01 -1.04578E+00 -1.09440E+00 -1.14028E+00 -1.18355E+00 -1.22423E+00
  -1.26246E+00 -1.29822E+00 -1.33162E+00 -1.36265E+00 -1.39142E+00 -1.41793E+00 -1.44231E+00 -1.46451E+00 -1.48463E+00 -1.50265E+00
  -1.51868E+00 -1.53271E+00 -1.54484E+00 -1.55501E+00 -1.56332E+00 -1.56975E+00 -1.57440E+00 -1.57724E+00 -1.57836E+00 -1.57772E+00
  -1.57539E+00 -1.57135E+00 -1.56571E+00 -1.55843E+00 -1.54959E+00 -1.53914E+00 -1.52717E+00 -1.51367E+00 -1.49873E+00 -1.48233E+00
  -1.46452E+00 -1.44531E+00 -1.42478E+00 -1.40295E+00 -1.37994E+00 -1.35576E+00 -1.33054E+00 -1.30436E+00
 NY background values follow
     1.554E+00    1.554E+00    1.552E+00    1.551E+00    1.549E+00    1.547E+00    1.545E+00    1.542E+00    1.539E+00    1.536E+00
     1.532E+00    1.529E+00    1.524E+00    1.520E+00    1.516E+00    1.511E+00    1.506E+00    1.501E+00    1.495E+00    1.489E+00
     1.484E+00    1.478E+00    1.471E+00    1.465E+00    1.458E+00    1.452E+00    1.445E+00    1.438E+00    1.431E+00    1.423E+00
     1.416E+00    1.408E+00    1.401E+00    1.393E+00    1.385E+00    1.377E+00    1.369E+00    1.361E+00    1.353E+00    1.345E+00
     1.337E+00    1.328E+00    1.320E+00    1.312E+00    1.304E+00    1.295E+00    1.287E+00    1.278E+00    1.270E+00    1.262E+00
     1.254E+00    1.245E+00    1.237E+00    1.229E+00    1.221E+00    1.213E+00    1.205E+00    1.197E+00    1.189E+00    1.182E+00
     1.174E+00    1.167E+00    1.159E+00    1.152E+00    1.145E+00    1.138E+00    1.131E+00    1.124E+00    1.118E+00    1.112E+00
     1.105E+00    1.099E+00    1.094E+00    1.088E+00    1.082E+00    1.077E+00    1.072E+00    1.067E+00    1.063E+00    1.059E+00
     1.054E+00    1.051E+00    1.047E+00    1.044E+00    1.041E+00    1.038E+00    1.035E+00    1.033E+00    1.031E+00    1.030E+00
     1.028E+00    1.027E+00    1.027E+00    1.026E+00    1.026E+00    1.027E+00    1.027E+00    1.028E+00    1.030E+00    1.031E+00
     1.033E+00    1.036E+00    1.039E+00    1.042E+00    1.045E+00    1.049E+00    1.054E+00    1.059E+00    1.064E+00    1.070E+00
     1.076E+00    1.082E+00    1.089E+00    1.096E+00    1.104E+00    1.113E+00    1.121E+00    1.130E+00    1.140E+00    1.150E+00
     1.161E+00    1.172E+00    1.184E+00    1.196E+00    1.208E+00    1.221E+00    1.235E+00    1.249E+00    1.263E+00    1.278E+00
     1.293E+00    1.309E+00    1.325E+00    1.342E+00    1.358E+00    1.375E+00    1.393E+00    1.410E+00    1.428E+00    1.446E+00
     1.465E+00    1.483E+00    1.502E+00    1.521E+00    1.540E+00    1.559E+00    1.578E+00    1.597E+00    1.617E+00    1.636E+00
     1.656E+00    1.675E+00    1.695E+00    1.714E+00    1.733E+00    1.753E+00    1.772E+00    1.791E+00    1.810E+00    1.829E+00
     1.848E+00    1.866E+00    1.885E+00    1.903E+00    1.921E+00    1.939E+00    1.956E+00    1.974E+00    1.991E+00    2.007E+00
     2.024E+00    2.040E+00    2.055E+00    2.071E+00    2.086E+00    2.100E+00    2.114E+00    2.128E+00    2.141E+00    2.154E+00
     2.166E+00    2.178E+00    2.190E+00    2.201E+00    2.211E+00    2.221E+00    2.230E+00    2.239E+00    2.247E+00    2.254E+00
     2.261E+00    2.267E+00    2.273E+00    2.278E+00    2.282E+00    2.286E+00    2.288E+00    2.291E+00    2.292E+00    2.293E+00
     2.293E+00    2.292E+00    2.291E+00    2.288E+00    2.285E+00    2.281E+00    2.277E+00    2.271E+00    2.265E+00    2.258E+00
     2.249E+00    2.241E+00    2.231E+00    2.220E+00    2.208E+00    2.196E+00    2.183E+00    2.168E+00    2.153E+00    2.137E+00
     2.120E+00    2.101E+00    2.082E+00    2.062E+00    2.041E+00    2.019E+00    1.996E+00    1.972E+00    1.947E+00    1.921E+00
     1.894E+00    1.865E+00    1.836E+00    1.806E+00    1.774E+00    1.742E+00    1.708E+00    1.674E+00    1.638E+00    1.601E+00
     1.563E+00    1.524E+00    1.484E+00    1.443E+00    1.401E+00    1.357E+00    1.313E+00    1.267E+00    1.220E+00    1.172E+00
     1.123E+00    1.073E+00    1.022E+00    9.694E-01    9.160E-01    8.616E-01    8.062E-01    7.498E-01    6.925E-01    6.342E-01
     5.751E-01    5.151E-01    4.542E-01    3.924E-01    3.299E-01    2.665E-01    2.024E-01    1.375E-01    7.193E-02    5.621E-03
    -6.138E-02   -1.290E-01   -1.974E-01   -2.663E-01   -3.358E-01   -4.060E-01   -4.767E-01   -5.479E-01   -6.196E-01   -6.919E-01
    -7.646E-01   -8.378E-01   -9.114E-01   -9.855E-01   -1.060E+00   -1.135E+00   -1.210E+00   -1.285E+00   -1.361E+00   -1.437E+00
    -1.514E+00   -1.591E+00   -1.667E+00   -1.745E+00   -1.822E+00   -1.899E+00   -1.977E+00   -2.055E+00   -2.133E+00   -2.211E+00
    -2.289E+00   -2.367E+00   -2.446E+00   -2.524E+00   -2.602E+00   -2.681E+00   -2.759E+00   -2.837E+00   -2.916E+00   -2.994E+00
    -3.072E+00   -3.150E+00   -3.228E+00   -3.305E+00   -3.383E+00   -3.460E+00   -3.537E+00   -3.614E+00   -3.691E+00   -3.768E+00
    -3.844E+00   -3.920E+00   -3.996E+00   -4.071E+00   -4.146E+00   -4.221E+00   -4.295E+00   -4.369E+00   -4.443E+00   -4.516E+00
    -4.589E+00   -4.661E+00   -4.733E+00   -4.805E+00   -4.876E+00   -4.946E+00   -5.017E+00   -5.086E+00   -5.155E+00   -5.224E+00
    -5.292E+00   -5.359E+00   -5.426E+00   -5.492E+00   -5.558E+00   -5.623E+00   -5.687E+00   -5.751E+00   -5.814E+00   -5.876E+00
    -5.938E+00   -5.999E+00   -6.060E+00   -6.119E+00   -6.178E+00   -6.237E+00   -6.294E+00   -6.351E+00   -6.407E+00   -6.462E+00
    -6.516E+00   -6.570E+00   -6.623E+00   -6.675E+00   -6.726E+00   -6.776E+00   -6.825E+00   -6.874E+00   -6.922E+00   -6.969E+00
    -7.015E+00   -7.060E+00   -7.104E+00   -7.147E+00   -7.190E+00   -7.231E+00   -7.272E+00   -7.311E+00   -7.350E+00   -7.388E+00
    -7.425E+00   -7.461E+00   -7.496E+00   -7.530E+00   -7.563E+00   -7.596E+00   -7.627E+00   -7.658E+00   -7.687E+00   -7.716E+00
    -7.744E+00   -7.771E+00   -7.797E+00   -7.822E+00   -7.846E+00   -7.870E+00   -7.892E+00   -7.914E+00   -7.934E+00   -7.954E+00
    -7.973E+00   -7.991E+00   -8.008E+00   -8.024E+00   -8.039E+00   -8.054E+00   -8.067E+00   -8.080E+00   -8.091E+00   -8.102E+00
    -8.112E+00   -8.121E+00   -8.129E+00   -8.136E+00   -8.142E+00   -8.148E+00   -8.152E+00   -8.156E+00   -8.158E+00   -8.160E+00
    -8.161E+00   -8.161E+00   -8.160E+00   -8.158E+00   -8.156E+00   -8.152E+00   -8.148E+00   -8.142E+00   -8.136E+00   -8.129E+00
    -8.121E+00   -8.112E+00   -8.102E+00   -8.092E+00   -8.080E+00   -8.068E+00   -8.054E+00   -8.040E+00   -8.025E+00   -8.009E+00
    -7.992E+00   -7.974E+00   -7.955E+00   -7.936E+00   -7.915E+00   -7.894E+00   -7.872E+00   -7.849E+00   -7.825E+00   -7.800E+00
    -7.774E+00   -7.747E+00   -7.720E+00   -7.691E+00   -7.662E+00   -7.632E+00   -7.601E+00   -7.569E+00   -7.536E+00   -7.502E+00
    -7.467E+00   -7.432E+00   -7.395E+00   -7.358E+00   -7.320E+00   -7.281E+00   -7.241E+00   -7.200E+00   -7.158E+00   -7.115E+00
    -7.072E+00   -7.027E+00   -6.982E+00   -6.936E+00   -6.889E+00   -6.841E+00   -6.792E+00   -6.742E+00   -6.692E+00   -6.640E+00
    -6.588E+00   -6.535E+00   -6.480E+00   -6.425E+00   -6.369E+00   -6.313E+00   -6.255E+00   -6.196E+00   -6.137E+00   -6.076E+00
    -6.015E+00   -5.953E+00   -5.890E+00   -5.826E+00   -5.761E+00   -5.695E+00   -5.629E+00   -5.561E+00
 Asp      Conc. = 1.05E+01
