 LCModel (Version 6.3-1L) Copyright: S.W. Provencher.          Ref.: Magn. Reson. Med. 30:672-679 (1993).                
 Slice#2 Row#1 Col#13  PD_05_press_1_raw_act
 36 lines in following concentration table = NCONC+1
    Conc.  %SD /Cr+PCr  Metabolite                                         
 1.22E+04   5% 179.693 Ala                                                 
    8.453  65%   0.125 Asp                                                 
   67.861  82%   1.000 Cr                                                  
    0.000 999%   0.000 PCr                                                 
    5.073  65% 7.5E-02 GABA                                                
    5.087  65% 7.5E-02 Glc                                                 
    0.000 999%   0.000 Gln                                                 
    0.000 999%   0.000 Glu                                                 
    0.000 999%   0.000 GPC                                                 
   33.856  66%   0.499 PCh                                                 
  208.288  40%   3.069 GSH                                                 
  569.942  46%   8.399 Ins                                                 
 5.11E+03  12%  75.313 Lac                                                 
    0.000 999%   0.000 NAA                                                 
    0.000 999%   0.000 NAAG                                                
    1.696  65% 2.5E-02 Scyllo                                              
    8.487  65%   0.125 Tau                                                 
    7.550 138%   0.111 -CrCH2                                              
   33.856  66%   0.499 GPC+PCh                                             
    0.000 999%   0.000 NAA+NAAG                                            
   67.861  82%   1.000 Cr+PCr                                              
    0.000 999%   0.000 Glu+Gln                                             
    0.000 999%   0.000 Lip13a                                              
    0.000 999%   0.000 Lip13b                                              
    0.000 999%   0.000 Lip09                                               
 1.47E+03  10%  21.687 MM09                                                
    0.000 999%   0.000 Lip20                                               
    0.000 999%   0.000-MM20                                                
  461.683  22%   6.803 MM12                                                
 4.13E+03   7%  60.802+MM14                                                
 1.99E+03  12%  29.389+MM17                                                
    0.000 999%   0.000 Lip13a+Lip13b                                       
 4.59E+03   6%  67.605 MM14+Lip13a+Lip13b+MM12                             
 1.47E+03  10%  21.687 MM09+Lip09                                          
    0.000 999%   0.000 MM20+Lip20                                          
   6 lines in following misc. output table
  FWHM = 0.168 ppm    S/N =  16                                            
  Data shift = 0.306 ppm                                                   
  Ph: -30 deg     -33.4 deg/ppm                                            
  alphaB,S = 1.0E+01,   3.9E+02                                            
    7 spline knots.   Ns = 9(2)                                            
  (13) 4 infls.   ( 7) 1 extrs.                                            
  498 points on ppm-axis = NY
      4.000000     3.992357     3.984714     3.977070     3.969427     3.961784     3.954141     3.946497     3.938854     3.931211
      3.923568     3.915925     3.908281     3.900638     3.892995     3.885352     3.877708     3.870065     3.862422     3.854779
      3.847136     3.839492     3.831849     3.824206     3.816563     3.808919     3.801276     3.793633     3.785990     3.778347
      3.770703     3.763060     3.755417     3.747774     3.740130     3.732487     3.724844     3.717201     3.709558     3.701914
      3.694271     3.686628     3.678985     3.671341     3.663698     3.656055     3.648412     3.640769     3.633125     3.625482
      3.617839     3.610196     3.602552     3.594909     3.587266     3.579623     3.571980     3.564336     3.556693     3.549050
      3.541407     3.533763     3.526120     3.518477     3.510834     3.503191     3.495547     3.487904     3.480261     3.472618
      3.464974     3.457331     3.449688     3.442045     3.434402     3.426758     3.419115     3.411472     3.403829     3.396185
      3.388542     3.380899     3.373256     3.365613     3.357969     3.350326     3.342683     3.335040     3.327396     3.319753
      3.312110     3.304467     3.296824     3.289180     3.281537     3.273894     3.266251     3.258607     3.250964     3.243321
      3.235678     3.228034     3.220391     3.212748     3.205105     3.197462     3.189818     3.182175     3.174532     3.166889
      3.159245     3.151602     3.143959     3.136316     3.128673     3.121029     3.113386     3.105743     3.098100     3.090456
      3.082813     3.075170     3.067527     3.059884     3.052240     3.044597     3.036954     3.029311     3.021667     3.014024
      3.006381     2.998738     2.991095     2.983451     2.975808     2.968165     2.960522     2.952878     2.945235     2.937592
      2.929949     2.922306     2.914662     2.907019     2.899376     2.891733     2.884089     2.876446     2.868803     2.861160
      2.853517     2.845873     2.838230     2.830587     2.822944     2.815300     2.807657     2.800014     2.792371     2.784728
      2.777084     2.769441     2.761798     2.754155     2.746511     2.738868     2.731225     2.723582     2.715939     2.708295
      2.700652     2.693009     2.685366     2.677722     2.670079     2.662436     2.654793     2.647150     2.639506     2.631863
      2.624220     2.616577     2.608933     2.601290     2.593647     2.586004     2.578361     2.570717     2.563074     2.555431
      2.547788     2.540144     2.532501     2.524858     2.517215     2.509572     2.501928     2.494285     2.486642     2.478999
      2.471355     2.463712     2.456069     2.448426     2.440783     2.433139     2.425496     2.417853     2.410210     2.402566
      2.394923     2.387280     2.379637     2.371994     2.364350     2.356707     2.349064     2.341421     2.333777     2.326134
      2.318491     2.310848     2.303205     2.295561     2.287918     2.280275     2.272632     2.264988     2.257345     2.249702
      2.242059     2.234416     2.226772     2.219129     2.211486     2.203843     2.196199     2.188556     2.180913     2.173270
      2.165627     2.157983     2.150340     2.142697     2.135054     2.127410     2.119767     2.112124     2.104481     2.096838
      2.089194     2.081551     2.073908     2.066265     2.058621     2.050978     2.043335     2.035692     2.028049     2.020405
      2.012762     2.005119     1.997476     1.989833     1.982190     1.974546     1.966903     1.959260     1.951617     1.943974
      1.936331     1.928688     1.921045     1.913402     1.905759     1.898115     1.890472     1.882829     1.875186     1.867543
      1.859900     1.852257     1.844614     1.836971     1.829327     1.821684     1.814041     1.806398     1.798755     1.791112
      1.783469     1.775826     1.768183     1.760540     1.752896     1.745253     1.737610     1.729967     1.722324     1.714681
      1.707038     1.699395     1.691752     1.684108     1.676465     1.668822     1.661179     1.653536     1.645893     1.638250
      1.630607     1.622964     1.615321     1.607677     1.600034     1.592391     1.584748     1.577105     1.569462     1.561819
      1.554176     1.546533     1.538890     1.531246     1.523603     1.515960     1.508317     1.500674     1.493031     1.485388
      1.477745     1.470102     1.462458     1.454815     1.447172     1.439529     1.431886     1.424243     1.416600     1.408957
      1.401314     1.393671     1.386027     1.378384     1.370741     1.363098     1.355455     1.347812     1.340169     1.332526
      1.324883     1.317240     1.309596     1.301953     1.294310     1.286667     1.279024     1.271381     1.263738     1.256095
      1.248452     1.240808     1.233165     1.225522     1.217879     1.210236     1.202593     1.194950     1.187307     1.179664
      1.172021     1.164377     1.156734     1.149091     1.141448     1.133805     1.126162     1.118519     1.110876     1.103233
      1.095590     1.087946     1.080303     1.072660     1.065017     1.057374     1.049731     1.042088     1.034445     1.026802
      1.019158     1.011515     1.003872     0.996229     0.988586     0.980943     0.973300     0.965657     0.958014     0.950371
      0.942727     0.935084     0.927441     0.919798     0.912155     0.904512     0.896869     0.889226     0.881583     0.873940
      0.866296     0.858653     0.851010     0.843367     0.835724     0.828081     0.820438     0.812795     0.805152     0.797508
      0.789865     0.782222     0.774579     0.766936     0.759293     0.751650     0.744007     0.736364     0.728721     0.721077
      0.713434     0.705791     0.698148     0.690505     0.682862     0.675219     0.667576     0.659933     0.652290     0.644646
      0.637003     0.629360     0.621717     0.614074     0.606431     0.598788     0.591145     0.583502     0.575858     0.568215
      0.560572     0.552929     0.545286     0.537643     0.530000     0.522357     0.514714     0.507071     0.499427     0.491784
      0.484141     0.476498     0.468855     0.461212     0.453569     0.445925     0.438282     0.430639     0.422996     0.415353
      0.407710     0.400067     0.392424     0.384780     0.377137     0.369494     0.361851     0.354208     0.346565     0.338922
      0.331278     0.323635     0.315992     0.308349     0.300706     0.293063     0.285420     0.277777     0.270133     0.262490
      0.254847     0.247204     0.239561     0.231918     0.224275     0.216631     0.208988     0.201345
 NY phased data points follow
   4.36075E+00  3.98626E+00  4.35399E+00  4.04265E+00  4.37413E+00  4.42194E+00  1.96743E+00  3.14564E+00  5.37638E+00  7.13699E+00
   5.21785E+00  4.88969E+00  5.54037E+00  4.45320E+00  4.45190E+00  3.60583E+00  5.06893E+00  3.86067E+00  3.56952E+00  3.49964E+00
   4.26389E+00  4.99552E+00  4.00137E+00  3.38387E+00  3.00447E+00  6.85960E+00  3.43233E+00  3.10211E+00  3.61169E+00  6.10432E+00
   4.97264E+00  4.05177E+00  2.77769E+00  1.82181E+00  2.74676E+00  4.68799E+00  3.01985E+00  6.74503E+00  6.30048E+00  4.32056E+00
   4.75626E+00  4.79188E+00  6.46133E+00  4.97430E+00  3.85366E+00  4.87282E+00  4.29761E+00  5.25874E+00  3.07097E+00  5.28401E+00
   5.06048E+00  3.60079E+00  5.09117E+00  3.46823E+00  6.44296E+00  5.98429E+00  5.75751E+00  5.02006E+00  3.41257E+00  3.10569E+00
   2.81973E+00  5.25464E+00  4.38100E+00  6.22379E+00  4.16305E+00  5.04938E+00  6.55959E+00  3.67725E+00  5.10441E+00  3.69610E+00
   5.59558E+00  5.16517E+00  2.71664E+00  4.33823E+00  5.01860E+00  5.51689E+00  4.40955E+00  3.66293E+00  2.85484E+00  5.22547E+00
   6.20813E+00  4.58717E+00  2.84783E+00  3.53009E+00  3.06689E+00  3.21419E+00  3.81331E+00  5.26267E+00  2.41433E+00  3.78849E+00
   3.20198E+00  5.20730E+00  3.58307E+00  1.58339E+00  3.34691E+00  4.14809E+00  4.81598E+00  2.79142E+00  2.81697E+00  4.32332E+00
   2.97940E+00  3.84141E+00  2.30717E+00  3.64199E+00  5.63100E+00  2.99910E+00  4.03501E+00  3.72717E+00  4.71509E+00  4.59187E+00
   4.89559E+00  4.45473E+00  3.03020E+00  3.81415E+00  4.40756E+00  3.88187E+00  7.14234E+00  3.96368E+00  4.33791E+00  3.43011E+00
   1.90322E+00  4.25807E+00  2.63624E+00  3.86123E+00  4.13940E+00  3.78137E+00  3.68197E+00  3.56339E+00  3.62223E+00  4.34399E+00
   4.84970E+00  3.26072E+00  3.13621E+00  3.34858E+00  3.64019E+00  4.71185E+00  4.79672E+00  3.43006E+00  3.93683E+00  1.25215E+00
   5.87748E+00  5.10465E+00  4.09307E+00  1.98951E+00  2.90808E+00  5.35895E+00  2.63801E+00  2.08732E+00  2.42735E+00  4.06432E+00
   3.31554E+00  1.23894E+00  2.08953E+00  4.00001E+00  4.05444E+00  3.45870E+00  1.50124E+00  3.83228E+00  2.52476E+00  2.31079E+00
   2.44755E+00  2.97653E+00  2.85067E+00  3.88358E+00  3.10667E+00  2.50744E+00  4.33502E+00  3.14437E+00  5.15453E+00  3.89416E+00
   3.52104E+00  2.30795E+00  9.50872E-01  4.83700E+00  3.62713E+00  2.00290E+00  1.81009E+00  1.70943E+00  2.50987E+00  2.93479E+00
   1.68059E+00  1.47847E+00  2.21142E+00  4.03211E+00  3.04486E+00  1.41656E+00  2.65302E+00  2.42152E+00  2.18110E+00  3.51114E+00
   6.84662E-01  3.45683E+00  3.99968E+00  2.17959E-01  1.48679E+00  3.29351E+00  2.50873E+00  1.89955E+00  4.80396E+00  2.52540E+00
   4.56797E+00  3.35082E+00  3.35881E+00  3.86867E+00  1.57609E+00  4.72678E+00  2.17036E+00  2.09544E+00  2.32171E+00  2.55688E+00
   1.48797E+00  2.63675E+00  2.15444E+00  2.78288E+00  1.03780E+00  2.73305E+00  9.76404E-01 -3.51677E-01 -9.45204E-01 -4.08184E-01
   1.61858E+00  1.05370E+00  1.17932E+00  4.08211E-01  1.30390E+00  1.48021E+00  5.25912E-01  4.21137E+00 -6.38780E-02  1.14918E+00
   8.43215E-01 -8.85587E-01  4.02535E-01  7.89730E-01  1.44640E+00  1.56528E+00  7.34963E-01  2.34017E+00  4.05369E-01  6.57905E-01
   2.09147E+00  1.98583E+00  1.30111E+00  6.97292E-01  1.82852E+00  1.78672E+00  1.46371E+00  7.61333E-01  3.10380E+00  3.84720E-01
   1.87292E+00  3.29065E-01  7.36337E-01  2.22215E+00  2.53399E+00 -1.03474E+00  2.70616E-02  1.75301E+00  1.51338E+00  3.32885E+00
   3.29985E+00  3.44272E+00  2.40559E+00  2.88025E+00  2.81852E+00  1.40237E+00  2.96672E+00  1.58347E+00  2.68207E+00  2.04377E+00
   6.26069E-01  2.37529E+00  1.65418E+00  2.32897E+00  1.76917E+00  2.36712E+00  1.93938E+00  3.30658E+00  1.02459E+00  8.17323E-01
   1.83055E+00  3.53784E+00  1.83627E+00  3.42778E+00  4.30711E+00  4.28915E+00  3.05261E+00  2.53325E+00  3.64707E+00  3.72156E+00
   3.27625E+00  4.05951E+00  4.74886E+00  6.81336E+00  5.35472E+00  9.25283E+00  8.63252E+00  9.82756E+00  1.16680E+01  1.33184E+01
   1.33678E+01  1.87184E+01  1.75965E+01  2.07531E+01  2.33071E+01  2.53407E+01  2.81562E+01  2.77889E+01  3.07457E+01  3.36726E+01
   3.61007E+01  4.05895E+01  4.06853E+01  4.24057E+01  4.52586E+01  4.97067E+01  5.33816E+01  5.54163E+01  5.72800E+01  6.18092E+01
   6.21953E+01  6.55162E+01  6.90698E+01  7.05164E+01  7.07873E+01  7.08067E+01  6.99231E+01  7.00244E+01  6.83931E+01  6.66195E+01
   6.78477E+01  6.53757E+01  6.50335E+01  6.17619E+01  6.00023E+01  5.75590E+01  5.62036E+01  5.30209E+01  5.06982E+01  5.09036E+01
   4.92373E+01  4.64161E+01  4.47928E+01  4.17098E+01  4.04132E+01  4.05057E+01  3.79698E+01  3.60117E+01  3.61976E+01  3.44500E+01
   3.29439E+01  3.26565E+01  3.02876E+01  3.04107E+01  2.87081E+01  2.59062E+01  2.65339E+01  2.62309E+01  2.46242E+01  2.41493E+01
   2.37633E+01  2.28457E+01  2.18119E+01  2.27388E+01  2.12919E+01  2.16282E+01  2.10033E+01  1.92509E+01  1.74951E+01  1.80783E+01
   1.80159E+01  1.87041E+01  1.88312E+01  1.77469E+01  1.65754E+01  1.79062E+01  1.78458E+01  1.52355E+01  1.64390E+01  1.48462E+01
   1.68198E+01  1.57816E+01  1.58647E+01  1.67163E+01  1.65142E+01  1.42217E+01  1.60438E+01  1.42930E+01  1.49595E+01  1.60107E+01
   1.54324E+01  1.51026E+01  1.65392E+01  1.66896E+01  1.50513E+01  1.47594E+01  1.45859E+01  1.42996E+01  1.59541E+01  1.36778E+01
   1.42033E+01  1.49263E+01  1.48617E+01  1.26531E+01  1.26309E+01  1.44528E+01  1.53426E+01  1.30947E+01  1.19718E+01  1.32272E+01
   1.39702E+01  1.38416E+01  1.39756E+01  1.39834E+01  1.30970E+01  1.24940E+01  1.59970E+01  1.26444E+01  1.18461E+01  1.35007E+01
   1.27644E+01  1.07646E+01  1.41686E+01  1.37611E+01  1.43567E+01  1.35283E+01  1.29267E+01  1.27359E+01  1.31462E+01  1.26677E+01
   1.18602E+01  1.16674E+01  1.05121E+01  1.05737E+01  1.25443E+01  1.27013E+01  1.09028E+01  1.03752E+01  1.03473E+01  1.33959E+01
   1.00212E+01  1.15165E+01  1.04957E+01  1.22519E+01  1.12319E+01  1.14997E+01  1.04676E+01  9.18972E+00  9.72437E+00  1.09674E+01
   8.81968E+00  1.13303E+01  1.05336E+01  9.73320E+00  8.83930E+00  9.73736E+00  1.06221E+01  1.03461E+01  1.04759E+01  9.15980E+00
   1.02499E+01  9.89847E+00  9.71488E+00  9.29809E+00  1.24003E+01  1.06089E+01  1.11070E+01  1.01113E+01  9.32816E+00  1.11067E+01
   1.01608E+01  8.86699E+00  9.59851E+00  8.22032E+00  8.75651E+00  8.43629E+00  1.11122E+01  1.04227E+01  1.08026E+01  8.29309E+00
   8.13518E+00  8.59534E+00  7.93018E+00  8.10427E+00  1.03649E+01  1.21534E+01  8.89919E+00  9.85895E+00  8.74960E+00  8.41494E+00
   8.36213E+00  7.55165E+00  9.81074E+00  1.05780E+01  8.45804E+00  7.59527E+00  8.74955E+00  6.93888E+00
 NY points of the fit to the data follow
   4.25014E+00  4.80421E+00  3.92690E+00  4.53082E+00  4.17694E+00  5.06879E+00  5.12518E+00  6.16217E+00  5.70722E+00  6.08033E+00
   5.24564E+00  5.16710E+00  4.33762E+00  4.27793E+00  3.31072E+00  3.92359E+00  3.45364E+00  4.29611E+00  4.00819E+00  4.78854E+00
   4.40286E+00  5.10979E+00  4.36448E+00  4.76914E+00  4.02495E+00  4.28369E+00  3.64739E+00  3.86232E+00  3.46993E+00  3.86184E+00
   3.78281E+00  4.13019E+00  4.23198E+00  4.49161E+00  4.67929E+00  4.71514E+00  4.86314E+00  4.73151E+00  4.92899E+00  4.58354E+00
   4.69466E+00  4.35998E+00  4.55429E+00  4.27187E+00  4.53304E+00  4.31288E+00  4.78544E+00  4.76428E+00  5.04477E+00  4.89987E+00
   5.02100E+00  4.80816E+00  4.84170E+00  4.47915E+00  4.34965E+00  4.22036E+00  4.27706E+00  4.27604E+00  4.39573E+00  4.47201E+00
   4.64333E+00  4.72262E+00  4.76408E+00  4.74112E+00  4.74435E+00  4.69242E+00  4.68204E+00  4.61161E+00  4.60036E+00  4.53534E+00
   4.53410E+00  4.44066E+00  4.42613E+00  4.31419E+00  4.29274E+00  4.17261E+00  4.14991E+00  4.01712E+00  4.00418E+00  3.85086E+00
   3.82910E+00  3.67757E+00  3.66577E+00  3.52460E+00  3.54114E+00  3.48692E+00  3.57174E+00  3.48473E+00  3.59196E+00  3.48363E+00
   3.61630E+00  3.52176E+00  3.68535E+00  3.59484E+00  3.78770E+00  3.67507E+00  3.87618E+00  3.74631E+00  3.95434E+00  3.81539E+00
   4.02811E+00  3.86562E+00  4.06082E+00  3.86982E+00  4.04009E+00  3.82703E+00  3.96993E+00  3.77296E+00  3.90307E+00  3.77626E+00
   3.89037E+00  3.76238E+00  3.85144E+00  3.73566E+00  3.81390E+00  3.75784E+00  3.85464E+00  3.80587E+00  3.87242E+00  3.81375E+00
   3.84863E+00  3.79558E+00  3.84845E+00  3.79649E+00  3.87908E+00  3.83334E+00  3.92956E+00  3.83662E+00  3.93261E+00  3.79372E+00
   3.89943E+00  3.72764E+00  3.83461E+00  3.62695E+00  3.72972E+00  3.50294E+00  3.60724E+00  3.37502E+00  3.48853E+00  3.25910E+00
   3.36938E+00  3.15000E+00  3.24523E+00  3.04002E+00  3.11487E+00  2.92436E+00  2.97667E+00  2.80536E+00  2.84266E+00  2.72589E+00
   2.75532E+00  2.65599E+00  2.66616E+00  2.58481E+00  2.58121E+00  2.53156E+00  2.53297E+00  2.49108E+00  2.47408E+00  2.43445E+00
   2.39827E+00  2.36628E+00  2.32797E+00  2.30594E+00  2.27791E+00  2.25763E+00  2.23460E+00  2.20530E+00  2.17768E+00  2.14674E+00
   2.11876E+00  2.09336E+00  2.08385E+00  2.07593E+00  2.08174E+00  2.07561E+00  2.07024E+00  2.05703E+00  2.04253E+00  2.01609E+00
   1.97771E+00  1.97601E+00  1.95163E+00  1.96742E+00  1.94382E+00  1.96566E+00  1.93400E+00  1.96707E+00  1.93275E+00  1.97574E+00
   1.93964E+00  1.98809E+00  1.94566E+00  1.99369E+00  1.94738E+00  2.00084E+00  1.95979E+00  2.01372E+00  1.98249E+00  2.03730E+00
   2.01749E+00  2.06594E+00  2.04993E+00  2.09094E+00  2.08150E+00  2.11460E+00  2.11270E+00  2.13553E+00  2.13608E+00  2.15034E+00
   2.15138E+00  2.15647E+00  2.16112E+00  2.15269E+00  2.14431E+00  2.14220E+00  2.14193E+00  2.15046E+00  2.16092E+00  2.17874E+00
   2.19269E+00  2.19214E+00  2.18429E+00  2.17046E+00  2.15620E+00  2.14132E+00  2.12754E+00  2.11735E+00  2.12807E+00  2.11851E+00
   2.13780E+00  2.12558E+00  2.15312E+00  2.13985E+00  2.17686E+00  2.15420E+00  2.19260E+00  2.16307E+00  2.20464E+00  2.17268E+00
   2.21716E+00  2.19277E+00  2.24768E+00  2.23271E+00  2.29385E+00  2.28900E+00  2.35291E+00  2.35487E+00  2.41342E+00  2.42331E+00
   2.48062E+00  2.50180E+00  2.55896E+00  2.58356E+00  2.63200E+00  2.66481E+00  2.71288E+00  2.75532E+00  2.80638E+00  2.86862E+00
   2.93330E+00  2.99698E+00  3.05769E+00  3.12034E+00  3.17974E+00  3.24205E+00  3.29815E+00  3.36653E+00  3.43525E+00  3.51181E+00
   3.58906E+00  3.67216E+00  3.75774E+00  3.84698E+00  3.93829E+00  4.03276E+00  4.13060E+00  4.23320E+00  4.33994E+00  4.45228E+00
   4.56966E+00  4.69371E+00  4.82385E+00  4.96197E+00  5.10767E+00  5.26312E+00  5.42827E+00  5.60573E+00  5.79594E+00  6.00221E+00
   6.22597E+00  6.47153E+00  6.74208E+00  7.04395E+00  7.38249E+00  7.76709E+00  8.20689E+00  8.71593E+00  9.30931E+00  1.00079E+01
   1.08355E+01  1.18241E+01  1.30126E+01  1.44529E+01  1.62138E+01  1.83957E+01  2.11564E+01  2.47796E+01  2.97183E+01  3.53557E+01
   3.86638E+01  4.23657E+01  4.41936E+01  4.69118E+01  4.80823E+01  5.01910E+01  5.05056E+01  5.48924E+01  5.69088E+01  6.13635E+01
   6.30036E+01  6.62839E+01  6.67359E+01  6.92140E+01  6.87523E+01  7.01370E+01  6.89699E+01  6.91532E+01  6.79577E+01  6.85371E+01
   6.64724E+01  6.53801E+01  6.32355E+01  6.11093E+01  5.93429E+01  5.66122E+01  5.46401E+01  5.32497E+01  5.18283E+01  5.01471E+01
   4.88572E+01  4.67292E+01  4.52046E+01  4.34374E+01  4.17655E+01  3.99905E+01  3.83445E+01  3.65393E+01  3.56626E+01  3.47900E+01
   3.37058E+01  3.30183E+01  3.18630E+01  3.10233E+01  2.96135E+01  2.81084E+01  2.62149E+01  2.53196E+01  2.43173E+01  2.38267E+01
   2.32550E+01  2.28262E+01  2.23882E+01  2.19892E+01  2.15592E+01  2.09878E+01  2.05808E+01  1.98907E+01  1.99048E+01  1.99799E+01
   1.97292E+01  1.93810E+01  1.89725E+01  1.82805E+01  1.76883E+01  1.63949E+01  1.55925E+01  1.50942E+01  1.47527E+01  1.45121E+01
   1.43443E+01  1.42336E+01  1.41693E+01  1.41447E+01  1.41538E+01  1.41922E+01  1.42551E+01  1.43389E+01  1.44393E+01  1.45526E+01
   1.46747E+01  1.48018E+01  1.49294E+01  1.50538E+01  1.51707E+01  1.52769E+01  1.53685E+01  1.54426E+01  1.54960E+01  1.55270E+01
   1.55333E+01  1.55143E+01  1.54690E+01  1.53979E+01  1.53012E+01  1.51804E+01  1.50369E+01  1.48732E+01  1.46913E+01  1.44942E+01
   1.42844E+01  1.40652E+01  1.38390E+01  1.36091E+01  1.33777E+01  1.31474E+01  1.29201E+01  1.26981E+01  1.24825E+01  1.22750E+01
   1.20763E+01  1.18874E+01  1.17085E+01  1.15402E+01  1.13824E+01  1.12352E+01  1.10980E+01  1.09711E+01  1.08536E+01  1.07455E+01
   1.06459E+01  1.05548E+01  1.04711E+01  1.03949E+01  1.03252E+01  1.02620E+01  1.02044E+01  1.01524E+01  1.01051E+01  1.00627E+01
   1.00243E+01  9.99007E+00  9.95924E+00  9.93195E+00  9.90753E+00  9.88619E+00  9.86729E+00  9.85104E+00  9.83682E+00  9.82487E+00
   9.81465E+00  9.80645E+00  9.79972E+00  9.79472E+00  9.79093E+00  9.78866E+00  9.78743E+00  9.78758E+00  9.78859E+00  9.79080E+00
   9.79371E+00  9.79769E+00  9.80229E+00  9.80786E+00  9.81393E+00  9.82084E+00  9.82815E+00  9.83626E+00  9.84471E+00  9.85388E+00
   9.86330E+00  9.87336E+00  9.88363E+00  9.89451E+00  9.90557E+00  9.91718E+00  9.92889E+00  9.94112E+00  9.95344E+00  9.96626E+00
   9.97915E+00  9.99249E+00  1.00059E+01  1.00197E+01  1.00336E+01  1.00479E+01  1.00622E+01  1.00770E+01  1.00919E+01  1.01072E+01
   1.01226E+01  1.01386E+01  1.01546E+01  1.01714E+01  1.01884E+01  1.02062E+01  1.02246E+01  1.02442E+01
 NY background values follow
     2.982E+00    2.982E+00    2.981E+00    2.981E+00    2.981E+00    2.981E+00    2.980E+00    2.980E+00    2.980E+00    2.980E+00
     2.979E+00    2.979E+00    2.979E+00    2.979E+00    2.979E+00    2.978E+00    2.978E+00    2.978E+00    2.978E+00    2.978E+00
     2.978E+00    2.977E+00    2.977E+00    2.977E+00    2.977E+00    2.976E+00    2.976E+00    2.976E+00    2.975E+00    2.975E+00
     2.975E+00    2.974E+00    2.974E+00    2.973E+00    2.973E+00    2.972E+00    2.972E+00    2.971E+00    2.970E+00    2.969E+00
     2.969E+00    2.968E+00    2.967E+00    2.966E+00    2.965E+00    2.964E+00    2.963E+00    2.961E+00    2.960E+00    2.959E+00
     2.957E+00    2.956E+00    2.954E+00    2.953E+00    2.951E+00    2.949E+00    2.947E+00    2.945E+00    2.943E+00    2.941E+00
     2.939E+00    2.936E+00    2.934E+00    2.931E+00    2.929E+00    2.926E+00    2.923E+00    2.920E+00    2.917E+00    2.914E+00
     2.911E+00    2.907E+00    2.904E+00    2.900E+00    2.896E+00    2.893E+00    2.889E+00    2.884E+00    2.880E+00    2.876E+00
     2.871E+00    2.867E+00    2.862E+00    2.857E+00    2.852E+00    2.846E+00    2.841E+00    2.836E+00    2.830E+00    2.824E+00
     2.818E+00    2.812E+00    2.806E+00    2.799E+00    2.792E+00    2.786E+00    2.779E+00    2.772E+00    2.764E+00    2.757E+00
     2.749E+00    2.741E+00    2.733E+00    2.725E+00    2.717E+00    2.708E+00    2.699E+00    2.690E+00    2.681E+00    2.672E+00
     2.662E+00    2.653E+00    2.643E+00    2.633E+00    2.622E+00    2.612E+00    2.601E+00    2.590E+00    2.579E+00    2.567E+00
     2.556E+00    2.544E+00    2.532E+00    2.520E+00    2.507E+00    2.494E+00    2.481E+00    2.468E+00    2.455E+00    2.441E+00
     2.428E+00    2.414E+00    2.399E+00    2.385E+00    2.371E+00    2.356E+00    2.341E+00    2.326E+00    2.311E+00    2.296E+00
     2.280E+00    2.265E+00    2.249E+00    2.234E+00    2.218E+00    2.202E+00    2.186E+00    2.170E+00    2.154E+00    2.138E+00
     2.122E+00    2.105E+00    2.089E+00    2.073E+00    2.057E+00    2.040E+00    2.024E+00    2.007E+00    1.991E+00    1.975E+00
     1.958E+00    1.942E+00    1.926E+00    1.909E+00    1.893E+00    1.877E+00    1.861E+00    1.845E+00    1.829E+00    1.813E+00
     1.797E+00    1.782E+00    1.766E+00    1.751E+00    1.735E+00    1.720E+00    1.705E+00    1.690E+00    1.675E+00    1.660E+00
     1.646E+00    1.631E+00    1.617E+00    1.603E+00    1.589E+00    1.576E+00    1.562E+00    1.549E+00    1.536E+00    1.523E+00
     1.511E+00    1.499E+00    1.487E+00    1.475E+00    1.463E+00    1.452E+00    1.441E+00    1.430E+00    1.420E+00    1.410E+00
     1.400E+00    1.390E+00    1.381E+00    1.372E+00    1.363E+00    1.355E+00    1.347E+00    1.340E+00    1.333E+00    1.326E+00
     1.319E+00    1.313E+00    1.307E+00    1.302E+00    1.297E+00    1.293E+00    1.289E+00    1.285E+00    1.282E+00    1.279E+00
     1.277E+00    1.275E+00    1.273E+00    1.272E+00    1.272E+00    1.272E+00    1.272E+00    1.273E+00    1.275E+00    1.277E+00
     1.279E+00    1.282E+00    1.285E+00    1.290E+00    1.294E+00    1.299E+00    1.305E+00    1.311E+00    1.318E+00    1.325E+00
     1.333E+00    1.342E+00    1.351E+00    1.361E+00    1.371E+00    1.382E+00    1.394E+00    1.406E+00    1.419E+00    1.433E+00
     1.447E+00    1.462E+00    1.477E+00    1.493E+00    1.510E+00    1.527E+00    1.545E+00    1.564E+00    1.583E+00    1.603E+00
     1.623E+00    1.644E+00    1.665E+00    1.687E+00    1.710E+00    1.733E+00    1.757E+00    1.781E+00    1.805E+00    1.831E+00
     1.856E+00    1.883E+00    1.909E+00    1.937E+00    1.964E+00    1.993E+00    2.021E+00    2.050E+00    2.080E+00    2.110E+00
     2.140E+00    2.171E+00    2.203E+00    2.234E+00    2.267E+00    2.299E+00    2.332E+00    2.366E+00    2.399E+00    2.434E+00
     2.468E+00    2.503E+00    2.538E+00    2.574E+00    2.610E+00    2.646E+00    2.683E+00    2.720E+00    2.757E+00    2.795E+00
     2.833E+00    2.871E+00    2.910E+00    2.949E+00    2.988E+00    3.027E+00    3.067E+00    3.107E+00    3.147E+00    3.187E+00
     3.228E+00    3.269E+00    3.310E+00    3.351E+00    3.393E+00    3.435E+00    3.477E+00    3.519E+00    3.561E+00    3.604E+00
     3.646E+00    3.689E+00    3.732E+00    3.776E+00    3.819E+00    3.862E+00    3.906E+00    3.950E+00    3.994E+00    4.037E+00
     4.082E+00    4.126E+00    4.170E+00    4.214E+00    4.259E+00    4.303E+00    4.348E+00    4.392E+00    4.437E+00    4.482E+00
     4.526E+00    4.571E+00    4.616E+00    4.661E+00    4.706E+00    4.751E+00    4.795E+00    4.840E+00    4.885E+00    4.930E+00
     4.975E+00    5.019E+00    5.064E+00    5.109E+00    5.153E+00    5.198E+00    5.242E+00    5.286E+00    5.331E+00    5.375E+00
     5.419E+00    5.463E+00    5.507E+00    5.550E+00    5.594E+00    5.638E+00    5.681E+00    5.724E+00    5.767E+00    5.810E+00
     5.853E+00    5.895E+00    5.938E+00    5.980E+00    6.022E+00    6.064E+00    6.105E+00    6.147E+00    6.188E+00    6.229E+00
     6.270E+00    6.310E+00    6.351E+00    6.391E+00    6.431E+00    6.471E+00    6.511E+00    6.551E+00    6.590E+00    6.629E+00
     6.668E+00    6.707E+00    6.745E+00    6.784E+00    6.822E+00    6.860E+00    6.898E+00    6.936E+00    6.973E+00    7.011E+00
     7.048E+00    7.085E+00    7.121E+00    7.158E+00    7.195E+00    7.231E+00    7.267E+00    7.303E+00    7.338E+00    7.374E+00
     7.409E+00    7.444E+00    7.479E+00    7.514E+00    7.549E+00    7.583E+00    7.618E+00    7.652E+00    7.686E+00    7.719E+00
     7.753E+00    7.786E+00    7.820E+00    7.853E+00    7.885E+00    7.918E+00    7.951E+00    7.983E+00    8.015E+00    8.047E+00
     8.079E+00    8.111E+00    8.142E+00    8.174E+00    8.205E+00    8.236E+00    8.266E+00    8.297E+00    8.328E+00    8.358E+00
     8.388E+00    8.418E+00    8.448E+00    8.477E+00    8.507E+00    8.536E+00    8.565E+00    8.594E+00    8.623E+00    8.652E+00
     8.680E+00    8.708E+00    8.737E+00    8.765E+00    8.792E+00    8.820E+00    8.848E+00    8.875E+00    8.902E+00    8.929E+00
     8.956E+00    8.982E+00    9.009E+00    9.035E+00    9.062E+00    9.088E+00    9.113E+00    9.139E+00    9.165E+00    9.190E+00
     9.215E+00    9.240E+00    9.265E+00    9.290E+00    9.315E+00    9.339E+00    9.363E+00    9.388E+00    9.411E+00    9.435E+00
     9.459E+00    9.482E+00    9.506E+00    9.529E+00    9.552E+00    9.575E+00    9.598E+00    9.620E+00    9.643E+00    9.665E+00
     9.687E+00    9.709E+00    9.731E+00    9.753E+00    9.774E+00    9.796E+00    9.817E+00    9.838E+00
 Ala      Conc. = 1.22E+04
