 LCModel (Version 6.3-1L) Copyright: S.W. Provencher.          Ref.: Magn. Reson. Med. 30:672-679 (1993).                
 Slice#3 Row#5 Col#3  PD_05_press_1_raw_act
 36 lines in following concentration table = NCONC+1
    Conc.  %SD /Cr+PCr  Metabolite                                         
    0.000 999%   0.000 Ala                                                 
   90.485  75%   0.228 Asp                                                 
  382.367  26%   0.962 Cr                                                  
   14.994 705% 3.8E-02 PCr                                                 
   13.378 326% 3.4E-02 GABA                                                
    0.000 999%   0.000 Glc                                                 
    0.000 999%   0.000 Gln                                                 
  214.499  62%   0.540 Glu                                                 
   91.392  10%   0.230 GPC                                                 
    0.000 999%   0.000 PCh                                                 
  138.621  26%   0.349 GSH                                                 
  198.715  64%   0.500 Ins                                                 
    0.000 999%   0.000 Lac                                                 
  659.701   5%   1.660 NAA                                                 
    0.000 999%   0.000 NAAG                                                
    0.000 999%   0.000 Scyllo                                              
    0.000 999%   0.000 Tau                                                 
    6.425 775% 1.6E-02 -CrCH2                                              
   91.392  10%   0.230 GPC+PCh                                             
  659.701   5%   1.660 NAA+NAAG                                            
  397.361   7%   1.000 Cr+PCr                                              
  214.499  62%   0.540 Glu+Gln                                             
    0.000 999%   0.000 Lip13a                                              
  211.433  27%   0.532 Lip13b                                              
    0.000 999%   0.000 Lip09                                               
  806.753  16%   2.030 MM09                                                
    0.000 999%   0.000 Lip20                                               
 1.00E+03  20%   2.517 MM20                                                
  573.326  15%   1.443 MM12                                                
    0.000 999%   0.000 MM14                                                
  204.602  48%   0.515 MM17                                                
  211.433  27%   0.532 Lip13a+Lip13b                                       
  784.759  12%   1.975 MM14+Lip13a+Lip13b+MM12                             
  806.753  16%   2.030 MM09+Lip09                                          
 1.00E+03  20%   2.517 MM20+Lip20                                          
   6 lines in following misc. output table
  FWHM = 0.069 ppm    S/N =   7                                            
  Data shift = 0.008 ppm                                                   
  Ph:  38 deg       9.5 deg/ppm                                            
  alphaB,S = 3.6E-01,   2.0E+02                                            
   14 spline knots.   Ns = 8(1)                                            
  (13) 4 infls.   (13) 1 extrs.                                            
  498 points on ppm-axis = NY
      4.000000     3.992357     3.984714     3.977070     3.969427     3.961784     3.954141     3.946497     3.938854     3.931211
      3.923568     3.915925     3.908281     3.900638     3.892995     3.885352     3.877708     3.870065     3.862422     3.854779
      3.847136     3.839492     3.831849     3.824206     3.816563     3.808919     3.801276     3.793633     3.785990     3.778347
      3.770703     3.763060     3.755417     3.747774     3.740130     3.732487     3.724844     3.717201     3.709558     3.701914
      3.694271     3.686628     3.678985     3.671341     3.663698     3.656055     3.648412     3.640769     3.633125     3.625482
      3.617839     3.610196     3.602552     3.594909     3.587266     3.579623     3.571980     3.564336     3.556693     3.549050
      3.541407     3.533763     3.526120     3.518477     3.510834     3.503191     3.495547     3.487904     3.480261     3.472618
      3.464974     3.457331     3.449688     3.442045     3.434402     3.426758     3.419115     3.411472     3.403829     3.396185
      3.388542     3.380899     3.373256     3.365613     3.357969     3.350326     3.342683     3.335040     3.327396     3.319753
      3.312110     3.304467     3.296824     3.289180     3.281537     3.273894     3.266251     3.258607     3.250964     3.243321
      3.235678     3.228034     3.220391     3.212748     3.205105     3.197462     3.189818     3.182175     3.174532     3.166889
      3.159245     3.151602     3.143959     3.136316     3.128673     3.121029     3.113386     3.105743     3.098100     3.090456
      3.082813     3.075170     3.067527     3.059884     3.052240     3.044597     3.036954     3.029311     3.021667     3.014024
      3.006381     2.998738     2.991095     2.983451     2.975808     2.968165     2.960522     2.952878     2.945235     2.937592
      2.929949     2.922306     2.914662     2.907019     2.899376     2.891733     2.884089     2.876446     2.868803     2.861160
      2.853517     2.845873     2.838230     2.830587     2.822944     2.815300     2.807657     2.800014     2.792371     2.784728
      2.777084     2.769441     2.761798     2.754155     2.746511     2.738868     2.731225     2.723582     2.715939     2.708295
      2.700652     2.693009     2.685366     2.677722     2.670079     2.662436     2.654793     2.647150     2.639506     2.631863
      2.624220     2.616577     2.608933     2.601290     2.593647     2.586004     2.578361     2.570717     2.563074     2.555431
      2.547788     2.540144     2.532501     2.524858     2.517215     2.509572     2.501928     2.494285     2.486642     2.478999
      2.471355     2.463712     2.456069     2.448426     2.440783     2.433139     2.425496     2.417853     2.410210     2.402566
      2.394923     2.387280     2.379637     2.371994     2.364350     2.356707     2.349064     2.341421     2.333777     2.326134
      2.318491     2.310848     2.303205     2.295561     2.287918     2.280275     2.272632     2.264988     2.257345     2.249702
      2.242059     2.234416     2.226772     2.219129     2.211486     2.203843     2.196199     2.188556     2.180913     2.173270
      2.165627     2.157983     2.150340     2.142697     2.135054     2.127410     2.119767     2.112124     2.104481     2.096838
      2.089194     2.081551     2.073908     2.066265     2.058621     2.050978     2.043335     2.035692     2.028049     2.020405
      2.012762     2.005119     1.997476     1.989833     1.982190     1.974546     1.966903     1.959260     1.951617     1.943974
      1.936331     1.928688     1.921045     1.913402     1.905759     1.898115     1.890472     1.882829     1.875186     1.867543
      1.859900     1.852257     1.844614     1.836971     1.829327     1.821684     1.814041     1.806398     1.798755     1.791112
      1.783469     1.775826     1.768183     1.760540     1.752896     1.745253     1.737610     1.729967     1.722324     1.714681
      1.707038     1.699395     1.691752     1.684108     1.676465     1.668822     1.661179     1.653536     1.645893     1.638250
      1.630607     1.622964     1.615321     1.607677     1.600034     1.592391     1.584748     1.577105     1.569462     1.561819
      1.554176     1.546533     1.538890     1.531246     1.523603     1.515960     1.508317     1.500674     1.493031     1.485388
      1.477745     1.470102     1.462458     1.454815     1.447172     1.439529     1.431886     1.424243     1.416600     1.408957
      1.401314     1.393671     1.386027     1.378384     1.370741     1.363098     1.355455     1.347812     1.340169     1.332526
      1.324883     1.317240     1.309596     1.301953     1.294310     1.286667     1.279024     1.271381     1.263738     1.256095
      1.248452     1.240808     1.233165     1.225522     1.217879     1.210236     1.202593     1.194950     1.187307     1.179664
      1.172021     1.164377     1.156734     1.149091     1.141448     1.133805     1.126162     1.118519     1.110876     1.103233
      1.095590     1.087946     1.080303     1.072660     1.065017     1.057374     1.049731     1.042088     1.034445     1.026802
      1.019158     1.011515     1.003872     0.996229     0.988586     0.980943     0.973300     0.965657     0.958014     0.950371
      0.942727     0.935084     0.927441     0.919798     0.912155     0.904512     0.896869     0.889226     0.881583     0.873940
      0.866296     0.858653     0.851010     0.843367     0.835724     0.828081     0.820438     0.812795     0.805152     0.797508
      0.789865     0.782222     0.774579     0.766936     0.759293     0.751650     0.744007     0.736364     0.728721     0.721077
      0.713434     0.705791     0.698148     0.690505     0.682862     0.675219     0.667576     0.659933     0.652290     0.644646
      0.637003     0.629360     0.621717     0.614074     0.606431     0.598788     0.591145     0.583502     0.575858     0.568215
      0.560572     0.552929     0.545286     0.537643     0.530000     0.522357     0.514714     0.507071     0.499427     0.491784
      0.484141     0.476498     0.468855     0.461212     0.453569     0.445925     0.438282     0.430639     0.422996     0.415353
      0.407710     0.400067     0.392424     0.384780     0.377137     0.369494     0.361851     0.354208     0.346565     0.338922
      0.331278     0.323635     0.315992     0.308349     0.300706     0.293063     0.285420     0.277777     0.270133     0.262490
      0.254847     0.247204     0.239561     0.231918     0.224275     0.216631     0.208988     0.201345
 NY phased data points follow
   9.08218E+00  1.05648E+01  1.09362E+01  1.26863E+01  1.18210E+01  1.09046E+01  1.26219E+01  1.20684E+01  1.35122E+01  1.72562E+01
   1.75310E+01  1.64041E+01  1.72580E+01  1.69131E+01  1.51759E+01  1.72095E+01  1.39822E+01  1.47412E+01  1.31327E+01  1.19479E+01
   1.09750E+01  1.01777E+01  1.03817E+01  1.14329E+01  9.77851E+00  9.95963E+00  1.14294E+01  1.01505E+01  9.90252E+00  9.83793E+00
   1.21433E+01  9.66656E+00  1.03552E+01  1.15865E+01  1.11727E+01  1.02020E+01  9.63795E+00  8.60654E+00  7.88946E+00  1.12291E+01
   8.90078E+00  7.75675E+00  9.10536E+00  9.44849E+00  9.52129E+00  8.45086E+00  9.47864E+00  1.08757E+01  8.61144E+00  1.00007E+01
   9.01067E+00  8.11626E+00  7.95647E+00  8.20896E+00  1.09359E+01  7.22031E+00  6.43275E+00  6.17752E+00  7.89565E+00  7.10546E+00
   7.64864E+00  7.05514E+00  5.35870E+00  6.82621E+00  4.50653E+00  3.83474E+00  3.47986E+00  5.50732E+00  3.03601E+00  3.75010E+00
   7.49992E-01  2.69625E+00  4.56014E+00  3.54954E+00  5.70363E+00  3.48670E+00  5.50193E+00  4.29560E+00  2.70524E+00  4.72479E+00
   5.67381E+00  3.12920E+00  3.94765E+00  5.27339E+00  3.66559E+00  2.38910E+00  2.20650E+00  4.56355E+00  4.23773E+00  3.16736E+00
   4.66113E+00  5.84562E+00  4.35225E+00  3.59961E+00  4.86771E+00  4.16544E+00  5.98911E+00  6.17273E+00  6.39552E+00  5.13745E+00
   7.47234E+00  7.85775E+00  1.10297E+01  1.03382E+01  1.24302E+01  1.11647E+01  1.11928E+01  1.02115E+01  7.51173E+00  5.74337E+00
   1.02187E+01  8.16985E+00  6.58371E+00  6.68782E+00  6.17584E+00  6.57761E+00  6.18618E+00  6.28258E+00  6.19692E+00  5.82248E+00
   5.07244E+00  5.72202E+00  7.44209E+00  9.61807E+00  1.00216E+01  1.26268E+01  1.41584E+01  1.71591E+01  1.93994E+01  1.88324E+01
   1.61096E+01  1.36578E+01  1.02687E+01  1.24240E+01  1.11418E+01  1.03685E+01  7.74161E+00  7.50151E+00  8.14962E+00  8.19870E+00
   7.45594E+00  6.56470E+00  7.17769E+00  7.50784E+00  6.83801E+00  7.42219E+00  7.06058E+00  7.27724E+00  6.51787E+00  8.39952E+00
   6.06541E+00  4.86039E+00  7.84748E+00  8.21864E+00  5.19921E+00  8.04133E+00  5.27397E+00  5.68719E+00  6.74904E+00  5.64044E+00
   5.94575E+00  5.07624E+00  6.40989E+00  4.45196E+00  6.89397E+00  5.35446E+00  5.66702E+00  6.71494E+00  7.23490E+00  5.63583E+00
   5.29355E+00  6.04186E+00  5.58095E+00  6.67502E+00  3.76594E+00  7.22506E+00  3.67339E+00  5.23391E+00  4.34896E+00  6.51549E+00
   8.46443E+00  6.47767E+00  6.83339E+00  5.38346E+00  6.14333E+00  7.39568E+00  7.27358E+00  6.39428E+00  8.44926E+00  7.64918E+00
   1.03780E+01  1.15077E+01  1.04448E+01  7.65657E+00  1.05269E+01  1.19153E+01  1.20039E+01  9.23822E+00  1.00310E+01  1.09544E+01
   9.78241E+00  9.45101E+00  1.11661E+01  1.08493E+01  9.14464E+00  1.01145E+01  1.00757E+01  9.97244E+00  1.02305E+01  8.91729E+00
   9.66652E+00  1.04186E+01  1.16210E+01  1.10639E+01  1.14997E+01  1.11085E+01  1.04933E+01  1.08921E+01  7.68940E+00  8.59760E+00
   9.61352E+00  9.11036E+00  8.56372E+00  8.95859E+00  8.12899E+00  8.49925E+00  6.92961E+00  6.74706E+00  6.06003E+00  8.50968E+00
   7.98117E+00  7.45657E+00  7.14551E+00  6.14272E+00  3.82502E+00  5.37179E+00  4.73624E+00  5.59695E+00  4.38544E+00  3.98480E+00
   6.23562E+00  5.93057E+00  4.62061E+00  3.62762E+00  5.02263E+00  6.11403E+00  5.80595E+00  4.34156E+00  4.30376E+00  4.27017E+00
   3.62794E+00  4.55040E+00  3.95420E+00  3.67745E+00  4.50969E+00  7.51173E+00  1.06207E+01  1.29356E+01  1.44616E+01  1.60503E+01
   1.76835E+01  1.91158E+01  1.82177E+01  1.17661E+01  9.84443E+00  7.37102E+00  4.93933E+00  3.75190E-01  8.32353E-01 -2.29532E+00
  -2.54938E+00 -5.09751E+00 -3.88768E+00 -6.67453E+00 -5.90187E+00 -5.73983E+00 -6.01854E+00 -6.72959E+00 -8.80209E+00 -9.49860E+00
  -7.17234E+00 -8.25777E+00 -8.65747E+00 -1.15040E+01 -1.11648E+01 -1.04629E+01 -8.35702E+00 -1.10996E+01 -1.02592E+01 -9.70771E+00
  -1.10739E+01 -1.17988E+01 -1.09060E+01 -1.03623E+01 -1.11693E+01 -1.23816E+01 -1.06678E+01 -1.25563E+01 -9.97656E+00 -1.42345E+01
  -1.17043E+01 -1.29164E+01 -1.24001E+01 -1.33515E+01 -1.25654E+01 -1.22378E+01 -1.37739E+01 -1.41071E+01 -1.08249E+01 -1.40353E+01
  -1.39391E+01 -1.32553E+01 -1.22314E+01 -1.49223E+01 -1.45954E+01 -1.52719E+01 -1.51779E+01 -1.39181E+01 -1.65480E+01 -1.53624E+01
  -1.54214E+01 -1.46892E+01 -1.76077E+01 -1.69730E+01 -1.52569E+01 -1.59907E+01 -1.86255E+01 -1.70821E+01 -1.61141E+01 -1.83543E+01
  -1.71975E+01 -1.66159E+01 -1.81189E+01 -1.70373E+01 -1.80175E+01 -1.75969E+01 -1.80127E+01 -1.70654E+01 -1.70936E+01 -1.56535E+01
  -1.81095E+01 -1.63065E+01 -2.01158E+01 -1.77297E+01 -1.59654E+01 -1.70969E+01 -1.65115E+01 -1.68031E+01 -1.53822E+01 -1.41170E+01
  -1.31726E+01 -1.33355E+01 -1.25185E+01 -1.19509E+01 -1.21235E+01 -1.31269E+01 -9.68967E+00 -1.03068E+01 -9.88417E+00 -1.03391E+01
  -1.10412E+01 -1.04573E+01 -1.17934E+01 -1.05622E+01 -9.77260E+00 -9.85324E+00 -9.94741E+00 -1.02440E+01 -1.01553E+01 -1.05011E+01
  -9.12025E+00 -7.79446E+00 -7.19476E+00 -7.69226E+00 -7.55589E+00 -7.23553E+00 -8.18101E+00 -7.67947E+00 -1.07223E+01 -1.05597E+01
  -8.41012E+00 -8.62759E+00 -7.76587E+00 -9.96449E+00 -9.27130E+00 -8.79725E+00 -8.33863E+00 -8.80239E+00 -7.18990E+00 -8.17393E+00
  -7.43867E+00 -7.57462E+00 -8.60252E+00 -9.05858E+00 -7.60819E+00 -1.03144E+01 -9.44771E+00 -6.90871E+00 -8.84976E+00 -8.83731E+00
  -7.86277E+00 -7.87204E+00 -8.24318E+00 -6.75311E+00 -6.68384E+00 -7.54315E+00 -8.82634E+00 -6.75819E+00 -7.32741E+00 -8.72539E+00
  -8.42702E+00 -8.26071E+00 -7.22078E+00 -7.50419E+00 -9.45881E+00 -1.01759E+01 -7.52345E+00 -8.27863E+00 -5.75983E+00 -7.12390E+00
  -9.03675E+00 -7.90892E+00 -8.19229E+00 -7.44521E+00 -9.15689E+00 -6.66941E+00 -9.10115E+00 -7.36436E+00 -7.61833E+00 -7.56714E+00
  -8.15643E+00 -8.99596E+00 -7.67208E+00 -7.17332E+00 -7.28433E+00 -9.19621E+00 -7.39003E+00 -7.50603E+00 -6.71690E+00 -8.29225E+00
  -8.14409E+00 -5.83269E+00 -7.56926E+00 -7.20276E+00 -8.17131E+00 -6.44775E+00 -6.17493E+00 -7.13612E+00 -7.72593E+00 -7.43385E+00
  -6.66114E+00 -8.35381E+00 -6.76601E+00 -7.89492E+00 -4.05757E+00 -8.19366E+00 -7.13605E+00 -5.69841E+00 -8.11323E+00 -7.03883E+00
  -7.76640E+00 -8.10565E+00 -7.68807E+00 -8.59641E+00 -7.50933E+00 -6.35174E+00 -4.95878E+00 -6.68042E+00 -9.25411E+00 -8.58527E+00
  -7.49226E+00 -8.30779E+00 -7.12799E+00 -7.54642E+00 -7.65768E+00 -4.51109E+00 -7.77755E+00 -8.20020E+00 -7.66956E+00 -7.54287E+00
  -7.44876E+00 -7.75139E+00 -5.69693E+00 -4.89410E+00 -6.55177E+00 -8.39207E+00 -5.76884E+00 -5.93556E+00 -7.16653E+00 -5.63823E+00
  -5.68689E+00 -6.93262E+00 -5.90668E+00 -7.24770E+00 -7.95421E+00 -7.55368E+00 -6.15856E+00 -6.49354E+00
 NY points of the fit to the data follow
   1.13122E+01  1.11616E+01  1.10536E+01  1.10294E+01  1.11724E+01  1.15585E+01  1.22237E+01  1.31333E+01  1.41990E+01  1.53104E+01
   1.63452E+01  1.71580E+01  1.75796E+01  1.74801E+01  1.68716E+01  1.59293E+01  1.48781E+01  1.38563E+01  1.28736E+01  1.18997E+01
   1.09614E+01  1.02152E+01  9.85080E+00  9.74175E+00  9.76998E+00  9.92102E+00  1.01864E+01  1.05333E+01  1.09065E+01  1.12383E+01
   1.14512E+01  1.14786E+01  1.12976E+01  1.09455E+01  1.04966E+01  1.00271E+01  9.57519E+00  9.13678E+00  8.71238E+00  8.36702E+00
   8.19223E+00  8.15790E+00  8.19652E+00  8.28864E+00  8.40844E+00  8.51694E+00  8.57779E+00  8.57116E+00  8.47564E+00  8.28036E+00
   8.01555E+00  7.72272E+00  7.44001E+00  7.19525E+00  6.99134E+00  6.81357E+00  6.67024E+00  6.58602E+00  6.54689E+00  6.50757E+00
   6.44006E+00  6.34187E+00  6.21383E+00  6.06619E+00  5.91797E+00  5.78857E+00  5.68851E+00  5.61342E+00  5.55490E+00  5.51163E+00
   5.48029E+00  5.45278E+00  5.42095E+00  5.37440E+00  5.30988E+00  5.23036E+00  5.14298E+00  5.05616E+00  4.97219E+00  4.88784E+00
   4.79727E+00  4.69809E+00  4.59233E+00  4.47708E+00  4.35338E+00  4.22738E+00  4.10937E+00  4.01201E+00  3.94855E+00  3.92779E+00
   3.94812E+00  3.99844E+00  4.06385E+00  4.13372E+00  4.21025E+00  4.33818E+00  4.62175E+00  5.13103E+00  5.89844E+00  6.89708E+00
   8.04589E+00  9.23283E+00  1.03261E+01  1.11676E+01  1.15845E+01  1.14649E+01  1.08587E+01  9.96711E+00  9.01404E+00  8.12202E+00
   7.28733E+00  6.47614E+00  5.73501E+00  5.23604E+00  5.08879E+00  5.09141E+00  5.13380E+00  5.19947E+00  5.29890E+00  5.50065E+00
   5.96369E+00  6.79972E+00  8.04943E+00  9.65691E+00  1.14826E+01  1.33528E+01  1.50766E+01  1.64239E+01  1.71358E+01  1.70343E+01
   1.61689E+01  1.48248E+01  1.33355E+01  1.18865E+01  1.04846E+01  9.09895E+00  7.82558E+00  6.94502E+00  6.64671E+00  6.63729E+00
   6.71516E+00  6.81505E+00  6.90844E+00  6.99260E+00  7.06757E+00  7.11492E+00  7.12533E+00  7.10016E+00  7.04403E+00  6.97553E+00
   6.91718E+00  6.87883E+00  6.86267E+00  6.85136E+00  6.83547E+00  6.81166E+00  6.78227E+00  6.75220E+00  6.72543E+00  6.71003E+00
   6.71301E+00  6.74246E+00  6.80503E+00  6.89530E+00  6.99204E+00  7.06862E+00  7.11138E+00  7.12555E+00  7.12282E+00  7.10848E+00
   7.07643E+00  7.01605E+00  6.94312E+00  6.87656E+00  6.83062E+00  6.81632E+00  6.82522E+00  6.85912E+00  6.91504E+00  6.97136E+00
   7.01148E+00  7.04253E+00  7.09309E+00  7.19263E+00  7.34789E+00  7.54232E+00  7.75809E+00  8.00781E+00  8.31154E+00  8.64068E+00
   8.93276E+00  9.12973E+00  9.22305E+00  9.23796E+00  9.20509E+00  9.14495E+00  9.06738E+00  8.98339E+00  8.93000E+00  8.93710E+00
   9.00676E+00  9.12160E+00  9.24531E+00  9.33845E+00  9.37505E+00  9.33930E+00  9.23138E+00  9.06431E+00  8.86074E+00  8.67228E+00
   8.53037E+00  8.43767E+00  8.39037E+00  8.38915E+00  8.41782E+00  8.42069E+00  8.34650E+00  8.16841E+00  7.90558E+00  7.61272E+00
   7.34388E+00  7.13920E+00  7.00766E+00  6.93890E+00  6.93422E+00  6.98010E+00  7.04651E+00  7.08164E+00  7.06987E+00  7.03107E+00
   6.98655E+00  6.93957E+00  6.88129E+00  6.81574E+00  6.74983E+00  6.66284E+00  6.52160E+00  6.31657E+00  6.05912E+00  5.77525E+00
   5.49881E+00  5.25751E+00  5.07229E+00  4.95330E+00  4.88189E+00  4.82751E+00  4.76555E+00  4.68339E+00  4.57055E+00  4.41325E+00
   4.22217E+00  4.05963E+00  4.13305E+00  4.69994E+00  5.89588E+00  7.72954E+00  1.00401E+01  1.25530E+01  1.49631E+01  1.69251E+01
   1.80265E+01  1.78770E+01  1.63556E+01  1.37856E+01  1.07626E+01  7.78458E+00  5.01274E+00  2.36138E+00 -2.06621E-01 -2.44222E+00
  -3.86188E+00 -4.54175E+00 -5.01644E+00 -5.42953E+00 -5.81059E+00 -6.17768E+00 -6.54007E+00 -6.89778E+00 -7.25101E+00 -7.59904E+00
  -7.94061E+00 -8.27394E+00 -8.59711E+00 -8.90648E+00 -9.19960E+00 -9.47685E+00 -9.73893E+00 -9.98632E+00 -1.02198E+01 -1.04402E+01
  -1.06482E+01 -1.08445E+01 -1.10291E+01 -1.12023E+01 -1.13649E+01 -1.15175E+01 -1.16613E+01 -1.17979E+01 -1.19295E+01 -1.20581E+01
  -1.21857E+01 -1.23149E+01 -1.24477E+01 -1.25860E+01 -1.27313E+01 -1.28849E+01 -1.30473E+01 -1.32188E+01 -1.33989E+01 -1.35866E+01
  -1.37805E+01 -1.39790E+01 -1.41801E+01 -1.43815E+01 -1.45811E+01 -1.47767E+01 -1.49661E+01 -1.51476E+01 -1.53198E+01 -1.54816E+01
  -1.56321E+01 -1.57707E+01 -1.58972E+01 -1.60118E+01 -1.61146E+01 -1.62059E+01 -1.62862E+01 -1.63561E+01 -1.64160E+01 -1.64667E+01
  -1.65086E+01 -1.65421E+01 -1.65678E+01 -1.65859E+01 -1.65966E+01 -1.66002E+01 -1.65964E+01 -1.65850E+01 -1.65652E+01 -1.65358E+01
  -1.64946E+01 -1.64383E+01 -1.63621E+01 -1.62593E+01 -1.61213E+01 -1.59384E+01 -1.57001E+01 -1.53971E+01 -1.50235E+01 -1.45794E+01
  -1.40726E+01 -1.35203E+01 -1.29478E+01 -1.23863E+01 -1.18682E+01 -1.14217E+01 -1.10660E+01 -1.08075E+01 -1.06393E+01 -1.05426E+01
  -1.04917E+01 -1.04592E+01 -1.04210E+01 -1.03604E+01 -1.02702E+01 -1.01517E+01 -1.00131E+01 -9.86691E+00 -9.72637E+00 -9.60349E+00
  -9.50713E+00 -9.44223E+00 -9.40973E+00 -9.40702E+00 -9.42862E+00 -9.46708E+00 -9.51385E+00 -9.56012E+00 -9.59751E+00 -9.61861E+00
  -9.61743E+00 -9.58960E+00 -9.53259E+00 -9.44569E+00 -9.32993E+00 -9.18788E+00 -9.02339E+00 -8.84130E+00 -8.64718E+00 -8.44698E+00
  -8.24676E+00 -8.05238E+00 -7.86927E+00 -7.70223E+00 -7.55529E+00 -7.43159E+00 -7.33335E+00 -7.26175E+00 -7.21704E+00 -7.19857E+00
  -7.20490E+00 -7.23391E+00 -7.28295E+00 -7.34893E+00 -7.42855E+00 -7.51842E+00 -7.61519E+00 -7.71569E+00 -7.81696E+00 -7.91632E+00
  -8.01146E+00 -8.10050E+00 -8.18198E+00 -8.25484E+00 -8.31836E+00 -8.37217E+00 -8.41617E+00 -8.45052E+00 -8.47559E+00 -8.49185E+00
  -8.49987E+00 -8.50031E+00 -8.49385E+00 -8.48119E+00 -8.46302E+00 -8.43998E+00 -8.41270E+00 -8.38175E+00 -8.34766E+00 -8.31093E+00
  -8.27201E+00 -8.23128E+00 -8.18910E+00 -8.14577E+00 -8.10161E+00 -8.05687E+00 -8.01176E+00 -7.96649E+00 -7.92122E+00 -7.87612E+00
  -7.83134E+00 -7.78701E+00 -7.74324E+00 -7.70012E+00 -7.65775E+00 -7.61620E+00 -7.57558E+00 -7.53594E+00 -7.49733E+00 -7.45981E+00
  -7.42343E+00 -7.38825E+00 -7.35431E+00 -7.32164E+00 -7.29020E+00 -7.25997E+00 -7.23093E+00 -7.20306E+00 -7.17633E+00 -7.15070E+00
  -7.12613E+00 -7.10258E+00 -7.08002E+00 -7.05843E+00 -7.03776E+00 -7.01796E+00 -6.99898E+00 -6.98080E+00 -6.96336E+00 -6.94664E+00
  -6.93058E+00 -6.91513E+00 -6.90024E+00 -6.88588E+00 -6.87200E+00 -6.85856E+00 -6.84550E+00 -6.83277E+00 -6.82032E+00 -6.80812E+00
  -6.79612E+00 -6.78426E+00 -6.77249E+00 -6.76076E+00 -6.74902E+00 -6.73723E+00 -6.72535E+00 -6.71330E+00 -6.70104E+00 -6.68852E+00
  -6.67569E+00 -6.66250E+00 -6.64890E+00 -6.63483E+00 -6.62023E+00 -6.60506E+00 -6.58926E+00 -6.57278E+00
 NY background values follow
     1.073E+01    1.065E+01    1.057E+01    1.048E+01    1.040E+01    1.032E+01    1.024E+01    1.015E+01    1.007E+01    9.985E+00
     9.900E+00    9.815E+00    9.730E+00    9.644E+00    9.559E+00    9.473E+00    9.386E+00    9.300E+00    9.213E+00    9.127E+00
     9.040E+00    8.953E+00    8.866E+00    8.778E+00    8.691E+00    8.604E+00    8.516E+00    8.429E+00    8.341E+00    8.254E+00
     8.166E+00    8.079E+00    7.991E+00    7.904E+00    7.816E+00    7.729E+00    7.642E+00    7.555E+00    7.468E+00    7.382E+00
     7.295E+00    7.209E+00    7.123E+00    7.037E+00    6.951E+00    6.866E+00    6.781E+00    6.696E+00    6.612E+00    6.528E+00
     6.445E+00    6.362E+00    6.279E+00    6.198E+00    6.117E+00    6.037E+00    5.957E+00    5.879E+00    5.801E+00    5.724E+00
     5.649E+00    5.574E+00    5.501E+00    5.428E+00    5.357E+00    5.288E+00    5.219E+00    5.152E+00    5.087E+00    5.023E+00
     4.960E+00    4.899E+00    4.840E+00    4.782E+00    4.727E+00    4.673E+00    4.621E+00    4.570E+00    4.522E+00    4.476E+00
     4.432E+00    4.390E+00    4.350E+00    4.313E+00    4.278E+00    4.245E+00    4.215E+00    4.187E+00    4.161E+00    4.138E+00
     4.118E+00    4.100E+00    4.086E+00    4.073E+00    4.064E+00    4.056E+00    4.052E+00    4.050E+00    4.050E+00    4.052E+00
     4.057E+00    4.064E+00    4.074E+00    4.086E+00    4.099E+00    4.115E+00    4.133E+00    4.153E+00    4.175E+00    4.199E+00
     4.225E+00    4.253E+00    4.282E+00    4.314E+00    4.347E+00    4.382E+00    4.418E+00    4.456E+00    4.495E+00    4.537E+00
     4.579E+00    4.623E+00    4.669E+00    4.715E+00    4.763E+00    4.813E+00    4.863E+00    4.915E+00    4.968E+00    5.022E+00
     5.077E+00    5.133E+00    5.190E+00    5.248E+00    5.306E+00    5.366E+00    5.427E+00    5.488E+00    5.550E+00    5.612E+00
     5.675E+00    5.739E+00    5.803E+00    5.867E+00    5.932E+00    5.997E+00    6.063E+00    6.128E+00    6.194E+00    6.259E+00
     6.325E+00    6.390E+00    6.456E+00    6.521E+00    6.586E+00    6.650E+00    6.715E+00    6.779E+00    6.842E+00    6.905E+00
     6.967E+00    7.028E+00    7.089E+00    7.149E+00    7.208E+00    7.267E+00    7.324E+00    7.380E+00    7.436E+00    7.490E+00
     7.543E+00    7.594E+00    7.645E+00    7.694E+00    7.741E+00    7.788E+00    7.832E+00    7.875E+00    7.916E+00    7.956E+00
     7.994E+00    8.030E+00    8.064E+00    8.096E+00    8.126E+00    8.153E+00    8.178E+00    8.201E+00    8.221E+00    8.238E+00
     8.252E+00    8.263E+00    8.271E+00    8.276E+00    8.277E+00    8.274E+00    8.268E+00    8.258E+00    8.245E+00    8.227E+00
     8.205E+00    8.178E+00    8.147E+00    8.112E+00    8.072E+00    8.027E+00    7.977E+00    7.922E+00    7.862E+00    7.796E+00
     7.726E+00    7.649E+00    7.567E+00    7.479E+00    7.385E+00    7.284E+00    7.178E+00    7.065E+00    6.946E+00    6.821E+00
     6.688E+00    6.549E+00    6.402E+00    6.249E+00    6.088E+00    5.920E+00    5.745E+00    5.562E+00    5.372E+00    5.174E+00
     4.970E+00    4.759E+00    4.541E+00    4.318E+00    4.088E+00    3.852E+00    3.611E+00    3.365E+00    3.114E+00    2.857E+00
     2.596E+00    2.331E+00    2.062E+00    1.788E+00    1.511E+00    1.230E+00    9.462E-01    6.591E-01    3.692E-01    7.668E-02
    -2.182E-01   -5.153E-01   -8.143E-01   -1.115E+00   -1.417E+00   -1.721E+00   -2.025E+00   -2.330E+00   -2.636E+00   -2.942E+00
    -3.249E+00   -3.555E+00   -3.861E+00   -4.166E+00   -4.471E+00   -4.774E+00   -5.077E+00   -5.377E+00   -5.677E+00   -5.974E+00
    -6.269E+00   -6.562E+00   -6.852E+00   -7.140E+00   -7.425E+00   -7.707E+00   -7.986E+00   -8.262E+00   -8.535E+00   -8.806E+00
    -9.073E+00   -9.337E+00   -9.597E+00   -9.854E+00   -1.011E+01   -1.036E+01   -1.061E+01   -1.085E+01   -1.109E+01   -1.132E+01
    -1.156E+01   -1.178E+01   -1.201E+01   -1.223E+01   -1.244E+01   -1.265E+01   -1.286E+01   -1.306E+01   -1.326E+01   -1.346E+01
    -1.365E+01   -1.383E+01   -1.401E+01   -1.419E+01   -1.436E+01   -1.453E+01   -1.469E+01   -1.484E+01   -1.500E+01   -1.514E+01
    -1.528E+01   -1.542E+01   -1.555E+01   -1.567E+01   -1.579E+01   -1.591E+01   -1.601E+01   -1.612E+01   -1.621E+01   -1.631E+01
    -1.639E+01   -1.647E+01   -1.655E+01   -1.662E+01   -1.668E+01   -1.674E+01   -1.679E+01   -1.684E+01   -1.689E+01   -1.693E+01
    -1.696E+01   -1.699E+01   -1.702E+01   -1.704E+01   -1.705E+01   -1.706E+01   -1.707E+01   -1.707E+01   -1.707E+01   -1.707E+01
    -1.706E+01   -1.704E+01   -1.702E+01   -1.700E+01   -1.698E+01   -1.695E+01   -1.691E+01   -1.687E+01   -1.683E+01   -1.679E+01
    -1.674E+01   -1.669E+01   -1.664E+01   -1.658E+01   -1.652E+01   -1.645E+01   -1.639E+01   -1.632E+01   -1.624E+01   -1.617E+01
    -1.609E+01   -1.601E+01   -1.592E+01   -1.583E+01   -1.575E+01   -1.565E+01   -1.556E+01   -1.546E+01   -1.537E+01   -1.526E+01
    -1.516E+01   -1.506E+01   -1.495E+01   -1.484E+01   -1.474E+01   -1.462E+01   -1.451E+01   -1.440E+01   -1.428E+01   -1.417E+01
    -1.405E+01   -1.393E+01   -1.382E+01   -1.370E+01   -1.358E+01   -1.345E+01   -1.333E+01   -1.321E+01   -1.309E+01   -1.297E+01
    -1.285E+01   -1.272E+01   -1.260E+01   -1.248E+01   -1.236E+01   -1.223E+01   -1.211E+01   -1.199E+01   -1.187E+01   -1.175E+01
    -1.163E+01   -1.151E+01   -1.140E+01   -1.128E+01   -1.117E+01   -1.105E+01   -1.094E+01   -1.083E+01   -1.072E+01   -1.061E+01
    -1.050E+01   -1.040E+01   -1.029E+01   -1.019E+01   -1.009E+01   -9.991E+00   -9.893E+00   -9.796E+00   -9.701E+00   -9.607E+00
    -9.515E+00   -9.425E+00   -9.335E+00   -9.248E+00   -9.162E+00   -9.077E+00   -8.994E+00   -8.913E+00   -8.833E+00   -8.755E+00
    -8.678E+00   -8.603E+00   -8.529E+00   -8.457E+00   -8.386E+00   -8.318E+00   -8.250E+00   -8.185E+00   -8.121E+00   -8.058E+00
    -7.997E+00   -7.938E+00   -7.881E+00   -7.825E+00   -7.770E+00   -7.718E+00   -7.667E+00   -7.617E+00   -7.570E+00   -7.524E+00
    -7.479E+00   -7.437E+00   -7.396E+00   -7.357E+00   -7.319E+00   -7.283E+00   -7.248E+00   -7.215E+00   -7.184E+00   -7.154E+00
    -7.125E+00   -7.097E+00   -7.070E+00   -7.045E+00   -7.021E+00   -6.998E+00   -6.976E+00   -6.955E+00   -6.934E+00   -6.915E+00
    -6.896E+00   -6.879E+00   -6.861E+00   -6.845E+00   -6.829E+00   -6.814E+00   -6.799E+00   -6.784E+00   -6.770E+00   -6.756E+00
    -6.743E+00   -6.730E+00   -6.716E+00   -6.704E+00   -6.691E+00   -6.678E+00   -6.665E+00   -6.652E+00   -6.639E+00   -6.625E+00
    -6.612E+00   -6.598E+00   -6.584E+00   -6.569E+00   -6.554E+00   -6.538E+00   -6.522E+00   -6.505E+00
 Asp      Conc. = 9.05E+01
