 LCModel (Version 6.3-1L) Copyright: S.W. Provencher.          Ref.: Magn. Reson. Med. 30:672-679 (1993).                
 Slice#3 Row#3 Col#3  PD_05_press_1_raw_act
 36 lines in following concentration table = NCONC+1
    Conc.  %SD /Cr+PCr  Metabolite                                         
 4.38E+03  22%  41.470 Ala                                                 
    0.000 999%   0.000 Asp                                                 
    0.000 999%   0.000 Cr                                                  
  105.643  64%   1.000 PCr                                                 
   28.895 135%   0.274 GABA                                                
   30.913 126%   0.293 Glc                                                 
 2.76E+03  21%  26.098 Gln                                                 
 1.16E+03  65%  10.997 Glu                                                 
    0.000 999%   0.000 GPC                                                 
  108.075  21%   1.023 PCh                                                 
    0.000 999%   0.000 GSH                                                 
  627.275  43%   5.938 Ins                                                 
 4.63E+03  23%  43.854 Lac                                                 
    0.000 999%   0.000 NAA                                                 
    0.000 999%   0.000 NAAG                                                
   26.716  46%   0.253 Scyllo                                              
  116.079  54%   1.099 Tau                                                 
  125.170  93%   1.185 -CrCH2                                              
  108.075  21%   1.023 GPC+PCh                                             
    0.000 999%   0.000 NAA+NAAG                                            
  105.643  64%   1.000 Cr+PCr                                              
 3.92E+03  28%  37.096 Glu+Gln                                             
 5.14E+03  30%  48.690 Lip13a                                              
  196.430  82%   1.859 Lip13b                                              
 1.42E+03  27%  13.447 Lip09                                               
 1.82E+03  15%  17.271 MM09                                                
  818.760  28%   7.750 Lip20                                               
 2.69E+03  15%  25.451 MM20                                                
  545.546  18%   5.164 MM12                                                
 1.67E+03  18%  15.761 MM14                                                
 1.29E+03  14%  12.204+MM17                                                
 5.34E+03  27%  50.549 Lip13a+Lip13b                                       
 7.55E+03  18%  71.475 MM14+Lip13a+Lip13b+MM12                             
 3.25E+03  11%  30.719 MM09+Lip09                                          
 3.51E+03  10%  33.202 MM20+Lip20                                          
   6 lines in following misc. output table
  FWHM = 0.168 ppm    S/N =   9                                            
  Data shift = 0.054 ppm                                                   
  Ph:  36 deg     -49.2 deg/ppm                                            
  alphaB,S = 5.2E+00,   1.2E+02                                            
    7 spline knots.   Ns = 9(2)                                            
  (13) 9 infls.   (11) 1 extrs.                                            
  498 points on ppm-axis = NY
      4.000000     3.992357     3.984714     3.977070     3.969427     3.961784     3.954141     3.946497     3.938854     3.931211
      3.923568     3.915925     3.908281     3.900638     3.892995     3.885352     3.877708     3.870065     3.862422     3.854779
      3.847136     3.839492     3.831849     3.824206     3.816563     3.808919     3.801276     3.793633     3.785990     3.778347
      3.770703     3.763060     3.755417     3.747774     3.740130     3.732487     3.724844     3.717201     3.709558     3.701914
      3.694271     3.686628     3.678985     3.671341     3.663698     3.656055     3.648412     3.640769     3.633125     3.625482
      3.617839     3.610196     3.602552     3.594909     3.587266     3.579623     3.571980     3.564336     3.556693     3.549050
      3.541407     3.533763     3.526120     3.518477     3.510834     3.503191     3.495547     3.487904     3.480261     3.472618
      3.464974     3.457331     3.449688     3.442045     3.434402     3.426758     3.419115     3.411472     3.403829     3.396185
      3.388542     3.380899     3.373256     3.365613     3.357969     3.350326     3.342683     3.335040     3.327396     3.319753
      3.312110     3.304467     3.296824     3.289180     3.281537     3.273894     3.266251     3.258607     3.250964     3.243321
      3.235678     3.228034     3.220391     3.212748     3.205105     3.197462     3.189818     3.182175     3.174532     3.166889
      3.159245     3.151602     3.143959     3.136316     3.128673     3.121029     3.113386     3.105743     3.098100     3.090456
      3.082813     3.075170     3.067527     3.059884     3.052240     3.044597     3.036954     3.029311     3.021667     3.014024
      3.006381     2.998738     2.991095     2.983451     2.975808     2.968165     2.960522     2.952878     2.945235     2.937592
      2.929949     2.922306     2.914662     2.907019     2.899376     2.891733     2.884089     2.876446     2.868803     2.861160
      2.853517     2.845873     2.838230     2.830587     2.822944     2.815300     2.807657     2.800014     2.792371     2.784728
      2.777084     2.769441     2.761798     2.754155     2.746511     2.738868     2.731225     2.723582     2.715939     2.708295
      2.700652     2.693009     2.685366     2.677722     2.670079     2.662436     2.654793     2.647150     2.639506     2.631863
      2.624220     2.616577     2.608933     2.601290     2.593647     2.586004     2.578361     2.570717     2.563074     2.555431
      2.547788     2.540144     2.532501     2.524858     2.517215     2.509572     2.501928     2.494285     2.486642     2.478999
      2.471355     2.463712     2.456069     2.448426     2.440783     2.433139     2.425496     2.417853     2.410210     2.402566
      2.394923     2.387280     2.379637     2.371994     2.364350     2.356707     2.349064     2.341421     2.333777     2.326134
      2.318491     2.310848     2.303205     2.295561     2.287918     2.280275     2.272632     2.264988     2.257345     2.249702
      2.242059     2.234416     2.226772     2.219129     2.211486     2.203843     2.196199     2.188556     2.180913     2.173270
      2.165627     2.157983     2.150340     2.142697     2.135054     2.127410     2.119767     2.112124     2.104481     2.096838
      2.089194     2.081551     2.073908     2.066265     2.058621     2.050978     2.043335     2.035692     2.028049     2.020405
      2.012762     2.005119     1.997476     1.989833     1.982190     1.974546     1.966903     1.959260     1.951617     1.943974
      1.936331     1.928688     1.921045     1.913402     1.905759     1.898115     1.890472     1.882829     1.875186     1.867543
      1.859900     1.852257     1.844614     1.836971     1.829327     1.821684     1.814041     1.806398     1.798755     1.791112
      1.783469     1.775826     1.768183     1.760540     1.752896     1.745253     1.737610     1.729967     1.722324     1.714681
      1.707038     1.699395     1.691752     1.684108     1.676465     1.668822     1.661179     1.653536     1.645893     1.638250
      1.630607     1.622964     1.615321     1.607677     1.600034     1.592391     1.584748     1.577105     1.569462     1.561819
      1.554176     1.546533     1.538890     1.531246     1.523603     1.515960     1.508317     1.500674     1.493031     1.485388
      1.477745     1.470102     1.462458     1.454815     1.447172     1.439529     1.431886     1.424243     1.416600     1.408957
      1.401314     1.393671     1.386027     1.378384     1.370741     1.363098     1.355455     1.347812     1.340169     1.332526
      1.324883     1.317240     1.309596     1.301953     1.294310     1.286667     1.279024     1.271381     1.263738     1.256095
      1.248452     1.240808     1.233165     1.225522     1.217879     1.210236     1.202593     1.194950     1.187307     1.179664
      1.172021     1.164377     1.156734     1.149091     1.141448     1.133805     1.126162     1.118519     1.110876     1.103233
      1.095590     1.087946     1.080303     1.072660     1.065017     1.057374     1.049731     1.042088     1.034445     1.026802
      1.019158     1.011515     1.003872     0.996229     0.988586     0.980943     0.973300     0.965657     0.958014     0.950371
      0.942727     0.935084     0.927441     0.919798     0.912155     0.904512     0.896869     0.889226     0.881583     0.873940
      0.866296     0.858653     0.851010     0.843367     0.835724     0.828081     0.820438     0.812795     0.805152     0.797508
      0.789865     0.782222     0.774579     0.766936     0.759293     0.751650     0.744007     0.736364     0.728721     0.721077
      0.713434     0.705791     0.698148     0.690505     0.682862     0.675219     0.667576     0.659933     0.652290     0.644646
      0.637003     0.629360     0.621717     0.614074     0.606431     0.598788     0.591145     0.583502     0.575858     0.568215
      0.560572     0.552929     0.545286     0.537643     0.530000     0.522357     0.514714     0.507071     0.499427     0.491784
      0.484141     0.476498     0.468855     0.461212     0.453569     0.445925     0.438282     0.430639     0.422996     0.415353
      0.407710     0.400067     0.392424     0.384780     0.377137     0.369494     0.361851     0.354208     0.346565     0.338922
      0.331278     0.323635     0.315992     0.308349     0.300706     0.293063     0.285420     0.277777     0.270133     0.262490
      0.254847     0.247204     0.239561     0.231918     0.224275     0.216631     0.208988     0.201345
 NY phased data points follow
   2.90651E+01  2.95559E+01  2.88869E+01  2.91677E+01  2.97278E+01  2.94810E+01  2.89023E+01  2.86049E+01  2.90235E+01  2.71366E+01
   2.92876E+01  2.73988E+01  2.75591E+01  2.60769E+01  2.83580E+01  2.72739E+01  2.78988E+01  2.49918E+01  2.75287E+01  2.61656E+01
   2.75105E+01  2.68370E+01  2.69388E+01  2.54527E+01  2.64569E+01  2.27535E+01  2.50453E+01  2.53499E+01  2.55496E+01  2.73533E+01
   2.41610E+01  2.53259E+01  2.38288E+01  2.49537E+01  2.32742E+01  2.55265E+01  2.46682E+01  2.31842E+01  2.35346E+01  2.35749E+01
   2.30437E+01  2.36672E+01  2.41371E+01  2.28308E+01  2.14699E+01  2.30418E+01  2.12849E+01  2.23140E+01  2.15395E+01  2.12784E+01
   2.20276E+01  2.14988E+01  2.05392E+01  2.11867E+01  2.14328E+01  2.08700E+01  2.09747E+01  2.02171E+01  2.18755E+01  2.08093E+01
   1.91405E+01  2.04424E+01  2.08909E+01  1.87145E+01  2.03065E+01  1.76583E+01  2.13866E+01  1.87431E+01  1.85190E+01  1.78739E+01
   1.91280E+01  1.70770E+01  1.67002E+01  1.91705E+01  1.83820E+01  1.72454E+01  1.80500E+01  1.73026E+01  1.73723E+01  1.68543E+01
   1.77616E+01  1.61942E+01  1.40350E+01  1.67667E+01  1.68280E+01  1.75184E+01  1.60828E+01  1.65686E+01  1.69779E+01  1.45558E+01
   1.52055E+01  1.32783E+01  1.42397E+01  1.43397E+01  1.20989E+01  1.32653E+01  1.24092E+01  1.52602E+01  1.46561E+01  1.38032E+01
   1.47242E+01  1.33215E+01  1.36553E+01  1.34018E+01  1.37019E+01  1.29656E+01  1.08475E+01  1.32936E+01  1.16610E+01  1.07397E+01
   1.31466E+01  1.06182E+01  9.83864E+00  8.97886E+00  9.51198E+00  9.69917E+00  9.96980E+00  1.03342E+01  7.83453E+00  8.92806E+00
   8.69158E+00  1.00679E+01  8.15469E+00  8.47115E+00  9.27944E+00  8.46414E+00  9.18900E+00  9.06821E+00  7.99502E+00  6.66823E+00
   5.96149E+00  6.10437E+00  5.97679E+00  6.10230E+00  4.23099E+00  6.52844E+00  4.35338E+00  4.93382E+00  6.31051E+00  5.15459E+00
   2.75503E+00  4.98327E+00  4.02643E+00  3.17690E+00  4.18041E+00  3.90390E+00  4.89637E+00  3.25114E+00  6.63252E+00  7.13879E+00
   3.55868E+00  3.19174E+00  4.39160E+00  2.48755E+00  4.04800E+00  1.60803E+00  1.97899E+00  3.68401E+00  1.04176E+00  3.99002E-01
  -8.60996E-01  8.74206E-01  4.84712E-01 -6.74516E-01 -1.05511E+00  3.30543E-01 -2.76446E+00 -1.18610E+00 -1.99728E+00 -9.18784E-01
  -1.29290E+00 -3.89447E+00 -1.71851E+00 -3.20965E+00 -4.77551E+00 -4.18828E+00 -3.05531E+00 -3.67158E+00 -4.83860E+00 -5.82768E+00
  -4.16120E+00 -6.18023E+00 -5.61043E+00 -7.36814E+00 -6.35598E+00 -6.28513E+00 -7.63195E+00 -8.77698E+00 -8.49151E+00 -7.87209E+00
  -7.71799E+00 -9.83211E+00 -8.12389E+00 -9.59404E+00 -8.94183E+00 -1.06234E+01 -1.27993E+01 -1.11161E+01 -1.10505E+01 -1.21432E+01
  -1.32640E+01 -1.35501E+01 -1.21135E+01 -1.32580E+01 -1.28291E+01 -1.46336E+01 -1.43846E+01 -1.45533E+01 -1.66662E+01 -1.67386E+01
  -1.42282E+01 -1.40358E+01 -1.27700E+01 -1.17741E+01 -1.31860E+01 -1.09169E+01 -1.10281E+01 -1.24945E+01 -8.90461E+00 -1.21451E+01
  -1.15442E+01 -1.11342E+01 -7.95280E+00 -9.58706E+00 -9.56965E+00 -1.01965E+01 -9.88414E+00 -9.88348E+00 -6.55209E+00 -6.74824E+00
  -8.45763E+00 -8.90641E+00 -6.87427E+00 -7.53305E+00 -6.76977E+00 -6.44166E+00 -5.52782E+00 -6.90933E+00 -6.60048E+00 -8.06285E+00
  -4.33031E+00 -6.17666E+00 -4.60471E+00 -5.64643E+00 -3.18652E+00 -4.99558E+00 -2.59624E+00 -3.20323E+00 -2.43617E+00 -6.61829E+00
  -4.86702E+00 -2.90077E+00 -5.22505E+00 -6.04162E+00 -6.32633E+00 -4.24553E+00 -4.77403E+00 -2.51566E+00 -1.27539E+00 -2.30380E+00
  -3.15693E+00 -2.52446E+00 -3.26408E+00 -3.82209E+00 -5.46457E+00 -3.19781E+00 -3.64675E+00 -3.62768E+00 -4.32768E+00 -2.25016E+00
  -3.79962E+00 -2.57620E+00 -2.63336E+00 -4.11153E+00 -5.61425E+00 -4.05790E+00 -6.01421E+00 -1.90701E+00 -3.45026E+00 -3.40164E+00
  -5.23904E+00 -4.92210E+00 -6.37946E+00 -5.38570E+00 -4.93560E+00 -3.23238E+00 -4.54394E+00 -3.64670E+00 -3.95556E+00 -4.82802E+00
  -3.58307E+00 -2.87969E+00 -2.14258E+00 -2.74543E+00 -3.78322E+00 -5.45061E+00 -4.16655E+00 -1.12321E+00 -3.53036E+00 -2.56365E+00
  -8.71030E-01 -2.23534E+00 -3.09385E+00  4.91336E-01 -8.19975E-01 -2.71569E-01  3.00114E+00  1.42692E-01 -2.71076E-02  3.40929E-01
   1.25198E+00  2.07611E+00  1.91044E+00  2.23414E+00  1.74036E+00  3.61783E+00  3.02958E+00  2.54152E+00  3.78868E+00  4.08763E+00
   5.49833E+00  6.31778E+00  7.22935E+00  6.49325E+00  8.17797E+00  8.37623E+00  9.21746E+00  8.93374E+00  1.12271E+01  1.19856E+01
   1.24495E+01  1.03210E+01  1.04950E+01  1.46494E+01  1.34116E+01  1.45598E+01  1.48214E+01  1.50897E+01  1.42173E+01  1.63306E+01
   1.96379E+01  1.55396E+01  1.67625E+01  2.02823E+01  1.96002E+01  1.87946E+01  2.04669E+01  1.88458E+01  1.81891E+01  2.09838E+01
   1.99820E+01  2.20447E+01  1.89012E+01  1.83050E+01  1.91614E+01  2.13776E+01  1.91816E+01  1.90884E+01  1.93748E+01  1.92650E+01
   1.81256E+01  1.79381E+01  1.70412E+01  1.76770E+01  1.75635E+01  1.64381E+01  1.44917E+01  1.46497E+01  1.53235E+01  1.50345E+01
   1.27156E+01  1.16974E+01  1.25496E+01  1.25371E+01  1.01536E+01  1.04283E+01  9.24118E+00  8.70975E+00  8.79064E+00  8.58863E+00
   9.51055E+00  6.73458E+00  7.18068E+00  6.62458E+00  8.26996E+00  5.51139E+00  6.48052E+00  6.06889E+00  6.45020E+00  6.85743E+00
   4.31196E+00  4.68072E+00  4.80155E+00  4.71291E+00  5.27520E+00  5.22281E+00  3.53887E+00  2.66881E+00  4.94177E+00  2.47013E+00
   2.25066E+00  3.64470E+00  1.81183E+00  1.42948E+00  3.45734E+00  3.17134E+00  2.42804E+00  4.21710E+00  3.47925E+00  1.31198E+00
   5.08845E-01  5.27425E-01  2.19855E+00  2.29978E+00  2.78692E-01  1.51659E+00  1.29944E-01  3.32262E-01  2.13496E+00 -8.40102E-01
   2.78564E+00  1.42464E+00  4.00403E-02  5.07130E-01  4.17899E-01 -1.05449E+00  4.12762E-01 -4.65679E-02  3.49054E-01 -8.10442E-01
  -4.53605E-01  1.31395E+00 -1.25412E+00 -4.86319E-01 -2.96841E+00 -1.02096E+00 -1.02843E+00 -9.77486E-01 -1.32473E+00 -7.05860E-01
  -1.53376E-01 -3.48264E+00 -1.59259E+00 -1.60680E+00 -2.02548E+00 -1.54081E+00 -2.68641E-02 -5.54783E-01 -4.23508E+00 -2.68625E+00
  -1.90231E+00 -3.90499E+00 -2.69468E+00 -2.43806E+00 -5.80308E+00 -3.98558E+00 -3.99145E+00 -4.17484E+00 -3.11198E+00 -3.14839E+00
  -5.31367E+00 -2.39209E+00 -2.64027E+00 -3.30760E+00 -3.16229E+00 -4.80182E+00 -3.06046E+00 -3.50608E+00 -4.17620E+00 -3.42939E+00
  -4.67043E+00 -5.50597E+00 -3.64432E+00 -3.43769E+00 -3.27485E+00 -3.79085E+00 -2.68848E+00 -4.02426E+00 -4.38689E+00 -3.85963E+00
  -4.71730E+00 -4.79648E+00 -4.24470E+00 -4.16988E+00 -3.68663E+00 -6.87283E+00 -4.92020E+00 -5.13314E+00 -4.76335E+00 -4.12550E+00
  -5.04251E+00 -5.33829E+00 -5.73619E+00 -3.15636E+00 -5.44085E+00 -4.99181E+00 -5.82213E+00 -6.13118E+00
 NY points of the fit to the data follow
   3.01608E+01  2.91093E+01  2.94074E+01  2.88571E+01  2.93710E+01  2.87981E+01  2.91989E+01  2.87832E+01  2.89558E+01  2.84980E+01
   2.79832E+01  2.75197E+01  2.73216E+01  2.73057E+01  2.68242E+01  2.70440E+01  2.66812E+01  2.71389E+01  2.66729E+01  2.72027E+01
   2.65610E+01  2.71086E+01  2.63793E+01  2.67587E+01  2.59934E+01  2.63803E+01  2.55588E+01  2.59967E+01  2.53677E+01  2.56980E+01
   2.51446E+01  2.53962E+01  2.51390E+01  2.52469E+01  2.50827E+01  2.49089E+01  2.48457E+01  2.44712E+01  2.46955E+01  2.40904E+01
   2.42844E+01  2.36952E+01  2.41890E+01  2.34737E+01  2.37348E+01  2.28861E+01  2.35004E+01  2.28356E+01  2.32791E+01  2.25737E+01
   2.27514E+01  2.19031E+01  2.20660E+01  2.12620E+01  2.11391E+01  2.06590E+01  2.07738E+01  2.04246E+01  2.03086E+01  1.99152E+01
   1.98840E+01  1.95726E+01  1.94302E+01  1.90930E+01  1.89648E+01  1.86509E+01  1.85364E+01  1.82062E+01  1.80672E+01  1.77599E+01
   1.76996E+01  1.74120E+01  1.73268E+01  1.70177E+01  1.69383E+01  1.65930E+01  1.64800E+01  1.61141E+01  1.60027E+01  1.56441E+01
   1.55358E+01  1.51648E+01  1.50269E+01  1.46796E+01  1.46293E+01  1.45529E+01  1.44779E+01  1.43557E+01  1.42000E+01  1.40958E+01
   1.39754E+01  1.40932E+01  1.38887E+01  1.39923E+01  1.37522E+01  1.38657E+01  1.36067E+01  1.38986E+01  1.35893E+01  1.38609E+01
   1.34789E+01  1.37086E+01  1.32803E+01  1.34919E+01  1.30206E+01  1.30992E+01  1.25637E+01  1.25968E+01  1.21042E+01  1.20579E+01
   1.15713E+01  1.14885E+01  1.10018E+01  1.08300E+01  1.03835E+01  1.02112E+01  9.78224E+00  9.54334E+00  9.16256E+00  8.96054E+00
   8.67404E+00  8.61205E+00  8.28218E+00  8.03857E+00  7.79029E+00  7.79743E+00  7.58296E+00  7.59618E+00  7.35076E+00  7.32192E+00
   7.05724E+00  6.99027E+00  6.69585E+00  6.55760E+00  6.25824E+00  6.10480E+00  5.79605E+00  5.59304E+00  5.27749E+00  5.03670E+00
   4.72344E+00  4.44948E+00  4.14840E+00  3.87510E+00  3.59783E+00  3.33984E+00  3.05280E+00  2.72835E+00  2.48164E+00  2.24398E+00
   2.01299E+00  1.77552E+00  1.54287E+00  1.30324E+00  1.06714E+00  8.21842E-01  5.77950E-01  3.26266E-01  7.54369E-02 -1.86318E-01
  -4.45212E-01 -7.13228E-01 -9.78637E-01 -1.25257E+00 -1.52335E+00 -1.80038E+00 -2.07377E+00 -2.35245E+00 -2.62338E+00 -2.89939E+00
  -3.17052E+00 -3.44168E+00 -3.70707E+00 -3.97144E+00 -4.24542E+00 -4.56448E+00 -4.83821E+00 -5.24153E+00 -5.53124E+00 -5.93078E+00
  -6.20319E+00 -6.61126E+00 -6.72696E+00 -7.04650E+00 -7.10135E+00 -7.42343E+00 -7.34512E+00 -7.71528E+00 -7.56755E+00 -8.04657E+00
  -8.09403E+00 -8.99714E+00 -8.82209E+00 -9.54409E+00 -9.21571E+00 -9.89945E+00 -9.56687E+00 -1.04125E+01 -9.68721E+00 -1.03661E+01
  -9.60220E+00 -1.03244E+01 -9.66792E+00 -1.06778E+01 -9.94803E+00 -1.08916E+01 -1.01453E+01 -1.09626E+01 -1.01699E+01 -1.08426E+01
  -1.00015E+01 -1.05374E+01 -9.66393E+00 -1.00520E+01 -9.21965E+00 -9.38262E+00 -8.85563E+00 -9.36614E+00 -8.77794E+00 -8.96347E+00
  -8.39257E+00 -8.40517E+00 -7.76396E+00 -7.77956E+00 -7.36234E+00 -7.39435E+00 -7.04390E+00 -7.06407E+00 -6.60497E+00 -6.61385E+00
  -6.66937E+00 -7.12941E+00 -7.05243E+00 -7.28415E+00 -7.06720E+00 -7.28775E+00 -7.17558E+00 -7.20278E+00 -6.97110E+00 -6.94873E+00
  -6.76525E+00 -6.54418E+00 -6.37628E+00 -6.06034E+00 -5.98910E+00 -5.61735E+00 -5.56968E+00 -4.95258E+00 -4.80980E+00 -4.06150E+00
  -4.03222E+00 -3.24640E+00 -3.39837E+00 -2.72697E+00 -2.88775E+00 -2.05326E+00 -2.44129E+00 -1.90739E+00 -2.38728E+00 -2.05120E+00
  -2.72232E+00 -2.34712E+00 -2.82908E+00 -2.61940E+00 -3.22911E+00 -3.15416E+00 -3.87673E+00 -3.91554E+00 -4.59352E+00 -4.70493E+00
  -5.34281E+00 -5.43068E+00 -5.88784E+00 -5.96849E+00 -6.29368E+00 -6.28863E+00 -6.45940E+00 -6.39865E+00 -6.37969E+00 -6.25945E+00
  -6.18757E+00 -6.00823E+00 -5.82027E+00 -5.56409E+00 -5.30891E+00 -4.99331E+00 -4.66919E+00 -4.36025E+00 -4.04489E+00 -3.75913E+00
  -3.48747E+00 -3.26062E+00 -3.05887E+00 -2.92065E+00 -2.82169E+00 -2.77095E+00 -2.75192E+00 -2.76802E+00 -2.80398E+00 -2.85458E+00
  -2.90066E+00 -2.93051E+00 -2.93159E+00 -2.87961E+00 -2.75508E+00 -2.52587E+00 -2.14953E+00 -1.53743E+00 -4.93255E-01  9.77515E-01
   1.27848E+00  2.02145E+00  2.08308E+00  2.78243E+00  2.91406E+00  3.75241E+00  2.85282E+00  4.02514E+00  3.95595E+00  5.11173E+00
   5.28337E+00  6.53459E+00  6.01699E+00  7.36361E+00  7.41479E+00  8.41860E+00  8.63800E+00  9.67538E+00  1.06403E+01  1.12226E+01
   1.16082E+01  1.18972E+01  1.21230E+01  1.21080E+01  1.31145E+01  1.28643E+01  1.44239E+01  1.45069E+01  1.58042E+01  1.61162E+01
   1.77763E+01  1.71775E+01  1.86326E+01  1.90026E+01  1.98977E+01  2.02131E+01  1.97133E+01  1.90442E+01  1.94466E+01  2.05072E+01
   2.00540E+01  2.08023E+01  1.93998E+01  2.08668E+01  2.05009E+01  2.10036E+01  1.88131E+01  1.98081E+01  1.82523E+01  1.93457E+01
   1.73024E+01  1.79651E+01  1.67672E+01  1.75119E+01  1.64991E+01  1.65189E+01  1.44808E+01  1.50141E+01  1.47456E+01  1.46861E+01
   1.38333E+01  1.34486E+01  1.29877E+01  1.27363E+01  1.07257E+01  9.49446E+00  8.75063E+00  8.23578E+00  7.85729E+00  7.57171E+00
   7.35209E+00  7.18142E+00  7.04557E+00  6.93443E+00  6.83766E+00  6.74759E+00  6.65597E+00  6.55746E+00  6.44616E+00  6.31898E+00
   6.17199E+00  6.00423E+00  5.81406E+00  5.60304E+00  5.37181E+00  5.12381E+00  4.86106E+00  4.58825E+00  4.30841E+00  4.02703E+00
   3.74737E+00  3.47467E+00  3.21148E+00  2.96228E+00  2.72872E+00  2.51425E+00  2.31914E+00  2.14536E+00  1.99166E+00  1.85874E+00
   1.74422E+00  1.64774E+00  1.56579E+00  1.49710E+00  1.43747E+00  1.38530E+00  1.33623E+00  1.28865E+00  1.23819E+00  1.18350E+00
   1.12069E+00  1.04917E+00  9.65822E-01  8.70832E-01  7.61801E-01  6.39801E-01  5.03354E-01  3.54494E-01  1.92494E-01  2.00186E-02
  -1.63188E-01 -3.53945E-01 -5.52102E-01 -7.54168E-01 -9.59957E-01 -1.16605E+00 -1.37244E+00 -1.57581E+00 -1.77636E+00 -1.97105E+00
  -2.16051E+00 -2.34212E+00 -2.51689E+00 -2.68246E+00 -2.84017E+00 -2.98797E+00 -3.12757E+00 -3.25722E+00 -3.37881E+00 -3.49067E+00
  -3.59487E+00 -3.68987E+00 -3.77791E+00 -3.85748E+00 -3.93086E+00 -3.99647E+00 -4.05662E+00 -4.10977E+00 -4.15829E+00 -4.20055E+00
  -4.23886E+00 -4.27150E+00 -4.30082E+00 -4.32510E+00 -4.34668E+00 -4.36374E+00 -4.37855E+00 -4.38923E+00 -4.39812E+00 -4.40332E+00
  -4.40713E+00 -4.40755E+00 -4.40687E+00 -4.40305E+00 -4.39845E+00 -4.39100E+00 -4.38302E+00 -4.37235E+00 -4.36131E+00 -4.34778E+00
  -4.33410E+00 -4.31810E+00 -4.30209E+00 -4.28385E+00 -4.26571E+00 -4.24546E+00 -4.22548E+00 -4.20348E+00 -4.18181E+00 -4.15815E+00
  -4.13489E+00 -4.10973E+00 -4.08504E+00 -4.05844E+00 -4.03231E+00 -4.00421E+00 -3.97655E+00 -3.94681E+00
 NY background values follow
     2.759E+01    2.742E+01    2.725E+01    2.709E+01    2.692E+01    2.675E+01    2.659E+01    2.642E+01    2.625E+01    2.608E+01
     2.591E+01    2.575E+01    2.558E+01    2.541E+01    2.524E+01    2.507E+01    2.490E+01    2.473E+01    2.456E+01    2.439E+01
     2.421E+01    2.404E+01    2.387E+01    2.370E+01    2.353E+01    2.335E+01    2.318E+01    2.301E+01    2.283E+01    2.266E+01
     2.249E+01    2.231E+01    2.214E+01    2.196E+01    2.179E+01    2.161E+01    2.143E+01    2.126E+01    2.108E+01    2.091E+01
     2.073E+01    2.055E+01    2.037E+01    2.019E+01    2.002E+01    1.984E+01    1.966E+01    1.948E+01    1.930E+01    1.912E+01
     1.894E+01    1.876E+01    1.858E+01    1.840E+01    1.822E+01    1.803E+01    1.785E+01    1.767E+01    1.749E+01    1.730E+01
     1.712E+01    1.694E+01    1.675E+01    1.657E+01    1.638E+01    1.620E+01    1.601E+01    1.583E+01    1.564E+01    1.546E+01
     1.527E+01    1.508E+01    1.490E+01    1.471E+01    1.452E+01    1.433E+01    1.415E+01    1.396E+01    1.377E+01    1.358E+01
     1.339E+01    1.320E+01    1.301E+01    1.282E+01    1.263E+01    1.244E+01    1.224E+01    1.205E+01    1.186E+01    1.167E+01
     1.148E+01    1.128E+01    1.109E+01    1.089E+01    1.070E+01    1.051E+01    1.031E+01    1.012E+01    9.921E+00    9.725E+00
     9.529E+00    9.332E+00    9.136E+00    8.938E+00    8.741E+00    8.543E+00    8.345E+00    8.147E+00    7.948E+00    7.749E+00
     7.549E+00    7.349E+00    7.149E+00    6.949E+00    6.748E+00    6.547E+00    6.345E+00    6.143E+00    5.941E+00    5.739E+00
     5.536E+00    5.333E+00    5.129E+00    4.925E+00    4.721E+00    4.516E+00    4.311E+00    4.106E+00    3.901E+00    3.695E+00
     3.489E+00    3.283E+00    3.076E+00    2.870E+00    2.663E+00    2.456E+00    2.250E+00    2.043E+00    1.836E+00    1.628E+00
     1.421E+00    1.214E+00    1.007E+00    8.005E-01    5.936E-01    3.869E-01    1.803E-01   -2.611E-02   -2.324E-01   -4.384E-01
    -6.442E-01   -8.498E-01   -1.055E+00   -1.260E+00   -1.465E+00   -1.669E+00   -1.873E+00   -2.077E+00   -2.280E+00   -2.483E+00
    -2.685E+00   -2.887E+00   -3.088E+00   -3.289E+00   -3.489E+00   -3.688E+00   -3.887E+00   -4.086E+00   -4.284E+00   -4.481E+00
    -4.677E+00   -4.873E+00   -5.068E+00   -5.262E+00   -5.455E+00   -5.648E+00   -5.840E+00   -6.031E+00   -6.221E+00   -6.410E+00
    -6.598E+00   -6.785E+00   -6.972E+00   -7.157E+00   -7.341E+00   -7.525E+00   -7.707E+00   -7.888E+00   -8.068E+00   -8.247E+00
    -8.425E+00   -8.601E+00   -8.777E+00   -8.951E+00   -9.124E+00   -9.296E+00   -9.466E+00   -9.635E+00   -9.803E+00   -9.969E+00
    -1.013E+01   -1.030E+01   -1.046E+01   -1.062E+01   -1.078E+01   -1.094E+01   -1.109E+01   -1.125E+01   -1.140E+01   -1.155E+01
    -1.170E+01   -1.185E+01   -1.200E+01   -1.214E+01   -1.229E+01   -1.243E+01   -1.257E+01   -1.270E+01   -1.284E+01   -1.297E+01
    -1.311E+01   -1.324E+01   -1.337E+01   -1.349E+01   -1.362E+01   -1.374E+01   -1.386E+01   -1.398E+01   -1.410E+01   -1.421E+01
    -1.432E+01   -1.444E+01   -1.454E+01   -1.465E+01   -1.475E+01   -1.486E+01   -1.496E+01   -1.505E+01   -1.515E+01   -1.524E+01
    -1.533E+01   -1.542E+01   -1.551E+01   -1.559E+01   -1.567E+01   -1.575E+01   -1.583E+01   -1.590E+01   -1.597E+01   -1.604E+01
    -1.611E+01   -1.617E+01   -1.623E+01   -1.629E+01   -1.635E+01   -1.640E+01   -1.645E+01   -1.650E+01   -1.655E+01   -1.659E+01
    -1.664E+01   -1.668E+01   -1.672E+01   -1.675E+01   -1.678E+01   -1.682E+01   -1.684E+01   -1.687E+01   -1.690E+01   -1.692E+01
    -1.694E+01   -1.696E+01   -1.698E+01   -1.699E+01   -1.700E+01   -1.701E+01   -1.702E+01   -1.703E+01   -1.703E+01   -1.704E+01
    -1.704E+01   -1.704E+01   -1.704E+01   -1.703E+01   -1.703E+01   -1.702E+01   -1.701E+01   -1.700E+01   -1.698E+01   -1.697E+01
    -1.695E+01   -1.694E+01   -1.692E+01   -1.690E+01   -1.687E+01   -1.685E+01   -1.683E+01   -1.680E+01   -1.677E+01   -1.674E+01
    -1.671E+01   -1.668E+01   -1.664E+01   -1.661E+01   -1.657E+01   -1.654E+01   -1.650E+01   -1.646E+01   -1.642E+01   -1.637E+01
    -1.633E+01   -1.628E+01   -1.624E+01   -1.619E+01   -1.614E+01   -1.609E+01   -1.604E+01   -1.599E+01   -1.594E+01   -1.589E+01
    -1.583E+01   -1.578E+01   -1.572E+01   -1.567E+01   -1.561E+01   -1.555E+01   -1.549E+01   -1.543E+01   -1.537E+01   -1.531E+01
    -1.524E+01   -1.518E+01   -1.512E+01   -1.505E+01   -1.499E+01   -1.492E+01   -1.486E+01   -1.479E+01   -1.472E+01   -1.465E+01
    -1.459E+01   -1.452E+01   -1.445E+01   -1.438E+01   -1.431E+01   -1.424E+01   -1.417E+01   -1.410E+01   -1.402E+01   -1.395E+01
    -1.388E+01   -1.381E+01   -1.373E+01   -1.366E+01   -1.359E+01   -1.352E+01   -1.344E+01   -1.337E+01   -1.330E+01   -1.322E+01
    -1.315E+01   -1.307E+01   -1.300E+01   -1.293E+01   -1.285E+01   -1.278E+01   -1.271E+01   -1.263E+01   -1.256E+01   -1.249E+01
    -1.241E+01   -1.234E+01   -1.227E+01   -1.220E+01   -1.212E+01   -1.205E+01   -1.198E+01   -1.191E+01   -1.184E+01   -1.177E+01
    -1.170E+01   -1.163E+01   -1.156E+01   -1.149E+01   -1.142E+01   -1.135E+01   -1.128E+01   -1.121E+01   -1.114E+01   -1.107E+01
    -1.101E+01   -1.094E+01   -1.087E+01   -1.080E+01   -1.074E+01   -1.067E+01   -1.060E+01   -1.054E+01   -1.047E+01   -1.040E+01
    -1.034E+01   -1.027E+01   -1.021E+01   -1.014E+01   -1.008E+01   -1.001E+01   -9.949E+00   -9.885E+00   -9.821E+00   -9.758E+00
    -9.694E+00   -9.631E+00   -9.568E+00   -9.506E+00   -9.443E+00   -9.381E+00   -9.319E+00   -9.257E+00   -9.196E+00   -9.135E+00
    -9.073E+00   -9.013E+00   -8.952E+00   -8.892E+00   -8.831E+00   -8.771E+00   -8.712E+00   -8.652E+00   -8.593E+00   -8.534E+00
    -8.475E+00   -8.416E+00   -8.358E+00   -8.299E+00   -8.241E+00   -8.183E+00   -8.126E+00   -8.068E+00   -8.011E+00   -7.954E+00
    -7.897E+00   -7.841E+00   -7.784E+00   -7.728E+00   -7.672E+00   -7.616E+00   -7.561E+00   -7.505E+00   -7.450E+00   -7.395E+00
    -7.340E+00   -7.286E+00   -7.231E+00   -7.177E+00   -7.123E+00   -7.069E+00   -7.016E+00   -6.962E+00   -6.909E+00   -6.856E+00
    -6.803E+00   -6.751E+00   -6.698E+00   -6.646E+00   -6.594E+00   -6.542E+00   -6.490E+00   -6.439E+00   -6.387E+00   -6.336E+00
    -6.285E+00   -6.234E+00   -6.184E+00   -6.133E+00   -6.083E+00   -6.033E+00   -5.983E+00   -5.934E+00   -5.884E+00   -5.835E+00
    -5.785E+00   -5.736E+00   -5.688E+00   -5.639E+00   -5.591E+00   -5.542E+00   -5.494E+00   -5.446E+00   -5.398E+00   -5.351E+00
    -5.303E+00   -5.256E+00   -5.209E+00   -5.162E+00   -5.115E+00   -5.068E+00   -5.022E+00   -4.976E+00
 Ala      Conc. = 4.38E+03
