 LCModel (Version 6.3-1L) Copyright: S.W. Provencher.          Ref.: Magn. Reson. Med. 30:672-679 (1993).                
 Slice#2 Row#13 Col#7  PD_05_press_1_raw_act
 36 lines in following concentration table = NCONC+1
    Conc.  %SD /Cr+PCr  Metabolite                                         
    0.000 999%   0.000 Ala                                                 
   77.828 134%   0.137 Asp                                                 
  558.411  28%   0.984 Cr                                                  
    8.848 999% 1.6E-02 PCr                                                 
   55.142 128% 9.7E-02 GABA                                                
   31.662 213% 5.6E-02 Glc                                                 
  690.720  36%   1.218 Gln                                                 
 1.23E+03  23%   2.169 Glu                                                 
  193.814   8%   0.342 GPC                                                 
    0.000 999%   0.000 PCh                                                 
  322.904  18%   0.569 GSH                                                 
 1.73E+03  12%   3.055 Ins                                                 
  155.259  75%   0.274 Lac                                                 
  945.848   7%   1.667 NAA                                                 
    3.452 999% 6.1E-03 NAAG                                                
   93.805  18%   0.165 Scyllo                                              
  252.725  41%   0.446 Tau                                                 
  278.186  29%   0.490 -CrCH2                                              
  193.814   8%   0.342 GPC+PCh                                             
  949.300   5%   1.673 NAA+NAAG                                            
  567.259   7%   1.000 Cr+PCr                                              
 1.92E+03  25%   3.387 Glu+Gln                                             
  197.731 158%   0.349 Lip13a                                              
   25.138 437% 4.4E-02 Lip13b                                              
   40.193 196% 7.1E-02 Lip09                                               
  323.337  29%   0.570 MM09                                                
   29.218 168% 5.2E-02 Lip20                                               
  560.431  31%   0.988 MM20                                                
  103.219  52%   0.182 MM12                                                
  346.157  37%   0.610 MM14                                                
  169.100  54%   0.298 MM17                                                
  222.869 101%   0.393 Lip13a+Lip13b                                       
  672.245  35%   1.185 MM14+Lip13a+Lip13b+MM12                             
  363.530  25%   0.641 MM09+Lip09                                          
  589.649  29%   1.039 MM20+Lip20                                          
   6 lines in following misc. output table
  FWHM = 0.084 ppm    S/N =   7                                            
  Data shift = 0.046 ppm                                                   
  Ph: -50 deg     -16.7 deg/ppm                                            
  alphaB,S = 8.2E-01,   5.1E+01                                            
   14 spline knots.   Ns =10(1)                                            
  (18) 7 infls.   (19) 1 extrs.                                            
  498 points on ppm-axis = NY
      4.000000     3.992357     3.984714     3.977070     3.969427     3.961784     3.954141     3.946497     3.938854     3.931211
      3.923568     3.915925     3.908281     3.900638     3.892995     3.885352     3.877708     3.870065     3.862422     3.854779
      3.847136     3.839492     3.831849     3.824206     3.816563     3.808919     3.801276     3.793633     3.785990     3.778347
      3.770703     3.763060     3.755417     3.747774     3.740130     3.732487     3.724844     3.717201     3.709558     3.701914
      3.694271     3.686628     3.678985     3.671341     3.663698     3.656055     3.648412     3.640769     3.633125     3.625482
      3.617839     3.610196     3.602552     3.594909     3.587266     3.579623     3.571980     3.564336     3.556693     3.549050
      3.541407     3.533763     3.526120     3.518477     3.510834     3.503191     3.495547     3.487904     3.480261     3.472618
      3.464974     3.457331     3.449688     3.442045     3.434402     3.426758     3.419115     3.411472     3.403829     3.396185
      3.388542     3.380899     3.373256     3.365613     3.357969     3.350326     3.342683     3.335040     3.327396     3.319753
      3.312110     3.304467     3.296824     3.289180     3.281537     3.273894     3.266251     3.258607     3.250964     3.243321
      3.235678     3.228034     3.220391     3.212748     3.205105     3.197462     3.189818     3.182175     3.174532     3.166889
      3.159245     3.151602     3.143959     3.136316     3.128673     3.121029     3.113386     3.105743     3.098100     3.090456
      3.082813     3.075170     3.067527     3.059884     3.052240     3.044597     3.036954     3.029311     3.021667     3.014024
      3.006381     2.998738     2.991095     2.983451     2.975808     2.968165     2.960522     2.952878     2.945235     2.937592
      2.929949     2.922306     2.914662     2.907019     2.899376     2.891733     2.884089     2.876446     2.868803     2.861160
      2.853517     2.845873     2.838230     2.830587     2.822944     2.815300     2.807657     2.800014     2.792371     2.784728
      2.777084     2.769441     2.761798     2.754155     2.746511     2.738868     2.731225     2.723582     2.715939     2.708295
      2.700652     2.693009     2.685366     2.677722     2.670079     2.662436     2.654793     2.647150     2.639506     2.631863
      2.624220     2.616577     2.608933     2.601290     2.593647     2.586004     2.578361     2.570717     2.563074     2.555431
      2.547788     2.540144     2.532501     2.524858     2.517215     2.509572     2.501928     2.494285     2.486642     2.478999
      2.471355     2.463712     2.456069     2.448426     2.440783     2.433139     2.425496     2.417853     2.410210     2.402566
      2.394923     2.387280     2.379637     2.371994     2.364350     2.356707     2.349064     2.341421     2.333777     2.326134
      2.318491     2.310848     2.303205     2.295561     2.287918     2.280275     2.272632     2.264988     2.257345     2.249702
      2.242059     2.234416     2.226772     2.219129     2.211486     2.203843     2.196199     2.188556     2.180913     2.173270
      2.165627     2.157983     2.150340     2.142697     2.135054     2.127410     2.119767     2.112124     2.104481     2.096838
      2.089194     2.081551     2.073908     2.066265     2.058621     2.050978     2.043335     2.035692     2.028049     2.020405
      2.012762     2.005119     1.997476     1.989833     1.982190     1.974546     1.966903     1.959260     1.951617     1.943974
      1.936331     1.928688     1.921045     1.913402     1.905759     1.898115     1.890472     1.882829     1.875186     1.867543
      1.859900     1.852257     1.844614     1.836971     1.829327     1.821684     1.814041     1.806398     1.798755     1.791112
      1.783469     1.775826     1.768183     1.760540     1.752896     1.745253     1.737610     1.729967     1.722324     1.714681
      1.707038     1.699395     1.691752     1.684108     1.676465     1.668822     1.661179     1.653536     1.645893     1.638250
      1.630607     1.622964     1.615321     1.607677     1.600034     1.592391     1.584748     1.577105     1.569462     1.561819
      1.554176     1.546533     1.538890     1.531246     1.523603     1.515960     1.508317     1.500674     1.493031     1.485388
      1.477745     1.470102     1.462458     1.454815     1.447172     1.439529     1.431886     1.424243     1.416600     1.408957
      1.401314     1.393671     1.386027     1.378384     1.370741     1.363098     1.355455     1.347812     1.340169     1.332526
      1.324883     1.317240     1.309596     1.301953     1.294310     1.286667     1.279024     1.271381     1.263738     1.256095
      1.248452     1.240808     1.233165     1.225522     1.217879     1.210236     1.202593     1.194950     1.187307     1.179664
      1.172021     1.164377     1.156734     1.149091     1.141448     1.133805     1.126162     1.118519     1.110876     1.103233
      1.095590     1.087946     1.080303     1.072660     1.065017     1.057374     1.049731     1.042088     1.034445     1.026802
      1.019158     1.011515     1.003872     0.996229     0.988586     0.980943     0.973300     0.965657     0.958014     0.950371
      0.942727     0.935084     0.927441     0.919798     0.912155     0.904512     0.896869     0.889226     0.881583     0.873940
      0.866296     0.858653     0.851010     0.843367     0.835724     0.828081     0.820438     0.812795     0.805152     0.797508
      0.789865     0.782222     0.774579     0.766936     0.759293     0.751650     0.744007     0.736364     0.728721     0.721077
      0.713434     0.705791     0.698148     0.690505     0.682862     0.675219     0.667576     0.659933     0.652290     0.644646
      0.637003     0.629360     0.621717     0.614074     0.606431     0.598788     0.591145     0.583502     0.575858     0.568215
      0.560572     0.552929     0.545286     0.537643     0.530000     0.522357     0.514714     0.507071     0.499427     0.491784
      0.484141     0.476498     0.468855     0.461212     0.453569     0.445925     0.438282     0.430639     0.422996     0.415353
      0.407710     0.400067     0.392424     0.384780     0.377137     0.369494     0.361851     0.354208     0.346565     0.338922
      0.331278     0.323635     0.315992     0.308349     0.300706     0.293063     0.285420     0.277777     0.270133     0.262490
      0.254847     0.247204     0.239561     0.231918     0.224275     0.216631     0.208988     0.201345
 NY phased data points follow
  -7.39866E+01 -7.24501E+01 -6.91970E+01 -6.52544E+01 -6.56943E+01 -6.51729E+01 -6.04585E+01 -6.17386E+01 -6.08909E+01 -5.99101E+01
  -5.73899E+01 -5.62002E+01 -5.70501E+01 -5.72431E+01 -5.66491E+01 -5.98638E+01 -5.69407E+01 -5.94055E+01 -5.72640E+01 -5.82535E+01
  -5.56203E+01 -5.81851E+01 -5.68192E+01 -5.42847E+01 -5.41541E+01 -5.18613E+01 -4.83504E+01 -5.01288E+01 -4.92933E+01 -4.70858E+01
  -4.73383E+01 -4.67378E+01 -4.51011E+01 -4.82874E+01 -4.33973E+01 -4.38828E+01 -4.65577E+01 -4.32278E+01 -4.16407E+01 -4.56096E+01
  -4.32180E+01 -4.22362E+01 -4.18516E+01 -4.01696E+01 -3.83904E+01 -3.47992E+01 -3.76867E+01 -3.85723E+01 -3.93976E+01 -4.02776E+01
  -3.86354E+01 -3.83504E+01 -4.04376E+01 -3.86071E+01 -3.91727E+01 -3.71321E+01 -3.83500E+01 -3.91188E+01 -3.96479E+01 -3.66583E+01
  -3.74827E+01 -3.28879E+01 -3.59157E+01 -3.44286E+01 -3.46956E+01 -3.52913E+01 -3.42338E+01 -3.57868E+01 -3.43822E+01 -3.32170E+01
  -3.26370E+01 -3.52799E+01 -3.38474E+01 -3.30736E+01 -3.36678E+01 -3.07675E+01 -3.02494E+01 -3.12182E+01 -3.07450E+01 -2.99799E+01
  -2.90790E+01 -3.11880E+01 -2.91030E+01 -3.01977E+01 -2.91994E+01 -3.07790E+01 -2.76787E+01 -2.76806E+01 -2.69706E+01 -2.73492E+01
  -2.50943E+01 -2.68551E+01 -2.61027E+01 -2.41491E+01 -2.51099E+01 -2.22164E+01 -2.31630E+01 -2.29788E+01 -1.83441E+01 -2.18167E+01
  -1.89998E+01 -1.58041E+01 -1.76568E+01 -1.33196E+01 -1.45844E+01 -1.45955E+01 -1.86334E+01 -1.77117E+01 -2.04589E+01 -2.08952E+01
  -2.17965E+01 -2.20248E+01 -1.96274E+01 -2.00274E+01 -2.11443E+01 -2.16433E+01 -1.80254E+01 -2.00599E+01 -2.07029E+01 -1.88511E+01
  -1.68409E+01 -1.52017E+01 -1.22749E+01 -1.31681E+01 -1.10821E+01 -7.74542E+00 -1.11188E+01 -6.83117E+00 -9.04706E+00 -8.18195E+00
  -1.18764E+01 -1.10274E+01 -1.45876E+01 -1.28637E+01 -1.77579E+01 -1.91653E+01 -2.04770E+01 -1.65959E+01 -1.67444E+01 -1.89675E+01
  -1.59842E+01 -1.95973E+01 -1.98649E+01 -1.65801E+01 -1.96675E+01 -1.43372E+01 -1.83202E+01 -1.79571E+01 -1.84187E+01 -1.75914E+01
  -1.81763E+01 -1.56542E+01 -1.72605E+01 -1.46758E+01 -1.59145E+01 -1.99138E+01 -1.85124E+01 -1.61947E+01 -1.75137E+01 -1.53412E+01
  -1.83545E+01 -1.87246E+01 -1.62251E+01 -1.91043E+01 -1.66413E+01 -1.48865E+01 -1.60376E+01 -1.47649E+01 -1.76660E+01 -1.62593E+01
  -1.66030E+01 -1.71853E+01 -1.97690E+01 -1.86386E+01 -1.56998E+01 -1.88991E+01 -1.80348E+01 -1.78050E+01 -1.76878E+01 -1.63014E+01
  -1.47118E+01 -1.42055E+01 -1.34861E+01 -1.54125E+01 -1.54396E+01 -1.48741E+01 -1.37836E+01 -1.50053E+01 -1.09362E+01 -1.17975E+01
  -1.31735E+01 -1.31044E+01 -1.20290E+01 -9.93886E+00 -1.11193E+01 -1.03958E+01 -9.57103E+00 -1.34026E+01 -1.12914E+01 -8.26487E+00
  -1.22805E+01 -8.00881E+00 -8.96832E+00 -8.01523E+00 -1.07271E+01 -1.02827E+01 -9.90841E+00 -1.12415E+01 -8.62225E+00 -1.21584E+01
  -9.84623E+00 -8.40141E+00 -8.62277E+00 -7.33227E+00 -8.15076E+00 -5.58827E+00 -6.03802E+00 -8.03767E+00 -6.60508E+00 -7.35983E+00
  -7.65653E+00 -1.08254E+01 -1.06763E+01 -8.19617E+00 -9.46767E+00 -6.75346E+00 -7.36042E+00 -8.30293E+00 -7.22151E+00 -4.77669E+00
  -4.85237E+00 -3.60742E+00 -5.54611E+00 -4.97388E+00 -3.69101E+00 -3.73018E+00 -3.65696E+00 -4.91081E+00 -4.01549E+00 -7.07869E+00
  -5.87909E+00 -7.41979E+00 -6.36812E+00 -4.05317E+00 -7.78515E+00 -2.33595E+00 -8.52449E-01 -6.23335E+00 -9.35234E-01  6.35390E-01
  -2.33292E+00  2.77634E+00  2.55024E+00  5.21611E+00  8.10553E+00  9.02337E+00  1.18255E+01  1.41885E+01  1.81177E+01  1.68727E+01
   1.58603E+01  1.83217E+01  1.76112E+01  1.48672E+01  1.22781E+01  6.08775E+00  3.90248E+00  1.64543E+00 -1.89852E+00  1.58311E+00
  -2.91322E+00 -1.09784E+00  5.45445E-01 -3.60518E+00 -2.86704E+00 -3.70299E-01 -2.36932E+00 -1.94882E+00 -3.21660E+00 -3.72811E+00
  -5.72728E+00 -1.21139E+00 -2.39605E-01 -2.50743E+00 -3.24462E+00 -5.52369E+00 -1.80205E+00 -1.85012E+00 -2.07826E+00 -2.66038E-01
  -6.56302E+00 -3.61773E+00 -3.58098E+00 -2.34396E+00 -2.13453E+00 -1.61449E+00 -3.31803E+00 -2.68472E+00 -2.79584E+00 -2.27107E+00
  -2.05653E-01 -1.20814E+00 -1.15996E+00 -3.93530E+00 -2.42201E-02  8.02951E-01 -1.71235E-01 -4.36911E-01 -1.77136E+00  6.82055E-01
  -4.74811E-01 -9.87949E-02 -5.94695E-01  1.96151E+00  2.66358E+00 -7.39024E-01  2.19352E+00 -1.41047E+00  3.65400E+00 -9.78099E-01
  -1.07090E+00 -2.30263E-01 -9.90796E-02 -4.30424E-01 -8.85394E-01  1.99808E+00  3.34566E-02  4.55279E-01  2.08152E-01  1.96791E+00
   1.81284E-01  3.72610E+00  9.01555E-01  5.05721E+00  2.66095E+00  1.06107E+00  2.98584E+00  1.40499E-01  7.49579E-01 -8.96367E-02
   2.78717E+00  3.00380E+00  8.22408E-01  3.01055E+00  1.78598E+00  9.24965E-01  2.79636E+00  2.10244E+00  1.52866E+00  9.55534E-01
   5.63956E-01  3.09870E+00  9.22069E-01  1.59215E+00  6.17013E-01  2.66900E+00  1.04228E+00  3.85741E+00  2.76507E+00  1.87631E+00
   4.05967E+00  2.14619E+00  2.52779E+00  5.03765E-01  2.60343E+00  3.10135E+00  2.30832E+00  2.79544E+00  1.52681E+00  1.79803E+00
   8.47611E-02  2.33281E+00 -4.77226E-01  1.04160E+00  3.24777E+00  1.74590E+00  1.31660E+00  1.43689E+00  1.18377E+00 -2.06381E-02
   3.53594E+00  4.54000E-01  6.54651E-01  1.22147E+00  1.10250E+00 -3.79379E-01  2.21123E+00  1.99755E+00 -5.01398E-01  3.84197E+00
   2.05079E+00  2.72293E+00  3.48294E+00  2.14142E+00  3.46341E-01  2.04163E+00  1.75824E+00  2.65487E+00  1.54952E+00  3.03071E+00
   2.48931E+00  5.11848E+00  5.39946E+00  1.97359E+00  4.94181E+00  2.64110E+00  3.08440E+00  5.02209E+00  5.60464E-01  2.97257E+00
   4.72181E+00  1.59396E-01  2.72090E+00  4.50703E+00  2.46716E+00  4.06156E+00  3.46581E+00  3.89645E+00  4.14180E+00  1.02695E+00
   3.50242E+00  4.30414E-01  1.58902E+00  4.75438E-01  2.15539E+00  2.83080E+00  9.72589E-01  3.74334E+00  9.22764E-01  2.28097E+00
   1.00167E+00 -3.09555E-01  2.34475E+00  2.99075E-01  3.59343E+00  3.99914E+00  1.43486E-01  1.28631E+00  9.42467E-02 -1.58657E+00
  -3.67391E-01  2.78887E+00  1.11310E+00  1.03939E+00  2.01390E+00  3.41852E+00  2.94394E+00  6.76369E-01  2.41766E+00  2.60995E+00
   3.24475E+00  2.40019E+00  2.86319E+00  2.95518E+00  1.38095E+00  1.00700E+00  5.93267E-01  3.54721E+00  3.52394E+00  1.03718E-01
   2.25374E+00  1.87910E+00  1.25997E+00 -4.06430E-02  2.88457E-01  4.47223E+00  1.80412E+00  2.83411E-01  1.39044E+00  3.73867E+00
   2.42470E+00  3.88820E+00  2.60990E+00  2.51670E+00  2.73898E+00 -5.86134E-01  1.01277E+00 -1.24386E-01  8.17718E-01  3.52643E-01
   2.55231E+00  2.19878E+00  3.67112E+00  2.36363E+00  7.39578E-01  2.04609E+00  2.16925E+00  1.98406E+00  1.54041E+00  4.74743E+00
   1.79750E+00  5.83020E-01  1.75064E+00  1.92178E+00  4.03150E+00  2.61216E+00  2.41251E+00  2.16032E+00
 NY points of the fit to the data follow
  -6.78882E+01 -6.73616E+01 -6.65598E+01 -6.59453E+01 -6.52569E+01 -6.43720E+01 -6.34100E+01 -6.23987E+01 -6.12160E+01 -6.00170E+01
  -5.89336E+01 -5.78346E+01 -5.69087E+01 -5.63514E+01 -5.61083E+01 -5.61751E+01 -5.65569E+01 -5.69978E+01 -5.72650E+01 -5.71127E+01
  -5.63227E+01 -5.54064E+01 -5.48078E+01 -5.40974E+01 -5.30439E+01 -5.18059E+01 -5.06391E+01 -4.94948E+01 -4.84544E+01 -4.75707E+01
  -4.66799E+01 -4.58753E+01 -4.54116E+01 -4.53117E+01 -4.55403E+01 -4.59235E+01 -4.60114E+01 -4.56951E+01 -4.52627E+01 -4.47097E+01
  -4.38091E+01 -4.27391E+01 -4.16119E+01 -4.03867E+01 -3.92656E+01 -3.84544E+01 -3.80857E+01 -3.80799E+01 -3.83660E+01 -3.88113E+01
  -3.93778E+01 -4.00161E+01 -4.04909E+01 -4.05336E+01 -4.00985E+01 -3.93232E+01 -3.85690E+01 -3.81340E+01 -3.77725E+01 -3.73125E+01
  -3.68328E+01 -3.64494E+01 -3.62093E+01 -3.60376E+01 -3.58412E+01 -3.54895E+01 -3.49118E+01 -3.41991E+01 -3.34874E+01 -3.29227E+01
  -3.24885E+01 -3.21806E+01 -3.19379E+01 -3.16979E+01 -3.15033E+01 -3.13929E+01 -3.12589E+01 -3.10195E+01 -3.08549E+01 -3.07541E+01
  -3.06235E+01 -3.04138E+01 -3.01470E+01 -2.98098E+01 -2.94010E+01 -2.90238E+01 -2.87790E+01 -2.86237E+01 -2.85262E+01 -2.84073E+01
  -2.82661E+01 -2.81530E+01 -2.77615E+01 -2.65324E+01 -2.50934E+01 -2.39395E+01 -2.28688E+01 -2.16680E+01 -2.03971E+01 -1.90703E+01
  -1.76317E+01 -1.63309E+01 -1.54439E+01 -1.48844E+01 -1.49033E+01 -1.56217E+01 -1.68312E+01 -1.83060E+01 -1.98971E+01 -2.12586E+01
  -2.21650E+01 -2.24600E+01 -2.24744E+01 -2.26247E+01 -2.31018E+01 -2.32289E+01 -2.26868E+01 -2.12129E+01 -1.95402E+01 -1.82103E+01
  -1.69341E+01 -1.53979E+01 -1.37516E+01 -1.22318E+01 -1.06251E+01 -9.25988E+00 -8.46190E+00 -8.05894E+00 -8.27991E+00 -9.27206E+00
  -1.07324E+01 -1.24664E+01 -1.43043E+01 -1.58635E+01 -1.68944E+01 -1.73428E+01 -1.75565E+01 -1.78701E+01 -1.84810E+01 -1.86826E+01
  -1.84625E+01 -1.81365E+01 -1.77998E+01 -1.75399E+01 -1.74224E+01 -1.74286E+01 -1.74472E+01 -1.74450E+01 -1.74198E+01 -1.73695E+01
  -1.73149E+01 -1.73161E+01 -1.73390E+01 -1.73528E+01 -1.73104E+01 -1.72212E+01 -1.71274E+01 -1.70513E+01 -1.69808E+01 -1.69052E+01
  -1.68222E+01 -1.67455E+01 -1.66569E+01 -1.65447E+01 -1.64293E+01 -1.63179E+01 -1.62435E+01 -1.62330E+01 -1.62220E+01 -1.62104E+01
  -1.62257E+01 -1.62586E+01 -1.62546E+01 -1.61916E+01 -1.61176E+01 -1.60530E+01 -1.60227E+01 -1.59881E+01 -1.58894E+01 -1.57080E+01
  -1.54559E+01 -1.51507E+01 -1.48166E+01 -1.44812E+01 -1.41756E+01 -1.38671E+01 -1.35272E+01 -1.31738E+01 -1.28830E+01 -1.26440E+01
  -1.23835E+01 -1.20991E+01 -1.18053E+01 -1.15763E+01 -1.14024E+01 -1.12005E+01 -1.09323E+01 -1.05791E+01 -1.01909E+01 -9.79957E+00
  -9.59493E+00 -9.45220E+00 -9.30187E+00 -9.30810E+00 -9.52301E+00 -9.79036E+00 -9.93906E+00 -9.96149E+00 -1.00432E+01 -9.99350E+00
  -9.77373E+00 -9.34076E+00 -8.81388E+00 -8.38206E+00 -7.90381E+00 -7.39696E+00 -7.15565E+00 -7.29884E+00 -7.81382E+00 -8.46293E+00
  -9.10678E+00 -9.61101E+00 -9.95597E+00 -9.92525E+00 -9.36003E+00 -8.44088E+00 -7.57034E+00 -6.77360E+00 -6.01396E+00 -5.37891E+00
  -5.08091E+00 -4.99521E+00 -4.97731E+00 -4.97402E+00 -4.86333E+00 -4.70745E+00 -4.60780E+00 -4.52946E+00 -4.47975E+00 -4.51913E+00
  -4.66903E+00 -4.86635E+00 -5.05016E+00 -5.14277E+00 -5.10788E+00 -4.86466E+00 -4.38648E+00 -3.76406E+00 -3.15340E+00 -2.48738E+00
  -9.62698E-01  1.73548E+00  4.11329E+00  5.96308E+00  8.00324E+00  1.03999E+01  1.25576E+01  1.43967E+01  1.62515E+01  1.74556E+01
   1.78918E+01  1.77373E+01  1.64599E+01  1.40928E+01  1.11104E+01  7.73555E+00  4.41875E+00  1.84458E+00  3.13798E-01 -2.82631E-01
  -6.88670E-01 -1.54722E+00 -2.67037E+00 -2.99580E+00 -2.99451E+00 -2.94622E+00 -2.89533E+00 -2.82723E+00 -2.79847E+00 -2.80624E+00
  -2.82220E+00 -2.83443E+00 -2.83093E+00 -2.79728E+00 -2.74703E+00 -2.69588E+00 -2.63947E+00 -2.57407E+00 -2.50377E+00 -2.43162E+00
  -2.35722E+00 -2.27854E+00 -2.19087E+00 -2.09819E+00 -2.00151E+00 -1.89954E+00 -1.79393E+00 -1.68556E+00 -1.57365E+00 -1.45876E+00
  -1.34269E+00 -1.22736E+00 -1.11374E+00 -1.00289E+00 -8.96342E-01 -7.94723E-01 -6.99286E-01 -6.10553E-01 -5.28864E-01 -4.54050E-01
  -3.85552E-01 -3.22474E-01 -2.63752E-01 -2.08298E-01 -1.55099E-01 -1.02898E-01 -5.00128E-02  4.93255E-03  6.30605E-02  1.25316E-01
   1.92335E-01  2.64650E-01  3.42430E-01  4.25641E-01  5.13833E-01  6.06417E-01  7.02561E-01  8.01461E-01  9.02197E-01  1.00399E+00
   1.10609E+00  1.20819E+00  1.31045E+00  1.41408E+00  1.52182E+00  1.63995E+00  1.78456E+00  1.98484E+00  2.16205E+00  2.22408E+00
   2.23524E+00  2.24553E+00  2.22760E+00  2.13386E+00  1.99237E+00  1.90097E+00  1.83186E+00  1.72658E+00  1.57405E+00  1.40984E+00
   1.30833E+00  1.27476E+00  1.33759E+00  1.53091E+00  1.80751E+00  2.13180E+00  2.42485E+00  2.57929E+00  2.59055E+00  2.54188E+00
   2.45437E+00  2.29807E+00  2.12552E+00  1.99549E+00  1.91854E+00  1.85745E+00  1.74383E+00  1.61808E+00  1.53327E+00  1.47017E+00
   1.41924E+00  1.37712E+00  1.34218E+00  1.31374E+00  1.29146E+00  1.27539E+00  1.26562E+00  1.26246E+00  1.26613E+00  1.27703E+00
   1.29544E+00  1.32181E+00  1.35649E+00  1.39993E+00  1.45243E+00  1.51440E+00  1.58607E+00  1.66771E+00  1.75932E+00  1.86087E+00
   1.97196E+00  2.09204E+00  2.22012E+00  2.35499E+00  2.49494E+00  2.63799E+00  2.78166E+00  2.92331E+00  3.05989E+00  3.18836E+00
   3.30551E+00  3.40836E+00  3.49403E+00  3.56018E+00  3.60487E+00  3.62688E+00  3.62557E+00  3.60118E+00  3.55451E+00  3.48721E+00
   3.40138E+00  3.29976E+00  3.18531E+00  3.06131E+00  2.93098E+00  2.79760E+00  2.66411E+00  2.53324E+00  2.40724E+00  2.28804E+00
   2.17700E+00  2.07519E+00  1.98313E+00  1.90111E+00  1.82900E+00  1.76653E+00  1.71312E+00  1.66822E+00  1.63103E+00  1.60087E+00
   1.57691E+00  1.55848E+00  1.54484E+00  1.53541E+00  1.52956E+00  1.52683E+00  1.52670E+00  1.52886E+00  1.53289E+00  1.53858E+00
   1.54561E+00  1.55382E+00  1.56297E+00  1.57298E+00  1.58364E+00  1.59492E+00  1.60664E+00  1.61879E+00  1.63124E+00  1.64398E+00
   1.65689E+00  1.67001E+00  1.68322E+00  1.69654E+00  1.70990E+00  1.72334E+00  1.73678E+00  1.75029E+00  1.76377E+00  1.77729E+00
   1.79077E+00  1.80428E+00  1.81774E+00  1.83123E+00  1.84467E+00  1.85813E+00  1.87155E+00  1.88499E+00  1.89839E+00  1.91181E+00
   1.92520E+00  1.93862E+00  1.95201E+00  1.96545E+00  1.97888E+00  1.99236E+00  2.00583E+00  2.01938E+00  2.03293E+00  2.04657E+00
   2.06024E+00  2.07401E+00  2.08782E+00  2.10175E+00  2.11575E+00  2.12991E+00  2.14415E+00  2.15857E+00  2.17310E+00  2.18785E+00
   2.20276E+00  2.21791E+00  2.23327E+00  2.24893E+00  2.26484E+00  2.28112E+00  2.29774E+00  2.31482E+00
 NY background values follow
    -7.065E+01   -7.015E+01   -6.965E+01   -6.915E+01   -6.865E+01   -6.815E+01   -6.764E+01   -6.714E+01   -6.664E+01   -6.614E+01
    -6.564E+01   -6.514E+01   -6.464E+01   -6.414E+01   -6.364E+01   -6.314E+01   -6.264E+01   -6.214E+01   -6.165E+01   -6.115E+01
    -6.066E+01   -6.016E+01   -5.967E+01   -5.918E+01   -5.868E+01   -5.819E+01   -5.771E+01   -5.722E+01   -5.673E+01   -5.625E+01
    -5.576E+01   -5.528E+01   -5.480E+01   -5.432E+01   -5.384E+01   -5.337E+01   -5.290E+01   -5.242E+01   -5.195E+01   -5.148E+01
    -5.102E+01   -5.055E+01   -5.009E+01   -4.963E+01   -4.917E+01   -4.872E+01   -4.827E+01   -4.782E+01   -4.737E+01   -4.692E+01
    -4.648E+01   -4.604E+01   -4.560E+01   -4.516E+01   -4.473E+01   -4.430E+01   -4.387E+01   -4.344E+01   -4.302E+01   -4.260E+01
    -4.218E+01   -4.177E+01   -4.136E+01   -4.095E+01   -4.054E+01   -4.014E+01   -3.974E+01   -3.934E+01   -3.895E+01   -3.856E+01
    -3.817E+01   -3.779E+01   -3.741E+01   -3.703E+01   -3.665E+01   -3.628E+01   -3.591E+01   -3.555E+01   -3.518E+01   -3.483E+01
    -3.447E+01   -3.412E+01   -3.377E+01   -3.342E+01   -3.308E+01   -3.274E+01   -3.241E+01   -3.208E+01   -3.175E+01   -3.143E+01
    -3.111E+01   -3.079E+01   -3.048E+01   -3.017E+01   -2.987E+01   -2.957E+01   -2.927E+01   -2.897E+01   -2.868E+01   -2.840E+01
    -2.811E+01   -2.783E+01   -2.755E+01   -2.728E+01   -2.701E+01   -2.674E+01   -2.648E+01   -2.622E+01   -2.596E+01   -2.571E+01
    -2.546E+01   -2.521E+01   -2.496E+01   -2.472E+01   -2.448E+01   -2.425E+01   -2.402E+01   -2.379E+01   -2.356E+01   -2.334E+01
    -2.311E+01   -2.290E+01   -2.268E+01   -2.247E+01   -2.226E+01   -2.205E+01   -2.185E+01   -2.164E+01   -2.144E+01   -2.125E+01
    -2.105E+01   -2.086E+01   -2.067E+01   -2.048E+01   -2.030E+01   -2.012E+01   -1.994E+01   -1.976E+01   -1.958E+01   -1.941E+01
    -1.924E+01   -1.907E+01   -1.890E+01   -1.874E+01   -1.857E+01   -1.841E+01   -1.825E+01   -1.810E+01   -1.794E+01   -1.779E+01
    -1.763E+01   -1.748E+01   -1.733E+01   -1.719E+01   -1.704E+01   -1.690E+01   -1.675E+01   -1.661E+01   -1.647E+01   -1.633E+01
    -1.619E+01   -1.605E+01   -1.592E+01   -1.578E+01   -1.565E+01   -1.552E+01   -1.538E+01   -1.525E+01   -1.512E+01   -1.499E+01
    -1.486E+01   -1.473E+01   -1.461E+01   -1.448E+01   -1.435E+01   -1.422E+01   -1.410E+01   -1.397E+01   -1.385E+01   -1.372E+01
    -1.360E+01   -1.347E+01   -1.335E+01   -1.322E+01   -1.310E+01   -1.297E+01   -1.285E+01   -1.273E+01   -1.260E+01   -1.248E+01
    -1.236E+01   -1.223E+01   -1.211E+01   -1.199E+01   -1.187E+01   -1.175E+01   -1.162E+01   -1.150E+01   -1.138E+01   -1.126E+01
    -1.114E+01   -1.102E+01   -1.091E+01   -1.079E+01   -1.067E+01   -1.055E+01   -1.044E+01   -1.032E+01   -1.021E+01   -1.009E+01
    -9.976E+00   -9.863E+00   -9.750E+00   -9.637E+00   -9.526E+00   -9.415E+00   -9.304E+00   -9.195E+00   -9.086E+00   -8.978E+00
    -8.870E+00   -8.764E+00   -8.658E+00   -8.553E+00   -8.449E+00   -8.346E+00   -8.243E+00   -8.142E+00   -8.041E+00   -7.941E+00
    -7.842E+00   -7.744E+00   -7.647E+00   -7.551E+00   -7.455E+00   -7.360E+00   -7.266E+00   -7.173E+00   -7.081E+00   -6.989E+00
    -6.898E+00   -6.808E+00   -6.718E+00   -6.630E+00   -6.542E+00   -6.454E+00   -6.368E+00   -6.282E+00   -6.197E+00   -6.112E+00
    -6.028E+00   -5.945E+00   -5.862E+00   -5.780E+00   -5.699E+00   -5.618E+00   -5.538E+00   -5.459E+00   -5.380E+00   -5.301E+00
    -5.224E+00   -5.146E+00   -5.070E+00   -4.994E+00   -4.918E+00   -4.843E+00   -4.768E+00   -4.694E+00   -4.621E+00   -4.547E+00
    -4.475E+00   -4.403E+00   -4.331E+00   -4.260E+00   -4.189E+00   -4.118E+00   -4.048E+00   -3.979E+00   -3.910E+00   -3.841E+00
    -3.773E+00   -3.706E+00   -3.639E+00   -3.572E+00   -3.506E+00   -3.440E+00   -3.375E+00   -3.310E+00   -3.246E+00   -3.183E+00
    -3.119E+00   -3.057E+00   -2.994E+00   -2.933E+00   -2.872E+00   -2.811E+00   -2.751E+00   -2.691E+00   -2.632E+00   -2.573E+00
    -2.515E+00   -2.458E+00   -2.401E+00   -2.344E+00   -2.288E+00   -2.233E+00   -2.178E+00   -2.123E+00   -2.070E+00   -2.016E+00
    -1.964E+00   -1.911E+00   -1.860E+00   -1.809E+00   -1.758E+00   -1.708E+00   -1.659E+00   -1.610E+00   -1.562E+00   -1.514E+00
    -1.467E+00   -1.420E+00   -1.374E+00   -1.329E+00   -1.284E+00   -1.239E+00   -1.195E+00   -1.152E+00   -1.109E+00   -1.067E+00
    -1.025E+00   -9.839E-01   -9.431E-01   -9.028E-01   -8.630E-01   -8.237E-01   -7.850E-01   -7.467E-01   -7.088E-01   -6.715E-01
    -6.346E-01   -5.983E-01   -5.623E-01   -5.269E-01   -4.919E-01   -4.574E-01   -4.233E-01   -3.897E-01   -3.565E-01   -3.237E-01
    -2.914E-01   -2.596E-01   -2.281E-01   -1.971E-01   -1.665E-01   -1.363E-01   -1.066E-01   -7.724E-02   -4.830E-02   -1.976E-02
     8.385E-03    3.613E-02    6.349E-02    9.046E-02    1.171E-01    1.433E-01    1.692E-01    1.947E-01    2.199E-01    2.448E-01
     2.693E-01    2.936E-01    3.175E-01    3.412E-01    3.646E-01    3.877E-01    4.105E-01    4.331E-01    4.555E-01    4.776E-01
     4.995E-01    5.212E-01    5.427E-01    5.640E-01    5.851E-01    6.060E-01    6.268E-01    6.474E-01    6.679E-01    6.882E-01
     7.084E-01    7.285E-01    7.484E-01    7.683E-01    7.881E-01    8.078E-01    8.274E-01    8.470E-01    8.665E-01    8.860E-01
     9.055E-01    9.249E-01    9.443E-01    9.637E-01    9.831E-01    1.002E+00    1.022E+00    1.041E+00    1.061E+00    1.080E+00
     1.100E+00    1.120E+00    1.139E+00    1.159E+00    1.178E+00    1.198E+00    1.218E+00    1.237E+00    1.257E+00    1.276E+00
     1.296E+00    1.315E+00    1.335E+00    1.354E+00    1.374E+00    1.393E+00    1.412E+00    1.432E+00    1.451E+00    1.470E+00
     1.489E+00    1.508E+00    1.526E+00    1.545E+00    1.564E+00    1.582E+00    1.601E+00    1.619E+00    1.637E+00    1.655E+00
     1.673E+00    1.691E+00    1.708E+00    1.726E+00    1.743E+00    1.760E+00    1.777E+00    1.794E+00    1.811E+00    1.827E+00
     1.844E+00    1.860E+00    1.876E+00    1.891E+00    1.907E+00    1.922E+00    1.937E+00    1.952E+00    1.967E+00    1.982E+00
     1.996E+00    2.011E+00    2.025E+00    2.039E+00    2.053E+00    2.067E+00    2.081E+00    2.094E+00    2.108E+00    2.121E+00
     2.135E+00    2.148E+00    2.161E+00    2.174E+00    2.187E+00    2.200E+00    2.213E+00    2.226E+00    2.239E+00    2.252E+00
     2.264E+00    2.277E+00    2.290E+00    2.303E+00    2.315E+00    2.328E+00    2.341E+00    2.354E+00    2.367E+00    2.379E+00
     2.392E+00    2.405E+00    2.418E+00    2.431E+00    2.444E+00    2.458E+00    2.471E+00    2.484E+00
 Asp      Conc. = 7.78E+01
