 LCModel (Version 6.3-1L) Copyright: S.W. Provencher.          Ref.: Magn. Reson. Med. 30:672-679 (1993).                
 Slice#1 Row#7 Col#12  PD_05_press_1_raw_act
 36 lines in following concentration table = NCONC+1
    Conc.  %SD /Cr+PCr  Metabolite                                         
  143.768  43%   1.231 Ala                                                 
    0.000 999%   0.000 Asp                                                 
    0.000 999%   0.000 Cr                                                  
  116.808  20%   1.000 PCr                                                 
   39.677 106%   0.340 GABA                                                
   43.210  96%   0.370 Glc                                                 
  314.058  38%   2.689 Gln                                                 
  561.385  24%   4.806 Glu                                                 
   34.450  28%   0.295 GPC                                                 
    0.000 999%   0.000 PCh                                                 
   56.404  64%   0.483 GSH                                                 
  136.313  83%   1.167 Ins                                                 
    3.772 999% 3.2E-02 Lac                                                 
 1.13E+03   6%   9.695 NAA                                                 
   24.943 320%   0.214 NAAG                                                
   23.242  44%   0.199 Scyllo                                              
   93.476  68%   0.800 Tau                                                 
    0.000 999%   0.000 -CrCH2                                              
   34.450  28%   0.295 GPC+PCh                                             
 1.16E+03   4%   9.909 NAA+NAAG                                            
  116.808  20%   1.000 Cr+PCr                                              
  875.443  22%   7.495 Glu+Gln                                             
    0.000 999%   0.000 Lip13a                                              
   16.912 342%   0.145 Lip13b                                              
    0.000 999%   0.000 Lip09                                               
  872.235  10%   7.467 MM09                                                
    4.599 337% 3.9E-02 Lip20                                               
 1.91E+03   9%  16.352 MM20                                                
  251.745  30%   2.155 MM12                                                
 1.32E+03  13%  11.262 MM14                                                
  586.921  21%   5.025 MM17                                                
   16.912 342%   0.145 Lip13a+Lip13b                                       
 1.58E+03  10%  13.562 MM14+Lip13a+Lip13b+MM12                             
  872.235  10%   7.467 MM09+Lip09                                          
 1.91E+03   9%  16.391 MM20+Lip20                                          
   6 lines in following misc. output table
  FWHM = 0.054 ppm    S/N =  12                                            
  Data shift = 0.008 ppm                                                   
  Ph: -36 deg     -10.0 deg/ppm                                            
  alphaB,S = 8.5E+01,   2.2E+02                                            
   14 spline knots.   Ns = 7(1)                                            
   4 inflections.     1 extrema                                            
  498 points on ppm-axis = NY
      4.000000     3.992357     3.984714     3.977070     3.969427     3.961784     3.954141     3.946497     3.938854     3.931211
      3.923568     3.915925     3.908281     3.900638     3.892995     3.885352     3.877708     3.870065     3.862422     3.854779
      3.847136     3.839492     3.831849     3.824206     3.816563     3.808919     3.801276     3.793633     3.785990     3.778347
      3.770703     3.763060     3.755417     3.747774     3.740130     3.732487     3.724844     3.717201     3.709558     3.701914
      3.694271     3.686628     3.678985     3.671341     3.663698     3.656055     3.648412     3.640769     3.633125     3.625482
      3.617839     3.610196     3.602552     3.594909     3.587266     3.579623     3.571980     3.564336     3.556693     3.549050
      3.541407     3.533763     3.526120     3.518477     3.510834     3.503191     3.495547     3.487904     3.480261     3.472618
      3.464974     3.457331     3.449688     3.442045     3.434402     3.426758     3.419115     3.411472     3.403829     3.396185
      3.388542     3.380899     3.373256     3.365613     3.357969     3.350326     3.342683     3.335040     3.327396     3.319753
      3.312110     3.304467     3.296824     3.289180     3.281537     3.273894     3.266251     3.258607     3.250964     3.243321
      3.235678     3.228034     3.220391     3.212748     3.205105     3.197462     3.189818     3.182175     3.174532     3.166889
      3.159245     3.151602     3.143959     3.136316     3.128673     3.121029     3.113386     3.105743     3.098100     3.090456
      3.082813     3.075170     3.067527     3.059884     3.052240     3.044597     3.036954     3.029311     3.021667     3.014024
      3.006381     2.998738     2.991095     2.983451     2.975808     2.968165     2.960522     2.952878     2.945235     2.937592
      2.929949     2.922306     2.914662     2.907019     2.899376     2.891733     2.884089     2.876446     2.868803     2.861160
      2.853517     2.845873     2.838230     2.830587     2.822944     2.815300     2.807657     2.800014     2.792371     2.784728
      2.777084     2.769441     2.761798     2.754155     2.746511     2.738868     2.731225     2.723582     2.715939     2.708295
      2.700652     2.693009     2.685366     2.677722     2.670079     2.662436     2.654793     2.647150     2.639506     2.631863
      2.624220     2.616577     2.608933     2.601290     2.593647     2.586004     2.578361     2.570717     2.563074     2.555431
      2.547788     2.540144     2.532501     2.524858     2.517215     2.509572     2.501928     2.494285     2.486642     2.478999
      2.471355     2.463712     2.456069     2.448426     2.440783     2.433139     2.425496     2.417853     2.410210     2.402566
      2.394923     2.387280     2.379637     2.371994     2.364350     2.356707     2.349064     2.341421     2.333777     2.326134
      2.318491     2.310848     2.303205     2.295561     2.287918     2.280275     2.272632     2.264988     2.257345     2.249702
      2.242059     2.234416     2.226772     2.219129     2.211486     2.203843     2.196199     2.188556     2.180913     2.173270
      2.165627     2.157983     2.150340     2.142697     2.135054     2.127410     2.119767     2.112124     2.104481     2.096838
      2.089194     2.081551     2.073908     2.066265     2.058621     2.050978     2.043335     2.035692     2.028049     2.020405
      2.012762     2.005119     1.997476     1.989833     1.982190     1.974546     1.966903     1.959260     1.951617     1.943974
      1.936331     1.928688     1.921045     1.913402     1.905759     1.898115     1.890472     1.882829     1.875186     1.867543
      1.859900     1.852257     1.844614     1.836971     1.829327     1.821684     1.814041     1.806398     1.798755     1.791112
      1.783469     1.775826     1.768183     1.760540     1.752896     1.745253     1.737610     1.729967     1.722324     1.714681
      1.707038     1.699395     1.691752     1.684108     1.676465     1.668822     1.661179     1.653536     1.645893     1.638250
      1.630607     1.622964     1.615321     1.607677     1.600034     1.592391     1.584748     1.577105     1.569462     1.561819
      1.554176     1.546533     1.538890     1.531246     1.523603     1.515960     1.508317     1.500674     1.493031     1.485388
      1.477745     1.470102     1.462458     1.454815     1.447172     1.439529     1.431886     1.424243     1.416600     1.408957
      1.401314     1.393671     1.386027     1.378384     1.370741     1.363098     1.355455     1.347812     1.340169     1.332526
      1.324883     1.317240     1.309596     1.301953     1.294310     1.286667     1.279024     1.271381     1.263738     1.256095
      1.248452     1.240808     1.233165     1.225522     1.217879     1.210236     1.202593     1.194950     1.187307     1.179664
      1.172021     1.164377     1.156734     1.149091     1.141448     1.133805     1.126162     1.118519     1.110876     1.103233
      1.095590     1.087946     1.080303     1.072660     1.065017     1.057374     1.049731     1.042088     1.034445     1.026802
      1.019158     1.011515     1.003872     0.996229     0.988586     0.980943     0.973300     0.965657     0.958014     0.950371
      0.942727     0.935084     0.927441     0.919798     0.912155     0.904512     0.896869     0.889226     0.881583     0.873940
      0.866296     0.858653     0.851010     0.843367     0.835724     0.828081     0.820438     0.812795     0.805152     0.797508
      0.789865     0.782222     0.774579     0.766936     0.759293     0.751650     0.744007     0.736364     0.728721     0.721077
      0.713434     0.705791     0.698148     0.690505     0.682862     0.675219     0.667576     0.659933     0.652290     0.644646
      0.637003     0.629360     0.621717     0.614074     0.606431     0.598788     0.591145     0.583502     0.575858     0.568215
      0.560572     0.552929     0.545286     0.537643     0.530000     0.522357     0.514714     0.507071     0.499427     0.491784
      0.484141     0.476498     0.468855     0.461212     0.453569     0.445925     0.438282     0.430639     0.422996     0.415353
      0.407710     0.400067     0.392424     0.384780     0.377137     0.369494     0.361851     0.354208     0.346565     0.338922
      0.331278     0.323635     0.315992     0.308349     0.300706     0.293063     0.285420     0.277777     0.270133     0.262490
      0.254847     0.247204     0.239561     0.231918     0.224275     0.216631     0.208988     0.201345
 NY phased data points follow
   2.51982E+00 -9.23259E-01  2.18632E+00  1.07865E+00  1.13848E+00 -1.38125E-01  9.75266E-01  5.60920E-01  3.78296E+00  3.94239E+00
   6.25435E-01  2.87912E+00  1.28172E+00  1.21845E+00  1.71753E+00  1.02569E+00 -1.66609E+00 -4.59068E-01 -7.87074E-01  2.21135E+00
  -8.24049E-01 -9.40959E-02 -1.83863E+00 -2.20453E+00 -1.55519E+00  2.18677E-01  3.01652E+00  3.11152E-01  2.03977E+00 -1.22767E+00
   2.06980E+00  7.42934E-01  2.67298E+00  6.17954E-01  7.86573E-01 -5.21676E-01  7.55939E-01 -9.21785E-01 -9.18935E-01  1.07738E-01
  -8.65940E-02  1.86451E+00  1.22280E+00  1.29385E+00  3.88094E-01  2.93381E+00  3.94755E-01  2.10314E+00 -1.47167E+00  2.14719E+00
  -8.40798E-02 -1.43057E+00 -1.23487E+00  1.00659E+00 -6.39958E-01 -4.93199E-01  9.96238E-01 -5.83035E-01  9.53003E-01  1.24303E+00
  -7.84856E-01 -4.12438E-01  8.07441E-01 -2.44929E+00 -3.45368E+00 -5.19953E-01  1.64713E+00  4.54051E-01 -1.33949E+00  1.25262E+00
   5.68749E-01  1.48900E+00 -5.94416E-01  2.23193E+00 -8.90154E-01  2.60553E+00  3.08614E-02  1.47661E+00 -9.03356E-01  1.64404E+00
   9.68167E-03  2.86657E+00  2.10576E+00 -6.16318E-01 -2.30126E+00  1.94790E+00  1.07738E+00 -3.11787E-01  2.03648E+00  3.39796E+00
   6.89289E-01  1.60965E+00  5.94231E-01  2.42330E+00 -3.21799E-01  2.81893E+00  1.91515E-01  2.36111E+00  3.38680E+00  5.83349E-01
   3.57574E+00  3.51713E+00  1.68089E+00  3.61304E+00  3.97787E+00  2.15768E+00  1.03523E+00 -1.26126E+00 -2.47814E+00  8.32025E-01
   1.56586E+00  1.48093E+00 -3.13300E-01  1.71573E+00  1.71636E+00 -1.26557E+00  4.81645E-01 -2.13691E-02 -8.98217E-01  1.84694E+00
   2.43733E+00  1.25169E+00  1.57299E+00 -1.00242E+00  4.45651E+00  3.12190E+00  6.93995E+00  5.04608E+00  7.50282E+00  4.50003E+00
   1.27777E+00  8.63697E-01  2.51362E-01  1.19942E+00  1.01752E+00  6.10894E-01  1.63576E+00  1.29374E-01  1.36992E+00  4.31166E-01
   6.95623E-01  6.33441E-01  1.56069E+00  1.20871E+00  1.84991E+00  1.46521E+00  1.06442E+00  3.52112E-01  1.58710E+00  2.19165E+00
  -4.15150E-01 -8.62595E-01  1.55663E+00  1.56375E+00  4.33934E+00  7.56277E-01  3.07521E+00  1.21641E+00  2.00134E+00  3.86426E+00
  -8.63183E-01  1.15443E+00 -1.87191E+00 -7.15565E-02 -1.20795E+00  2.62402E+00  3.07435E+00 -1.87523E-01 -2.59012E+00 -1.86722E+00
  -2.96051E+00 -4.80871E+00 -1.72444E+00 -2.22100E+00 -4.19942E+00  1.40045E-02 -2.08074E+00 -4.15590E+00 -2.21589E+00 -1.33516E+00
  -3.63075E+00 -5.01968E+00 -3.51767E+00 -2.06451E+00  1.64248E-01 -1.28137E+00 -8.74414E-01 -3.79039E-01 -3.09395E+00  6.88350E-01
   1.72808E+00 -8.82266E-01 -8.71403E-01  1.18447E+00  9.15929E-01  6.06118E-01 -8.84719E-01 -3.99290E+00 -3.19727E+00 -3.58651E+00
  -5.17575E+00 -1.05011E+00 -1.29772E+00 -1.67846E+00  1.06301E+00  1.64554E+00  2.73092E+00 -6.32911E-01 -2.24477E+00 -2.73509E+00
   8.06874E-01  7.53412E-01 -8.94758E-01  3.24677E+00  3.03135E+00  6.44960E+00  3.98276E+00  4.59109E+00  3.01891E+00  3.77317E+00
  -1.08185E+00 -1.20406E+00  9.44436E-01 -7.13485E-01 -2.33433E+00  1.09238E+00  3.07328E+00  5.02652E+00  6.15608E+00  2.60073E+00
   1.17726E+00  4.95201E+00  8.12520E-01  2.29972E+00  6.19795E+00  4.19145E+00  4.77192E+00  5.11094E+00  6.81239E+00  5.80003E+00
   6.65198E+00  5.56304E+00  6.73154E+00  6.47891E+00  4.53841E+00  4.98827E+00  4.92592E+00  6.48924E+00  5.95793E+00  1.07523E+01
   9.39805E+00  9.95030E+00  1.27239E+01  1.36891E+01  1.72444E+01  2.30275E+01  2.71901E+01  2.82890E+01  3.12791E+01  3.79938E+01
   4.60051E+01  4.76498E+01  4.32319E+01  3.07579E+01  1.65874E+01  1.31346E+01  8.95099E+00  1.04967E+01  3.14399E+00  3.01265E+00
   6.78484E+00  3.24073E+00  6.70768E+00  3.42215E+00  5.41289E+00  1.95211E+00 -5.09884E-01  1.05176E+00  6.65911E+00  3.01416E+00
   2.28109E+00  2.92887E+00  3.84053E+00  4.78043E+00  1.13767E+00 -2.53204E-01  1.19495E+00  2.14701E+00  5.56945E-01  1.10669E+00
   2.08431E+00  2.85183E+00  2.95352E+00  1.21009E+00  8.41763E-01 -1.56109E+00  3.27376E+00 -4.62525E-01  1.78894E+00  4.25303E+00
   1.23731E+00  7.54400E-01  5.82117E+00  3.37277E+00  3.26034E-02  3.17820E+00  2.82130E+00  6.56692E+00  2.70480E+00  2.64852E+00
   4.93634E+00  6.35201E+00  6.73236E+00  6.28455E+00  2.91658E+00  3.42534E+00  5.81837E+00  6.09334E+00  5.39441E+00  5.98448E+00
   6.74798E+00  7.45470E+00  3.98023E+00  3.93792E+00  4.31998E+00  3.54108E+00  2.78862E+00  2.22591E+00  4.73005E+00  8.18226E-01
   3.34450E+00  3.39015E+00  5.47644E+00  5.47990E+00  6.47674E+00  9.86677E+00  7.65321E+00  8.17072E+00  1.07425E+01  8.93706E+00
   7.59242E+00  1.15773E+01  9.84520E+00  9.54434E+00  1.03508E+01  1.04316E+01  1.01285E+01  6.84764E+00  1.09660E+01  9.35533E+00
   6.55994E+00  7.16480E+00  5.16088E+00  8.14480E+00  6.68964E+00  3.59266E+00  4.47207E+00  6.11492E+00  3.99518E+00  2.43287E+00
   4.13909E+00  3.42809E+00  3.40332E+00  1.13582E+00 -1.22979E+00  2.78173E+00  1.12997E+00  2.61730E+00  3.17771E+00  3.36654E+00
   1.12093E+00  1.46435E+00  1.28068E+00  1.56705E+00  3.45954E+00  2.87284E+00  1.49454E+00  2.07255E+00 -1.30979E+00  1.62910E+00
   1.75684E+00  2.10814E+00  1.64667E+00  3.80658E-01  2.70473E+00  9.27660E-01  2.74390E+00  3.43231E+00  3.53989E-01  2.41249E+00
   1.77558E+00  1.43430E+00  1.76128E+00  3.46956E+00  2.51807E+00  4.55472E+00  3.44395E+00  3.37399E+00  5.83199E+00  3.74124E+00
   5.67802E+00  7.68586E+00  7.22070E+00  7.97765E+00  6.46250E+00  7.49412E+00  7.72176E+00  7.91143E+00  6.36950E+00  5.84804E+00
   7.15475E+00  4.76272E+00  3.96271E+00  3.54188E+00  3.21271E+00  6.76378E+00  4.07576E+00  4.67416E+00  5.33973E+00  4.88308E+00
   2.83154E+00  6.23048E-01  2.07093E+00  2.35554E+00 -1.74350E+00  1.04112E+00  1.67408E+00  1.23913E+00  7.31042E-01  2.69879E+00
   4.44289E-01  1.85270E+00 -5.31717E-01 -2.90994E-05  4.80251E-01  1.32158E+00  3.38850E-01  7.81401E-01 -5.73912E-01 -7.45795E-01
  -3.41959E-01  2.92205E+00 -1.66674E-01 -1.99489E+00  1.30075E+00  5.59663E-01  5.08693E-01 -1.21571E-01 -8.85481E-01 -2.71511E+00
  -8.72683E-01 -1.22812E+00 -2.00665E-01  3.79041E-02  1.52896E+00 -1.62203E+00 -1.18221E+00 -4.76228E-01  2.12420E-01  5.16051E-02
   1.00340E+00  7.70339E-01 -3.61724E-01 -7.08343E-01 -6.38353E-01  8.07739E-01 -1.35609E+00  2.25853E+00  2.86798E+00  4.12865E-01
  -1.22076E-02  9.66604E-01 -8.65531E-01 -3.30387E-01  1.22061E+00 -2.29723E-01  1.68926E+00 -3.24061E+00 -1.24712E+00  1.40870E+00
   1.44343E+00 -7.32900E-01 -3.59767E-01  9.40042E-01  1.84659E+00  1.46098E+00  6.68488E-01  2.82478E-01  1.84218E+00  2.89338E-01
   1.88771E+00 -4.16943E-01 -1.83508E+00  1.21549E+00  8.62755E-01  1.14623E+00 -4.76368E-01  1.73505E+00
 NY points of the fit to the data follow
  -3.02473E-01 -2.70425E-01 -7.72278E-02  2.30696E-01  5.79825E-01  9.43442E-01  1.32606E+00  1.72086E+00  2.06741E+00  2.25497E+00
   2.18168E+00  1.83192E+00  1.31228E+00  7.88760E-01  3.86392E-01  1.40908E-01  3.10747E-02  3.60519E-02  1.42735E-01  2.89638E-01
   4.32135E-01  5.07765E-01  4.97407E-01  4.43696E-01  3.64473E-01  2.76393E-01  2.10352E-01  2.14501E-01  3.63833E-01  7.03182E-01
   1.21601E+00  1.78902E+00  2.23852E+00  2.39641E+00  2.17503E+00  1.60895E+00  8.57055E-01  1.32971E-01 -3.64850E-01 -5.32589E-01
  -3.93188E-01 -6.01181E-02  3.15987E-01  6.19348E-01  8.14251E-01  9.25158E-01  9.86400E-01  1.00286E+00  9.51187E-01  8.10239E-01
   5.86336E-01  3.22638E-01  8.77995E-02 -6.67515E-02 -1.30472E-01 -1.23863E-01 -7.87083E-02 -1.82446E-02  4.45555E-02  1.03961E-01
   1.53917E-01  1.75581E-01  1.63007E-01  1.18615E-01  6.02494E-02  2.00410E-02  1.26492E-02  2.95917E-02  6.97413E-02  1.36578E-01
   2.13324E-01  2.85302E-01  3.48223E-01  4.00798E-01  4.39961E-01  4.59899E-01  4.43816E-01  3.74466E-01  2.63553E-01  1.81984E-01
   1.96468E-01  2.95998E-01  4.48569E-01  6.29250E-01  8.22156E-01  1.00190E+00  1.11346E+00  1.09495E+00  9.22994E-01  6.40300E-01
   3.34215E-01  9.15260E-02 -4.74316E-02 -1.10628E-01 -1.16711E-01  2.18858E-02  3.73110E-01  8.40426E-01  1.33988E+00  1.83734E+00
   2.32663E+00  2.78704E+00  3.12891E+00  3.22422E+00  2.99191E+00  2.47269E+00  1.82961E+00  1.25351E+00  8.48075E-01  6.06354E-01
   4.78900E-01  4.29594E-01  4.27678E-01  4.41923E-01  4.65956E-01  4.99553E-01  5.39564E-01  5.87264E-01  6.57509E-01  8.33319E-01
   1.22418E+00  1.75074E+00  2.31947E+00  2.91026E+00  3.54598E+00  4.21264E+00  4.80257E+00  5.13451E+00  5.04775E+00  4.53168E+00
   3.75492E+00  2.95874E+00  2.31246E+00  1.85058E+00  1.52348E+00  1.28993E+00  1.12530E+00  1.01225E+00  9.59038E-01  9.68175E-01
   1.01924E+00  1.07606E+00  1.10413E+00  1.08278E+00  1.01082E+00  9.05264E-01  7.88507E-01  6.76738E-01  5.77291E-01  4.92017E-01
   4.20178E-01  3.61185E-01  3.14368E-01  2.63147E-01  1.59806E-01  1.65609E-02 -1.29120E-01 -2.46320E-01 -3.20598E-01 -4.12699E-01
  -5.48092E-01 -6.75513E-01 -7.18537E-01 -6.49625E-01 -5.30597E-01 -4.80091E-01 -5.87422E-01 -8.50432E-01 -1.19521E+00 -1.55666E+00
  -1.86531E+00 -2.06144E+00 -2.16811E+00 -2.24388E+00 -2.35075E+00 -2.45730E+00 -2.47631E+00 -2.36279E+00 -2.16110E+00 -1.98528E+00
  -1.94068E+00 -1.97470E+00 -1.96763E+00 -1.85274E+00 -1.64396E+00 -1.39053E+00 -1.10382E+00 -7.54947E-01 -3.15462E-01  1.82772E-01
   6.51797E-01  9.55352E-01  1.04121E+00  9.61596E-01  8.22257E-01  7.06412E-01  6.70721E-01  7.53405E-01  9.44615E-01  1.22873E+00
   1.58371E+00  1.96899E+00  2.28713E+00  2.36512E+00  2.15250E+00  1.65296E+00  8.68971E-01 -6.37757E-02 -9.15615E-01 -1.40614E+00
  -1.40870E+00 -9.56616E-01 -1.34964E-01  9.16311E-01  1.98433E+00  2.78722E+00  3.08889E+00  2.83356E+00  2.12763E+00  1.16224E+00
   2.17003E-01 -4.53182E-01 -6.75306E-01 -3.68932E-01  4.03924E-01  1.44812E+00  2.49534E+00  3.31014E+00  3.77381E+00  3.89917E+00
   3.83118E+00  3.72423E+00  3.68675E+00  3.77374E+00  3.99258E+00  4.29760E+00  4.62196E+00  4.96303E+00  5.31412E+00  5.61928E+00
   5.79900E+00  5.83871E+00  5.79860E+00  5.77797E+00  5.86907E+00  6.11736E+00  6.51423E+00  6.98950E+00  7.47101E+00  7.93939E+00
   8.39991E+00  8.88386E+00  9.72065E+00  1.22487E+01  1.65808E+01  2.14493E+01  2.61826E+01  3.08794E+01  3.57964E+01  4.05020E+01
   4.35922E+01  4.33479E+01  3.89566E+01  3.13289E+01  2.27436E+01  1.54130E+01  1.02889E+01  7.12167E+00  5.30438E+00  4.39742E+00
   3.94423E+00  3.63546E+00  3.41132E+00  3.25154E+00  3.12615E+00  3.00308E+00  2.85871E+00  2.68100E+00  2.47487E+00  2.25719E+00
   2.04650E+00  1.85695E+00  1.69880E+00  1.57663E+00  1.48739E+00  1.42409E+00  1.37956E+00  1.34809E+00  1.32742E+00  1.31806E+00
   1.32218E+00  1.34272E+00  1.38162E+00  1.44029E+00  1.52021E+00  1.62257E+00  1.74803E+00  1.89668E+00  2.06795E+00  2.26059E+00
   2.47238E+00  2.70014E+00  2.93957E+00  3.18524E+00  3.43119E+00  3.67115E+00  3.89875E+00  4.10782E+00  4.29276E+00  4.44894E+00
   4.57297E+00  4.66284E+00  4.71821E+00  4.74066E+00  4.73405E+00  4.70487E+00  4.66252E+00  4.62026E+00  4.59880E+00  4.63660E+00
   4.74611E+00  4.83996E+00  4.87775E+00  4.87451E+00  4.84609E+00  4.76725E+00  4.57032E+00  4.22493E+00  3.85681E+00  3.61246E+00
   3.60776E+00  3.91292E+00  4.53091E+00  5.41120E+00  6.46707E+00  7.57132E+00  8.55769E+00  9.27528E+00  9.67702E+00  9.82569E+00
   9.83203E+00  9.77707E+00  9.68774E+00  9.56638E+00  9.41257E+00  9.21334E+00  8.95904E+00  8.64888E+00  8.28974E+00  7.89249E+00
   7.46896E+00  7.03112E+00  6.58934E+00  6.15130E+00  5.72221E+00  5.30519E+00  4.90171E+00  4.51255E+00  4.13992E+00  3.78851E+00
   3.46383E+00  3.16996E+00  2.90845E+00  2.67878E+00  2.47930E+00  2.30741E+00  2.15998E+00  2.03392E+00  1.92618E+00  1.83400E+00
   1.75508E+00  1.68768E+00  1.63055E+00  1.58289E+00  1.54428E+00  1.51469E+00  1.49443E+00  1.48418E+00  1.48480E+00  1.49728E+00
   1.52275E+00  1.56249E+00  1.61797E+00  1.69076E+00  1.78242E+00  1.89450E+00  2.02843E+00  2.18558E+00  2.36713E+00  2.57385E+00
   2.80598E+00  3.06307E+00  3.34391E+00  3.64638E+00  3.96738E+00  4.30268E+00  4.64688E+00  4.99353E+00  5.33526E+00  5.66406E+00
   5.97149E+00  6.24896E+00  6.48816E+00  6.68148E+00  6.82244E+00  6.90607E+00  6.92909E+00  6.89013E+00  6.78979E+00  6.63072E+00
   6.41741E+00  6.15600E+00  5.85383E+00  5.51908E+00  5.16037E+00  4.78646E+00  4.40577E+00  4.02609E+00  3.65425E+00  3.29597E+00
   2.95584E+00  2.63729E+00  2.34262E+00  2.07308E+00  1.82894E+00  1.60975E+00  1.41447E+00  1.24169E+00  1.08971E+00  9.56625E-01
   8.40465E-01  7.39295E-01  6.51316E-01  5.74879E-01  5.08464E-01  4.50672E-01  4.00259E-01  3.56169E-01  3.17527E-01  2.83589E-01
   2.53692E-01  2.27241E-01  2.03736E-01  1.82790E-01  1.64100E-01  1.47400E-01  1.32423E-01  1.18927E-01  1.06724E-01  9.56923E-02
   8.57338E-02  7.67384E-02  6.85775E-02  6.11382E-02  5.43541E-02  4.81946E-02  4.26241E-02  3.75767E-02  3.29722E-02  2.87559E-02
   2.49144E-02  2.14497E-02  1.83403E-02  1.55331E-02  1.29758E-02  1.06496E-02  8.56643E-03  6.73361E-03  5.12532E-03  3.69456E-03
   2.41099E-03  1.28112E-03  3.27985E-04 -4.46723E-04 -1.07511E-03 -1.59598E-03 -2.01956E-03 -2.32441E-03 -2.48989E-03 -2.52667E-03
  -2.47065E-03 -2.34739E-03 -2.14766E-03 -1.84204E-03 -1.41815E-03 -8.97847E-04 -3.14674E-04  3.22332E-04  1.03750E-03  1.85963E-03
   2.78858E-03  3.79561E-03  4.85713E-03  5.98356E-03  7.21021E-03  8.56064E-03  1.00245E-02  1.15752E-02
 NY background values follow
    -5.854E-01   -5.840E-01   -5.826E-01   -5.812E-01   -5.798E-01   -5.784E-01   -5.770E-01   -5.756E-01   -5.741E-01   -5.727E-01
    -5.713E-01   -5.699E-01   -5.685E-01   -5.671E-01   -5.657E-01   -5.643E-01   -5.629E-01   -5.615E-01   -5.601E-01   -5.586E-01
    -5.572E-01   -5.558E-01   -5.544E-01   -5.530E-01   -5.516E-01   -5.502E-01   -5.488E-01   -5.474E-01   -5.459E-01   -5.445E-01
    -5.431E-01   -5.417E-01   -5.403E-01   -5.389E-01   -5.375E-01   -5.361E-01   -5.346E-01   -5.332E-01   -5.318E-01   -5.304E-01
    -5.290E-01   -5.276E-01   -5.262E-01   -5.248E-01   -5.233E-01   -5.219E-01   -5.205E-01   -5.191E-01   -5.177E-01   -5.163E-01
    -5.149E-01   -5.134E-01   -5.120E-01   -5.106E-01   -5.092E-01   -5.078E-01   -5.064E-01   -5.049E-01   -5.035E-01   -5.021E-01
    -5.007E-01   -4.993E-01   -4.979E-01   -4.965E-01   -4.950E-01   -4.936E-01   -4.922E-01   -4.908E-01   -4.894E-01   -4.880E-01
    -4.865E-01   -4.851E-01   -4.837E-01   -4.823E-01   -4.809E-01   -4.794E-01   -4.780E-01   -4.766E-01   -4.752E-01   -4.738E-01
    -4.724E-01   -4.709E-01   -4.695E-01   -4.681E-01   -4.667E-01   -4.653E-01   -4.638E-01   -4.624E-01   -4.610E-01   -4.596E-01
    -4.582E-01   -4.567E-01   -4.553E-01   -4.539E-01   -4.525E-01   -4.511E-01   -4.497E-01   -4.482E-01   -4.468E-01   -4.454E-01
    -4.440E-01   -4.425E-01   -4.411E-01   -4.397E-01   -4.383E-01   -4.369E-01   -4.354E-01   -4.340E-01   -4.326E-01   -4.312E-01
    -4.298E-01   -4.283E-01   -4.269E-01   -4.255E-01   -4.241E-01   -4.226E-01   -4.212E-01   -4.198E-01   -4.184E-01   -4.170E-01
    -4.155E-01   -4.141E-01   -4.127E-01   -4.113E-01   -4.098E-01   -4.084E-01   -4.070E-01   -4.056E-01   -4.042E-01   -4.027E-01
    -4.013E-01   -3.999E-01   -3.985E-01   -3.970E-01   -3.956E-01   -3.942E-01   -3.928E-01   -3.913E-01   -3.899E-01   -3.885E-01
    -3.871E-01   -3.856E-01   -3.842E-01   -3.828E-01   -3.814E-01   -3.799E-01   -3.785E-01   -3.771E-01   -3.757E-01   -3.742E-01
    -3.728E-01   -3.714E-01   -3.700E-01   -3.685E-01   -3.671E-01   -3.657E-01   -3.643E-01   -3.628E-01   -3.614E-01   -3.600E-01
    -3.586E-01   -3.571E-01   -3.557E-01   -3.543E-01   -3.529E-01   -3.514E-01   -3.500E-01   -3.486E-01   -3.472E-01   -3.457E-01
    -3.443E-01   -3.429E-01   -3.414E-01   -3.400E-01   -3.386E-01   -3.372E-01   -3.357E-01   -3.343E-01   -3.329E-01   -3.315E-01
    -3.300E-01   -3.286E-01   -3.272E-01   -3.257E-01   -3.243E-01   -3.229E-01   -3.215E-01   -3.200E-01   -3.186E-01   -3.172E-01
    -3.158E-01   -3.143E-01   -3.129E-01   -3.115E-01   -3.100E-01   -3.086E-01   -3.072E-01   -3.058E-01   -3.043E-01   -3.029E-01
    -3.015E-01   -3.000E-01   -2.986E-01   -2.972E-01   -2.958E-01   -2.943E-01   -2.929E-01   -2.915E-01   -2.900E-01   -2.886E-01
    -2.872E-01   -2.858E-01   -2.843E-01   -2.829E-01   -2.815E-01   -2.800E-01   -2.786E-01   -2.772E-01   -2.757E-01   -2.743E-01
    -2.729E-01   -2.715E-01   -2.700E-01   -2.686E-01   -2.672E-01   -2.657E-01   -2.643E-01   -2.629E-01   -2.615E-01   -2.600E-01
    -2.586E-01   -2.572E-01   -2.557E-01   -2.543E-01   -2.529E-01   -2.514E-01   -2.500E-01   -2.486E-01   -2.472E-01   -2.457E-01
    -2.443E-01   -2.429E-01   -2.414E-01   -2.400E-01   -2.386E-01   -2.371E-01   -2.357E-01   -2.343E-01   -2.329E-01   -2.314E-01
    -2.300E-01   -2.286E-01   -2.271E-01   -2.257E-01   -2.243E-01   -2.228E-01   -2.214E-01   -2.200E-01   -2.185E-01   -2.171E-01
    -2.157E-01   -2.143E-01   -2.128E-01   -2.114E-01   -2.100E-01   -2.085E-01   -2.071E-01   -2.057E-01   -2.042E-01   -2.028E-01
    -2.014E-01   -1.999E-01   -1.985E-01   -1.971E-01   -1.957E-01   -1.942E-01   -1.928E-01   -1.914E-01   -1.899E-01   -1.885E-01
    -1.871E-01   -1.856E-01   -1.842E-01   -1.828E-01   -1.813E-01   -1.799E-01   -1.785E-01   -1.771E-01   -1.756E-01   -1.742E-01
    -1.728E-01   -1.713E-01   -1.699E-01   -1.685E-01   -1.670E-01   -1.656E-01   -1.642E-01   -1.627E-01   -1.613E-01   -1.599E-01
    -1.585E-01   -1.570E-01   -1.556E-01   -1.542E-01   -1.527E-01   -1.513E-01   -1.499E-01   -1.484E-01   -1.470E-01   -1.456E-01
    -1.441E-01   -1.427E-01   -1.413E-01   -1.399E-01   -1.384E-01   -1.370E-01   -1.356E-01   -1.341E-01   -1.327E-01   -1.313E-01
    -1.298E-01   -1.284E-01   -1.270E-01   -1.256E-01   -1.241E-01   -1.227E-01   -1.213E-01   -1.198E-01   -1.184E-01   -1.170E-01
    -1.155E-01   -1.141E-01   -1.127E-01   -1.112E-01   -1.098E-01   -1.084E-01   -1.070E-01   -1.055E-01   -1.041E-01   -1.027E-01
    -1.012E-01   -9.981E-02   -9.838E-02   -9.695E-02   -9.552E-02   -9.409E-02   -9.266E-02   -9.123E-02   -8.980E-02   -8.837E-02
    -8.694E-02   -8.551E-02   -8.408E-02   -8.265E-02   -8.122E-02   -7.979E-02   -7.837E-02   -7.694E-02   -7.551E-02   -7.408E-02
    -7.265E-02   -7.122E-02   -6.979E-02   -6.836E-02   -6.693E-02   -6.550E-02   -6.407E-02   -6.265E-02   -6.122E-02   -5.979E-02
    -5.836E-02   -5.693E-02   -5.550E-02   -5.407E-02   -5.265E-02   -5.122E-02   -4.979E-02   -4.836E-02   -4.693E-02   -4.550E-02
    -4.408E-02   -4.265E-02   -4.122E-02   -3.979E-02   -3.836E-02   -3.694E-02   -3.551E-02   -3.408E-02   -3.265E-02   -3.122E-02
    -2.980E-02   -2.837E-02   -2.694E-02   -2.551E-02   -2.409E-02   -2.266E-02   -2.123E-02   -1.981E-02   -1.838E-02   -1.695E-02
    -1.552E-02   -1.410E-02   -1.267E-02   -1.124E-02   -9.817E-03   -8.391E-03   -6.964E-03   -5.538E-03   -4.111E-03   -2.685E-03
    -1.259E-03    1.677E-04    1.594E-03    3.020E-03    4.446E-03    5.872E-03    7.298E-03    8.723E-03    1.015E-02    1.157E-02
     1.300E-02    1.443E-02    1.585E-02    1.728E-02    1.870E-02    2.013E-02    2.155E-02    2.298E-02    2.440E-02    2.583E-02
     2.725E-02    2.868E-02    3.010E-02    3.153E-02    3.295E-02    3.437E-02    3.580E-02    3.722E-02    3.865E-02    4.007E-02
     4.149E-02    4.292E-02    4.434E-02    4.576E-02    4.719E-02    4.861E-02    5.003E-02    5.146E-02    5.288E-02    5.430E-02
     5.573E-02    5.715E-02    5.857E-02    6.000E-02    6.142E-02    6.284E-02    6.426E-02    6.568E-02    6.711E-02    6.853E-02
     6.995E-02    7.137E-02    7.279E-02    7.422E-02    7.564E-02    7.706E-02    7.848E-02    7.990E-02    8.132E-02    8.274E-02
     8.416E-02    8.558E-02    8.700E-02    8.842E-02    8.985E-02    9.127E-02    9.269E-02    9.411E-02    9.553E-02    9.694E-02
     9.836E-02    9.978E-02    1.012E-01    1.026E-01    1.040E-01    1.055E-01    1.069E-01    1.083E-01    1.097E-01    1.111E-01
     1.126E-01    1.140E-01    1.154E-01    1.168E-01    1.182E-01    1.196E-01    1.211E-01    1.225E-01
 Ala      Conc. = 1.44E+02
