 LCModel (Version 6.3-1L) Copyright: S.W. Provencher.          Ref.: Magn. Reson. Med. 30:672-679 (1993).                
 Slice#3 Row#2 Col#6  PD_05_press_1_raw_act
 36 lines in following concentration table = NCONC+1
    Conc.  %SD /Cr+PCr  Metabolite                                         
  371.007  65%   0.711 Ala                                                 
   85.789 107%   0.164 Asp                                                 
  329.527  65%   0.631 Cr                                                  
  192.333 113%   0.369 PCr                                                 
   43.209 133% 8.3E-02 GABA                                                
   39.935 141% 7.7E-02 Glc                                                 
 2.43E+03  15%   4.655 Gln                                                 
 2.07E+03  22%   3.963 Glu                                                 
    0.000 999%   0.000 GPC                                                 
  142.760  12%   0.274 PCh                                                 
    0.000 999%   0.000 GSH                                                 
  343.426  49%   0.658 Ins                                                 
  763.374  32%   1.463 Lac                                                 
  825.178   6%   1.581 NAA                                                 
    0.000 999%   0.000 NAAG                                                
   31.456  49% 6.0E-02 Scyllo                                              
  114.724  75%   0.220 Tau                                                 
  271.179  32%   0.520 -CrCH2                                              
  142.760  12%   0.274 GPC+PCh                                             
  825.178   6%   1.581 NAA+NAAG                                            
  521.860   8%   1.000 Cr+PCr                                              
 4.50E+03  15%   8.618 Glu+Gln                                             
    0.000 999%   0.000 Lip13a                                              
    0.000 999%   0.000 Lip13b                                              
    0.000 999%   0.000 Lip09                                               
  390.325  16%   0.748 MM09                                                
 1.01E-03 999% 1.9E-06 Lip20                                               
  626.418  22%   1.200 MM20                                                
   75.248  56%   0.144 MM12                                                
  502.260  26%   0.962 MM14                                                
  287.344  29%   0.551 MM17                                                
    0.000 999%   0.000 Lip13a+Lip13b                                       
  577.508  25%   1.107 MM14+Lip13a+Lip13b+MM12                             
  390.325  16%   0.748 MM09+Lip09                                          
  626.419  22%   1.200 MM20+Lip20                                          
   6 lines in following misc. output table
  FWHM = 0.138 ppm    S/N =   4                                            
  Data shift =-0.023 ppm                                                   
  Ph:   3 deg     -10.5 deg/ppm                                            
  alphaB,S = 8.5E+01,   2.0E+02                                            
   14 spline knots.   Ns = 8(2)                                            
   2 inflections.     1 extrema                                            
  498 points on ppm-axis = NY
      4.000000     3.992357     3.984714     3.977070     3.969427     3.961784     3.954141     3.946497     3.938854     3.931211
      3.923568     3.915925     3.908281     3.900638     3.892995     3.885352     3.877708     3.870065     3.862422     3.854779
      3.847136     3.839492     3.831849     3.824206     3.816563     3.808919     3.801276     3.793633     3.785990     3.778347
      3.770703     3.763060     3.755417     3.747774     3.740130     3.732487     3.724844     3.717201     3.709558     3.701914
      3.694271     3.686628     3.678985     3.671341     3.663698     3.656055     3.648412     3.640769     3.633125     3.625482
      3.617839     3.610196     3.602552     3.594909     3.587266     3.579623     3.571980     3.564336     3.556693     3.549050
      3.541407     3.533763     3.526120     3.518477     3.510834     3.503191     3.495547     3.487904     3.480261     3.472618
      3.464974     3.457331     3.449688     3.442045     3.434402     3.426758     3.419115     3.411472     3.403829     3.396185
      3.388542     3.380899     3.373256     3.365613     3.357969     3.350326     3.342683     3.335040     3.327396     3.319753
      3.312110     3.304467     3.296824     3.289180     3.281537     3.273894     3.266251     3.258607     3.250964     3.243321
      3.235678     3.228034     3.220391     3.212748     3.205105     3.197462     3.189818     3.182175     3.174532     3.166889
      3.159245     3.151602     3.143959     3.136316     3.128673     3.121029     3.113386     3.105743     3.098100     3.090456
      3.082813     3.075170     3.067527     3.059884     3.052240     3.044597     3.036954     3.029311     3.021667     3.014024
      3.006381     2.998738     2.991095     2.983451     2.975808     2.968165     2.960522     2.952878     2.945235     2.937592
      2.929949     2.922306     2.914662     2.907019     2.899376     2.891733     2.884089     2.876446     2.868803     2.861160
      2.853517     2.845873     2.838230     2.830587     2.822944     2.815300     2.807657     2.800014     2.792371     2.784728
      2.777084     2.769441     2.761798     2.754155     2.746511     2.738868     2.731225     2.723582     2.715939     2.708295
      2.700652     2.693009     2.685366     2.677722     2.670079     2.662436     2.654793     2.647150     2.639506     2.631863
      2.624220     2.616577     2.608933     2.601290     2.593647     2.586004     2.578361     2.570717     2.563074     2.555431
      2.547788     2.540144     2.532501     2.524858     2.517215     2.509572     2.501928     2.494285     2.486642     2.478999
      2.471355     2.463712     2.456069     2.448426     2.440783     2.433139     2.425496     2.417853     2.410210     2.402566
      2.394923     2.387280     2.379637     2.371994     2.364350     2.356707     2.349064     2.341421     2.333777     2.326134
      2.318491     2.310848     2.303205     2.295561     2.287918     2.280275     2.272632     2.264988     2.257345     2.249702
      2.242059     2.234416     2.226772     2.219129     2.211486     2.203843     2.196199     2.188556     2.180913     2.173270
      2.165627     2.157983     2.150340     2.142697     2.135054     2.127410     2.119767     2.112124     2.104481     2.096838
      2.089194     2.081551     2.073908     2.066265     2.058621     2.050978     2.043335     2.035692     2.028049     2.020405
      2.012762     2.005119     1.997476     1.989833     1.982190     1.974546     1.966903     1.959260     1.951617     1.943974
      1.936331     1.928688     1.921045     1.913402     1.905759     1.898115     1.890472     1.882829     1.875186     1.867543
      1.859900     1.852257     1.844614     1.836971     1.829327     1.821684     1.814041     1.806398     1.798755     1.791112
      1.783469     1.775826     1.768183     1.760540     1.752896     1.745253     1.737610     1.729967     1.722324     1.714681
      1.707038     1.699395     1.691752     1.684108     1.676465     1.668822     1.661179     1.653536     1.645893     1.638250
      1.630607     1.622964     1.615321     1.607677     1.600034     1.592391     1.584748     1.577105     1.569462     1.561819
      1.554176     1.546533     1.538890     1.531246     1.523603     1.515960     1.508317     1.500674     1.493031     1.485388
      1.477745     1.470102     1.462458     1.454815     1.447172     1.439529     1.431886     1.424243     1.416600     1.408957
      1.401314     1.393671     1.386027     1.378384     1.370741     1.363098     1.355455     1.347812     1.340169     1.332526
      1.324883     1.317240     1.309596     1.301953     1.294310     1.286667     1.279024     1.271381     1.263738     1.256095
      1.248452     1.240808     1.233165     1.225522     1.217879     1.210236     1.202593     1.194950     1.187307     1.179664
      1.172021     1.164377     1.156734     1.149091     1.141448     1.133805     1.126162     1.118519     1.110876     1.103233
      1.095590     1.087946     1.080303     1.072660     1.065017     1.057374     1.049731     1.042088     1.034445     1.026802
      1.019158     1.011515     1.003872     0.996229     0.988586     0.980943     0.973300     0.965657     0.958014     0.950371
      0.942727     0.935084     0.927441     0.919798     0.912155     0.904512     0.896869     0.889226     0.881583     0.873940
      0.866296     0.858653     0.851010     0.843367     0.835724     0.828081     0.820438     0.812795     0.805152     0.797508
      0.789865     0.782222     0.774579     0.766936     0.759293     0.751650     0.744007     0.736364     0.728721     0.721077
      0.713434     0.705791     0.698148     0.690505     0.682862     0.675219     0.667576     0.659933     0.652290     0.644646
      0.637003     0.629360     0.621717     0.614074     0.606431     0.598788     0.591145     0.583502     0.575858     0.568215
      0.560572     0.552929     0.545286     0.537643     0.530000     0.522357     0.514714     0.507071     0.499427     0.491784
      0.484141     0.476498     0.468855     0.461212     0.453569     0.445925     0.438282     0.430639     0.422996     0.415353
      0.407710     0.400067     0.392424     0.384780     0.377137     0.369494     0.361851     0.354208     0.346565     0.338922
      0.331278     0.323635     0.315992     0.308349     0.300706     0.293063     0.285420     0.277777     0.270133     0.262490
      0.254847     0.247204     0.239561     0.231918     0.224275     0.216631     0.208988     0.201345
 NY phased data points follow
  -3.79444E-01  3.10506E+00  2.02906E+00  2.76777E+00  4.35572E+00  4.18857E+00  4.60865E+00  4.16625E+00  1.73856E+00 -3.05615E-01
  -9.19132E-01  2.05967E+00  3.39640E+00  1.76030E+00  3.86871E+00  3.19827E+00  6.78664E+00  4.87815E+00  3.13354E+00  4.54525E+00
   2.95774E+00  2.03914E+00  4.30524E+00  5.08982E+00  3.98720E+00  3.07829E+00  6.24036E+00  2.23879E+00  2.88636E+00  2.54571E+00
   3.34038E+00  1.70002E+00  1.07438E+00  2.37458E+00  2.67507E+00  4.43872E+00  4.40171E+00  3.38147E+00  5.23018E+00  3.16495E+00
   2.83022E+00  4.77074E+00  1.91808E-01  2.25911E+00  5.22388E+00  2.44779E+00  1.80685E+00  4.75620E+00  2.45232E+00  4.83801E+00
   1.79228E+00  2.95112E+00  2.77045E+00  4.89550E+00  3.94965E+00 -1.20112E+00  3.18451E+00  1.75701E+00  2.12833E+00  2.74282E+00
   8.70727E-01  1.95397E+00  4.33166E+00  1.76912E+00  2.20782E+00  2.66647E+00 -6.66160E-02  1.04131E+00  2.39806E+00  1.29227E+00
   1.61703E+00  2.49817E+00 -2.41088E+00  3.40243E+00  1.30476E+00  2.05628E-01  8.29778E-01  2.09383E+00  8.11510E-01 -9.55312E-01
  -2.59741E-01  1.60117E+00  2.70275E+00  1.27570E+00 -2.21243E-02  3.87360E+00  2.57499E+00  3.15364E+00  2.20085E+00  7.36464E-01
   3.55140E+00 -1.67576E-01  1.38910E+00  3.93374E+00  1.70465E+00  2.33437E+00  6.02105E+00  2.98423E+00  4.51535E+00  4.29084E+00
   4.78603E+00  5.99460E+00  6.21408E+00  6.65933E+00  6.70917E+00  5.35807E+00  6.71192E+00  5.97418E+00  4.52440E+00  6.55246E+00
   4.60181E+00  3.50003E+00  5.06209E+00  5.52767E+00  2.52492E+00  1.84013E+00  4.44669E+00  1.90700E+00  3.41948E+00  7.04242E+00
   6.48675E+00  4.61257E+00  6.69971E+00  8.52971E+00  6.09744E+00  7.75331E+00  6.17127E+00  3.96045E+00  8.16137E+00  8.07779E+00
   9.80074E+00  7.24102E+00  1.31795E+01  5.34441E+00  4.23892E+00  5.94328E+00  2.93223E+00  3.34931E+00  3.04919E+00  1.86676E+00
   2.80875E+00  3.24002E+00  5.86789E-01  1.48677E+00  1.36154E+00  1.83377E+00  2.62863E+00  2.66437E+00  8.26234E-01 -1.65507E+00
   8.85431E-01 -2.48085E+00  1.05682E+00  5.49538E-01 -2.55789E-01 -2.67388E+00  5.39826E-01  3.30584E-02 -1.59013E+00 -2.11800E+00
  -2.76635E-01 -2.13853E+00 -8.67989E-01 -8.61444E-01 -1.62140E-01 -5.85963E-01 -2.75910E+00 -1.02229E+00 -1.13223E+00  9.56020E-01
  -1.85125E+00  2.82012E-01 -4.51605E+00 -3.24605E+00 -2.03876E+00 -6.47339E-01 -3.00728E+00 -2.95650E+00 -1.32473E+00 -1.61496E+00
  -2.91899E+00 -1.20505E+00 -2.29479E+00 -6.53610E-01 -5.63028E+00 -4.04431E+00 -2.58457E+00 -2.98977E+00 -1.52688E+00  2.77842E-01
  -1.75028E+00 -3.00085E-01 -6.68376E-01  1.39000E+00  5.59998E-01  8.12238E-01  6.17601E-01 -1.60771E+00  1.06055E+00 -1.63090E+00
  -1.04926E-01 -4.25137E-01 -3.70722E-01 -2.46317E+00 -6.48942E-01 -2.75140E+00 -2.50632E-01  1.33589E-01  3.45153E+00  1.60542E+00
  -1.03855E+00 -2.95544E+00 -5.87660E-01  9.35546E-01 -1.47028E+00  1.76277E+00 -1.30748E+00  1.45069E+00  8.10629E-01  2.25497E+00
   1.88247E+00  2.31621E+00  1.77496E+00  2.92615E+00  2.99464E+00  1.58741E-01 -1.63214E-01  1.67146E+00  1.67001E+00  2.95665E+00
   1.91119E+00  1.10041E+00  7.42927E-01  2.38275E+00  1.74217E+00 -1.47275E-02 -7.37191E-01  3.74626E+00  2.08693E+00  3.67007E+00
   4.55787E+00  3.73498E+00  1.84741E+00  3.01884E+00  3.13173E+00  1.86299E+00  5.43117E-01 -9.70967E-02  5.86473E-01  1.14726E+00
   3.62294E+00  3.94398E+00  6.78390E+00  6.62136E+00  1.00864E+01  1.05689E+01  1.09248E+01  1.33737E+01  1.19299E+01  1.28017E+01
   1.13844E+01  1.08749E+01  1.34656E+01  1.45628E+01  1.50571E+01  1.62332E+01  1.28822E+01  1.20550E+01  1.11791E+01  9.93975E+00
   8.23738E+00  7.38755E+00  9.31839E+00  4.76749E+00  6.58179E+00  5.75361E+00  7.26047E+00  3.23801E+00  2.71800E+00  1.97821E+00
   1.60037E+00  2.94367E+00  1.78778E+00  3.78575E+00  4.60767E+00  1.99752E+00 -1.53309E+00  3.49429E+00  3.37112E+00  1.50960E+00
   2.62893E+00  2.61255E+00  2.06624E+00  4.71379E+00  1.72538E-01 -8.34409E-01  1.19832E-01  2.63975E+00  4.78073E-01  2.25137E+00
   3.34651E+00  3.63746E+00  9.07474E-02  2.48964E+00  5.32131E+00  1.55499E+00  3.28644E+00  3.44550E+00  5.40056E+00  3.65613E+00
   2.27519E+00  4.55516E+00  3.34143E+00  3.10038E+00  2.41837E+00  1.39858E+00  2.48877E+00  1.13974E+00  1.38011E+00  2.61285E+00
   2.34896E+00  1.14599E+00  6.01927E+00  5.05642E+00  8.61094E-01  2.20324E+00  5.61663E+00  2.78788E+00  5.46543E+00  3.10266E+00
   1.48688E+00  5.73580E+00  4.52388E+00  3.82183E+00  4.08372E+00  3.39711E+00  6.80332E+00  4.69000E+00  4.11704E+00  6.43632E+00
   3.81109E+00  6.36579E+00  3.51527E+00  5.78158E+00  4.10000E+00  4.89643E+00  3.19839E+00  3.98176E+00  3.82652E+00  3.77192E+00
   6.02703E+00  4.26648E+00  3.93306E+00  7.78434E-01 -1.02659E+00  1.02547E+00  2.20363E+00 -9.19965E-01  1.79357E+00 -9.33247E-01
   2.87398E+00  1.89108E+00  4.09228E-01  2.61944E+00  8.89201E-01  3.21405E+00  2.03981E+00  5.26172E+00  2.34557E+00  3.49915E-01
   1.88560E+00  9.88845E-01  5.19327E-01 -6.22893E-01 -4.12533E-01 -4.61042E+00 -3.00436E+00 -3.43021E+00 -2.38971E+00 -2.34670E+00
  -5.72835E+00 -4.88352E+00 -3.83401E+00 -3.93331E+00  1.02824E+00 -5.71754E-01 -1.08585E+00 -2.03202E+00 -4.62997E+00 -8.87058E-01
  -2.28772E+00  9.75299E-01  7.45712E-01 -2.83586E-01  7.08314E-01  1.81104E+00  4.72884E-01  1.33067E+00 -5.60164E-01  4.49840E+00
   2.23793E+00  7.09052E-01  4.13284E+00  4.45303E+00  2.96987E-01  6.59674E+00  1.23988E+00  2.37946E+00  1.87826E+00  4.04192E+00
   4.44737E+00  5.91923E+00  3.56624E+00  4.67758E+00  2.35339E+00  9.21730E-01  8.77347E-01  1.58192E+00  1.53271E+00 -7.31204E-01
  -1.13293E+00  5.02445E-01  2.52984E-01  2.55320E+00  8.71107E-01  4.40353E-01  2.18075E+00  2.85185E+00 -1.58458E+00 -8.64362E-01
   1.08681E+00 -5.53655E-01 -1.69793E+00  4.14911E+00  5.05186E-01  3.55983E-02 -1.48012E+00  6.89487E-02  9.92959E-01  5.25475E-01
   2.52682E-01 -9.35629E-01 -5.90395E+00 -1.67864E+00 -4.81724E+00 -2.94105E-01 -2.19213E+00  6.22253E-01 -2.35097E+00  1.40889E-01
  -1.31657E+00 -3.65693E+00 -3.10497E-01  1.62083E-01 -2.92903E-01 -2.16801E+00 -2.78219E+00 -2.82486E-01 -2.86524E+00  2.42435E+00
  -3.09830E-01 -1.16057E+00  4.99312E-01  2.97734E+00 -2.97289E+00 -9.46480E-01 -2.38910E-01  2.40634E+00 -1.01864E+00  1.88004E+00
  -1.51026E-01 -2.07494E+00 -1.23153E+00  1.14992E-01 -8.04180E-01 -2.54006E-01  1.02682E+00 -1.82142E+00 -2.44701E+00 -2.82761E+00
  -7.42822E-01 -2.90652E-01  1.42680E+00 -1.06822E+00 -8.25770E-03 -2.36784E-01  3.29597E-02  6.16875E-01  6.17979E-01 -3.31061E+00
   1.49478E-01 -3.23441E-01 -7.79247E-03 -8.55669E-01 -9.25285E-01 -8.50241E-01  1.31008E+00 -1.01991E+00
 NY points of the fit to the data follow
   1.35014E+00  1.58462E+00  1.69154E+00  1.84013E+00  2.14417E+00  2.09070E+00  2.53620E+00  2.29649E+00  2.86129E+00  2.48745E+00
   3.20489E+00  2.81971E+00  3.75570E+00  3.30233E+00  4.31001E+00  3.72370E+00  4.55977E+00  3.85280E+00  4.36756E+00  3.78499E+00
   4.08669E+00  3.79439E+00  4.00883E+00  3.99081E+00  4.09186E+00  4.14616E+00  4.00862E+00  4.01486E+00  3.59167E+00  3.59535E+00
   3.12729E+00  3.36227E+00  3.14186E+00  3.50287E+00  3.48937E+00  3.81678E+00  3.85450E+00  3.92742E+00  3.88869E+00  3.71739E+00
   3.66706E+00  3.42517E+00  3.48139E+00  3.32988E+00  3.47233E+00  3.32502E+00  3.36749E+00  3.19634E+00  3.11669E+00  2.89158E+00
   2.81926E+00  2.74457E+00  2.71042E+00  2.64899E+00  2.60593E+00  2.51437E+00  2.36653E+00  2.19751E+00  2.07003E+00  1.89573E+00
   1.81094E+00  1.70346E+00  1.65718E+00  1.57526E+00  1.55411E+00  1.48245E+00  1.48227E+00  1.44216E+00  1.46490E+00  1.42859E+00
   1.44549E+00  1.40392E+00  1.43561E+00  1.39163E+00  1.45556E+00  1.39985E+00  1.49109E+00  1.41165E+00  1.50313E+00  1.39810E+00
   1.48071E+00  1.34615E+00  1.41837E+00  1.26144E+00  1.33261E+00  1.17279E+00  1.26460E+00  1.16252E+00  1.28170E+00  1.28867E+00
   1.45054E+00  1.66672E+00  1.92285E+00  2.33313E+00  2.68656E+00  3.16290E+00  3.56833E+00  3.94879E+00  4.34275E+00  4.59572E+00
   4.95581E+00  5.11638E+00  5.46546E+00  5.60064E+00  5.95211E+00  5.98193E+00  6.29443E+00  6.02391E+00  6.16412E+00  5.52482E+00
   5.50241E+00  4.74488E+00  4.67854E+00  4.04718E+00  4.06992E+00  3.77125E+00  3.96536E+00  3.95697E+00  4.28112E+00  4.42133E+00
   4.78809E+00  4.97532E+00  5.38086E+00  5.73344E+00  6.17922E+00  6.44567E+00  6.87600E+00  7.10863E+00  7.51297E+00  7.61249E+00
   7.87874E+00  7.63334E+00  7.64053E+00  6.97021E+00  6.72870E+00  5.84093E+00  5.46993E+00  4.56899E+00  4.16610E+00  3.35007E+00
   2.94681E+00  2.20281E+00  1.80754E+00  1.16075E+00  8.16466E-01  3.55026E-01  1.62862E-01  5.62233E-02 -8.03353E-03 -9.28217E-02
  -1.43112E-01 -2.28929E-01 -2.73398E-01 -3.53903E-01 -3.95983E-01 -4.63708E-01 -5.08133E-01 -5.66058E-01 -6.21214E-01 -6.75946E-01
  -7.47231E-01 -8.07071E-01 -8.93509E-01 -9.54708E-01 -1.04628E+00 -1.09428E+00 -1.18131E+00 -1.21392E+00 -1.29702E+00 -1.33472E+00
  -1.40621E+00 -1.46464E+00 -1.51005E+00 -1.58387E+00 -1.59407E+00 -1.67163E+00 -1.64401E+00 -1.72228E+00 -1.65289E+00 -1.74848E+00
  -1.64741E+00 -1.80532E+00 -1.68628E+00 -1.91778E+00 -1.79607E+00 -2.04629E+00 -1.92324E+00 -2.11172E+00 -1.90635E+00 -1.93822E+00
  -1.58253E+00 -1.46470E+00 -9.84293E-01 -8.79814E-01 -4.06118E-01 -5.01535E-01 -2.12728E-01 -6.01277E-01 -5.01039E-01 -1.01076E+00
  -9.21440E-01 -1.27705E+00 -1.00753E+00 -1.05062E+00 -5.91788E-01 -3.98759E-01 -4.21519E-02  1.91018E-01  1.08007E-01  2.78049E-01
  -3.40107E-01 -1.32007E-01 -9.93863E-01 -4.60948E-01 -1.22060E+00 -1.96511E-01 -7.79093E-01  6.17229E-01  1.53309E-02  1.44731E+00
   6.50509E-01  1.86825E+00  8.63731E-01  1.66671E+00  8.23077E-01  1.35268E+00  8.95462E-01  1.31553E+00  1.23456E+00  1.47043E+00
   1.62946E+00  1.76454E+00  1.87008E+00  1.76835E+00  1.76687E+00  1.57872E+00  1.64420E+00  1.62731E+00  1.68719E+00  1.87432E+00
   1.90264E+00  2.21937E+00  1.96206E+00  2.21010E+00  1.73983E+00  2.14738E+00  1.72657E+00  2.42820E+00  2.53223E+00  3.67626E+00
   4.34770E+00  5.80142E+00  6.66538E+00  8.16382E+00  8.78350E+00  1.00442E+01  1.04135E+01  1.16002E+01  1.18128E+01  1.29493E+01
   1.31339E+01  1.41054E+01  1.39280E+01  1.46183E+01  1.38127E+01  1.41115E+01  1.26058E+01  1.25268E+01  1.06773E+01  1.03984E+01
   8.60023E+00  8.21728E+00  6.63922E+00  6.23119E+00  4.88002E+00  4.45192E+00  3.33032E+00  2.94856E+00  2.15469E+00  1.93017E+00
   1.79617E+00  1.74538E+00  1.69766E+00  1.65346E+00  1.65668E+00  1.62951E+00  1.64058E+00  1.63986E+00  1.66987E+00  1.68423E+00
   1.72245E+00  1.74856E+00  1.79190E+00  1.83223E+00  1.89746E+00  1.96071E+00  2.03776E+00  2.11089E+00  2.18775E+00  2.25818E+00
   2.32466E+00  2.37788E+00  2.42762E+00  2.46310E+00  2.49413E+00  2.51180E+00  2.52653E+00  2.53060E+00  2.53606E+00  2.53751E+00
   2.55193E+00  2.57700E+00  2.60848E+00  2.67776E+00  2.72723E+00  2.85750E+00  2.87677E+00  3.02873E+00  2.96162E+00  3.09543E+00
   2.93731E+00  3.04507E+00  2.84430E+00  2.99218E+00  2.83246E+00  3.06325E+00  2.99550E+00  3.29067E+00  3.27895E+00  3.54819E+00
   3.55021E+00  3.75803E+00  3.79706E+00  3.97541E+00  4.13002E+00  4.38905E+00  4.63633E+00  4.86889E+00  5.09417E+00  5.10866E+00
   5.19794E+00  4.89397E+00  4.83440E+00  4.43697E+00  4.34277E+00  4.07434E+00  4.03011E+00  3.94031E+00  3.79812E+00  3.58823E+00
   3.28682E+00  2.84911E+00  2.44115E+00  1.90060E+00  1.56437E+00  1.32820E+00  1.25521E+00  1.34264E+00  1.45960E+00  1.66349E+00
   1.82277E+00  1.88453E+00  1.98595E+00  1.92341E+00  1.98636E+00  1.92694E+00  1.99651E+00  2.02855E+00  1.97630E+00  1.81359E+00
   1.67583E+00  1.38454E+00  1.18929E+00  8.54485E-01  6.56621E-01  5.27144E-01  4.34785E-01  3.61797E-01  3.06921E-01  2.62111E-01
   2.30267E-01  2.05683E-01  1.92564E-01  1.86186E-01  1.91367E-01  2.04012E-01  2.29366E-01  2.63816E-01  3.12864E-01  3.73179E-01
   4.50303E-01  5.40931E-01  6.50316E-01  7.74759E-01  9.18717E-01  1.07754E+00  1.25436E+00  1.44306E+00  1.64501E+00  1.85236E+00
   2.06458E+00  2.27221E+00  2.47326E+00  2.65738E+00  2.82210E+00  2.95736E+00  3.06155E+00  3.12626E+00  3.15209E+00  3.13347E+00
   3.07403E+00  2.97151E+00  2.83269E+00  2.65829E+00  2.45749E+00  2.23291E+00  1.99483E+00  1.74635E+00  1.49742E+00  1.25031E+00
   1.01351E+00  7.87605E-01  5.79064E-01  3.86527E-01  2.14451E-01  5.97872E-02 -7.45756E-02 -1.92841E-01 -2.93093E-01 -3.80094E-01
  -4.52333E-01 -5.14641E-01 -5.65515E-01 -6.09556E-01 -6.45055E-01 -6.76250E-01 -7.01154E-01 -7.23627E-01 -7.41429E-01 -7.58101E-01
  -7.71214E-01 -7.84052E-01 -7.94060E-01 -8.04334E-01 -8.12254E-01 -8.20778E-01 -8.27263E-01 -8.34558E-01 -8.40022E-01 -8.46424E-01
  -8.51141E-01 -8.56875E-01 -8.61032E-01 -8.66247E-01 -8.69968E-01 -8.74767E-01 -8.78141E-01 -8.82602E-01 -8.85695E-01 -8.89872E-01
  -8.92729E-01 -8.96663E-01 -8.99321E-01 -9.03045E-01 -9.05528E-01 -9.09057E-01 -9.11381E-01 -9.14734E-01 -9.16913E-01 -9.20103E-01
  -9.22144E-01 -9.25177E-01 -9.27086E-01 -9.29967E-01 -9.31747E-01 -9.34474E-01 -9.36119E-01 -9.38686E-01 -9.40190E-01 -9.42592E-01
  -9.43947E-01 -9.46171E-01 -9.47361E-01 -9.49388E-01 -9.50395E-01 -9.52204E-01 -9.52999E-01 -9.54557E-01 -9.55102E-01 -9.56367E-01
  -9.56618E-01 -9.57535E-01 -9.57422E-01 -9.57910E-01 -9.57339E-01 -9.57289E-01 -9.56127E-01 -9.55373E-01
 NY background values follow
     3.938E-01    3.913E-01    3.888E-01    3.863E-01    3.838E-01    3.812E-01    3.787E-01    3.762E-01    3.737E-01    3.712E-01
     3.687E-01    3.662E-01    3.637E-01    3.611E-01    3.586E-01    3.561E-01    3.536E-01    3.511E-01    3.486E-01    3.460E-01
     3.435E-01    3.410E-01    3.385E-01    3.360E-01    3.334E-01    3.309E-01    3.284E-01    3.259E-01    3.233E-01    3.208E-01
     3.183E-01    3.158E-01    3.132E-01    3.107E-01    3.082E-01    3.057E-01    3.031E-01    3.006E-01    2.981E-01    2.955E-01
     2.930E-01    2.905E-01    2.880E-01    2.854E-01    2.829E-01    2.804E-01    2.778E-01    2.753E-01    2.727E-01    2.702E-01
     2.677E-01    2.651E-01    2.626E-01    2.601E-01    2.575E-01    2.550E-01    2.524E-01    2.499E-01    2.474E-01    2.448E-01
     2.423E-01    2.397E-01    2.372E-01    2.347E-01    2.321E-01    2.296E-01    2.270E-01    2.245E-01    2.219E-01    2.194E-01
     2.168E-01    2.143E-01    2.118E-01    2.092E-01    2.067E-01    2.041E-01    2.016E-01    1.990E-01    1.965E-01    1.939E-01
     1.914E-01    1.888E-01    1.863E-01    1.837E-01    1.812E-01    1.786E-01    1.761E-01    1.735E-01    1.710E-01    1.684E-01
     1.658E-01    1.633E-01    1.607E-01    1.582E-01    1.556E-01    1.531E-01    1.505E-01    1.480E-01    1.454E-01    1.428E-01
     1.403E-01    1.377E-01    1.352E-01    1.326E-01    1.300E-01    1.275E-01    1.249E-01    1.224E-01    1.198E-01    1.172E-01
     1.147E-01    1.121E-01    1.096E-01    1.070E-01    1.044E-01    1.019E-01    9.931E-02    9.675E-02    9.418E-02    9.162E-02
     8.906E-02    8.649E-02    8.393E-02    8.136E-02    7.880E-02    7.623E-02    7.367E-02    7.110E-02    6.853E-02    6.597E-02
     6.340E-02    6.083E-02    5.827E-02    5.570E-02    5.313E-02    5.056E-02    4.800E-02    4.543E-02    4.286E-02    4.029E-02
     3.772E-02    3.515E-02    3.258E-02    3.001E-02    2.744E-02    2.487E-02    2.230E-02    1.973E-02    1.716E-02    1.459E-02
     1.202E-02    9.450E-03    6.878E-03    4.307E-03    1.735E-03   -8.364E-04   -3.408E-03   -5.980E-03   -8.553E-03   -1.112E-02
    -1.370E-02   -1.627E-02   -1.884E-02   -2.142E-02   -2.399E-02   -2.656E-02   -2.914E-02   -3.171E-02   -3.428E-02   -3.686E-02
    -3.943E-02   -4.200E-02   -4.458E-02   -4.715E-02   -4.973E-02   -5.230E-02   -5.487E-02   -5.745E-02   -6.002E-02   -6.260E-02
    -6.517E-02   -6.775E-02   -7.032E-02   -7.290E-02   -7.547E-02   -7.805E-02   -8.062E-02   -8.320E-02   -8.577E-02   -8.835E-02
    -9.092E-02   -9.350E-02   -9.607E-02   -9.865E-02   -1.012E-01   -1.038E-01   -1.064E-01   -1.090E-01   -1.115E-01   -1.141E-01
    -1.167E-01   -1.193E-01   -1.218E-01   -1.244E-01   -1.270E-01   -1.296E-01   -1.321E-01   -1.347E-01   -1.373E-01   -1.399E-01
    -1.424E-01   -1.450E-01   -1.476E-01   -1.502E-01   -1.527E-01   -1.553E-01   -1.579E-01   -1.605E-01   -1.630E-01   -1.656E-01
    -1.682E-01   -1.708E-01   -1.733E-01   -1.759E-01   -1.785E-01   -1.811E-01   -1.836E-01   -1.862E-01   -1.888E-01   -1.914E-01
    -1.939E-01   -1.965E-01   -1.991E-01   -2.017E-01   -2.042E-01   -2.068E-01   -2.094E-01   -2.119E-01   -2.145E-01   -2.171E-01
    -2.197E-01   -2.222E-01   -2.248E-01   -2.274E-01   -2.300E-01   -2.325E-01   -2.351E-01   -2.377E-01   -2.402E-01   -2.428E-01
    -2.454E-01   -2.480E-01   -2.505E-01   -2.531E-01   -2.557E-01   -2.582E-01   -2.608E-01   -2.634E-01   -2.660E-01   -2.685E-01
    -2.711E-01   -2.737E-01   -2.762E-01   -2.788E-01   -2.814E-01   -2.839E-01   -2.865E-01   -2.891E-01   -2.916E-01   -2.942E-01
    -2.968E-01   -2.994E-01   -3.019E-01   -3.045E-01   -3.071E-01   -3.096E-01   -3.122E-01   -3.148E-01   -3.173E-01   -3.199E-01
    -3.224E-01   -3.250E-01   -3.276E-01   -3.301E-01   -3.327E-01   -3.353E-01   -3.378E-01   -3.404E-01   -3.430E-01   -3.455E-01
    -3.481E-01   -3.506E-01   -3.532E-01   -3.558E-01   -3.583E-01   -3.609E-01   -3.635E-01   -3.660E-01   -3.686E-01   -3.711E-01
    -3.737E-01   -3.762E-01   -3.788E-01   -3.814E-01   -3.839E-01   -3.865E-01   -3.890E-01   -3.916E-01   -3.941E-01   -3.967E-01
    -3.993E-01   -4.018E-01   -4.044E-01   -4.069E-01   -4.095E-01   -4.120E-01   -4.146E-01   -4.171E-01   -4.197E-01   -4.222E-01
    -4.248E-01   -4.273E-01   -4.299E-01   -4.324E-01   -4.350E-01   -4.375E-01   -4.401E-01   -4.426E-01   -4.452E-01   -4.477E-01
    -4.503E-01   -4.528E-01   -4.554E-01   -4.579E-01   -4.605E-01   -4.630E-01   -4.656E-01   -4.681E-01   -4.706E-01   -4.732E-01
    -4.757E-01   -4.783E-01   -4.808E-01   -4.834E-01   -4.859E-01   -4.884E-01   -4.910E-01   -4.935E-01   -4.961E-01   -4.986E-01
    -5.011E-01   -5.037E-01   -5.062E-01   -5.087E-01   -5.113E-01   -5.138E-01   -5.164E-01   -5.189E-01   -5.214E-01   -5.240E-01
    -5.265E-01   -5.290E-01   -5.315E-01   -5.341E-01   -5.366E-01   -5.391E-01   -5.417E-01   -5.442E-01   -5.467E-01   -5.493E-01
    -5.518E-01   -5.543E-01   -5.568E-01   -5.594E-01   -5.619E-01   -5.644E-01   -5.669E-01   -5.694E-01   -5.720E-01   -5.745E-01
    -5.770E-01   -5.795E-01   -5.821E-01   -5.846E-01   -5.871E-01   -5.896E-01   -5.921E-01   -5.946E-01   -5.972E-01   -5.997E-01
    -6.022E-01   -6.047E-01   -6.072E-01   -6.097E-01   -6.122E-01   -6.147E-01   -6.173E-01   -6.198E-01   -6.223E-01   -6.248E-01
    -6.273E-01   -6.298E-01   -6.323E-01   -6.348E-01   -6.373E-01   -6.398E-01   -6.423E-01   -6.448E-01   -6.473E-01   -6.498E-01
    -6.523E-01   -6.548E-01   -6.573E-01   -6.598E-01   -6.623E-01   -6.648E-01   -6.673E-01   -6.698E-01   -6.723E-01   -6.748E-01
    -6.773E-01   -6.798E-01   -6.823E-01   -6.848E-01   -6.873E-01   -6.898E-01   -6.922E-01   -6.947E-01   -6.972E-01   -6.997E-01
    -7.022E-01   -7.047E-01   -7.072E-01   -7.096E-01   -7.121E-01   -7.146E-01   -7.171E-01   -7.196E-01   -7.221E-01   -7.245E-01
    -7.270E-01   -7.295E-01   -7.320E-01   -7.344E-01   -7.369E-01   -7.394E-01   -7.419E-01   -7.443E-01   -7.468E-01   -7.493E-01
    -7.517E-01   -7.542E-01   -7.567E-01   -7.591E-01   -7.616E-01   -7.641E-01   -7.665E-01   -7.690E-01   -7.715E-01   -7.739E-01
    -7.764E-01   -7.789E-01   -7.813E-01   -7.838E-01   -7.862E-01   -7.887E-01   -7.911E-01   -7.936E-01   -7.960E-01   -7.985E-01
    -8.010E-01   -8.034E-01   -8.059E-01   -8.083E-01   -8.107E-01   -8.132E-01   -8.156E-01   -8.181E-01   -8.205E-01   -8.230E-01
    -8.254E-01   -8.279E-01   -8.303E-01   -8.327E-01   -8.352E-01   -8.376E-01   -8.401E-01   -8.425E-01   -8.449E-01   -8.474E-01
    -8.498E-01   -8.522E-01   -8.547E-01   -8.571E-01   -8.595E-01   -8.619E-01   -8.644E-01   -8.668E-01
 Ala      Conc. = 3.71E+02
