 LCModel (Version 6.3-1L) Copyright: S.W. Provencher.          Ref.: Magn. Reson. Med. 30:672-679 (1993).                
 Slice#3 Row#1 Col#8  PD_05_press_1_raw_act
 36 lines in following concentration table = NCONC+1
    Conc.  %SD /Cr+PCr  Metabolite                                         
   32.571 113%   0.527 Ala                                                 
    8.370 120%   0.135 Asp                                                 
    7.542 607%   0.122 Cr                                                  
   54.235  86%   0.878 PCr                                                 
    5.500 109% 8.9E-02 GABA                                                
    5.639 107% 9.1E-02 Glc                                                 
   27.206 260%   0.440 Gln                                                 
    0.000 999%   0.000 Glu                                                 
    0.000 999%   0.000 GPC                                                 
    8.970  76%   0.145 PCh                                                 
    6.181 415%   0.100 GSH                                                 
    0.000 999%   0.000 Ins                                                 
    0.000 999%   0.000 Lac                                                 
   98.092  23%   1.588 NAA                                                 
    0.000 999%   0.000 NAAG                                                
    1.841 107% 3.0E-02 Scyllo                                              
    9.973 100%   0.161 Tau                                                 
   42.520  46%   0.688 -CrCH2                                              
    8.970  76%   0.145 GPC+PCh                                             
   98.092  23%   1.588 NAA+NAAG                                            
   61.777  31%   1.000 Cr+PCr                                              
   27.206 260%   0.440 Glu+Gln                                             
  410.981  20%   6.653 Lip13a                                              
    0.000 999%   0.000 Lip13b                                              
   84.784  55%   1.372 Lip09                                               
   60.385  70%   0.977 MM09                                                
   85.178  43%   1.379 Lip20                                               
  140.221  50%   2.270 MM20                                                
   16.587 111%   0.269 MM12                                                
    0.000 999%   0.000 MM14                                                
    0.000 999%   0.000 MM17                                                
  410.981  20%   6.653 Lip13a+Lip13b                                       
  427.568  18%   6.921 MM14+Lip13a+Lip13b+MM12                             
  145.169  32%   2.350 MM09+Lip09                                          
  225.399  32%   3.649 MM20+Lip20                                          
   6 lines in following misc. output table
  FWHM = 0.046 ppm    S/N =   1                                            
  Data shift = 0.092 ppm                                                   
  Ph:  19 deg     -16.4 deg/ppm                                            
  alphaB,S = 8.5E+01,   1.4E+01                                            
   14 spline knots.   Ns = 5(1)                                            
   2 inflections.     1 extrema                                            
  498 points on ppm-axis = NY
      4.000000     3.992357     3.984714     3.977070     3.969427     3.961784     3.954141     3.946497     3.938854     3.931211
      3.923568     3.915925     3.908281     3.900638     3.892995     3.885352     3.877708     3.870065     3.862422     3.854779
      3.847136     3.839492     3.831849     3.824206     3.816563     3.808919     3.801276     3.793633     3.785990     3.778347
      3.770703     3.763060     3.755417     3.747774     3.740130     3.732487     3.724844     3.717201     3.709558     3.701914
      3.694271     3.686628     3.678985     3.671341     3.663698     3.656055     3.648412     3.640769     3.633125     3.625482
      3.617839     3.610196     3.602552     3.594909     3.587266     3.579623     3.571980     3.564336     3.556693     3.549050
      3.541407     3.533763     3.526120     3.518477     3.510834     3.503191     3.495547     3.487904     3.480261     3.472618
      3.464974     3.457331     3.449688     3.442045     3.434402     3.426758     3.419115     3.411472     3.403829     3.396185
      3.388542     3.380899     3.373256     3.365613     3.357969     3.350326     3.342683     3.335040     3.327396     3.319753
      3.312110     3.304467     3.296824     3.289180     3.281537     3.273894     3.266251     3.258607     3.250964     3.243321
      3.235678     3.228034     3.220391     3.212748     3.205105     3.197462     3.189818     3.182175     3.174532     3.166889
      3.159245     3.151602     3.143959     3.136316     3.128673     3.121029     3.113386     3.105743     3.098100     3.090456
      3.082813     3.075170     3.067527     3.059884     3.052240     3.044597     3.036954     3.029311     3.021667     3.014024
      3.006381     2.998738     2.991095     2.983451     2.975808     2.968165     2.960522     2.952878     2.945235     2.937592
      2.929949     2.922306     2.914662     2.907019     2.899376     2.891733     2.884089     2.876446     2.868803     2.861160
      2.853517     2.845873     2.838230     2.830587     2.822944     2.815300     2.807657     2.800014     2.792371     2.784728
      2.777084     2.769441     2.761798     2.754155     2.746511     2.738868     2.731225     2.723582     2.715939     2.708295
      2.700652     2.693009     2.685366     2.677722     2.670079     2.662436     2.654793     2.647150     2.639506     2.631863
      2.624220     2.616577     2.608933     2.601290     2.593647     2.586004     2.578361     2.570717     2.563074     2.555431
      2.547788     2.540144     2.532501     2.524858     2.517215     2.509572     2.501928     2.494285     2.486642     2.478999
      2.471355     2.463712     2.456069     2.448426     2.440783     2.433139     2.425496     2.417853     2.410210     2.402566
      2.394923     2.387280     2.379637     2.371994     2.364350     2.356707     2.349064     2.341421     2.333777     2.326134
      2.318491     2.310848     2.303205     2.295561     2.287918     2.280275     2.272632     2.264988     2.257345     2.249702
      2.242059     2.234416     2.226772     2.219129     2.211486     2.203843     2.196199     2.188556     2.180913     2.173270
      2.165627     2.157983     2.150340     2.142697     2.135054     2.127410     2.119767     2.112124     2.104481     2.096838
      2.089194     2.081551     2.073908     2.066265     2.058621     2.050978     2.043335     2.035692     2.028049     2.020405
      2.012762     2.005119     1.997476     1.989833     1.982190     1.974546     1.966903     1.959260     1.951617     1.943974
      1.936331     1.928688     1.921045     1.913402     1.905759     1.898115     1.890472     1.882829     1.875186     1.867543
      1.859900     1.852257     1.844614     1.836971     1.829327     1.821684     1.814041     1.806398     1.798755     1.791112
      1.783469     1.775826     1.768183     1.760540     1.752896     1.745253     1.737610     1.729967     1.722324     1.714681
      1.707038     1.699395     1.691752     1.684108     1.676465     1.668822     1.661179     1.653536     1.645893     1.638250
      1.630607     1.622964     1.615321     1.607677     1.600034     1.592391     1.584748     1.577105     1.569462     1.561819
      1.554176     1.546533     1.538890     1.531246     1.523603     1.515960     1.508317     1.500674     1.493031     1.485388
      1.477745     1.470102     1.462458     1.454815     1.447172     1.439529     1.431886     1.424243     1.416600     1.408957
      1.401314     1.393671     1.386027     1.378384     1.370741     1.363098     1.355455     1.347812     1.340169     1.332526
      1.324883     1.317240     1.309596     1.301953     1.294310     1.286667     1.279024     1.271381     1.263738     1.256095
      1.248452     1.240808     1.233165     1.225522     1.217879     1.210236     1.202593     1.194950     1.187307     1.179664
      1.172021     1.164377     1.156734     1.149091     1.141448     1.133805     1.126162     1.118519     1.110876     1.103233
      1.095590     1.087946     1.080303     1.072660     1.065017     1.057374     1.049731     1.042088     1.034445     1.026802
      1.019158     1.011515     1.003872     0.996229     0.988586     0.980943     0.973300     0.965657     0.958014     0.950371
      0.942727     0.935084     0.927441     0.919798     0.912155     0.904512     0.896869     0.889226     0.881583     0.873940
      0.866296     0.858653     0.851010     0.843367     0.835724     0.828081     0.820438     0.812795     0.805152     0.797508
      0.789865     0.782222     0.774579     0.766936     0.759293     0.751650     0.744007     0.736364     0.728721     0.721077
      0.713434     0.705791     0.698148     0.690505     0.682862     0.675219     0.667576     0.659933     0.652290     0.644646
      0.637003     0.629360     0.621717     0.614074     0.606431     0.598788     0.591145     0.583502     0.575858     0.568215
      0.560572     0.552929     0.545286     0.537643     0.530000     0.522357     0.514714     0.507071     0.499427     0.491784
      0.484141     0.476498     0.468855     0.461212     0.453569     0.445925     0.438282     0.430639     0.422996     0.415353
      0.407710     0.400067     0.392424     0.384780     0.377137     0.369494     0.361851     0.354208     0.346565     0.338922
      0.331278     0.323635     0.315992     0.308349     0.300706     0.293063     0.285420     0.277777     0.270133     0.262490
      0.254847     0.247204     0.239561     0.231918     0.224275     0.216631     0.208988     0.201345
 NY phased data points follow
  -6.18026E+00 -6.91644E+00 -4.87994E+00 -7.82783E+00 -6.59785E+00 -4.60478E+00 -2.11204E+00 -5.36922E+00 -3.90451E+00 -5.58916E+00
  -3.96678E+00 -4.41343E+00 -2.78874E+00 -6.55627E+00 -4.28031E+00 -2.44681E+00 -5.21379E+00 -6.00064E+00 -6.88751E+00 -7.38093E+00
  -6.80614E+00 -5.96566E+00 -6.21310E+00 -4.04116E+00 -3.65330E+00 -5.83607E+00 -5.08696E+00 -5.18012E+00 -4.13657E+00 -2.66431E+00
  -2.88768E+00 -4.82536E+00 -3.22910E+00 -2.54250E+00 -2.25455E+00 -4.25967E+00  1.02007E-01 -5.47734E+00 -3.84239E+00 -3.20727E+00
  -1.97137E+00 -2.35916E+00 -4.41915E+00 -4.73497E+00 -6.53032E+00 -4.07127E+00 -3.96904E+00 -3.76467E+00 -3.91448E+00 -2.33515E+00
  -2.90884E+00 -2.86311E+00 -4.66216E+00  4.36625E-01 -3.17502E+00 -3.49406E+00 -6.08841E+00 -2.87326E+00 -4.47877E+00 -7.12879E-01
  -4.54840E+00 -2.81705E+00 -3.37142E+00 -2.97169E+00 -3.53474E+00 -2.70193E+00 -2.73888E+00 -1.25186E+00 -5.83999E+00 -3.89870E+00
  -3.91631E+00 -4.46080E+00 -1.62957E+00 -2.53614E+00 -2.89730E+00 -1.96106E+00 -2.28241E+00 -2.42166E+00 -4.89909E+00 -2.18125E+00
  -2.35683E+00 -1.62305E+00 -4.06179E+00 -2.20735E+00 -3.80643E+00 -1.66510E+00 -3.97394E+00 -2.96197E+00 -3.09653E+00 -3.19058E+00
  -1.93795E+00 -3.78692E+00 -2.70551E+00 -3.66854E+00 -2.19373E+00 -2.75949E+00  3.75146E-01 -1.74382E+00 -3.09098E+00 -6.44963E-01
  -1.19138E+00 -4.97643E+00 -1.24721E+00 -2.68430E+00 -9.43487E-01 -2.44206E+00 -2.25202E-01 -3.05852E+00 -4.65789E+00 -2.86601E+00
  -1.60449E+00 -2.69242E+00 -2.17078E-01 -2.06688E+00 -3.98849E+00 -4.67405E+00 -4.21836E+00 -2.83855E+00 -2.63822E+00 -3.20374E+00
  -3.73150E+00 -4.98527E+00 -8.44524E-04 -2.51541E+00 -1.44609E+00 -8.07344E-01  1.63331E+00 -6.12916E-01 -3.84145E-01  2.24343E+00
   9.82905E-01 -1.62552E+00 -3.22736E+00 -2.72667E+00 -5.47326E+00 -1.72601E+00 -1.05103E+00 -6.57904E-01 -2.64135E+00  1.11652E-01
  -3.10479E+00  1.06085E+00 -3.90813E+00  5.46302E-01 -3.64109E+00 -3.09900E+00 -1.28307E+00 -4.22504E+00 -2.18690E+00 -3.08946E+00
   1.41516E+00 -3.13508E+00  3.20778E-01 -1.08979E+00 -1.44986E+00 -3.37238E+00 -2.92134E+00 -5.97847E-01 -5.09260E+00 -4.15478E+00
  -1.10016E+00 -8.93963E-01 -3.93779E+00 -1.87993E+00 -2.57134E+00 -3.97585E+00 -4.90761E+00 -1.88762E+00 -1.69820E+00 -5.12267E+00
  -4.24746E+00 -3.53246E+00 -2.21520E+00 -3.52339E+00 -3.15635E+00 -3.55656E+00  1.39455E-01 -6.53048E-03 -2.40286E+00 -2.83195E+00
  -2.96404E+00 -1.53859E+00 -3.02338E+00 -1.17856E+00 -6.60797E+00 -4.08034E+00 -5.76771E+00 -5.91904E+00 -8.60609E-01  1.15050E+00
  -1.63723E+00 -4.17133E+00 -5.63309E-01 -9.81482E-01  7.03256E-02 -1.76904E+00 -8.69796E-01 -4.44405E+00 -4.20405E-01 -7.23903E-01
  -1.49262E+00 -3.62658E+00 -1.98675E+00 -3.23304E+00 -1.71101E+00 -7.75124E-01 -7.72529E-01 -3.12867E+00 -2.10337E+00 -3.16376E+00
  -3.31204E+00 -3.86059E+00 -1.68335E+00 -3.40506E+00 -1.03273E+00 -2.84810E-01  9.83504E-02 -1.70470E+00  1.26024E-01 -6.50282E-01
  -3.12411E+00 -4.57057E-01 -2.38881E+00 -5.98772E-01  9.98466E-01 -3.15895E+00 -2.13399E+00 -3.85054E+00 -3.67354E+00  2.94069E-01
  -1.10505E+00 -1.26964E+00  5.45967E-01 -3.14559E+00 -1.59062E+00 -1.91295E+00 -3.65959E-01 -9.18256E-01 -4.21406E-01 -1.74675E+00
   7.38196E-01 -1.87690E+00  2.11351E-01 -1.23453E+00 -1.13479E+00  3.65131E+00 -1.99746E+00 -1.59185E+00 -5.17917E-01 -1.22529E-01
  -1.09751E+00 -8.42107E-01 -2.10480E-01 -2.24008E+00 -1.15989E+00 -6.62309E-01 -1.55324E+00 -7.85266E-02 -4.84381E-01  2.22899E+00
   1.79752E+00  2.87895E+00  2.23339E+00  6.54336E-01  1.29552E+00 -2.04580E+00  1.39048E+00 -1.56666E+00 -1.85520E+00 -2.38004E+00
  -1.57649E+00 -1.02285E-01 -1.83451E+00 -2.18754E+00 -7.03056E-01  9.67334E-01 -1.94117E+00 -1.98583E+00 -1.93580E+00 -5.00238E+00
  -1.45026E+00 -2.63556E+00 -1.10702E+00 -1.85988E+00 -2.95772E+00 -2.78619E-01 -9.71700E-01 -3.22477E+00 -1.88462E+00 -1.78486E+00
  -2.33468E+00 -3.15837E+00 -2.41163E+00 -3.19937E+00 -2.33724E+00 -4.47767E+00 -3.14222E+00 -2.18029E-01 -2.40606E+00 -1.63412E+00
  -9.96546E-01  7.86168E-01 -3.36615E+00  5.05969E-01 -3.84461E+00 -2.48502E+00 -5.17615E+00 -4.27793E+00 -4.25463E+00 -3.01827E+00
  -4.21978E+00 -1.60206E+00 -2.81225E+00 -3.80374E+00 -3.17159E+00 -3.21427E+00 -1.73020E+00 -1.07381E+00 -1.34108E+00 -2.34199E+00
  -2.40370E+00 -2.07761E-01 -2.97670E+00 -3.18984E-01 -2.00322E+00 -1.72627E+00 -1.16234E+00 -3.51796E+00 -4.91069E+00 -3.60330E+00
  -2.61104E+00 -2.48462E+00 -9.32661E-01 -3.00316E+00 -1.00778E+00  6.96070E-01 -2.18591E+00 -1.53423E+00 -3.45239E-01  1.32118E+00
  -5.91779E-01  3.09790E-02  2.21299E+00  1.26135E+00  2.58824E+00  1.65093E+00  2.12908E+00  9.53006E-01  4.11736E+00  2.13743E+00
   2.66506E+00  8.69585E-01  8.85380E-01  1.39758E+00  1.96540E+00  4.99604E-01 -4.83190E-01 -9.99455E-01 -1.08736E+00 -1.56616E+00
  -1.32475E+00 -3.45746E-01  3.90019E-01 -3.18474E+00  4.77830E-01  4.43866E-01 -1.28941E+00 -1.49229E+00 -1.76086E+00 -5.99865E-01
   1.42359E+00 -1.06703E+00 -7.10356E-01 -3.17736E+00 -1.03238E+00  1.75564E+00  1.92809E+00 -3.94789E+00 -1.05568E+00 -1.93004E-01
  -3.20898E+00 -1.38536E+00 -8.15805E-01 -3.33877E+00  2.74964E-01 -3.76003E+00  5.30363E-01 -8.16918E-01 -7.64085E-01 -1.92643E+00
  -1.65889E+00 -1.71377E+00 -2.09496E+00 -1.88418E+00  3.41021E-01 -2.99295E+00  7.70728E-01 -1.38095E+00  1.95860E-02  4.28487E-01
  -4.28282E+00 -1.65582E+00 -1.29290E+00  9.21290E-01 -1.84353E+00 -9.15340E-01  8.47753E-01  9.68057E-01  1.65169E+00 -3.65483E+00
  -8.11141E-01  8.68675E-03 -3.84522E-01  2.24234E+00  2.39650E+00 -3.62932E-01 -6.99470E-01 -9.14082E-01 -3.03356E+00 -1.71910E+00
  -4.16488E+00 -2.37811E+00 -2.04380E+00  1.88442E-01 -2.11897E+00 -2.57504E+00  4.48723E-01 -2.20130E+00  9.94769E-01 -1.85408E+00
  -1.23412E+00  1.02886E+00 -1.25159E+00 -3.91181E-01 -1.30173E+00 -3.70972E+00 -2.08765E-02 -2.01368E+00 -1.02936E+00 -1.40273E+00
  -1.59555E+00 -1.98042E+00 -9.38189E-01  8.77603E-01 -3.43448E+00 -2.67664E+00 -1.23306E+00 -3.52814E+00 -1.91782E+00 -2.31982E+00
  -6.88762E-01 -1.04748E+00 -8.78359E-01 -3.38355E+00  1.42326E-01  2.04511E-01 -4.61735E+00 -2.18429E-01 -1.15659E+00 -1.48259E+00
  -1.98285E+00 -1.02078E+00 -1.74803E+00 -2.05267E+00 -1.14150E+00 -6.90239E-01 -1.56596E-01 -2.25571E+00 -1.65419E+00  3.11357E-01
  -1.20898E+00  2.24934E+00 -1.65647E+00 -2.34545E+00 -2.91741E+00 -4.02477E+00 -1.64255E+00 -1.44274E+00 -3.12579E+00 -5.92102E-01
  -2.95298E+00 -3.21892E+00 -3.48438E-01  1.43170E+00  3.06363E+00 -1.47362E+00  1.74872E+00 -1.03341E+00 -8.05763E-01 -2.75001E+00
  -2.06946E-01 -2.98557E+00 -1.38197E+00 -1.16300E+00 -1.52145E+00 -3.03802E+00 -1.90306E+00 -8.50801E-01
 NY points of the fit to the data follow
  -3.54243E+00 -3.53587E+00 -3.52793E+00 -3.51895E+00 -3.49900E+00 -3.44531E+00 -3.35925E+00 -3.25418E+00 -3.15760E+00 -3.08547E+00
  -3.03751E+00 -3.03069E+00 -3.08303E+00 -3.16889E+00 -3.24875E+00 -3.31829E+00 -3.38239E+00 -3.43443E+00 -3.45717E+00 -3.45287E+00
  -3.42971E+00 -3.38608E+00 -3.32844E+00 -3.27942E+00 -3.26344E+00 -3.29055E+00 -3.33727E+00 -3.37511E+00 -3.39128E+00 -3.37895E+00
  -3.33036E+00 -3.25061E+00 -3.16839E+00 -3.12254E+00 -3.12677E+00 -3.16070E+00 -3.20380E+00 -3.24687E+00 -3.28302E+00 -3.30593E+00
  -3.31240E+00 -3.30831E+00 -3.30296E+00 -3.30125E+00 -3.30043E+00 -3.29648E+00 -3.28897E+00 -3.28086E+00 -3.27366E+00 -3.26591E+00
  -3.25704E+00 -3.24641E+00 -3.23464E+00 -3.22338E+00 -3.21362E+00 -3.20597E+00 -3.20145E+00 -3.19969E+00 -3.19867E+00 -3.19647E+00
  -3.19245E+00 -3.18658E+00 -3.17825E+00 -3.16730E+00 -3.15544E+00 -3.14376E+00 -3.13386E+00 -3.12725E+00 -3.12410E+00 -3.12413E+00
  -3.12569E+00 -3.12363E+00 -3.11187E+00 -3.08927E+00 -3.05955E+00 -3.03320E+00 -3.01936E+00 -3.01949E+00 -3.02990E+00 -3.04664E+00
  -3.06205E+00 -3.06657E+00 -3.05181E+00 -3.01546E+00 -2.96451E+00 -2.91367E+00 -2.87998E+00 -2.86751E+00 -2.86910E+00 -2.88240E+00
  -2.90937E+00 -2.94251E+00 -2.97007E+00 -2.98687E+00 -2.99375E+00 -2.98988E+00 -2.97279E+00 -2.94213E+00 -2.90078E+00 -2.81986E+00
  -2.64931E+00 -2.38900E+00 -2.10452E+00 -1.89809E+00 -1.81562E+00 -1.84018E+00 -1.97004E+00 -2.20892E+00 -2.48267E+00 -2.68150E+00
  -2.76975E+00 -2.78892E+00 -2.79042E+00 -2.78642E+00 -2.77835E+00 -2.76682E+00 -2.75377E+00 -2.74012E+00 -2.72536E+00 -2.70805E+00
  -2.68576E+00 -2.65583E+00 -2.56935E+00 -2.28762E+00 -1.75981E+00 -1.08511E+00 -5.00854E-01 -1.97846E-01 -1.79186E-01 -4.12746E-01
  -9.12718E-01 -1.57395E+00 -2.13161E+00 -2.43982E+00 -2.54741E+00 -2.58889E+00 -2.61439E+00 -2.62793E+00 -2.62708E+00 -2.61237E+00
  -2.58885E+00 -2.56299E+00 -2.53993E+00 -2.52279E+00 -2.51306E+00 -2.50954E+00 -2.50918E+00 -2.50918E+00 -2.50913E+00 -2.50986E+00
  -2.51137E+00 -2.51155E+00 -2.50916E+00 -2.50466E+00 -2.49888E+00 -2.49225E+00 -2.48616E+00 -2.48739E+00 -2.50190E+00 -2.52867E+00
  -2.55746E+00 -2.57095E+00 -2.56294E+00 -2.53953E+00 -2.50984E+00 -2.48309E+00 -2.46837E+00 -2.47253E+00 -2.49669E+00 -2.53075E+00
  -2.55847E+00 -2.57372E+00 -2.58458E+00 -2.60302E+00 -2.62589E+00 -2.64056E+00 -2.63589E+00 -2.61733E+00 -2.59950E+00 -2.58559E+00
  -2.56910E+00 -2.55023E+00 -2.53886E+00 -2.53967E+00 -2.54272E+00 -2.53236E+00 -2.50501E+00 -2.46284E+00 -2.41197E+00 -2.35698E+00
  -2.30034E+00 -2.25090E+00 -2.22378E+00 -2.22186E+00 -2.23570E+00 -2.25384E+00 -2.27048E+00 -2.28130E+00 -2.27850E+00 -2.25795E+00
  -2.21783E+00 -2.15852E+00 -2.08501E+00 -2.01600E+00 -1.97418E+00 -1.97416E+00 -2.02153E+00 -2.10911E+00 -2.21214E+00 -2.29829E+00
  -2.34279E+00 -2.34294E+00 -2.30638E+00 -2.23407E+00 -2.13873E+00 -2.04967E+00 -1.98202E+00 -1.92939E+00 -1.88585E+00 -1.85179E+00
  -1.82489E+00 -1.79704E+00 -1.76610E+00 -1.73674E+00 -1.71310E+00 -1.69658E+00 -1.68781E+00 -1.68805E+00 -1.69566E+00 -1.70335E+00
  -1.70185E+00 -1.68704E+00 -1.66538E+00 -1.64303E+00 -1.61709E+00 -1.58027E+00 -1.53001E+00 -1.47198E+00 -1.41052E+00 -1.34852E+00
  -1.29591E+00 -1.27106E+00 -1.27609E+00 -1.29451E+00 -1.31091E+00 -1.31716E+00 -1.30380E+00 -1.26371E+00 -1.20317E+00 -1.13402E+00
  -1.06597E+00 -1.00344E+00 -9.47806E-01 -8.96907E-01 -8.45639E-01 -7.77446E-01 -5.55165E-01  8.49480E-03  8.87935E-01  1.82134E+00
   2.42267E+00  2.51891E+00  2.19440E+00  1.49439E+00  4.48991E-01 -6.45388E-01 -1.39577E+00 -1.71225E+00 -1.77954E+00 -1.79684E+00
  -1.80687E+00 -1.81375E+00 -1.81773E+00 -1.81832E+00 -1.81634E+00 -1.81429E+00 -1.81434E+00 -1.81720E+00 -1.82212E+00 -1.82847E+00
  -1.83578E+00 -1.84250E+00 -1.84649E+00 -1.84669E+00 -1.84339E+00 -1.83749E+00 -1.82975E+00 -1.82081E+00 -1.81149E+00 -1.80265E+00
  -1.79463E+00 -1.78700E+00 -1.77929E+00 -1.77138E+00 -1.76311E+00 -1.75420E+00 -1.74456E+00 -1.73421E+00 -1.72320E+00 -1.71163E+00
  -1.69965E+00 -1.68736E+00 -1.67474E+00 -1.66176E+00 -1.64837E+00 -1.63456E+00 -1.62026E+00 -1.60543E+00 -1.59003E+00 -1.57400E+00
  -1.55728E+00 -1.53976E+00 -1.52132E+00 -1.50179E+00 -1.48101E+00 -1.45871E+00 -1.43457E+00 -1.40812E+00 -1.37872E+00 -1.34541E+00
  -1.30669E+00 -1.25993E+00 -1.19759E+00 -1.10504E+00 -1.00133E+00 -9.33680E-01 -9.49389E-01 -1.05550E+00 -1.20823E+00 -1.37063E+00
  -1.53014E+00 -1.62653E+00 -1.56771E+00 -1.33506E+00 -9.99655E-01 -6.67369E-01 -3.85494E-01 -1.55062E-01  7.87542E-03  8.07961E-02
   9.54783E-02  1.16963E-01  1.83505E-01  2.85879E-01  4.02067E-01  5.21705E-01  6.38666E-01  7.48112E-01  8.45801E-01  9.27936E-01
   9.91203E-01  1.03286E+00  1.05085E+00  1.04390E+00  1.01162E+00  9.54472E-01  8.73834E-01  7.71856E-01  6.51388E-01  5.15812E-01
   3.68881E-01  2.14531E-01  5.66919E-02 -1.00892E-01 -2.54804E-01 -4.02078E-01 -5.40259E-01 -6.67461E-01 -7.82360E-01 -8.84176E-01
  -9.72619E-01 -1.04781E+00 -1.11021E+00 -1.16051E+00 -1.19959E+00 -1.22840E+00 -1.24795E+00 -1.25919E+00 -1.26302E+00 -1.26027E+00
  -1.25163E+00 -1.23772E+00 -1.21904E+00 -1.19598E+00 -1.16886E+00 -1.13797E+00 -1.10352E+00 -1.06574E+00 -1.02487E+00 -9.81183E-01
  -9.34999E-01 -8.86739E-01 -8.36918E-01 -7.86161E-01 -7.35201E-01 -6.84880E-01 -6.36130E-01 -5.89963E-01 -5.47430E-01 -5.09586E-01
  -4.77439E-01 -4.51912E-01 -4.33790E-01 -4.23687E-01 -4.22000E-01 -4.28886E-01 -4.44241E-01 -4.67710E-01 -4.98696E-01 -5.36389E-01
  -5.79799E-01 -6.27806E-01 -6.79200E-01 -7.32753E-01 -7.87257E-01 -8.41578E-01 -8.94686E-01 -9.45689E-01 -9.93846E-01 -1.03859E+00
  -1.07952E+00 -1.11639E+00 -1.14909E+00 -1.17765E+00 -1.20217E+00 -1.22287E+00 -1.23999E+00 -1.25384E+00 -1.26472E+00 -1.27296E+00
  -1.27886E+00 -1.28272E+00 -1.28483E+00 -1.28542E+00 -1.28473E+00 -1.28294E+00 -1.28024E+00 -1.27678E+00 -1.27267E+00 -1.26803E+00
  -1.26295E+00 -1.25750E+00 -1.25175E+00 -1.24576E+00 -1.23956E+00 -1.23320E+00 -1.22670E+00 -1.22008E+00 -1.21338E+00 -1.20661E+00
  -1.19978E+00 -1.19291E+00 -1.18600E+00 -1.17906E+00 -1.17211E+00 -1.16515E+00 -1.15818E+00 -1.15121E+00 -1.14424E+00 -1.13727E+00
  -1.13031E+00 -1.12336E+00 -1.11643E+00 -1.10950E+00 -1.10259E+00 -1.09569E+00 -1.08881E+00 -1.08194E+00 -1.07509E+00 -1.06826E+00
  -1.06145E+00 -1.05465E+00 -1.04787E+00 -1.04111E+00 -1.03437E+00 -1.02764E+00 -1.02093E+00 -1.01424E+00 -1.00757E+00 -1.00091E+00
  -9.94270E-01 -9.87643E-01 -9.81030E-01 -9.74434E-01 -9.67851E-01 -9.61281E-01 -9.54722E-01 -9.48175E-01 -9.41639E-01 -9.35114E-01
  -9.28597E-01 -9.22087E-01 -9.15582E-01 -9.09083E-01 -9.02587E-01 -8.96094E-01 -8.89599E-01 -8.83099E-01
 NY background values follow
    -3.504E+00   -3.499E+00   -3.494E+00   -3.490E+00   -3.485E+00   -3.480E+00   -3.475E+00   -3.471E+00   -3.466E+00   -3.461E+00
    -3.456E+00   -3.451E+00   -3.447E+00   -3.442E+00   -3.437E+00   -3.432E+00   -3.427E+00   -3.422E+00   -3.418E+00   -3.413E+00
    -3.408E+00   -3.403E+00   -3.398E+00   -3.393E+00   -3.388E+00   -3.383E+00   -3.378E+00   -3.373E+00   -3.368E+00   -3.363E+00
    -3.358E+00   -3.353E+00   -3.348E+00   -3.344E+00   -3.339E+00   -3.334E+00   -3.328E+00   -3.323E+00   -3.318E+00   -3.313E+00
    -3.308E+00   -3.303E+00   -3.298E+00   -3.293E+00   -3.288E+00   -3.283E+00   -3.278E+00   -3.273E+00   -3.268E+00   -3.263E+00
    -3.257E+00   -3.252E+00   -3.247E+00   -3.242E+00   -3.237E+00   -3.232E+00   -3.227E+00   -3.221E+00   -3.216E+00   -3.211E+00
    -3.206E+00   -3.201E+00   -3.196E+00   -3.190E+00   -3.185E+00   -3.180E+00   -3.175E+00   -3.169E+00   -3.164E+00   -3.159E+00
    -3.154E+00   -3.148E+00   -3.143E+00   -3.138E+00   -3.133E+00   -3.127E+00   -3.122E+00   -3.117E+00   -3.111E+00   -3.106E+00
    -3.101E+00   -3.095E+00   -3.090E+00   -3.085E+00   -3.079E+00   -3.074E+00   -3.069E+00   -3.063E+00   -3.058E+00   -3.053E+00
    -3.047E+00   -3.042E+00   -3.036E+00   -3.031E+00   -3.026E+00   -3.020E+00   -3.015E+00   -3.009E+00   -3.004E+00   -2.998E+00
    -2.993E+00   -2.988E+00   -2.982E+00   -2.977E+00   -2.971E+00   -2.966E+00   -2.960E+00   -2.955E+00   -2.949E+00   -2.944E+00
    -2.938E+00   -2.933E+00   -2.927E+00   -2.922E+00   -2.916E+00   -2.911E+00   -2.905E+00   -2.900E+00   -2.894E+00   -2.889E+00
    -2.883E+00   -2.877E+00   -2.872E+00   -2.866E+00   -2.861E+00   -2.855E+00   -2.850E+00   -2.844E+00   -2.838E+00   -2.833E+00
    -2.827E+00   -2.822E+00   -2.816E+00   -2.810E+00   -2.805E+00   -2.799E+00   -2.794E+00   -2.788E+00   -2.782E+00   -2.777E+00
    -2.771E+00   -2.765E+00   -2.760E+00   -2.754E+00   -2.748E+00   -2.743E+00   -2.737E+00   -2.731E+00   -2.726E+00   -2.720E+00
    -2.714E+00   -2.709E+00   -2.703E+00   -2.697E+00   -2.692E+00   -2.686E+00   -2.680E+00   -2.674E+00   -2.669E+00   -2.663E+00
    -2.657E+00   -2.652E+00   -2.646E+00   -2.640E+00   -2.634E+00   -2.629E+00   -2.623E+00   -2.617E+00   -2.611E+00   -2.606E+00
    -2.600E+00   -2.594E+00   -2.588E+00   -2.582E+00   -2.577E+00   -2.571E+00   -2.565E+00   -2.559E+00   -2.554E+00   -2.548E+00
    -2.542E+00   -2.536E+00   -2.530E+00   -2.525E+00   -2.519E+00   -2.513E+00   -2.507E+00   -2.501E+00   -2.496E+00   -2.490E+00
    -2.484E+00   -2.478E+00   -2.472E+00   -2.466E+00   -2.461E+00   -2.455E+00   -2.449E+00   -2.443E+00   -2.437E+00   -2.431E+00
    -2.425E+00   -2.420E+00   -2.414E+00   -2.408E+00   -2.402E+00   -2.396E+00   -2.390E+00   -2.384E+00   -2.379E+00   -2.373E+00
    -2.367E+00   -2.361E+00   -2.355E+00   -2.349E+00   -2.343E+00   -2.337E+00   -2.332E+00   -2.326E+00   -2.320E+00   -2.314E+00
    -2.308E+00   -2.302E+00   -2.296E+00   -2.290E+00   -2.284E+00   -2.278E+00   -2.273E+00   -2.267E+00   -2.261E+00   -2.255E+00
    -2.249E+00   -2.243E+00   -2.237E+00   -2.231E+00   -2.225E+00   -2.219E+00   -2.213E+00   -2.207E+00   -2.202E+00   -2.196E+00
    -2.190E+00   -2.184E+00   -2.178E+00   -2.172E+00   -2.166E+00   -2.160E+00   -2.154E+00   -2.148E+00   -2.142E+00   -2.136E+00
    -2.130E+00   -2.124E+00   -2.118E+00   -2.113E+00   -2.107E+00   -2.101E+00   -2.095E+00   -2.089E+00   -2.083E+00   -2.077E+00
    -2.071E+00   -2.065E+00   -2.059E+00   -2.053E+00   -2.047E+00   -2.041E+00   -2.035E+00   -2.029E+00   -2.023E+00   -2.017E+00
    -2.011E+00   -2.006E+00   -2.000E+00   -1.994E+00   -1.988E+00   -1.982E+00   -1.976E+00   -1.970E+00   -1.964E+00   -1.958E+00
    -1.952E+00   -1.946E+00   -1.940E+00   -1.934E+00   -1.928E+00   -1.922E+00   -1.916E+00   -1.910E+00   -1.904E+00   -1.898E+00
    -1.892E+00   -1.887E+00   -1.881E+00   -1.875E+00   -1.869E+00   -1.863E+00   -1.857E+00   -1.851E+00   -1.845E+00   -1.839E+00
    -1.833E+00   -1.827E+00   -1.821E+00   -1.815E+00   -1.809E+00   -1.803E+00   -1.797E+00   -1.791E+00   -1.785E+00   -1.780E+00
    -1.774E+00   -1.768E+00   -1.762E+00   -1.756E+00   -1.750E+00   -1.744E+00   -1.738E+00   -1.732E+00   -1.726E+00   -1.720E+00
    -1.714E+00   -1.708E+00   -1.702E+00   -1.697E+00   -1.691E+00   -1.685E+00   -1.679E+00   -1.673E+00   -1.667E+00   -1.661E+00
    -1.655E+00   -1.649E+00   -1.643E+00   -1.637E+00   -1.632E+00   -1.626E+00   -1.620E+00   -1.614E+00   -1.608E+00   -1.602E+00
    -1.596E+00   -1.590E+00   -1.584E+00   -1.578E+00   -1.573E+00   -1.567E+00   -1.561E+00   -1.555E+00   -1.549E+00   -1.543E+00
    -1.537E+00   -1.531E+00   -1.526E+00   -1.520E+00   -1.514E+00   -1.508E+00   -1.502E+00   -1.496E+00   -1.490E+00   -1.485E+00
    -1.479E+00   -1.473E+00   -1.467E+00   -1.461E+00   -1.455E+00   -1.450E+00   -1.444E+00   -1.438E+00   -1.432E+00   -1.426E+00
    -1.420E+00   -1.415E+00   -1.409E+00   -1.403E+00   -1.397E+00   -1.391E+00   -1.386E+00   -1.380E+00   -1.374E+00   -1.368E+00
    -1.362E+00   -1.357E+00   -1.351E+00   -1.345E+00   -1.339E+00   -1.333E+00   -1.328E+00   -1.322E+00   -1.316E+00   -1.310E+00
    -1.305E+00   -1.299E+00   -1.293E+00   -1.287E+00   -1.282E+00   -1.276E+00   -1.270E+00   -1.264E+00   -1.259E+00   -1.253E+00
    -1.247E+00   -1.242E+00   -1.236E+00   -1.230E+00   -1.224E+00   -1.219E+00   -1.213E+00   -1.207E+00   -1.202E+00   -1.196E+00
    -1.190E+00   -1.185E+00   -1.179E+00   -1.173E+00   -1.168E+00   -1.162E+00   -1.156E+00   -1.151E+00   -1.145E+00   -1.139E+00
    -1.134E+00   -1.128E+00   -1.122E+00   -1.117E+00   -1.111E+00   -1.105E+00   -1.100E+00   -1.094E+00   -1.089E+00   -1.083E+00
    -1.077E+00   -1.072E+00   -1.066E+00   -1.061E+00   -1.055E+00   -1.050E+00   -1.044E+00   -1.038E+00   -1.033E+00   -1.027E+00
    -1.022E+00   -1.016E+00   -1.011E+00   -1.005E+00   -9.996E-01   -9.941E-01   -9.886E-01   -9.831E-01   -9.776E-01   -9.721E-01
    -9.666E-01   -9.611E-01   -9.556E-01   -9.501E-01   -9.446E-01   -9.391E-01   -9.337E-01   -9.282E-01   -9.228E-01   -9.173E-01
    -9.119E-01   -9.064E-01   -9.010E-01   -8.956E-01   -8.902E-01   -8.847E-01   -8.793E-01   -8.739E-01   -8.685E-01   -8.631E-01
    -8.577E-01   -8.524E-01   -8.470E-01   -8.416E-01   -8.362E-01   -8.309E-01   -8.255E-01   -8.202E-01   -8.149E-01   -8.095E-01
    -8.042E-01   -7.989E-01   -7.936E-01   -7.882E-01   -7.829E-01   -7.776E-01   -7.724E-01   -7.671E-01   -7.618E-01   -7.565E-01
    -7.512E-01   -7.460E-01   -7.407E-01   -7.355E-01   -7.302E-01   -7.250E-01   -7.198E-01   -7.146E-01
 Ala      Conc. = 3.26E+01
