 LCModel (Version 6.3-1L) Copyright: S.W. Provencher.          Ref.: Magn. Reson. Med. 30:672-679 (1993).                
 Slice#3 Row#3 Col#4  PD_05_press_1_raw_act
 36 lines in following concentration table = NCONC+1
    Conc.  %SD /Cr+PCr  Metabolite                                         
   48.820  89%   0.220 Ala                                                 
   28.171 171%   0.127 Asp                                                 
    0.000 999%   0.000 Cr                                                  
  221.490  12%   1.000 PCr                                                 
    3.690 807% 1.7E-02 GABA                                                
   15.657 190% 7.1E-02 Glc                                                 
  190.128  44%   0.858 Gln                                                 
  201.029  48%   0.908 Glu                                                 
   48.200  17%   0.218 GPC                                                 
    0.000 999%   0.000 PCh                                                 
   79.567  36%   0.359 GSH                                                 
    0.000 999%   0.000 Ins                                                 
  148.892  34%   0.672 Lac                                                 
  315.516   9%   1.425 NAA                                                 
    0.000 999%   0.000 NAAG                                                
   10.483  73% 4.7E-02 Scyllo                                              
   22.359 218%   0.101 Tau                                                 
   90.614  41%   0.409 -CrCH2                                              
   48.200  17%   0.218 GPC+PCh                                             
  315.516   9%   1.425 NAA+NAAG                                            
  221.490  12%   1.000 Cr+PCr                                              
  391.158  35%   1.766 Glu+Gln                                             
 1.44E+03  23%   6.511 Lip13a                                              
    0.000 999%   0.000 Lip13b                                              
  294.364  36%   1.329 Lip09                                               
    0.000 999%   0.000 MM09                                                
   20.276 493% 9.2E-02 Lip20                                               
    0.000 999%   0.000 MM20                                                
    0.000 999%   0.000 MM12                                                
 1.30E+03  16%   5.853+MM14                                                
  541.036  26%   2.443 MM17                                                
 1.44E+03  23%   6.511 Lip13a+Lip13b                                       
 2.74E+03  12%  12.363 MM14+Lip13a+Lip13b+MM12                             
  294.364  36%   1.329 MM09+Lip09                                          
   20.276 493% 9.2E-02 MM20+Lip20                                          
   6 lines in following misc. output table
  FWHM = 0.061 ppm    S/N =   4                                            
  Data shift =-0.015 ppm                                                   
  Ph: -51 deg     -42.1 deg/ppm                                            
  alphaB,S = 3.5E-01,   5.6E+00                                            
   14 spline knots.   Ns = 7(1)                                            
  (12)11 infls.   (14) 6 extrs.                                            
  498 points on ppm-axis = NY
      4.000000     3.992357     3.984714     3.977070     3.969427     3.961784     3.954141     3.946497     3.938854     3.931211
      3.923568     3.915925     3.908281     3.900638     3.892995     3.885352     3.877708     3.870065     3.862422     3.854779
      3.847136     3.839492     3.831849     3.824206     3.816563     3.808919     3.801276     3.793633     3.785990     3.778347
      3.770703     3.763060     3.755417     3.747774     3.740130     3.732487     3.724844     3.717201     3.709558     3.701914
      3.694271     3.686628     3.678985     3.671341     3.663698     3.656055     3.648412     3.640769     3.633125     3.625482
      3.617839     3.610196     3.602552     3.594909     3.587266     3.579623     3.571980     3.564336     3.556693     3.549050
      3.541407     3.533763     3.526120     3.518477     3.510834     3.503191     3.495547     3.487904     3.480261     3.472618
      3.464974     3.457331     3.449688     3.442045     3.434402     3.426758     3.419115     3.411472     3.403829     3.396185
      3.388542     3.380899     3.373256     3.365613     3.357969     3.350326     3.342683     3.335040     3.327396     3.319753
      3.312110     3.304467     3.296824     3.289180     3.281537     3.273894     3.266251     3.258607     3.250964     3.243321
      3.235678     3.228034     3.220391     3.212748     3.205105     3.197462     3.189818     3.182175     3.174532     3.166889
      3.159245     3.151602     3.143959     3.136316     3.128673     3.121029     3.113386     3.105743     3.098100     3.090456
      3.082813     3.075170     3.067527     3.059884     3.052240     3.044597     3.036954     3.029311     3.021667     3.014024
      3.006381     2.998738     2.991095     2.983451     2.975808     2.968165     2.960522     2.952878     2.945235     2.937592
      2.929949     2.922306     2.914662     2.907019     2.899376     2.891733     2.884089     2.876446     2.868803     2.861160
      2.853517     2.845873     2.838230     2.830587     2.822944     2.815300     2.807657     2.800014     2.792371     2.784728
      2.777084     2.769441     2.761798     2.754155     2.746511     2.738868     2.731225     2.723582     2.715939     2.708295
      2.700652     2.693009     2.685366     2.677722     2.670079     2.662436     2.654793     2.647150     2.639506     2.631863
      2.624220     2.616577     2.608933     2.601290     2.593647     2.586004     2.578361     2.570717     2.563074     2.555431
      2.547788     2.540144     2.532501     2.524858     2.517215     2.509572     2.501928     2.494285     2.486642     2.478999
      2.471355     2.463712     2.456069     2.448426     2.440783     2.433139     2.425496     2.417853     2.410210     2.402566
      2.394923     2.387280     2.379637     2.371994     2.364350     2.356707     2.349064     2.341421     2.333777     2.326134
      2.318491     2.310848     2.303205     2.295561     2.287918     2.280275     2.272632     2.264988     2.257345     2.249702
      2.242059     2.234416     2.226772     2.219129     2.211486     2.203843     2.196199     2.188556     2.180913     2.173270
      2.165627     2.157983     2.150340     2.142697     2.135054     2.127410     2.119767     2.112124     2.104481     2.096838
      2.089194     2.081551     2.073908     2.066265     2.058621     2.050978     2.043335     2.035692     2.028049     2.020405
      2.012762     2.005119     1.997476     1.989833     1.982190     1.974546     1.966903     1.959260     1.951617     1.943974
      1.936331     1.928688     1.921045     1.913402     1.905759     1.898115     1.890472     1.882829     1.875186     1.867543
      1.859900     1.852257     1.844614     1.836971     1.829327     1.821684     1.814041     1.806398     1.798755     1.791112
      1.783469     1.775826     1.768183     1.760540     1.752896     1.745253     1.737610     1.729967     1.722324     1.714681
      1.707038     1.699395     1.691752     1.684108     1.676465     1.668822     1.661179     1.653536     1.645893     1.638250
      1.630607     1.622964     1.615321     1.607677     1.600034     1.592391     1.584748     1.577105     1.569462     1.561819
      1.554176     1.546533     1.538890     1.531246     1.523603     1.515960     1.508317     1.500674     1.493031     1.485388
      1.477745     1.470102     1.462458     1.454815     1.447172     1.439529     1.431886     1.424243     1.416600     1.408957
      1.401314     1.393671     1.386027     1.378384     1.370741     1.363098     1.355455     1.347812     1.340169     1.332526
      1.324883     1.317240     1.309596     1.301953     1.294310     1.286667     1.279024     1.271381     1.263738     1.256095
      1.248452     1.240808     1.233165     1.225522     1.217879     1.210236     1.202593     1.194950     1.187307     1.179664
      1.172021     1.164377     1.156734     1.149091     1.141448     1.133805     1.126162     1.118519     1.110876     1.103233
      1.095590     1.087946     1.080303     1.072660     1.065017     1.057374     1.049731     1.042088     1.034445     1.026802
      1.019158     1.011515     1.003872     0.996229     0.988586     0.980943     0.973300     0.965657     0.958014     0.950371
      0.942727     0.935084     0.927441     0.919798     0.912155     0.904512     0.896869     0.889226     0.881583     0.873940
      0.866296     0.858653     0.851010     0.843367     0.835724     0.828081     0.820438     0.812795     0.805152     0.797508
      0.789865     0.782222     0.774579     0.766936     0.759293     0.751650     0.744007     0.736364     0.728721     0.721077
      0.713434     0.705791     0.698148     0.690505     0.682862     0.675219     0.667576     0.659933     0.652290     0.644646
      0.637003     0.629360     0.621717     0.614074     0.606431     0.598788     0.591145     0.583502     0.575858     0.568215
      0.560572     0.552929     0.545286     0.537643     0.530000     0.522357     0.514714     0.507071     0.499427     0.491784
      0.484141     0.476498     0.468855     0.461212     0.453569     0.445925     0.438282     0.430639     0.422996     0.415353
      0.407710     0.400067     0.392424     0.384780     0.377137     0.369494     0.361851     0.354208     0.346565     0.338922
      0.331278     0.323635     0.315992     0.308349     0.300706     0.293063     0.285420     0.277777     0.270133     0.262490
      0.254847     0.247204     0.239561     0.231918     0.224275     0.216631     0.208988     0.201345
 NY phased data points follow
  -3.44016E+01 -3.45506E+01 -3.05899E+01 -3.16663E+01 -3.00078E+01 -3.06191E+01 -2.81398E+01 -2.75760E+01 -2.65885E+01 -2.49866E+01
  -2.36823E+01 -2.33342E+01 -2.48745E+01 -2.47658E+01 -2.33100E+01 -2.69741E+01 -2.51611E+01 -2.49198E+01 -2.49739E+01 -2.50538E+01
  -2.48818E+01 -2.40134E+01 -2.09314E+01 -2.09161E+01 -2.22575E+01 -2.27977E+01 -2.17122E+01 -1.92617E+01 -1.81045E+01 -1.85135E+01
  -1.77346E+01 -1.79946E+01 -1.77741E+01 -1.71219E+01 -2.03217E+01 -1.38137E+01 -1.87434E+01 -1.64498E+01 -1.64952E+01 -1.75985E+01
  -1.39569E+01 -1.62254E+01 -1.52261E+01 -1.45455E+01 -1.20382E+01 -1.37467E+01 -1.18527E+01 -1.31472E+01 -1.34988E+01 -1.20296E+01
  -1.22167E+01 -1.37296E+01 -1.31166E+01 -1.13621E+01 -1.37079E+01 -1.19795E+01 -9.43298E+00 -1.09530E+01 -1.12208E+01 -1.21186E+01
  -9.89526E+00 -1.02831E+01 -9.26800E+00 -1.17608E+01 -9.56508E+00 -9.67984E+00 -6.82660E+00 -9.24314E+00 -9.94842E+00 -8.85169E+00
  -8.08796E+00 -8.24603E+00 -6.82739E+00 -8.20114E+00 -5.09738E+00 -5.86155E+00 -7.75081E+00 -8.22043E+00 -7.24498E+00 -4.47709E+00
  -6.12071E+00 -5.66056E+00 -4.41992E+00 -4.37733E+00 -4.44219E+00 -3.38599E+00 -1.79511E+00 -5.55707E+00 -2.43700E+00 -1.89398E+00
  -3.86624E+00 -1.54506E+00 -3.85943E-01 -1.36353E+00 -9.60390E-01 -2.58082E+00 -3.95427E-01 -2.78169E+00 -8.26121E-01  8.37885E-01
   2.56114E+00  4.79980E+00  4.20633E+00  4.36296E+00  2.26046E+00  4.91553E+00  4.90062E+00  1.70521E+00  3.68466E+00  2.62300E+00
   4.56721E-01  2.39244E+00  1.74230E+00  9.43696E-01 -2.37343E-01  2.48496E+00  1.93653E+00 -2.65439E-01  2.23238E+00  7.54068E-01
   8.46411E-01  3.47610E+00  2.48533E+00  4.82443E+00  6.69382E+00  9.60799E+00  9.20770E+00  1.12624E+01  1.11206E+01  1.18971E+01
   9.55250E+00  1.03185E+01  1.02767E+01  4.80013E+00  6.59083E+00  4.16242E+00  5.41131E+00  4.96386E+00  5.06010E+00  4.90095E+00
   4.45984E+00  5.90022E+00  6.50624E+00  6.26906E+00  7.42364E+00  5.77103E+00  5.05350E+00  7.64477E+00  4.64340E+00  8.41189E+00
   8.37524E+00  5.77470E+00  8.87672E+00  8.33141E+00  7.78151E+00  8.23412E+00  9.07653E+00  6.76158E+00  4.91661E+00  6.92422E+00
   8.03793E+00  6.74176E+00  6.05493E+00  6.71377E+00  7.53738E+00  8.27968E+00  7.27285E+00  7.43462E+00  7.36261E+00  8.67758E+00
   8.49684E+00  7.20711E+00  7.06875E+00  8.94900E+00  6.23231E+00  6.38878E+00  1.01631E+01  6.81658E+00  7.73415E+00  8.71576E+00
   8.36473E+00  6.99015E+00  1.04151E+01  8.93849E+00  1.13433E+01  8.88964E+00  1.06038E+01  1.06288E+01  1.23106E+01  9.35493E+00
   1.17987E+01  1.33099E+01  1.12009E+01  1.30929E+01  1.22056E+01  1.20874E+01  1.46178E+01  1.41864E+01  1.21379E+01  1.18359E+01
   1.22722E+01  1.45681E+01  1.51787E+01  1.50513E+01  1.38760E+01  1.45804E+01  1.42842E+01  1.41372E+01  1.23257E+01  1.29733E+01
   1.49081E+01  1.36534E+01  1.25330E+01  1.41997E+01  1.43917E+01  1.37980E+01  1.53674E+01  1.70728E+01  1.88591E+01  1.76889E+01
   1.64492E+01  1.62756E+01  1.40410E+01  1.63661E+01  1.69463E+01  1.67745E+01  1.75218E+01  1.65363E+01  1.80880E+01  2.03729E+01
   1.83126E+01  1.82030E+01  1.75015E+01  1.79188E+01  1.77469E+01  1.80851E+01  1.78443E+01  1.84811E+01  1.89412E+01  1.90960E+01
   1.90461E+01  1.78456E+01  1.76870E+01  1.95671E+01  2.02955E+01  1.95254E+01  1.97817E+01  2.04503E+01  2.10418E+01  2.18105E+01
   1.94652E+01  1.90239E+01  1.98135E+01  1.94958E+01  1.99281E+01  2.02722E+01  2.03232E+01  2.20747E+01  2.45052E+01  2.99775E+01
   2.87564E+01  3.55227E+01  3.34073E+01  3.48412E+01  3.27997E+01  3.42193E+01  3.05772E+01  3.02433E+01  2.62078E+01  3.05079E+01
   2.80332E+01  2.65797E+01  2.89291E+01  2.80483E+01  3.07598E+01  2.77703E+01  2.67777E+01  3.01449E+01  2.68758E+01  2.70882E+01
   2.56840E+01  2.63914E+01  2.61333E+01  2.61366E+01  2.66477E+01  2.65687E+01  2.68895E+01  2.47295E+01  2.65591E+01  2.47133E+01
   2.87322E+01  2.60809E+01  3.04227E+01  2.89025E+01  2.90194E+01  2.83992E+01  2.92359E+01  2.70628E+01  2.83191E+01  2.79707E+01
   2.78432E+01  2.78429E+01  2.85673E+01  2.92553E+01  3.01737E+01  3.20366E+01  2.91459E+01  3.06818E+01  3.08610E+01  2.74785E+01
   2.92076E+01  3.28486E+01  3.18692E+01  3.02413E+01  3.25633E+01  2.94743E+01  3.05226E+01  3.22472E+01  3.13719E+01  3.34184E+01
   3.27509E+01  3.30979E+01  3.28669E+01  3.51103E+01  3.32086E+01  3.09102E+01  3.20127E+01  3.46606E+01  3.48837E+01  3.43141E+01
   3.34643E+01  3.30617E+01  3.54403E+01  3.31889E+01  3.32971E+01  3.41372E+01  3.34805E+01  3.35550E+01  3.34172E+01  3.36040E+01
   3.39987E+01  3.53778E+01  3.28533E+01  3.23489E+01  3.45313E+01  3.41645E+01  3.35385E+01  3.13271E+01  3.35131E+01  2.92369E+01
   2.96304E+01  3.09012E+01  2.96901E+01  2.93482E+01  2.95460E+01  2.96728E+01  2.81198E+01  2.96272E+01  2.94933E+01  2.94911E+01
   2.60983E+01  2.60548E+01  2.81495E+01  2.84445E+01  2.67979E+01  2.56722E+01  2.36235E+01  2.44308E+01  2.34606E+01  2.25384E+01
   2.09901E+01  2.11062E+01  2.01139E+01  1.58775E+01  1.61235E+01  1.73025E+01  1.52870E+01  1.63406E+01  1.66298E+01  1.42613E+01
   1.50751E+01  1.51505E+01  1.33447E+01  1.31931E+01  1.52169E+01  1.44673E+01  1.54050E+01  1.47646E+01  1.46487E+01  1.38496E+01
   1.52138E+01  1.34334E+01  1.57767E+01  1.46083E+01  1.43686E+01  1.74850E+01  1.47998E+01  1.56887E+01  1.42554E+01  1.54621E+01
   1.61055E+01  1.60019E+01  1.52628E+01  1.57926E+01  1.46922E+01  1.56909E+01  1.58662E+01  1.46126E+01  1.43037E+01  1.74660E+01
   1.65482E+01  1.57795E+01  1.62244E+01  1.67426E+01  1.50077E+01  1.61999E+01  1.65494E+01  1.36812E+01  1.63174E+01  1.79364E+01
   1.60322E+01  1.44857E+01  1.65948E+01  1.36234E+01  1.38280E+01  1.44900E+01  1.52214E+01  1.53494E+01  1.53216E+01  1.45299E+01
   1.34619E+01  1.56329E+01  1.52100E+01  1.56483E+01  1.37550E+01  1.30580E+01  1.27370E+01  1.55092E+01  1.32004E+01  1.37476E+01
   1.28051E+01  1.48425E+01  1.36760E+01  1.35372E+01  1.35576E+01  1.14335E+01  1.49580E+01  1.22620E+01  1.28507E+01  1.21016E+01
   1.41818E+01  1.32242E+01  1.18809E+01  1.46112E+01  1.36206E+01  1.17446E+01  1.01250E+01  1.33762E+01  1.27530E+01  1.16693E+01
   1.26089E+01  1.24511E+01  1.09770E+01  1.34288E+01  1.35361E+01  1.05086E+01  1.34229E+01  1.26648E+01  1.16212E+01  1.14080E+01
   1.36819E+01  1.13888E+01  1.11335E+01  1.21600E+01  1.24213E+01  1.12844E+01  1.04043E+01  1.14716E+01  9.66678E+00  1.11773E+01
   1.28825E+01  1.19843E+01  1.02449E+01  1.14442E+01  1.04628E+01  9.37286E+00  1.04394E+01  1.25773E+01  1.00453E+01  9.14254E+00
   1.13025E+01  1.05523E+01  1.03561E+01  8.99228E+00  1.16935E+01  1.06451E+01  9.79384E+00  1.01942E+01
 NY points of the fit to the data follow
  -3.19159E+01 -3.18590E+01 -3.16630E+01 -3.09408E+01 -3.03714E+01 -2.92582E+01 -2.76923E+01 -2.66490E+01 -2.58785E+01 -2.50380E+01
  -2.46718E+01 -2.43381E+01 -2.42183E+01 -2.40752E+01 -2.41949E+01 -2.44723E+01 -2.42955E+01 -2.45868E+01 -2.44060E+01 -2.39677E+01
  -2.35240E+01 -2.30770E+01 -2.27538E+01 -2.25830E+01 -2.22468E+01 -2.21667E+01 -2.18363E+01 -2.10019E+01 -2.02295E+01 -1.94575E+01
  -1.84200E+01 -1.77323E+01 -1.71466E+01 -1.68394E+01 -1.66653E+01 -1.66478E+01 -1.68742E+01 -1.66649E+01 -1.68982E+01 -1.68415E+01
  -1.65548E+01 -1.63323E+01 -1.59664E+01 -1.55574E+01 -1.51015E+01 -1.47452E+01 -1.43620E+01 -1.40045E+01 -1.37398E+01 -1.34560E+01
  -1.31625E+01 -1.28987E+01 -1.26115E+01 -1.23141E+01 -1.20428E+01 -1.17914E+01 -1.15181E+01 -1.12649E+01 -1.10244E+01 -1.07719E+01
  -1.05163E+01 -1.02426E+01 -9.97773E+00 -9.69385E+00 -9.40745E+00 -9.13649E+00 -8.85963E+00 -8.59077E+00 -8.35682E+00 -8.10868E+00
  -7.84392E+00 -7.58380E+00 -7.29849E+00 -6.98978E+00 -6.69963E+00 -6.45027E+00 -6.18666E+00 -5.95756E+00 -5.75367E+00 -5.60255E+00
  -5.38872E+00 -5.13163E+00 -4.87526E+00 -4.47440E+00 -4.03120E+00 -3.68383E+00 -3.34533E+00 -3.03265E+00 -2.80923E+00 -2.60472E+00
  -2.46222E+00 -2.35369E+00 -2.32968E+00 -2.27423E+00 -2.32984E+00 -2.81246E+00 -2.63933E+00 -2.13391E+00 -1.56468E+00 -9.63075E-03
   1.78904E+00  2.79487E+00  3.72208E+00  4.34329E+00  4.47285E+00  4.42138E+00  4.11858E+00  3.81016E+00  2.93004E+00  2.44560E+00
   1.95602E+00  1.30563E+00  1.26898E+00  1.38287E+00  1.51219E+00  1.66521E+00  1.80477E+00  1.91229E+00  1.90302E+00  1.31167E+00
   1.00068E+00  1.70607E+00  2.22216E+00  4.03762E+00  6.80012E+00  8.52559E+00  9.63732E+00  1.07584E+01  1.09708E+01  1.09689E+01
   1.05544E+01  1.01202E+01  8.90382E+00  7.49552E+00  6.79462E+00  5.26115E+00  4.80611E+00  4.76497E+00  4.85042E+00  4.99286E+00
   5.14654E+00  5.35533E+00  5.53103E+00  5.75196E+00  5.99003E+00  6.13261E+00  6.28708E+00  6.36332E+00  6.41261E+00  6.46690E+00
   6.50083E+00  6.57094E+00  6.64398E+00  6.74474E+00  6.86927E+00  7.01284E+00  7.12433E+00  7.22791E+00  7.29003E+00  7.29028E+00
   7.34835E+00  7.44134E+00  7.54608E+00  7.73502E+00  7.88549E+00  8.00413E+00  8.14433E+00  8.25048E+00  8.40170E+00  8.50231E+00
   8.65620E+00  8.72030E+00  8.71725E+00  8.76370E+00  8.73147E+00  8.78767E+00  8.90232E+00  9.02038E+00  9.14808E+00  9.23768E+00
   9.35753E+00  9.53738E+00  9.59726E+00  9.71502E+00  9.79288E+00  9.85730E+00  1.00721E+01  1.03718E+01  1.07279E+01  1.11272E+01
   1.15056E+01  1.17611E+01  1.19227E+01  1.20022E+01  1.19861E+01  1.19073E+01  1.19392E+01  1.19607E+01  1.20233E+01  1.23309E+01
   1.27534E+01  1.32211E+01  1.38690E+01  1.45740E+01  1.48236E+01  1.49202E+01  1.48774E+01  1.44062E+01  1.38259E+01  1.35176E+01
   1.33569E+01  1.33060E+01  1.36155E+01  1.42387E+01  1.49480E+01  1.55659E+01  1.62993E+01  1.65643E+01  1.66695E+01  1.66242E+01
   1.62375E+01  1.59814E+01  1.58383E+01  1.59079E+01  1.60874E+01  1.63939E+01  1.68050E+01  1.72557E+01  1.76824E+01  1.80458E+01
   1.82528E+01  1.84699E+01  1.86628E+01  1.86247E+01  1.87005E+01  1.89900E+01  1.92939E+01  1.95395E+01  1.98488E+01  2.00986E+01
   2.01682E+01  2.01178E+01  2.02717E+01  2.02282E+01  2.02822E+01  2.04036E+01  2.04750E+01  2.05707E+01  2.07362E+01  2.10820E+01
   2.13104E+01  2.16980E+01  2.20044E+01  2.18790E+01  2.08786E+01  2.12587E+01  2.20446E+01  2.32009E+01  2.65005E+01  2.99767E+01
   3.16981E+01  3.33847E+01  3.42056E+01  3.41016E+01  3.36110E+01  3.26296E+01  3.16117E+01  2.93176E+01  2.81418E+01  2.66238E+01
   2.51043E+01  2.48742E+01  2.49319E+01  2.50229E+01  2.51761E+01  2.53140E+01  2.54516E+01  2.55819E+01  2.57074E+01  2.58182E+01
   2.59242E+01  2.60258E+01  2.61202E+01  2.62145E+01  2.63173E+01  2.64242E+01  2.65361E+01  2.66569E+01  2.67787E+01  2.69086E+01
   2.70429E+01  2.71817E+01  2.73268E+01  2.74798E+01  2.76408E+01  2.78101E+01  2.79867E+01  2.81713E+01  2.83616E+01  2.85554E+01
   2.87524E+01  2.89489E+01  2.91424E+01  2.93303E+01  2.95100E+01  2.96790E+01  2.98356E+01  2.99787E+01  3.01082E+01  3.02246E+01
   3.03301E+01  3.04276E+01  3.05207E+01  3.06145E+01  3.07139E+01  3.08241E+01  3.09502E+01  3.10957E+01  3.12617E+01  3.14412E+01
   3.16408E+01  3.19940E+01  3.23771E+01  3.27783E+01  3.32654E+01  3.36367E+01  3.38257E+01  3.39916E+01  3.39638E+01  3.38531E+01
   3.37628E+01  3.35786E+01  3.35066E+01  3.35081E+01  3.35538E+01  3.35381E+01  3.35246E+01  3.35058E+01  3.34094E+01  3.31962E+01
   3.29290E+01  3.28995E+01  3.30249E+01  3.31249E+01  3.34470E+01  3.36298E+01  3.32993E+01  3.28870E+01  3.20707E+01  3.11844E+01
   3.04344E+01  2.95973E+01  2.93310E+01  2.93235E+01  2.93831E+01  2.95914E+01  2.96236E+01  2.97909E+01  2.97496E+01  2.94233E+01
   2.90162E+01  2.81370E+01  2.72985E+01  2.63362E+01  2.51725E+01  2.41916E+01  2.33141E+01  2.25035E+01  2.17525E+01  2.10604E+01
   2.04276E+01  1.98540E+01  1.93382E+01  1.88778E+01  1.84693E+01  1.81087E+01  1.77912E+01  1.75122E+01  1.72671E+01  1.70512E+01
   1.68607E+01  1.66917E+01  1.65413E+01  1.64068E+01  1.62860E+01  1.61771E+01  1.60790E+01  1.59906E+01  1.59114E+01  1.58408E+01
   1.57788E+01  1.57253E+01  1.56804E+01  1.56442E+01  1.56171E+01  1.55991E+01  1.55904E+01  1.55909E+01  1.56006E+01  1.56191E+01
   1.56457E+01  1.56795E+01  1.57193E+01  1.57636E+01  1.58105E+01  1.58579E+01  1.59035E+01  1.59447E+01  1.59790E+01  1.60039E+01
   1.60169E+01  1.60160E+01  1.59995E+01  1.59662E+01  1.59154E+01  1.58472E+01  1.57622E+01  1.56613E+01  1.55464E+01  1.54194E+01
   1.52828E+01  1.51390E+01  1.49908E+01  1.48406E+01  1.46910E+01  1.45439E+01  1.44014E+01  1.42648E+01  1.41354E+01  1.40139E+01
   1.39007E+01  1.37961E+01  1.36999E+01  1.36117E+01  1.35311E+01  1.34575E+01  1.33903E+01  1.33287E+01  1.32721E+01  1.32198E+01
   1.31711E+01  1.31253E+01  1.30821E+01  1.30408E+01  1.30010E+01  1.29624E+01  1.29245E+01  1.28869E+01  1.28496E+01  1.28121E+01
   1.27744E+01  1.27360E+01  1.26970E+01  1.26570E+01  1.26162E+01  1.25744E+01  1.25317E+01  1.24880E+01  1.24434E+01  1.23978E+01
   1.23513E+01  1.23039E+01  1.22557E+01  1.22065E+01  1.21566E+01  1.21058E+01  1.20542E+01  1.20019E+01  1.19489E+01  1.18951E+01
   1.18408E+01  1.17858E+01  1.17302E+01  1.16741E+01  1.16175E+01  1.15604E+01  1.15028E+01  1.14449E+01  1.13866E+01  1.13280E+01
   1.12692E+01  1.12101E+01  1.11508E+01  1.10913E+01  1.10317E+01  1.09721E+01  1.09124E+01  1.08527E+01  1.07931E+01  1.07336E+01
   1.06742E+01  1.06149E+01  1.05559E+01  1.04972E+01  1.04388E+01  1.03807E+01  1.03230E+01  1.02657E+01
 NY background values follow
    -3.176E+01   -3.138E+01   -3.099E+01   -3.061E+01   -3.022E+01   -2.984E+01   -2.946E+01   -2.907E+01   -2.869E+01   -2.830E+01
    -2.792E+01   -2.754E+01   -2.716E+01   -2.678E+01   -2.640E+01   -2.602E+01   -2.564E+01   -2.526E+01   -2.488E+01   -2.451E+01
    -2.413E+01   -2.376E+01   -2.339E+01   -2.302E+01   -2.265E+01   -2.228E+01   -2.191E+01   -2.154E+01   -2.118E+01   -2.082E+01
    -2.046E+01   -2.010E+01   -1.974E+01   -1.939E+01   -1.903E+01   -1.868E+01   -1.833E+01   -1.798E+01   -1.764E+01   -1.730E+01
    -1.695E+01   -1.662E+01   -1.628E+01   -1.595E+01   -1.562E+01   -1.529E+01   -1.496E+01   -1.464E+01   -1.432E+01   -1.400E+01
    -1.369E+01   -1.337E+01   -1.306E+01   -1.276E+01   -1.245E+01   -1.215E+01   -1.185E+01   -1.156E+01   -1.126E+01   -1.097E+01
    -1.068E+01   -1.039E+01   -1.011E+01   -9.830E+00   -9.551E+00   -9.275E+00   -9.002E+00   -8.731E+00   -8.462E+00   -8.196E+00
    -7.933E+00   -7.672E+00   -7.413E+00   -7.157E+00   -6.904E+00   -6.652E+00   -6.404E+00   -6.158E+00   -5.914E+00   -5.673E+00
    -5.434E+00   -5.197E+00   -4.963E+00   -4.732E+00   -4.503E+00   -4.276E+00   -4.052E+00   -3.830E+00   -3.610E+00   -3.393E+00
    -3.178E+00   -2.965E+00   -2.755E+00   -2.547E+00   -2.342E+00   -2.138E+00   -1.937E+00   -1.739E+00   -1.542E+00   -1.347E+00
    -1.155E+00   -9.647E-01   -7.765E-01   -5.903E-01   -4.062E-01   -2.241E-01   -4.400E-02    1.342E-01    3.104E-01    4.848E-01
     6.572E-01    8.279E-01    9.967E-01    1.164E+00    1.329E+00    1.492E+00    1.654E+00    1.814E+00    1.973E+00    2.129E+00
     2.284E+00    2.438E+00    2.590E+00    2.740E+00    2.889E+00    3.037E+00    3.183E+00    3.327E+00    3.470E+00    3.612E+00
     3.752E+00    3.891E+00    4.029E+00    4.166E+00    4.301E+00    4.435E+00    4.568E+00    4.699E+00    4.830E+00    4.959E+00
     5.087E+00    5.215E+00    5.341E+00    5.467E+00    5.591E+00    5.715E+00    5.838E+00    5.961E+00    6.083E+00    6.204E+00
     6.325E+00    6.445E+00    6.564E+00    6.684E+00    6.803E+00    6.921E+00    7.040E+00    7.158E+00    7.276E+00    7.393E+00
     7.511E+00    7.629E+00    7.746E+00    7.864E+00    7.982E+00    8.100E+00    8.218E+00    8.336E+00    8.455E+00    8.574E+00
     8.694E+00    8.814E+00    8.934E+00    9.055E+00    9.176E+00    9.298E+00    9.421E+00    9.545E+00    9.669E+00    9.794E+00
     9.920E+00    1.005E+01    1.017E+01    1.030E+01    1.043E+01    1.056E+01    1.069E+01    1.083E+01    1.096E+01    1.110E+01
     1.123E+01    1.137E+01    1.151E+01    1.164E+01    1.178E+01    1.192E+01    1.207E+01    1.221E+01    1.235E+01    1.250E+01
     1.264E+01    1.279E+01    1.294E+01    1.309E+01    1.324E+01    1.339E+01    1.354E+01    1.370E+01    1.385E+01    1.401E+01
     1.416E+01    1.432E+01    1.448E+01    1.464E+01    1.480E+01    1.497E+01    1.513E+01    1.530E+01    1.546E+01    1.563E+01
     1.580E+01    1.597E+01    1.614E+01    1.631E+01    1.649E+01    1.666E+01    1.684E+01    1.701E+01    1.719E+01    1.737E+01
     1.755E+01    1.774E+01    1.792E+01    1.810E+01    1.828E+01    1.847E+01    1.865E+01    1.883E+01    1.902E+01    1.920E+01
     1.938E+01    1.957E+01    1.975E+01    1.993E+01    2.011E+01    2.029E+01    2.047E+01    2.065E+01    2.083E+01    2.100E+01
     2.118E+01    2.135E+01    2.152E+01    2.169E+01    2.186E+01    2.203E+01    2.219E+01    2.235E+01    2.251E+01    2.267E+01
     2.282E+01    2.297E+01    2.312E+01    2.327E+01    2.341E+01    2.355E+01    2.369E+01    2.382E+01    2.395E+01    2.407E+01
     2.420E+01    2.432E+01    2.443E+01    2.454E+01    2.465E+01    2.475E+01    2.485E+01    2.494E+01    2.503E+01    2.512E+01
     2.520E+01    2.528E+01    2.535E+01    2.542E+01    2.549E+01    2.555E+01    2.561E+01    2.566E+01    2.571E+01    2.576E+01
     2.580E+01    2.583E+01    2.586E+01    2.589E+01    2.592E+01    2.593E+01    2.595E+01    2.596E+01    2.596E+01    2.597E+01
     2.596E+01    2.596E+01    2.594E+01    2.593E+01    2.591E+01    2.588E+01    2.585E+01    2.582E+01    2.578E+01    2.573E+01
     2.568E+01    2.563E+01    2.557E+01    2.551E+01    2.544E+01    2.537E+01    2.530E+01    2.522E+01    2.513E+01    2.504E+01
     2.494E+01    2.485E+01    2.474E+01    2.464E+01    2.453E+01    2.441E+01    2.429E+01    2.417E+01    2.405E+01    2.392E+01
     2.379E+01    2.366E+01    2.352E+01    2.339E+01    2.325E+01    2.310E+01    2.296E+01    2.281E+01    2.266E+01    2.251E+01
     2.236E+01    2.221E+01    2.206E+01    2.190E+01    2.175E+01    2.159E+01    2.143E+01    2.127E+01    2.112E+01    2.096E+01
     2.080E+01    2.064E+01    2.048E+01    2.033E+01    2.017E+01    2.001E+01    1.986E+01    1.970E+01    1.955E+01    1.940E+01
     1.925E+01    1.910E+01    1.895E+01    1.880E+01    1.866E+01    1.852E+01    1.838E+01    1.824E+01    1.810E+01    1.797E+01
     1.783E+01    1.770E+01    1.757E+01    1.744E+01    1.732E+01    1.719E+01    1.707E+01    1.695E+01    1.683E+01    1.672E+01
     1.660E+01    1.649E+01    1.638E+01    1.627E+01    1.617E+01    1.606E+01    1.596E+01    1.586E+01    1.576E+01    1.567E+01
     1.557E+01    1.548E+01    1.539E+01    1.531E+01    1.522E+01    1.514E+01    1.506E+01    1.498E+01    1.490E+01    1.483E+01
     1.476E+01    1.469E+01    1.462E+01    1.455E+01    1.449E+01    1.443E+01    1.437E+01    1.432E+01    1.426E+01    1.421E+01
     1.416E+01    1.412E+01    1.407E+01    1.403E+01    1.399E+01    1.395E+01    1.391E+01    1.387E+01    1.384E+01    1.380E+01
     1.377E+01    1.374E+01    1.371E+01    1.368E+01    1.365E+01    1.363E+01    1.360E+01    1.358E+01    1.355E+01    1.353E+01
     1.350E+01    1.348E+01    1.346E+01    1.343E+01    1.341E+01    1.339E+01    1.336E+01    1.334E+01    1.332E+01    1.329E+01
     1.327E+01    1.325E+01    1.322E+01    1.320E+01    1.317E+01    1.314E+01    1.311E+01    1.308E+01    1.305E+01    1.302E+01
     1.299E+01    1.296E+01    1.292E+01    1.289E+01    1.285E+01    1.281E+01    1.277E+01    1.273E+01    1.268E+01    1.264E+01
     1.259E+01    1.255E+01    1.250E+01    1.245E+01    1.240E+01    1.235E+01    1.230E+01    1.225E+01    1.219E+01    1.214E+01
     1.208E+01    1.203E+01    1.197E+01    1.192E+01    1.186E+01    1.180E+01    1.174E+01    1.169E+01    1.163E+01    1.157E+01
     1.151E+01    1.145E+01    1.139E+01    1.133E+01    1.127E+01    1.121E+01    1.115E+01    1.108E+01    1.102E+01    1.096E+01
     1.090E+01    1.084E+01    1.078E+01    1.072E+01    1.066E+01    1.060E+01    1.054E+01    1.049E+01
 Ala      Conc. = 4.88E+01
