 LCModel (Version 6.3-1L) Copyright: S.W. Provencher.          Ref.: Magn. Reson. Med. 30:672-679 (1993).                
 Slice#3 Row#1 Col#4  PD_05_press_1_raw_act
 36 lines in following concentration table = NCONC+1
    Conc.  %SD /Cr+PCr  Metabolite                                         
  197.018  34%   1.976 Ala                                                 
   11.525 124%   0.116 Asp                                                 
    0.000 999%   0.000 Cr                                                  
   99.698  19%   1.000 PCr                                                 
    8.488 101% 8.5E-02 GABA                                                
    6.615 130% 6.6E-02 Glc                                                 
  364.246  40%   3.653 Gln                                                 
  691.731  25%   6.938 Glu                                                 
   12.953  56%   0.130 GPC                                                 
    0.000 999%   0.000 PCh                                                 
    0.000 999%   0.000 GSH                                                 
  223.867  41%   2.245 Ins                                                 
    0.000 999%   0.000 Lac                                                 
  113.439  19%   1.138 NAA                                                 
    0.000 999%   0.000 NAAG                                                
    1.622 173% 1.6E-02 Scyllo                                              
    9.313 152% 9.3E-02 Tau                                                 
    0.000 999%   0.000 -CrCH2                                              
   12.953  56%   0.130 GPC+PCh                                             
  113.439  19%   1.138 NAA+NAAG                                            
   99.698  19%   1.000 Cr+PCr                                              
 1.06E+03  26%  10.592 Glu+Gln                                             
  652.503  43%   6.545 Lip13a                                              
  218.511 101%   2.192 Lip13b                                              
    0.000 999%   0.000 Lip09                                               
   26.258 156%   0.263 MM09                                                
   75.591  77%   0.758 Lip20                                               
   39.348 156%   0.395 MM20                                                
    7.881 156% 7.9E-02 MM12                                                
   19.780 156%   0.198 MM14                                                
   10.012 154%   0.100 MM17                                                
  871.014  14%   8.737 Lip13a+Lip13b                                       
  898.675  13%   9.014 MM14+Lip13a+Lip13b+MM12                             
   26.258 156%   0.263 MM09+Lip09                                          
  114.939  65%   1.153 MM20+Lip20                                          
   6 lines in following misc. output table
  FWHM = 0.099 ppm    S/N =   2                                            
  Data shift =-0.008 ppm                                                   
  Ph: -68 deg     -38.4 deg/ppm                                            
  alphaB,S = 1.2E+00,   2.0E+01                                            
   14 spline knots.   Ns = 8(1)                                            
  (13) 5 infls.   (11) 3 extrs.                                            
  498 points on ppm-axis = NY
      4.000000     3.992357     3.984714     3.977070     3.969427     3.961784     3.954141     3.946497     3.938854     3.931211
      3.923568     3.915925     3.908281     3.900638     3.892995     3.885352     3.877708     3.870065     3.862422     3.854779
      3.847136     3.839492     3.831849     3.824206     3.816563     3.808919     3.801276     3.793633     3.785990     3.778347
      3.770703     3.763060     3.755417     3.747774     3.740130     3.732487     3.724844     3.717201     3.709558     3.701914
      3.694271     3.686628     3.678985     3.671341     3.663698     3.656055     3.648412     3.640769     3.633125     3.625482
      3.617839     3.610196     3.602552     3.594909     3.587266     3.579623     3.571980     3.564336     3.556693     3.549050
      3.541407     3.533763     3.526120     3.518477     3.510834     3.503191     3.495547     3.487904     3.480261     3.472618
      3.464974     3.457331     3.449688     3.442045     3.434402     3.426758     3.419115     3.411472     3.403829     3.396185
      3.388542     3.380899     3.373256     3.365613     3.357969     3.350326     3.342683     3.335040     3.327396     3.319753
      3.312110     3.304467     3.296824     3.289180     3.281537     3.273894     3.266251     3.258607     3.250964     3.243321
      3.235678     3.228034     3.220391     3.212748     3.205105     3.197462     3.189818     3.182175     3.174532     3.166889
      3.159245     3.151602     3.143959     3.136316     3.128673     3.121029     3.113386     3.105743     3.098100     3.090456
      3.082813     3.075170     3.067527     3.059884     3.052240     3.044597     3.036954     3.029311     3.021667     3.014024
      3.006381     2.998738     2.991095     2.983451     2.975808     2.968165     2.960522     2.952878     2.945235     2.937592
      2.929949     2.922306     2.914662     2.907019     2.899376     2.891733     2.884089     2.876446     2.868803     2.861160
      2.853517     2.845873     2.838230     2.830587     2.822944     2.815300     2.807657     2.800014     2.792371     2.784728
      2.777084     2.769441     2.761798     2.754155     2.746511     2.738868     2.731225     2.723582     2.715939     2.708295
      2.700652     2.693009     2.685366     2.677722     2.670079     2.662436     2.654793     2.647150     2.639506     2.631863
      2.624220     2.616577     2.608933     2.601290     2.593647     2.586004     2.578361     2.570717     2.563074     2.555431
      2.547788     2.540144     2.532501     2.524858     2.517215     2.509572     2.501928     2.494285     2.486642     2.478999
      2.471355     2.463712     2.456069     2.448426     2.440783     2.433139     2.425496     2.417853     2.410210     2.402566
      2.394923     2.387280     2.379637     2.371994     2.364350     2.356707     2.349064     2.341421     2.333777     2.326134
      2.318491     2.310848     2.303205     2.295561     2.287918     2.280275     2.272632     2.264988     2.257345     2.249702
      2.242059     2.234416     2.226772     2.219129     2.211486     2.203843     2.196199     2.188556     2.180913     2.173270
      2.165627     2.157983     2.150340     2.142697     2.135054     2.127410     2.119767     2.112124     2.104481     2.096838
      2.089194     2.081551     2.073908     2.066265     2.058621     2.050978     2.043335     2.035692     2.028049     2.020405
      2.012762     2.005119     1.997476     1.989833     1.982190     1.974546     1.966903     1.959260     1.951617     1.943974
      1.936331     1.928688     1.921045     1.913402     1.905759     1.898115     1.890472     1.882829     1.875186     1.867543
      1.859900     1.852257     1.844614     1.836971     1.829327     1.821684     1.814041     1.806398     1.798755     1.791112
      1.783469     1.775826     1.768183     1.760540     1.752896     1.745253     1.737610     1.729967     1.722324     1.714681
      1.707038     1.699395     1.691752     1.684108     1.676465     1.668822     1.661179     1.653536     1.645893     1.638250
      1.630607     1.622964     1.615321     1.607677     1.600034     1.592391     1.584748     1.577105     1.569462     1.561819
      1.554176     1.546533     1.538890     1.531246     1.523603     1.515960     1.508317     1.500674     1.493031     1.485388
      1.477745     1.470102     1.462458     1.454815     1.447172     1.439529     1.431886     1.424243     1.416600     1.408957
      1.401314     1.393671     1.386027     1.378384     1.370741     1.363098     1.355455     1.347812     1.340169     1.332526
      1.324883     1.317240     1.309596     1.301953     1.294310     1.286667     1.279024     1.271381     1.263738     1.256095
      1.248452     1.240808     1.233165     1.225522     1.217879     1.210236     1.202593     1.194950     1.187307     1.179664
      1.172021     1.164377     1.156734     1.149091     1.141448     1.133805     1.126162     1.118519     1.110876     1.103233
      1.095590     1.087946     1.080303     1.072660     1.065017     1.057374     1.049731     1.042088     1.034445     1.026802
      1.019158     1.011515     1.003872     0.996229     0.988586     0.980943     0.973300     0.965657     0.958014     0.950371
      0.942727     0.935084     0.927441     0.919798     0.912155     0.904512     0.896869     0.889226     0.881583     0.873940
      0.866296     0.858653     0.851010     0.843367     0.835724     0.828081     0.820438     0.812795     0.805152     0.797508
      0.789865     0.782222     0.774579     0.766936     0.759293     0.751650     0.744007     0.736364     0.728721     0.721077
      0.713434     0.705791     0.698148     0.690505     0.682862     0.675219     0.667576     0.659933     0.652290     0.644646
      0.637003     0.629360     0.621717     0.614074     0.606431     0.598788     0.591145     0.583502     0.575858     0.568215
      0.560572     0.552929     0.545286     0.537643     0.530000     0.522357     0.514714     0.507071     0.499427     0.491784
      0.484141     0.476498     0.468855     0.461212     0.453569     0.445925     0.438282     0.430639     0.422996     0.415353
      0.407710     0.400067     0.392424     0.384780     0.377137     0.369494     0.361851     0.354208     0.346565     0.338922
      0.331278     0.323635     0.315992     0.308349     0.300706     0.293063     0.285420     0.277777     0.270133     0.262490
      0.254847     0.247204     0.239561     0.231918     0.224275     0.216631     0.208988     0.201345
 NY phased data points follow
   3.88376E+00  2.40046E+00  4.26158E+00  4.38966E+00  3.98382E+00  5.65540E+00  3.01801E+00  4.65870E+00  3.99913E+00  3.71188E+00
   3.99192E+00  3.84268E+00  3.47787E+00  4.45400E+00  4.27963E+00  4.78757E+00  4.76124E+00  2.51599E+00  3.82558E+00  3.55598E+00
   4.08710E+00  8.92057E-01  2.50484E+00  3.64082E+00  3.80201E+00  1.13715E+00  4.08960E+00  2.01194E+00  3.94559E+00  3.61832E+00
   1.69538E+00  4.85001E+00  2.61323E+00  3.10171E+00  2.44541E+00  2.83481E+00  3.19164E+00  3.30641E+00  6.24434E-01  1.94232E+00
   2.49393E+00  2.96150E+00  3.65732E+00  4.31116E+00  3.36279E+00  3.60722E+00  3.92184E+00  2.89609E+00  5.14843E+00  1.87183E+00
   2.26873E+00 -3.45112E-01  1.39421E+00  4.16902E+00  4.58845E+00  3.49968E+00  2.00976E+00  3.21731E+00  2.43963E+00  3.45131E+00
   4.87873E+00  2.09892E+00  3.22484E+00  3.30080E+00  1.88290E+00  2.38809E+00  2.99313E+00  1.11973E+00  1.08561E+00  3.03920E+00
   2.20304E+00  1.75452E+00  2.48063E+00  3.15376E+00  4.03021E+00 -2.41100E-01  8.78158E-01  3.79399E+00  6.51090E-01  1.52862E+00
   1.32582E+00  2.20808E+00  3.22062E+00  2.69889E+00  1.03957E+00  8.67426E-01  1.68378E+00  1.54691E+00  1.72073E+00  7.33919E-01
  -3.65551E-01  1.57737E+00  1.63389E+00  1.12657E+00  2.23001E+00  2.01392E+00  1.23602E+00  2.77835E+00  2.08276E+00  1.58052E+00
   1.73530E+00  3.78842E+00  2.23906E+00  2.64225E+00  1.55029E+00  3.54013E+00  2.13948E+00  2.53457E+00  1.03809E+00  2.61790E+00
   2.04566E+00  1.11425E+00  1.56737E+00  2.92215E+00  3.14777E+00  2.03348E+00  9.55521E-01  2.14579E+00  1.36611E+00  7.62459E-01
   4.43937E-01  1.17595E+00  1.96567E+00  6.39626E-01  3.03210E+00  3.94093E+00  5.35115E+00  2.81486E+00  2.90644E+00  3.40785E+00
   2.84056E+00  4.40005E+00  4.45869E+00  2.97438E+00  3.36024E+00  1.24390E+00  1.97662E+00  2.44590E+00 -1.89088E-01  7.59192E-01
  -1.43450E-01  1.33684E+00  1.34455E+00  1.39129E+00  3.92805E+00  2.18533E+00  2.37832E+00  2.07530E+00  3.77692E+00  2.04882E+00
   1.67550E+00  2.06114E+00  8.47044E-01  1.54372E+00 -6.33499E-02  1.18191E+00  1.46685E+00  2.60706E+00  1.69881E+00  2.28324E+00
   1.30319E+00  1.22614E+00  1.41474E+00  1.95421E+00  2.97518E+00  2.80406E+00  4.91706E-01  2.85111E-01  1.03866E+00  2.25058E-01
   2.05160E+00  1.55988E+00  7.40421E-01  5.94369E-01  2.27306E+00  1.68816E+00  2.43155E-01 -1.03078E+00  1.14862E+00  8.81697E-01
   1.81223E+00  3.06666E+00  4.83015E-01 -8.17973E-01  1.88826E+00 -7.40090E-02  1.97862E+00  1.64982E+00  8.02222E-01 -4.38800E-01
  -1.47188E-01  2.88966E+00  1.29797E+00  8.09026E-01  3.09165E-01  7.76604E-01 -1.10314E-01  1.82536E+00  1.56147E+00  2.74388E+00
   2.16203E+00  2.06480E+00  1.59053E+00  2.89028E+00  1.16443E+00  2.08124E+00  1.94029E+00  1.18315E+00 -2.71800E-01 -6.13051E-01
   5.05921E+00  1.23948E-01  2.21022E+00  1.58405E+00  7.48688E-01  3.70364E+00  9.01320E-01  2.46484E+00  1.16107E+00  1.61839E-02
   1.28130E+00  2.60832E+00  2.82797E-01  2.08563E+00 -1.28054E+00  6.19346E-01  6.43008E-01 -5.02659E-02  4.21155E-01  2.44802E+00
   1.59044E+00  2.67762E+00  6.27323E-01  1.51155E+00  2.00748E-01  1.14803E-01  2.54669E+00 -5.31649E-01  1.06173E+00  1.77752E-02
   3.67065E+00  1.39772E+00  1.55298E+00  1.75897E+00  6.50862E-01  6.07940E-01  2.81603E+00  6.08885E-01  3.02860E+00  2.46897E+00
   1.92418E-01  2.45599E+00  2.17874E+00  5.61841E-01  1.35124E+00  1.97078E+00  2.63279E+00  4.15644E+00  4.21235E+00  5.11456E+00
   4.11992E+00  6.24233E+00  3.83297E+00  5.30895E+00  3.23119E+00  4.17975E+00  4.07229E+00  3.87558E+00  2.69642E+00  3.44982E+00
   3.34925E+00  1.32069E+00  3.37683E+00  1.85437E+00  9.28441E-01  1.75599E+00  2.94439E+00  2.72369E+00  2.13896E+00  1.82607E+00
   2.53664E+00  2.91805E+00  3.23232E+00  3.12715E+00  1.01828E+00  2.36980E+00  1.96035E+00  5.66662E-01  2.69297E+00  1.49224E+00
   3.79180E+00  2.44219E+00  3.13079E+00  3.27704E+00  4.49810E+00  3.31417E+00  3.05264E+00  2.44357E+00  4.52242E+00  3.11202E+00
   2.72450E+00  4.45632E+00  2.37171E+00  3.01591E+00 -2.08209E-01  2.06772E+00  4.15451E+00  2.66821E+00  2.46365E+00  1.60956E+00
   1.37197E+00  5.20231E+00  1.85685E+00  4.08744E+00  4.07276E+00  2.07151E+00  1.02152E+00  5.29630E+00  3.23110E+00  2.04006E+00
   4.08661E+00  4.21131E+00  3.32922E+00  3.32453E+00  3.85125E+00  2.89762E+00  3.64972E+00  2.67792E+00  4.25334E+00 -1.14754E+00
   2.59112E+00  1.69707E+00  1.50235E+00  2.70446E+00  8.69371E-01  2.06839E+00  2.11158E+00  3.58702E+00  2.49257E+00  1.62134E+00
   1.49575E+00  3.52461E+00  1.67702E+00  2.09755E+00  3.89918E+00  3.74392E+00  4.58030E+00  3.58367E+00  4.04774E+00  3.83752E+00
   3.51564E+00  5.27144E+00  5.27397E+00  4.82060E+00  5.68606E+00  5.08290E+00  5.33295E+00  6.95467E+00  4.37748E+00  5.58365E+00
   5.85104E+00  5.49103E+00  6.07164E+00  4.14702E+00  4.09007E+00  3.89799E+00  3.71220E+00  5.20255E+00  3.47101E+00  3.53793E+00
   2.33636E+00  2.62639E+00  3.64801E+00  2.27450E+00  1.72532E+00  2.91709E+00  2.04252E+00  6.51794E-01  2.90812E+00  6.06990E-01
   2.59957E-01  1.47388E+00  1.77436E+00  2.52137E+00 -4.69098E-01  1.42740E+00 -8.48531E-01  1.06241E+00  2.20954E+00 -1.28695E+00
   3.17884E-01  1.22148E+00  4.10242E-01  9.23527E-01  5.04332E-01  2.08740E+00  1.33231E+00  4.07251E-01  1.31335E+00  3.43588E-01
   6.20423E-01 -2.92795E-02  5.04753E-01  6.07129E-01  1.28108E+00  1.79027E+00  1.55654E-01  1.90146E-01  1.13636E-01 -1.51302E+00
   6.04759E-01 -1.93584E-01 -1.85517E+00 -2.30092E-01  1.53556E+00 -2.24475E-01  5.59675E-01 -1.57592E+00 -1.53566E+00 -1.28125E-01
  -1.82419E+00 -2.06076E+00  1.81832E+00  1.15251E+00 -9.86520E-01 -7.14185E-01 -1.35638E-01 -1.16471E+00 -3.43853E-01 -1.49709E+00
  -1.11083E+00 -1.34629E+00 -1.53281E-01 -7.51310E-01  7.50157E-01  6.65212E-01  8.19022E-01 -1.37215E+00 -2.28134E-01  1.19964E+00
   1.74591E-01  1.33895E+00 -8.00046E-03  1.52711E+00  1.17113E-01  6.17181E-01 -6.52572E-01  2.98112E+00  1.25762E+00 -1.21096E+00
  -1.47198E+00  1.19829E+00 -2.82768E-01 -2.06516E+00  1.39277E+00 -7.28733E-02 -2.12483E-01 -9.97929E-01  8.16134E-01  8.18153E-01
  -3.29701E-01 -9.74553E-01 -1.92716E-01 -2.31785E+00 -1.23489E-01 -2.53287E-01 -2.45889E+00 -3.67502E-01  2.12775E+00 -1.11837E-01
  -6.39781E-01 -1.28194E+00  1.91139E-01 -1.43132E-01  7.96465E-01  4.54944E-01  7.50697E-01  1.97621E+00 -6.46768E-01 -1.86158E+00
   1.44951E+00  4.68832E-01 -7.70064E-01  2.25170E+00  1.15407E+00 -3.26787E-01 -1.08969E-01  1.66405E+00 -1.03655E+00 -2.01231E+00
  -5.51276E-01 -9.79254E-01 -9.13217E-01 -1.06732E+00 -4.72785E-01  1.03960E+00  6.56981E-01 -9.55085E-01
 NY points of the fit to the data follow
   2.94186E+00  2.82763E+00  2.81135E+00  3.02576E+00  3.22775E+00  3.33322E+00  3.48210E+00  3.66744E+00  3.81260E+00  3.92020E+00
   3.99139E+00  3.91314E+00  3.70871E+00  3.59771E+00  3.61255E+00  3.58890E+00  3.46583E+00  3.27313E+00  3.09629E+00  3.15542E+00
   3.30466E+00  3.25926E+00  3.07525E+00  2.87597E+00  2.62877E+00  2.41854E+00  2.44100E+00  2.61023E+00  2.75255E+00  2.92052E+00
   3.20991E+00  3.40103E+00  3.32368E+00  3.17447E+00  3.03067E+00  2.85531E+00  2.83779E+00  3.02831E+00  3.25812E+00  3.37145E+00
   3.34259E+00  3.19565E+00  2.98892E+00  2.84036E+00  2.93327E+00  3.21172E+00  3.50435E+00  3.71123E+00  3.72948E+00  3.56127E+00
   3.33726E+00  3.13028E+00  3.02991E+00  3.01880E+00  2.97795E+00  2.84490E+00  2.65365E+00  2.50347E+00  2.46400E+00  2.49410E+00
   2.53953E+00  2.56730E+00  2.55771E+00  2.53061E+00  2.50577E+00  2.50743E+00  2.53966E+00  2.55040E+00  2.51451E+00  2.47203E+00
   2.45029E+00  2.44653E+00  2.47059E+00  2.50440E+00  2.51726E+00  2.50385E+00  2.48396E+00  2.46434E+00  2.42971E+00  2.39027E+00
   2.33455E+00  2.24169E+00  2.14064E+00  2.04552E+00  1.95667E+00  1.87083E+00  1.79736E+00  1.74059E+00  1.69838E+00  1.68299E+00
   1.70639E+00  1.73308E+00  1.73339E+00  1.71786E+00  1.70322E+00  1.71136E+00  1.81616E+00  2.01529E+00  2.15454E+00  2.22391E+00
   2.30180E+00  2.38327E+00  2.42985E+00  2.44941E+00  2.44262E+00  2.35733E+00  2.25450E+00  2.23327E+00  2.25679E+00  2.23536E+00
   2.14628E+00  1.99847E+00  1.82903E+00  1.74953E+00  1.72692E+00  1.71548E+00  1.71116E+00  1.70797E+00  1.70400E+00  1.72287E+00
   1.94831E+00  2.42685E+00  2.80522E+00  3.05431E+00  3.32871E+00  3.60980E+00  3.80781E+00  3.94134E+00  3.98338E+00  3.79260E+00
   3.49498E+00  3.36994E+00  3.36559E+00  3.24256E+00  2.93962E+00  2.48735E+00  1.99203E+00  1.75574E+00  1.69460E+00  1.66905E+00
   1.65701E+00  1.65134E+00  1.64701E+00  1.64450E+00  1.64430E+00  1.64431E+00  1.64391E+00  1.64130E+00  1.63577E+00  1.63057E+00
   1.62836E+00  1.62870E+00  1.62757E+00  1.62310E+00  1.61177E+00  1.59010E+00  1.56920E+00  1.55552E+00  1.54686E+00  1.54271E+00
   1.53438E+00  1.52122E+00  1.51055E+00  1.50668E+00  1.50502E+00  1.49573E+00  1.47727E+00  1.45397E+00  1.43445E+00  1.42470E+00
   1.41443E+00  1.39469E+00  1.37428E+00  1.35189E+00  1.32389E+00  1.29878E+00  1.28442E+00  1.27938E+00  1.28218E+00  1.29060E+00
   1.28833E+00  1.27302E+00  1.27173E+00  1.29621E+00  1.32959E+00  1.35983E+00  1.38029E+00  1.37863E+00  1.36278E+00  1.35207E+00
   1.32199E+00  1.25487E+00  1.17964E+00  1.11069E+00  1.06597E+00  1.10492E+00  1.24879E+00  1.42069E+00  1.60755E+00  1.88098E+00
   2.14328E+00  2.28843E+00  2.37903E+00  2.26436E+00  1.81711E+00  1.38893E+00  1.16226E+00  9.45840E-01  7.74236E-01  9.42330E-01
   1.35988E+00  1.60859E+00  1.91271E+00  2.32676E+00  2.45349E+00  2.16316E+00  1.73420E+00  1.41488E+00  1.26607E+00  1.21918E+00
   1.15175E+00  1.04935E+00  8.74923E-01  6.50912E-01  5.32066E-01  5.72187E-01  7.70084E-01  9.30867E-01  1.21516E+00  1.65218E+00
   2.09917E+00  2.51989E+00  2.72972E+00  2.64609E+00  2.49714E+00  2.43774E+00  2.29171E+00  2.05300E+00  1.99830E+00  2.06494E+00
   1.99924E+00  1.82437E+00  1.72294E+00  1.62034E+00  1.48510E+00  1.49523E+00  1.54489E+00  1.46498E+00  1.36237E+00  1.38156E+00
   1.43805E+00  1.52266E+00  1.67884E+00  1.89914E+00  2.40076E+00  3.01055E+00  3.37037E+00  3.69612E+00  4.14287E+00  4.53335E+00
   4.78428E+00  4.92192E+00  4.78824E+00  4.34070E+00  3.95493E+00  3.86502E+00  3.82615E+00  3.62883E+00  3.23042E+00  2.62651E+00
   2.08053E+00  1.88571E+00  1.82438E+00  1.80114E+00  1.82437E+00  1.83510E+00  1.81418E+00  1.79787E+00  1.80168E+00  1.81781E+00
   1.82999E+00  1.82144E+00  1.78618E+00  1.74533E+00  1.71272E+00  1.68297E+00  1.65862E+00  1.64445E+00  1.63877E+00  1.63963E+00
   1.64092E+00  1.63913E+00  1.63572E+00  1.63167E+00  1.62843E+00  1.62618E+00  1.62557E+00  1.62751E+00  1.63008E+00  1.63291E+00
   1.63738E+00  1.64301E+00  1.64909E+00  1.65616E+00  1.66410E+00  1.67259E+00  1.68179E+00  1.69243E+00  1.70487E+00  1.71915E+00
   1.73561E+00  1.75472E+00  1.77715E+00  1.80432E+00  1.83750E+00  1.87825E+00  1.92909E+00  1.99384E+00  2.07836E+00  2.19817E+00
   2.43133E+00  2.78191E+00  2.96014E+00  2.87457E+00  2.76796E+00  2.64481E+00  2.39856E+00  2.00232E+00  1.52179E+00  1.15425E+00
   1.04714E+00  1.13622E+00  1.35204E+00  1.53425E+00  1.63190E+00  1.72326E+00  1.95230E+00  2.40497E+00  2.82000E+00  3.05189E+00
   3.37113E+00  3.78280E+00  4.11461E+00  4.28089E+00  4.20610E+00  3.99739E+00  3.94905E+00  4.02084E+00  4.15636E+00  4.33483E+00
   4.54413E+00  4.77305E+00  5.00857E+00  5.23533E+00  5.43604E+00  5.59301E+00  5.69016E+00  5.71515E+00  5.66129E+00  5.52859E+00
   5.32387E+00  5.05971E+00  4.75264E+00  4.42079E+00  4.08161E+00  3.74994E+00  3.43694E+00  3.14967E+00  2.89143E+00  2.66248E+00
   2.46099E+00  2.28397E+00  2.12799E+00  1.98974E+00  1.86636E+00  1.75550E+00  1.65534E+00  1.56449E+00  1.48190E+00  1.40677E+00
   1.33848E+00  1.27652E+00  1.22046E+00  1.16987E+00  1.12436E+00  1.08359E+00  1.04720E+00  1.01487E+00  9.86244E-01  9.60979E-01
   9.38718E-01  9.19111E-01  9.01806E-01  8.86432E-01  8.72596E-01  8.59898E-01  8.47946E-01  8.36366E-01  8.24804E-01  8.12919E-01
   8.00401E-01  7.86987E-01  7.72485E-01  7.56771E-01  7.39784E-01  7.21518E-01  7.02023E-01  6.81416E-01  6.59873E-01  6.37608E-01
   6.14850E-01  5.91829E-01  5.68775E-01  5.45914E-01  5.23461E-01  5.01598E-01  4.80465E-01  4.60158E-01  4.40745E-01  4.22273E-01
   4.04760E-01  3.88195E-01  3.72536E-01  3.57725E-01  3.43700E-01  3.30405E-01  3.17778E-01  3.05750E-01  2.94248E-01  2.83203E-01
   2.72561E-01  2.62283E-01  2.52326E-01  2.42646E-01  2.33200E-01  2.23954E-01  2.14891E-01  2.05998E-01  1.97258E-01  1.88647E-01
   1.80144E-01  1.71739E-01  1.63428E-01  1.55211E-01  1.47078E-01  1.39012E-01  1.31003E-01  1.23051E-01  1.15163E-01  1.07334E-01
   9.95573E-02  9.18204E-02  8.41196E-02  7.64604E-02  6.88475E-02  6.12778E-02  5.37411E-02  4.62301E-02  3.87469E-02  3.12985E-02
   2.38878E-02  1.65099E-02  9.15556E-03  1.81996E-03 -5.49205E-03 -1.27728E-02 -2.00226E-02 -2.72488E-02 -3.44579E-02 -4.16487E-02
  -4.88143E-02 -5.59487E-02 -6.30543E-02 -7.01414E-02 -7.72146E-02 -8.42681E-02 -9.12933E-02 -9.82874E-02 -1.05256E-01 -1.12206E-01
  -1.19139E-01 -1.26047E-01 -1.32922E-01 -1.39765E-01 -1.46581E-01 -1.53376E-01 -1.60147E-01 -1.66882E-01 -1.73575E-01 -1.80227E-01
  -1.86845E-01 -1.93430E-01 -1.99973E-01 -2.06461E-01 -2.12887E-01 -2.19254E-01 -2.25562E-01 -2.31806E-01
 NY background values follow
     2.174E+00    2.170E+00    2.166E+00    2.162E+00    2.158E+00    2.154E+00    2.150E+00    2.146E+00    2.142E+00    2.138E+00
     2.134E+00    2.130E+00    2.126E+00    2.122E+00    2.118E+00    2.114E+00    2.110E+00    2.106E+00    2.102E+00    2.098E+00
     2.094E+00    2.090E+00    2.086E+00    2.082E+00    2.078E+00    2.074E+00    2.070E+00    2.066E+00    2.062E+00    2.058E+00
     2.054E+00    2.050E+00    2.046E+00    2.042E+00    2.038E+00    2.034E+00    2.030E+00    2.026E+00    2.022E+00    2.018E+00
     2.014E+00    2.010E+00    2.006E+00    2.002E+00    1.998E+00    1.994E+00    1.990E+00    1.986E+00    1.982E+00    1.978E+00
     1.975E+00    1.971E+00    1.967E+00    1.963E+00    1.959E+00    1.955E+00    1.951E+00    1.947E+00    1.943E+00    1.940E+00
     1.936E+00    1.932E+00    1.928E+00    1.924E+00    1.920E+00    1.917E+00    1.913E+00    1.909E+00    1.905E+00    1.901E+00
     1.898E+00    1.894E+00    1.890E+00    1.886E+00    1.882E+00    1.879E+00    1.875E+00    1.871E+00    1.868E+00    1.864E+00
     1.860E+00    1.856E+00    1.853E+00    1.849E+00    1.845E+00    1.842E+00    1.838E+00    1.834E+00    1.831E+00    1.827E+00
     1.824E+00    1.820E+00    1.816E+00    1.813E+00    1.809E+00    1.806E+00    1.802E+00    1.799E+00    1.795E+00    1.792E+00
     1.788E+00    1.785E+00    1.781E+00    1.778E+00    1.774E+00    1.771E+00    1.767E+00    1.764E+00    1.760E+00    1.757E+00
     1.753E+00    1.750E+00    1.747E+00    1.743E+00    1.740E+00    1.736E+00    1.733E+00    1.730E+00    1.726E+00    1.723E+00
     1.720E+00    1.716E+00    1.713E+00    1.710E+00    1.706E+00    1.703E+00    1.700E+00    1.697E+00    1.693E+00    1.690E+00
     1.687E+00    1.684E+00    1.680E+00    1.677E+00    1.674E+00    1.671E+00    1.667E+00    1.664E+00    1.661E+00    1.658E+00
     1.655E+00    1.652E+00    1.648E+00    1.645E+00    1.642E+00    1.639E+00    1.636E+00    1.633E+00    1.630E+00    1.626E+00
     1.623E+00    1.620E+00    1.617E+00    1.614E+00    1.611E+00    1.608E+00    1.605E+00    1.602E+00    1.599E+00    1.596E+00
     1.592E+00    1.589E+00    1.586E+00    1.583E+00    1.580E+00    1.577E+00    1.574E+00    1.571E+00    1.568E+00    1.565E+00
     1.562E+00    1.559E+00    1.556E+00    1.553E+00    1.550E+00    1.547E+00    1.544E+00    1.541E+00    1.538E+00    1.535E+00
     1.532E+00    1.529E+00    1.526E+00    1.523E+00    1.520E+00    1.517E+00    1.514E+00    1.511E+00    1.508E+00    1.505E+00
     1.502E+00    1.499E+00    1.496E+00    1.493E+00    1.490E+00    1.487E+00    1.484E+00    1.481E+00    1.478E+00    1.475E+00
     1.472E+00    1.469E+00    1.466E+00    1.463E+00    1.460E+00    1.457E+00    1.454E+00    1.451E+00    1.448E+00    1.445E+00
     1.442E+00    1.439E+00    1.436E+00    1.433E+00    1.430E+00    1.427E+00    1.424E+00    1.421E+00    1.418E+00    1.415E+00
     1.412E+00    1.409E+00    1.405E+00    1.402E+00    1.399E+00    1.396E+00    1.393E+00    1.390E+00    1.387E+00    1.384E+00
     1.381E+00    1.377E+00    1.374E+00    1.371E+00    1.368E+00    1.365E+00    1.362E+00    1.358E+00    1.355E+00    1.352E+00
     1.349E+00    1.345E+00    1.342E+00    1.339E+00    1.335E+00    1.332E+00    1.329E+00    1.325E+00    1.322E+00    1.319E+00
     1.315E+00    1.312E+00    1.308E+00    1.305E+00    1.301E+00    1.298E+00    1.294E+00    1.291E+00    1.287E+00    1.284E+00
     1.280E+00    1.276E+00    1.273E+00    1.269E+00    1.265E+00    1.262E+00    1.258E+00    1.254E+00    1.250E+00    1.247E+00
     1.243E+00    1.239E+00    1.235E+00    1.231E+00    1.227E+00    1.223E+00    1.219E+00    1.215E+00    1.211E+00    1.207E+00
     1.202E+00    1.198E+00    1.194E+00    1.190E+00    1.186E+00    1.181E+00    1.177E+00    1.173E+00    1.168E+00    1.164E+00
     1.159E+00    1.155E+00    1.150E+00    1.146E+00    1.141E+00    1.137E+00    1.132E+00    1.127E+00    1.123E+00    1.118E+00
     1.113E+00    1.108E+00    1.103E+00    1.098E+00    1.094E+00    1.089E+00    1.084E+00    1.079E+00    1.074E+00    1.068E+00
     1.063E+00    1.058E+00    1.053E+00    1.048E+00    1.043E+00    1.037E+00    1.032E+00    1.027E+00    1.021E+00    1.016E+00
     1.010E+00    1.005E+00    9.992E-01    9.936E-01    9.880E-01    9.823E-01    9.767E-01    9.710E-01    9.652E-01    9.594E-01
     9.536E-01    9.478E-01    9.419E-01    9.361E-01    9.301E-01    9.242E-01    9.182E-01    9.122E-01    9.061E-01    9.001E-01
     8.940E-01    8.879E-01    8.817E-01    8.755E-01    8.693E-01    8.631E-01    8.568E-01    8.506E-01    8.443E-01    8.379E-01
     8.316E-01    8.252E-01    8.188E-01    8.124E-01    8.060E-01    7.995E-01    7.930E-01    7.865E-01    7.800E-01    7.734E-01
     7.669E-01    7.603E-01    7.537E-01    7.470E-01    7.404E-01    7.337E-01    7.271E-01    7.204E-01    7.136E-01    7.069E-01
     7.002E-01    6.934E-01    6.866E-01    6.798E-01    6.730E-01    6.662E-01    6.594E-01    6.525E-01    6.456E-01    6.388E-01
     6.319E-01    6.250E-01    6.181E-01    6.111E-01    6.042E-01    5.973E-01    5.903E-01    5.833E-01    5.764E-01    5.694E-01
     5.624E-01    5.554E-01    5.484E-01    5.413E-01    5.343E-01    5.273E-01    5.202E-01    5.132E-01    5.061E-01    4.991E-01
     4.920E-01    4.850E-01    4.779E-01    4.708E-01    4.637E-01    4.566E-01    4.496E-01    4.425E-01    4.354E-01    4.283E-01
     4.212E-01    4.141E-01    4.070E-01    3.999E-01    3.928E-01    3.857E-01    3.786E-01    3.715E-01    3.644E-01    3.573E-01
     3.502E-01    3.431E-01    3.360E-01    3.288E-01    3.217E-01    3.146E-01    3.075E-01    3.004E-01    2.933E-01    2.862E-01
     2.791E-01    2.720E-01    2.649E-01    2.577E-01    2.506E-01    2.435E-01    2.364E-01    2.293E-01    2.222E-01    2.151E-01
     2.080E-01    2.009E-01    1.938E-01    1.867E-01    1.796E-01    1.725E-01    1.654E-01    1.583E-01    1.512E-01    1.442E-01
     1.371E-01    1.300E-01    1.229E-01    1.158E-01    1.088E-01    1.017E-01    9.462E-02    8.755E-02    8.049E-02    7.343E-02
     6.637E-02    5.931E-02    5.226E-02    4.521E-02    3.816E-02    3.111E-02    2.407E-02    1.702E-02    9.982E-03    2.944E-03
    -4.092E-03   -1.113E-02   -1.816E-02   -2.519E-02   -3.222E-02   -3.924E-02   -4.627E-02   -5.329E-02   -6.031E-02   -6.733E-02
    -7.434E-02   -8.136E-02   -8.837E-02   -9.538E-02   -1.024E-01   -1.094E-01   -1.164E-01   -1.234E-01   -1.304E-01   -1.374E-01
    -1.444E-01   -1.514E-01   -1.584E-01   -1.654E-01   -1.724E-01   -1.794E-01   -1.864E-01   -1.934E-01
 Ala      Conc. = 1.97E+02
