 LCModel (Version 6.3-1L) Copyright: S.W. Provencher.          Ref.: Magn. Reson. Med. 30:672-679 (1993).                
 Slice#1 Row#6 Col#3  PD_05_press_1_raw_act
 36 lines in following concentration table = NCONC+1
    Conc.  %SD /Cr+PCr  Metabolite                                         
   83.890  86%   0.139 Ala                                                 
   93.263 118%   0.154 Asp                                                 
   27.905 499% 4.6E-02 Cr                                                  
  576.664  25%   0.954 PCr                                                 
   22.130 326% 3.7E-02 GABA                                                
    0.000 999%   0.000 Glc                                                 
  305.934  49%   0.506 Gln                                                 
  627.186  28%   1.037 Glu                                                 
  165.051   8%   0.273 GPC                                                 
    0.000 999%   0.000 PCh                                                 
  140.361  32%   0.232 GSH                                                 
  500.774  31%   0.828 Ins                                                 
  304.660  29%   0.504 Lac                                                 
 1.22E+03   7%   2.024 NAA                                                 
  131.866  65%   0.218 NAAG                                                
   27.528  55% 4.6E-02 Scyllo                                              
   85.981 115%   0.142 Tau                                                 
  210.884  30%   0.349 -CrCH2                                              
  165.051   8%   0.273 GPC+PCh                                             
 1.36E+03   3%   2.243 NAA+NAAG                                            
  604.569   6%   1.000 Cr+PCr                                              
  933.120  27%   1.543 Glu+Gln                                             
    0.000 999%   0.000 Lip13a                                              
  129.530  56%   0.214 Lip13b                                              
    0.000 999%   0.000 Lip09                                               
  632.526  16%   1.046 MM09                                                
   25.538  86% 4.2E-02 Lip20                                               
 1.00E+03  16%   1.657 MM20                                                
  189.283  18%   0.313 MM12                                                
  518.103  17%   0.857 MM14                                                
  264.460  19%   0.437 MM17                                                
  129.530  56%   0.214 Lip13a+Lip13b                                       
  836.915  16%   1.384 MM14+Lip13a+Lip13b+MM12                             
  632.526  16%   1.046 MM09+Lip09                                          
 1.03E+03  15%   1.700 MM20+Lip20                                          
   6 lines in following misc. output table
  FWHM = 0.054 ppm    S/N =  10                                            
  Data shift = 0.031 ppm                                                   
  Ph: -43 deg      -7.0 deg/ppm                                            
  alphaB,S = 8.0E-01,   4.4E+01                                            
   14 spline knots.   Ns = 7(1)                                            
  (13) 5 infls.   ( 7) 1 extrs.                                            
  498 points on ppm-axis = NY
      4.000000     3.992357     3.984714     3.977070     3.969427     3.961784     3.954141     3.946497     3.938854     3.931211
      3.923568     3.915925     3.908281     3.900638     3.892995     3.885352     3.877708     3.870065     3.862422     3.854779
      3.847136     3.839492     3.831849     3.824206     3.816563     3.808919     3.801276     3.793633     3.785990     3.778347
      3.770703     3.763060     3.755417     3.747774     3.740130     3.732487     3.724844     3.717201     3.709558     3.701914
      3.694271     3.686628     3.678985     3.671341     3.663698     3.656055     3.648412     3.640769     3.633125     3.625482
      3.617839     3.610196     3.602552     3.594909     3.587266     3.579623     3.571980     3.564336     3.556693     3.549050
      3.541407     3.533763     3.526120     3.518477     3.510834     3.503191     3.495547     3.487904     3.480261     3.472618
      3.464974     3.457331     3.449688     3.442045     3.434402     3.426758     3.419115     3.411472     3.403829     3.396185
      3.388542     3.380899     3.373256     3.365613     3.357969     3.350326     3.342683     3.335040     3.327396     3.319753
      3.312110     3.304467     3.296824     3.289180     3.281537     3.273894     3.266251     3.258607     3.250964     3.243321
      3.235678     3.228034     3.220391     3.212748     3.205105     3.197462     3.189818     3.182175     3.174532     3.166889
      3.159245     3.151602     3.143959     3.136316     3.128673     3.121029     3.113386     3.105743     3.098100     3.090456
      3.082813     3.075170     3.067527     3.059884     3.052240     3.044597     3.036954     3.029311     3.021667     3.014024
      3.006381     2.998738     2.991095     2.983451     2.975808     2.968165     2.960522     2.952878     2.945235     2.937592
      2.929949     2.922306     2.914662     2.907019     2.899376     2.891733     2.884089     2.876446     2.868803     2.861160
      2.853517     2.845873     2.838230     2.830587     2.822944     2.815300     2.807657     2.800014     2.792371     2.784728
      2.777084     2.769441     2.761798     2.754155     2.746511     2.738868     2.731225     2.723582     2.715939     2.708295
      2.700652     2.693009     2.685366     2.677722     2.670079     2.662436     2.654793     2.647150     2.639506     2.631863
      2.624220     2.616577     2.608933     2.601290     2.593647     2.586004     2.578361     2.570717     2.563074     2.555431
      2.547788     2.540144     2.532501     2.524858     2.517215     2.509572     2.501928     2.494285     2.486642     2.478999
      2.471355     2.463712     2.456069     2.448426     2.440783     2.433139     2.425496     2.417853     2.410210     2.402566
      2.394923     2.387280     2.379637     2.371994     2.364350     2.356707     2.349064     2.341421     2.333777     2.326134
      2.318491     2.310848     2.303205     2.295561     2.287918     2.280275     2.272632     2.264988     2.257345     2.249702
      2.242059     2.234416     2.226772     2.219129     2.211486     2.203843     2.196199     2.188556     2.180913     2.173270
      2.165627     2.157983     2.150340     2.142697     2.135054     2.127410     2.119767     2.112124     2.104481     2.096838
      2.089194     2.081551     2.073908     2.066265     2.058621     2.050978     2.043335     2.035692     2.028049     2.020405
      2.012762     2.005119     1.997476     1.989833     1.982190     1.974546     1.966903     1.959260     1.951617     1.943974
      1.936331     1.928688     1.921045     1.913402     1.905759     1.898115     1.890472     1.882829     1.875186     1.867543
      1.859900     1.852257     1.844614     1.836971     1.829327     1.821684     1.814041     1.806398     1.798755     1.791112
      1.783469     1.775826     1.768183     1.760540     1.752896     1.745253     1.737610     1.729967     1.722324     1.714681
      1.707038     1.699395     1.691752     1.684108     1.676465     1.668822     1.661179     1.653536     1.645893     1.638250
      1.630607     1.622964     1.615321     1.607677     1.600034     1.592391     1.584748     1.577105     1.569462     1.561819
      1.554176     1.546533     1.538890     1.531246     1.523603     1.515960     1.508317     1.500674     1.493031     1.485388
      1.477745     1.470102     1.462458     1.454815     1.447172     1.439529     1.431886     1.424243     1.416600     1.408957
      1.401314     1.393671     1.386027     1.378384     1.370741     1.363098     1.355455     1.347812     1.340169     1.332526
      1.324883     1.317240     1.309596     1.301953     1.294310     1.286667     1.279024     1.271381     1.263738     1.256095
      1.248452     1.240808     1.233165     1.225522     1.217879     1.210236     1.202593     1.194950     1.187307     1.179664
      1.172021     1.164377     1.156734     1.149091     1.141448     1.133805     1.126162     1.118519     1.110876     1.103233
      1.095590     1.087946     1.080303     1.072660     1.065017     1.057374     1.049731     1.042088     1.034445     1.026802
      1.019158     1.011515     1.003872     0.996229     0.988586     0.980943     0.973300     0.965657     0.958014     0.950371
      0.942727     0.935084     0.927441     0.919798     0.912155     0.904512     0.896869     0.889226     0.881583     0.873940
      0.866296     0.858653     0.851010     0.843367     0.835724     0.828081     0.820438     0.812795     0.805152     0.797508
      0.789865     0.782222     0.774579     0.766936     0.759293     0.751650     0.744007     0.736364     0.728721     0.721077
      0.713434     0.705791     0.698148     0.690505     0.682862     0.675219     0.667576     0.659933     0.652290     0.644646
      0.637003     0.629360     0.621717     0.614074     0.606431     0.598788     0.591145     0.583502     0.575858     0.568215
      0.560572     0.552929     0.545286     0.537643     0.530000     0.522357     0.514714     0.507071     0.499427     0.491784
      0.484141     0.476498     0.468855     0.461212     0.453569     0.445925     0.438282     0.430639     0.422996     0.415353
      0.407710     0.400067     0.392424     0.384780     0.377137     0.369494     0.361851     0.354208     0.346565     0.338922
      0.331278     0.323635     0.315992     0.308349     0.300706     0.293063     0.285420     0.277777     0.270133     0.262490
      0.254847     0.247204     0.239561     0.231918     0.224275     0.216631     0.208988     0.201345
 NY phased data points follow
  -5.71252E+00 -7.14369E+00 -3.42606E+00 -7.55411E+00 -5.93807E+00 -8.27986E+00 -5.17095E-01 -3.06459E+00  1.20462E-01 -1.50339E+00
   4.09314E+00  2.05025E+00  4.17709E+00 -1.52214E+00 -1.03403E+00 -3.92762E+00 -4.26831E+00 -5.51403E+00 -4.08575E+00 -5.68112E+00
  -5.47425E+00 -4.74452E+00 -5.28970E+00 -5.50025E+00 -5.35562E+00 -7.16083E+00 -3.51600E+00 -6.28530E+00 -4.09686E+00 -1.84525E+00
  -2.19324E-01 -5.36353E+00 -3.35260E-02 -4.07937E+00 -3.82455E+00 -8.11602E+00 -5.00468E+00 -7.18425E+00 -4.56987E+00 -4.17960E+00
  -1.84129E+00 -3.28510E+00 -2.91995E+00 -1.73461E+00 -1.77308E+00 -2.83308E+00 -1.35460E+00  1.71331E+00 -1.08502E+00 -1.35969E+00
   1.30510E-01 -4.30636E+00 -4.13008E+00 -3.09180E+00 -4.96814E+00 -3.21342E+00 -3.18765E+00 -4.97236E+00 -1.95598E+00 -3.94680E+00
  -4.51428E+00 -5.36247E+00 -2.34062E+00 -4.81189E+00 -7.78493E+00 -5.41677E+00 -5.44812E+00 -6.83457E+00 -2.12920E+00 -4.72134E+00
  -7.82623E+00 -6.36827E+00 -6.26585E+00 -5.09994E+00 -3.97189E+00 -5.49189E+00 -5.53862E+00 -5.16401E+00 -4.85673E+00 -5.18617E+00
  -4.91892E+00 -5.72747E+00 -4.19675E+00 -6.72636E+00 -2.05197E+00 -5.34701E+00 -4.34053E+00 -5.45246E+00 -4.58436E+00 -2.53566E+00
  -6.45048E+00 -5.14654E+00 -2.70017E+00 -2.70899E+00 -1.45226E+00 -3.19119E-02  1.97795E+00 -8.19605E-01 -1.76720E+00  1.14062E+00
   1.98987E+00  7.42705E+00  9.42581E+00  8.18958E+00  9.18854E+00  4.59300E+00  5.34420E+00  2.62073E+00  2.32798E+00 -3.69910E-01
   1.11602E+00  3.19170E+00  4.54983E-02 -3.94262E+00 -2.56467E+00 -3.68998E+00 -4.08603E+00 -1.87129E+00  2.79557E-01 -8.02860E-01
  -1.86323E+00  1.42233E-01  2.90204E-02  2.84947E+00  4.64721E+00  1.04143E+01  1.00264E+01  1.52082E+01  1.65398E+01  1.48372E+01
   1.02220E+01  7.73081E+00  3.30108E+00  3.76499E+00  1.04378E+00  2.60389E+00 -2.04385E+00 -2.90817E+00 -1.78996E+00 -1.46535E+00
  -1.02574E+00 -1.51356E+00 -1.86247E+00 -1.36794E+00 -2.54644E+00 -4.33793E+00 -3.86637E+00 -3.69698E+00 -4.03836E+00 -4.85176E-01
  -5.95470E+00 -3.88729E+00 -2.81809E+00 -4.79220E+00 -3.11771E+00 -2.82721E+00 -2.20005E+00 -3.49264E+00 -3.70321E+00 -6.06226E+00
  -3.16729E+00 -7.27675E+00 -7.94622E+00 -5.54878E+00 -4.17345E+00 -5.77676E+00 -5.89639E+00 -3.86990E+00 -5.51635E+00 -3.83271E+00
  -5.30187E+00 -6.69570E+00 -8.43079E+00 -8.65530E+00 -8.09575E+00 -1.01819E+01 -7.31518E+00 -9.79537E+00 -6.72278E+00 -8.75706E+00
  -6.26481E+00 -8.65360E+00 -7.21938E+00 -6.80566E+00 -7.49805E+00 -6.52997E+00 -5.37675E+00 -7.51495E+00 -5.32584E+00 -5.97541E+00
  -3.88037E+00 -5.61230E+00 -2.63840E+00 -3.85597E+00 -5.45473E+00 -3.18288E+00 -5.01972E+00 -4.31411E+00 -5.52636E+00 -5.30799E+00
  -3.83277E+00 -4.19785E+00 -3.25636E+00 -2.69541E+00 -1.63343E+00 -2.37134E+00 -1.62070E+00 -2.55237E+00 -5.71930E-01 -2.63149E+00
  -4.69868E+00 -4.26709E+00 -1.61840E+00 -2.44795E+00  1.04178E-01  1.35614E+00  2.17263E+00  3.10170E+00  6.80508E-01  5.71816E-01
  -2.06789E+00 -5.10807E+00 -2.11348E+00 -2.20943E+00 -1.39134E+00 -1.87901E+00 -4.90807E-01  2.42450E+00  1.19985E-01  1.00089E+00
  -6.07556E-01  1.71575E+00  3.47708E+00  3.45928E+00  7.45664E-01 -2.13655E-01  2.47831E-01 -2.98734E-01  2.58716E-01  9.63697E-01
   3.92590E-01  1.60108E+00  1.42133E+00 -1.28679E+00  6.84559E-01  3.51612E+00  4.00925E+00  3.89161E+00  5.86711E+00  4.41746E+00
   6.34056E+00  5.37755E+00  1.05306E+01  8.97731E+00  1.44743E+01  1.30608E+01  1.62717E+01  2.26368E+01  2.84144E+01  3.62061E+01
   4.31149E+01  4.19150E+01  3.36995E+01  2.90419E+01  2.14969E+01  1.71430E+01  1.09976E+01  9.40007E+00  6.92990E+00  6.65785E+00
   4.91127E+00  2.99280E+00  2.15588E-01  5.33020E+00  2.58186E-01 -5.58271E-01  1.70356E+00 -3.02844E+00 -2.36537E-01 -1.45404E+00
  -1.22529E+00 -9.92230E-01  1.62606E+00 -9.67469E-01 -6.79703E-01 -2.80613E+00 -9.49766E-01  3.70104E-01 -1.36979E+00 -1.23687E+00
  -2.68896E+00 -1.83100E+00 -1.27973E-01 -1.39495E+00 -1.08131E+00 -7.07946E-01 -5.64900E-01 -2.74010E-01 -1.10863E-01 -1.96575E+00
  -6.05936E-01 -9.89667E-01  3.55624E-01  4.42421E-01 -5.43517E-01 -1.40041E+00 -1.11903E+00  2.19897E+00  1.59608E+00  3.55698E+00
   2.97803E+00 -4.55076E-01  4.20885E+00 -9.16678E-03 -1.72456E-01  4.97536E+00 -6.03325E-01  1.17230E+00  4.46219E-01  1.98353E+00
   3.59488E-01 -1.82474E+00 -2.15844E+00 -1.14314E+00  2.36627E-01 -2.25266E+00  7.81472E-01  2.59881E-01 -2.48609E+00 -3.81836E-01
  -3.45254E-01 -5.15277E-02  1.36360E+00  7.29369E-01  2.83453E+00  1.42762E+00  2.97161E+00  3.65607E+00  2.05363E+00  3.27748E+00
   4.22346E+00  2.11679E+00  5.74098E+00  5.45363E+00  4.79368E+00  2.97324E+00  4.29539E+00  4.00950E+00  1.07677E+00 -1.78254E+00
   1.77782E+00 -2.62605E+00  3.69338E+00 -4.53349E-01 -8.05549E-01  2.14319E-01  1.21610E-02  3.98505E+00  2.39855E+00  3.58784E+00
   5.44619E-01  9.73807E-01  4.38238E-01 -6.70310E-02 -7.80796E-02  2.46294E-01 -1.01429E+00  4.39481E-01 -1.80116E-01 -1.02029E+00
  -1.06959E+00 -1.43926E+00  1.14007E+00 -4.18113E+00 -2.43574E+00 -1.80635E+00 -6.88624E-02 -8.58700E-01 -2.93029E+00 -7.17208E-01
  -1.25082E-01 -6.05062E+00 -1.06079E-01 -1.52110E+00 -1.56595E+00 -5.21384E+00 -3.39462E+00  1.48498E-01 -1.61573E+00 -1.29940E+00
  -3.43998E+00 -3.91836E+00 -3.36521E+00  5.66833E-01 -2.76701E+00 -6.26379E-01 -2.25349E+00  5.56234E-01 -1.01069E+00 -1.09178E+00
  -1.50623E-01 -5.65453E-02 -1.59575E+00  8.72668E-01 -6.41065E-01  4.00652E-01 -3.60394E-01 -3.16007E+00 -3.11705E-01 -2.13110E+00
  -2.80643E+00 -2.53241E-01  1.41472E-01 -1.12318E+00 -3.62544E+00  1.81281E+00  1.12177E+00 -3.23173E+00  4.76920E-01 -1.92237E+00
  -1.71282E+00  7.77658E-01 -2.95186E+00  3.07309E-01 -2.86680E-01 -1.03831E+00 -3.94436E+00 -4.65445E+00 -3.51655E+00 -2.74118E+00
   4.76412E-01 -2.88477E+00 -3.28611E-01 -2.13966E+00 -2.15204E+00 -6.00702E-01 -2.57682E+00 -3.36609E+00 -1.42390E+00 -1.96187E+00
  -2.18181E+00 -1.64338E+00 -1.53223E+00 -2.08264E+00 -1.11836E+00 -1.92451E+00 -3.14463E+00 -6.43834E-01 -5.02412E-01  1.46963E+00
  -7.82580E-01  1.56900E+00 -2.55239E+00 -1.18646E+00 -1.22994E+00 -5.06838E-01  2.37680E-01 -9.44696E-01 -3.36246E-01 -8.14403E-01
  -1.71159E+00 -3.28806E+00  2.48668E-01 -2.49146E+00  7.81436E-01  1.04526E+00  2.59955E+00  1.22372E+00  1.48329E+00 -2.93739E+00
   4.05158E-01 -2.74239E+00 -2.61883E+00 -4.68954E+00 -3.54274E+00 -2.56011E+00 -1.34456E+00 -2.10772E+00 -2.11539E+00 -4.18267E+00
  -3.05249E+00 -2.54433E+00 -2.83001E+00  4.75268E-01 -1.49537E+00 -1.49601E+00  1.52057E+00  1.59446E+00  4.45588E-01  2.35525E+00
  -9.70395E-01 -1.41226E+00 -1.31289E+00 -2.14114E+00 -3.14585E+00 -8.41728E-01  9.00844E-01 -9.10973E-01
 NY points of the fit to the data follow
  -6.38789E+00 -6.64575E+00 -6.50900E+00 -5.62608E+00 -5.21056E+00 -4.84881E+00 -3.81211E+00 -2.27864E+00 -4.14119E-01  1.43090E+00
   2.41402E+00  2.07506E+00  1.00102E+00 -2.50131E-01 -1.41586E+00 -2.26298E+00 -2.62071E+00 -3.04978E+00 -4.16644E+00 -4.80260E+00
  -5.06456E+00 -5.19663E+00 -5.11574E+00 -4.85646E+00 -4.91209E+00 -5.03286E+00 -4.93091E+00 -4.65661E+00 -4.07110E+00 -3.24407E+00
  -2.43770E+00 -1.90138E+00 -1.69057E+00 -1.87040E+00 -2.46076E+00 -3.20681E+00 -3.73083E+00 -4.26944E+00 -4.86365E+00 -4.92729E+00
  -4.67849E+00 -4.44565E+00 -4.27125E+00 -3.95675E+00 -3.35599E+00 -2.60231E+00 -1.83742E+00 -1.39070E+00 -1.53854E+00 -2.10886E+00
  -2.87908E+00 -3.65093E+00 -4.13423E+00 -4.31301E+00 -4.41735E+00 -4.59759E+00 -4.74382E+00 -4.65073E+00 -4.37768E+00 -4.09781E+00
  -3.94636E+00 -3.99248E+00 -4.17234E+00 -4.43982E+00 -4.66706E+00 -4.70773E+00 -4.64004E+00 -4.58503E+00 -4.48817E+00 -4.35910E+00
  -4.26425E+00 -4.14204E+00 -4.02660E+00 -3.96989E+00 -3.95724E+00 -3.98758E+00 -4.08892E+00 -4.26997E+00 -4.39167E+00 -4.40674E+00
  -4.42245E+00 -4.45382E+00 -4.36309E+00 -4.19738E+00 -4.05974E+00 -3.96297E+00 -4.01254E+00 -4.25691E+00 -4.55710E+00 -4.74092E+00
  -4.82564E+00 -4.82258E+00 -4.71545E+00 -4.62164E+00 -4.58782E+00 -4.15273E+00 -2.74773E+00 -1.85347E+00 -1.17241E+00  5.68497E-01
   3.25261E+00  6.39071E+00  9.18159E+00  1.03169E+01  9.25682E+00  7.02954E+00  4.63571E+00  2.50212E+00  9.95891E-01  2.37166E-01
  -6.40660E-01 -2.41595E+00 -3.50645E+00 -3.80877E+00 -3.91154E+00 -3.94176E+00 -3.95934E+00 -3.93951E+00 -3.85634E+00 -3.56288E+00
  -2.31715E+00 -5.60132E-01  2.66499E-01  1.76686E+00  4.81391E+00  8.74426E+00  1.28094E+01  1.56065E+01  1.56571E+01  1.33510E+01
   1.02947E+01  7.35622E+00  4.93193E+00  3.32777E+00  2.22831E+00  2.13236E-01 -2.19934E+00 -3.05091E+00 -3.18125E+00 -3.08131E+00
  -2.95349E+00 -2.93592E+00 -2.98415E+00 -3.01482E+00 -3.05363E+00 -3.09442E+00 -3.14274E+00 -3.25119E+00 -3.38131E+00 -3.51892E+00
  -3.64603E+00 -3.73480E+00 -3.80804E+00 -3.89257E+00 -4.01217E+00 -4.09056E+00 -4.08480E+00 -4.12210E+00 -4.22469E+00 -4.44401E+00
  -4.75022E+00 -4.91959E+00 -4.85299E+00 -4.64503E+00 -4.43681E+00 -4.35621E+00 -4.48105E+00 -4.74662E+00 -5.01673E+00 -5.19999E+00
  -5.30283E+00 -5.31823E+00 -5.40779E+00 -5.70509E+00 -6.05035E+00 -6.26153E+00 -6.24558E+00 -6.04415E+00 -5.83210E+00 -5.76015E+00
  -5.83472E+00 -5.87567E+00 -5.70877E+00 -5.46314E+00 -5.18059E+00 -4.86833E+00 -4.64299E+00 -4.31321E+00 -3.74242E+00 -3.05431E+00
  -2.48155E+00 -2.24736E+00 -2.29223E+00 -2.46690E+00 -2.62015E+00 -2.62360E+00 -2.55316E+00 -2.45692E+00 -2.25902E+00 -1.99039E+00
  -1.65060E+00 -1.20701E+00 -7.82257E-01 -6.46360E-01 -6.52829E-01 -9.48466E-01 -1.72835E+00 -2.69824E+00 -3.50431E+00 -3.96386E+00
  -4.12103E+00 -3.87001E+00 -3.19513E+00 -2.26245E+00 -1.24951E+00 -5.07077E-01 -3.55607E-01 -6.77721E-01 -1.22162E+00 -2.21986E+00
  -3.30672E+00 -3.94671E+00 -3.99111E+00 -3.52343E+00 -2.87750E+00 -2.05038E+00 -1.16271E+00 -5.37396E-01 -2.77016E-01 -2.63099E-01
  -1.04121E-01  1.54985E-01  2.54106E-01  3.03447E-01  4.78428E-01  6.55943E-01  7.65046E-01  9.46493E-01  1.08574E+00  1.09638E+00
   9.86520E-01  8.16514E-01  6.65625E-01  7.18413E-01  1.08555E+00  1.48113E+00  1.84151E+00  2.20928E+00  2.64281E+00  3.19820E+00
   3.65875E+00  4.40678E+00  5.80855E+00  8.89381E+00  1.34099E+01  1.58401E+01  1.82877E+01  2.30698E+01  2.94703E+01  3.62410E+01
   4.10618E+01  4.09514E+01  3.59660E+01  2.89602E+01  2.19106E+01  1.61821E+01  1.25246E+01  1.04854E+01  7.26099E+00  2.58714E+00
   5.42674E-01 -2.84413E-02 -2.86055E-01 -4.03439E-01 -4.58072E-01 -5.51403E-01 -6.64306E-01 -7.89133E-01 -9.15190E-01 -1.02986E+00
  -1.11680E+00 -1.18975E+00 -1.25773E+00 -1.31376E+00 -1.35149E+00 -1.37091E+00 -1.38454E+00 -1.39794E+00 -1.39759E+00 -1.37429E+00
  -1.33767E+00 -1.29038E+00 -1.23035E+00 -1.15907E+00 -1.08302E+00 -1.00176E+00 -9.12598E-01 -8.16591E-01 -7.12188E-01 -6.00023E-01
  -4.85549E-01 -3.70567E-01 -2.57294E-01 -1.51175E-01 -5.68847E-02  2.18883E-02  8.55599E-02  1.34015E-01  1.63641E-01  1.75126E-01
   1.70553E-01  1.51063E-01  1.20244E-01  8.19977E-02  4.09055E-02  1.55882E-03 -3.02995E-02 -4.82836E-02 -4.22626E-02  6.51278E-03
   1.02218E-01  1.34114E-01  1.77723E-01  3.16793E-01  4.63807E-01  5.37753E-01  4.82947E-01  2.67607E-01  4.68128E-02 -9.53574E-02
  -1.81345E-01 -1.26014E-01  1.19918E-01  5.30966E-01  1.01713E+00  1.47060E+00  1.90140E+00  2.23165E+00  2.45637E+00  2.67293E+00
   3.00096E+00  3.20912E+00  3.20990E+00  3.36856E+00  3.59764E+00  3.63136E+00  3.23695E+00  2.24221E+00  1.01907E+00 -1.47498E-01
  -1.14783E+00 -1.61110E+00 -1.37789E+00 -5.23051E-01  6.54913E-01  1.58422E+00  2.18204E+00  2.54976E+00  2.47714E+00  2.12009E+00
   1.66885E+00  1.36209E+00  1.19803E+00  7.28848E-01  1.35500E-01 -2.27000E-01 -4.62537E-01 -6.30977E-01 -7.56139E-01 -8.51699E-01
  -9.25914E-01 -9.84694E-01 -1.03138E+00 -1.06850E+00 -1.09711E+00 -1.11820E+00 -1.13173E+00 -1.13791E+00 -1.13619E+00 -1.12650E+00
  -1.10823E+00 -1.08135E+00 -1.04533E+00 -1.00021E+00 -9.45499E-01 -8.81387E-01 -8.07635E-01 -7.24725E-01 -6.32706E-01 -5.32321E-01
  -4.23922E-01 -3.08646E-01 -1.87335E-01 -6.16366E-02  6.71437E-02  1.96951E-01  3.26091E-01  4.52108E-01  5.72948E-01  6.85924E-01
   7.88937E-01  8.79440E-01  9.55598E-01  1.01523E+00  1.05700E+00  1.07940E+00  1.08198E+00  1.06419E+00  1.02653E+00  9.69366E-01
   8.94082E-01  8.01923E-01  6.95068E-01  5.75416E-01  4.45579E-01  3.07687E-01  1.64429E-01  1.79116E-02 -1.29324E-01 -2.75485E-01
  -4.18498E-01 -5.57119E-01 -6.89822E-01 -8.15871E-01 -9.34238E-01 -1.04471E+00 -1.14679E+00 -1.24071E+00 -1.32632E+00 -1.40408E+00
  -1.47404E+00 -1.53687E+00 -1.59277E+00 -1.64251E+00 -1.68631E+00 -1.72487E+00 -1.75838E+00 -1.78756E+00 -1.81258E+00 -1.83412E+00
  -1.85223E+00 -1.86747E+00 -1.87988E+00 -1.89000E+00 -1.89783E+00 -1.90385E+00 -1.90795E+00 -1.91055E+00 -1.91155E+00 -1.91138E+00
  -1.90991E+00 -1.90749E+00 -1.90394E+00 -1.89959E+00 -1.89428E+00 -1.88836E+00 -1.88163E+00 -1.87439E+00 -1.86641E+00 -1.85800E+00
  -1.84895E+00 -1.83958E+00 -1.82967E+00 -1.81947E+00 -1.80873E+00 -1.79775E+00 -1.78634E+00 -1.77476E+00 -1.76278E+00 -1.75063E+00
  -1.73807E+00 -1.72540E+00 -1.71239E+00 -1.69931E+00 -1.68589E+00 -1.67238E+00 -1.65853E+00 -1.64466E+00 -1.63050E+00 -1.61633E+00
  -1.60185E+00 -1.58733E+00 -1.57252E+00 -1.55773E+00 -1.54268E+00 -1.52763E+00 -1.51229E+00 -1.49693E+00 -1.48131E+00 -1.46571E+00
  -1.44986E+00 -1.43398E+00 -1.41781E+00 -1.40160E+00 -1.38513E+00 -1.36863E+00 -1.35184E+00 -1.33495E+00
 NY background values follow
    -7.450E+00   -7.426E+00   -7.402E+00   -7.377E+00   -7.353E+00   -7.329E+00   -7.304E+00   -7.280E+00   -7.255E+00   -7.231E+00
    -7.206E+00   -7.182E+00   -7.157E+00   -7.133E+00   -7.108E+00   -7.084E+00   -7.059E+00   -7.035E+00   -7.010E+00   -6.986E+00
    -6.962E+00   -6.937E+00   -6.913E+00   -6.888E+00   -6.864E+00   -6.839E+00   -6.815E+00   -6.790E+00   -6.766E+00   -6.741E+00
    -6.717E+00   -6.692E+00   -6.668E+00   -6.643E+00   -6.619E+00   -6.595E+00   -6.570E+00   -6.546E+00   -6.522E+00   -6.497E+00
    -6.473E+00   -6.449E+00   -6.424E+00   -6.400E+00   -6.376E+00   -6.352E+00   -6.327E+00   -6.303E+00   -6.279E+00   -6.255E+00
    -6.231E+00   -6.207E+00   -6.183E+00   -6.159E+00   -6.135E+00   -6.111E+00   -6.087E+00   -6.063E+00   -6.039E+00   -6.015E+00
    -5.992E+00   -5.968E+00   -5.944E+00   -5.921E+00   -5.897E+00   -5.874E+00   -5.850E+00   -5.827E+00   -5.803E+00   -5.780E+00
    -5.757E+00   -5.734E+00   -5.711E+00   -5.688E+00   -5.665E+00   -5.642E+00   -5.619E+00   -5.596E+00   -5.574E+00   -5.551E+00
    -5.529E+00   -5.506E+00   -5.484E+00   -5.462E+00   -5.439E+00   -5.417E+00   -5.395E+00   -5.373E+00   -5.352E+00   -5.330E+00
    -5.308E+00   -5.287E+00   -5.265E+00   -5.244E+00   -5.223E+00   -5.201E+00   -5.180E+00   -5.159E+00   -5.139E+00   -5.118E+00
    -5.097E+00   -5.076E+00   -5.056E+00   -5.036E+00   -5.015E+00   -4.995E+00   -4.975E+00   -4.955E+00   -4.935E+00   -4.915E+00
    -4.896E+00   -4.876E+00   -4.856E+00   -4.837E+00   -4.818E+00   -4.799E+00   -4.779E+00   -4.760E+00   -4.741E+00   -4.723E+00
    -4.704E+00   -4.685E+00   -4.667E+00   -4.648E+00   -4.630E+00   -4.612E+00   -4.593E+00   -4.575E+00   -4.557E+00   -4.539E+00
    -4.522E+00   -4.504E+00   -4.486E+00   -4.469E+00   -4.451E+00   -4.434E+00   -4.417E+00   -4.400E+00   -4.383E+00   -4.366E+00
    -4.349E+00   -4.332E+00   -4.315E+00   -4.299E+00   -4.282E+00   -4.266E+00   -4.249E+00   -4.233E+00   -4.216E+00   -4.200E+00
    -4.184E+00   -4.168E+00   -4.151E+00   -4.135E+00   -4.119E+00   -4.103E+00   -4.087E+00   -4.071E+00   -4.054E+00   -4.038E+00
    -4.022E+00   -4.006E+00   -3.990E+00   -3.974E+00   -3.958E+00   -3.941E+00   -3.925E+00   -3.909E+00   -3.893E+00   -3.876E+00
    -3.860E+00   -3.844E+00   -3.827E+00   -3.811E+00   -3.794E+00   -3.777E+00   -3.761E+00   -3.744E+00   -3.727E+00   -3.710E+00
    -3.693E+00   -3.676E+00   -3.658E+00   -3.641E+00   -3.624E+00   -3.606E+00   -3.589E+00   -3.571E+00   -3.553E+00   -3.536E+00
    -3.518E+00   -3.500E+00   -3.482E+00   -3.464E+00   -3.446E+00   -3.429E+00   -3.411E+00   -3.393E+00   -3.375E+00   -3.357E+00
    -3.339E+00   -3.321E+00   -3.303E+00   -3.285E+00   -3.267E+00   -3.249E+00   -3.232E+00   -3.214E+00   -3.196E+00   -3.179E+00
    -3.161E+00   -3.144E+00   -3.126E+00   -3.109E+00   -3.092E+00   -3.074E+00   -3.057E+00   -3.041E+00   -3.024E+00   -3.007E+00
    -2.990E+00   -2.974E+00   -2.958E+00   -2.941E+00   -2.925E+00   -2.909E+00   -2.894E+00   -2.878E+00   -2.863E+00   -2.847E+00
    -2.832E+00   -2.817E+00   -2.803E+00   -2.788E+00   -2.773E+00   -2.759E+00   -2.745E+00   -2.731E+00   -2.718E+00   -2.704E+00
    -2.691E+00   -2.677E+00   -2.664E+00   -2.652E+00   -2.639E+00   -2.627E+00   -2.614E+00   -2.602E+00   -2.590E+00   -2.579E+00
    -2.567E+00   -2.556E+00   -2.545E+00   -2.534E+00   -2.524E+00   -2.513E+00   -2.503E+00   -2.493E+00   -2.483E+00   -2.474E+00
    -2.464E+00   -2.455E+00   -2.446E+00   -2.437E+00   -2.429E+00   -2.421E+00   -2.413E+00   -2.405E+00   -2.397E+00   -2.390E+00
    -2.383E+00   -2.376E+00   -2.370E+00   -2.363E+00   -2.357E+00   -2.351E+00   -2.345E+00   -2.340E+00   -2.335E+00   -2.330E+00
    -2.325E+00   -2.320E+00   -2.316E+00   -2.312E+00   -2.308E+00   -2.304E+00   -2.301E+00   -2.297E+00   -2.294E+00   -2.291E+00
    -2.288E+00   -2.286E+00   -2.284E+00   -2.281E+00   -2.279E+00   -2.278E+00   -2.276E+00   -2.274E+00   -2.273E+00   -2.272E+00
    -2.271E+00   -2.270E+00   -2.270E+00   -2.269E+00   -2.269E+00   -2.269E+00   -2.269E+00   -2.269E+00   -2.270E+00   -2.270E+00
    -2.271E+00   -2.272E+00   -2.273E+00   -2.274E+00   -2.275E+00   -2.276E+00   -2.278E+00   -2.279E+00   -2.281E+00   -2.283E+00
    -2.285E+00   -2.287E+00   -2.289E+00   -2.291E+00   -2.294E+00   -2.296E+00   -2.299E+00   -2.301E+00   -2.304E+00   -2.307E+00
    -2.310E+00   -2.312E+00   -2.315E+00   -2.318E+00   -2.321E+00   -2.324E+00   -2.328E+00   -2.331E+00   -2.334E+00   -2.337E+00
    -2.340E+00   -2.343E+00   -2.347E+00   -2.350E+00   -2.353E+00   -2.356E+00   -2.359E+00   -2.362E+00   -2.365E+00   -2.368E+00
    -2.371E+00   -2.374E+00   -2.377E+00   -2.380E+00   -2.383E+00   -2.386E+00   -2.388E+00   -2.391E+00   -2.394E+00   -2.396E+00
    -2.398E+00   -2.401E+00   -2.403E+00   -2.405E+00   -2.407E+00   -2.409E+00   -2.410E+00   -2.412E+00   -2.413E+00   -2.415E+00
    -2.416E+00   -2.417E+00   -2.418E+00   -2.418E+00   -2.419E+00   -2.420E+00   -2.420E+00   -2.420E+00   -2.420E+00   -2.420E+00
    -2.419E+00   -2.419E+00   -2.418E+00   -2.417E+00   -2.416E+00   -2.415E+00   -2.413E+00   -2.412E+00   -2.410E+00   -2.407E+00
    -2.405E+00   -2.403E+00   -2.400E+00   -2.397E+00   -2.393E+00   -2.390E+00   -2.386E+00   -2.382E+00   -2.378E+00   -2.374E+00
    -2.369E+00   -2.364E+00   -2.359E+00   -2.353E+00   -2.347E+00   -2.341E+00   -2.335E+00   -2.328E+00   -2.321E+00   -2.314E+00
    -2.307E+00   -2.299E+00   -2.291E+00   -2.283E+00   -2.274E+00   -2.265E+00   -2.256E+00   -2.247E+00   -2.237E+00   -2.228E+00
    -2.218E+00   -2.208E+00   -2.197E+00   -2.187E+00   -2.176E+00   -2.165E+00   -2.154E+00   -2.142E+00   -2.131E+00   -2.119E+00
    -2.107E+00   -2.095E+00   -2.083E+00   -2.070E+00   -2.058E+00   -2.045E+00   -2.032E+00   -2.019E+00   -2.006E+00   -1.993E+00
    -1.979E+00   -1.966E+00   -1.952E+00   -1.938E+00   -1.924E+00   -1.911E+00   -1.896E+00   -1.882E+00   -1.868E+00   -1.854E+00
    -1.839E+00   -1.825E+00   -1.811E+00   -1.796E+00   -1.781E+00   -1.767E+00   -1.752E+00   -1.737E+00   -1.722E+00   -1.707E+00
    -1.692E+00   -1.677E+00   -1.662E+00   -1.647E+00   -1.632E+00   -1.617E+00   -1.602E+00   -1.587E+00   -1.571E+00   -1.556E+00
    -1.541E+00   -1.525E+00   -1.510E+00   -1.495E+00   -1.479E+00   -1.464E+00   -1.448E+00   -1.433E+00   -1.417E+00   -1.402E+00
    -1.386E+00   -1.371E+00   -1.355E+00   -1.339E+00   -1.324E+00   -1.308E+00   -1.293E+00   -1.277E+00   -1.261E+00   -1.246E+00
    -1.230E+00   -1.214E+00   -1.199E+00   -1.183E+00   -1.168E+00   -1.152E+00   -1.137E+00   -1.121E+00
 Ala      Conc. = 8.39E+01
