 LCModel (Version 6.3-1L) Copyright: S.W. Provencher.          Ref.: Magn. Reson. Med. 30:672-679 (1993).                
 Slice#2 Row#10 Col#10  PD_05_press_1_raw_act
 36 lines in following concentration table = NCONC+1
    Conc.  %SD /Cr+PCr  Metabolite                                         
   21.474 353% 1.6E-02 Ala                                                 
    0.000 999%   0.000 Asp                                                 
  458.842  37%   0.347 Cr                                                  
  864.054  21%   0.653 PCr                                                 
    0.000 999%   0.000 GABA                                                
    0.000 999%   0.000 Glc                                                 
  906.697  18%   0.685 Gln                                                 
 1.54E+03  12%   1.161 Glu                                                 
  499.214   3%   0.377 GPC                                                 
    0.000 999%   0.000 PCh                                                 
  320.092  16%   0.242 GSH                                                 
 1.19E+03  16%   0.897 Ins                                                 
   32.469 278% 2.5E-02 Lac                                                 
 2.23E+03   5%   1.687 NAA                                                 
  234.280  44%   0.177 NAAG                                                
  135.502  15%   0.102 Scyllo                                              
    0.000 999%   0.000 Tau                                                 
  310.347  27%   0.235 -CrCH2                                              
  499.214   3%   0.377 GPC+PCh                                             
 2.47E+03   3%   1.864 NAA+NAAG                                            
 1.32E+03   3%   1.000 Cr+PCr                                              
 2.44E+03  11%   1.847 Glu+Gln                                             
  231.652 340%   0.175 Lip13a                                              
  365.809 141%   0.277 Lip13b                                              
   47.597 372% 3.6E-02 Lip09                                               
 1.34E+03  18%   1.014 MM09                                                
  134.241  86%   0.101 Lip20                                               
 3.03E+03  11%   2.293 MM20                                                
  405.432  42%   0.306 MM12                                                
  772.200  36%   0.584 MM14                                                
  918.340  24%   0.694 MM17                                                
  597.461  66%   0.452 Lip13a+Lip13b                                       
 1.78E+03  20%   1.342 MM14+Lip13a+Lip13b+MM12                             
 1.39E+03  13%   1.050 MM09+Lip09                                          
 3.17E+03  10%   2.395 MM20+Lip20                                          
   6 lines in following misc. output table
  FWHM = 0.054 ppm    S/N =  18                                            
  Data shift = 0.023 ppm                                                   
  Ph: -35 deg     -14.3 deg/ppm                                            
  alphaB,S = 8.0E-01,   1.5E+02                                            
   14 spline knots.   Ns = 7(1)                                            
  ( 9) 2 infls.   ( 3) 1 extrs.                                            
  498 points on ppm-axis = NY
      4.000000     3.992357     3.984714     3.977070     3.969427     3.961784     3.954141     3.946497     3.938854     3.931211
      3.923568     3.915925     3.908281     3.900638     3.892995     3.885352     3.877708     3.870065     3.862422     3.854779
      3.847136     3.839492     3.831849     3.824206     3.816563     3.808919     3.801276     3.793633     3.785990     3.778347
      3.770703     3.763060     3.755417     3.747774     3.740130     3.732487     3.724844     3.717201     3.709558     3.701914
      3.694271     3.686628     3.678985     3.671341     3.663698     3.656055     3.648412     3.640769     3.633125     3.625482
      3.617839     3.610196     3.602552     3.594909     3.587266     3.579623     3.571980     3.564336     3.556693     3.549050
      3.541407     3.533763     3.526120     3.518477     3.510834     3.503191     3.495547     3.487904     3.480261     3.472618
      3.464974     3.457331     3.449688     3.442045     3.434402     3.426758     3.419115     3.411472     3.403829     3.396185
      3.388542     3.380899     3.373256     3.365613     3.357969     3.350326     3.342683     3.335040     3.327396     3.319753
      3.312110     3.304467     3.296824     3.289180     3.281537     3.273894     3.266251     3.258607     3.250964     3.243321
      3.235678     3.228034     3.220391     3.212748     3.205105     3.197462     3.189818     3.182175     3.174532     3.166889
      3.159245     3.151602     3.143959     3.136316     3.128673     3.121029     3.113386     3.105743     3.098100     3.090456
      3.082813     3.075170     3.067527     3.059884     3.052240     3.044597     3.036954     3.029311     3.021667     3.014024
      3.006381     2.998738     2.991095     2.983451     2.975808     2.968165     2.960522     2.952878     2.945235     2.937592
      2.929949     2.922306     2.914662     2.907019     2.899376     2.891733     2.884089     2.876446     2.868803     2.861160
      2.853517     2.845873     2.838230     2.830587     2.822944     2.815300     2.807657     2.800014     2.792371     2.784728
      2.777084     2.769441     2.761798     2.754155     2.746511     2.738868     2.731225     2.723582     2.715939     2.708295
      2.700652     2.693009     2.685366     2.677722     2.670079     2.662436     2.654793     2.647150     2.639506     2.631863
      2.624220     2.616577     2.608933     2.601290     2.593647     2.586004     2.578361     2.570717     2.563074     2.555431
      2.547788     2.540144     2.532501     2.524858     2.517215     2.509572     2.501928     2.494285     2.486642     2.478999
      2.471355     2.463712     2.456069     2.448426     2.440783     2.433139     2.425496     2.417853     2.410210     2.402566
      2.394923     2.387280     2.379637     2.371994     2.364350     2.356707     2.349064     2.341421     2.333777     2.326134
      2.318491     2.310848     2.303205     2.295561     2.287918     2.280275     2.272632     2.264988     2.257345     2.249702
      2.242059     2.234416     2.226772     2.219129     2.211486     2.203843     2.196199     2.188556     2.180913     2.173270
      2.165627     2.157983     2.150340     2.142697     2.135054     2.127410     2.119767     2.112124     2.104481     2.096838
      2.089194     2.081551     2.073908     2.066265     2.058621     2.050978     2.043335     2.035692     2.028049     2.020405
      2.012762     2.005119     1.997476     1.989833     1.982190     1.974546     1.966903     1.959260     1.951617     1.943974
      1.936331     1.928688     1.921045     1.913402     1.905759     1.898115     1.890472     1.882829     1.875186     1.867543
      1.859900     1.852257     1.844614     1.836971     1.829327     1.821684     1.814041     1.806398     1.798755     1.791112
      1.783469     1.775826     1.768183     1.760540     1.752896     1.745253     1.737610     1.729967     1.722324     1.714681
      1.707038     1.699395     1.691752     1.684108     1.676465     1.668822     1.661179     1.653536     1.645893     1.638250
      1.630607     1.622964     1.615321     1.607677     1.600034     1.592391     1.584748     1.577105     1.569462     1.561819
      1.554176     1.546533     1.538890     1.531246     1.523603     1.515960     1.508317     1.500674     1.493031     1.485388
      1.477745     1.470102     1.462458     1.454815     1.447172     1.439529     1.431886     1.424243     1.416600     1.408957
      1.401314     1.393671     1.386027     1.378384     1.370741     1.363098     1.355455     1.347812     1.340169     1.332526
      1.324883     1.317240     1.309596     1.301953     1.294310     1.286667     1.279024     1.271381     1.263738     1.256095
      1.248452     1.240808     1.233165     1.225522     1.217879     1.210236     1.202593     1.194950     1.187307     1.179664
      1.172021     1.164377     1.156734     1.149091     1.141448     1.133805     1.126162     1.118519     1.110876     1.103233
      1.095590     1.087946     1.080303     1.072660     1.065017     1.057374     1.049731     1.042088     1.034445     1.026802
      1.019158     1.011515     1.003872     0.996229     0.988586     0.980943     0.973300     0.965657     0.958014     0.950371
      0.942727     0.935084     0.927441     0.919798     0.912155     0.904512     0.896869     0.889226     0.881583     0.873940
      0.866296     0.858653     0.851010     0.843367     0.835724     0.828081     0.820438     0.812795     0.805152     0.797508
      0.789865     0.782222     0.774579     0.766936     0.759293     0.751650     0.744007     0.736364     0.728721     0.721077
      0.713434     0.705791     0.698148     0.690505     0.682862     0.675219     0.667576     0.659933     0.652290     0.644646
      0.637003     0.629360     0.621717     0.614074     0.606431     0.598788     0.591145     0.583502     0.575858     0.568215
      0.560572     0.552929     0.545286     0.537643     0.530000     0.522357     0.514714     0.507071     0.499427     0.491784
      0.484141     0.476498     0.468855     0.461212     0.453569     0.445925     0.438282     0.430639     0.422996     0.415353
      0.407710     0.400067     0.392424     0.384780     0.377137     0.369494     0.361851     0.354208     0.346565     0.338922
      0.331278     0.323635     0.315992     0.308349     0.300706     0.293063     0.285420     0.277777     0.270133     0.262490
      0.254847     0.247204     0.239561     0.231918     0.224275     0.216631     0.208988     0.201345
 NY phased data points follow
  -1.06451E+01 -9.46571E+00 -8.93807E+00 -7.86754E+00 -4.47411E+00 -2.64511E+00  2.16842E+00  6.10535E+00  9.44988E+00  1.13608E+01
   1.33558E+01  1.60865E+01  1.50138E+01  9.96434E+00  5.44288E+00  8.78366E-01 -2.63058E+00 -4.41518E+00 -6.73268E+00 -6.84495E+00
  -5.06209E+00 -4.70441E+00 -5.53289E+00 -5.20903E+00 -5.83673E+00 -4.30367E+00 -3.69445E+00 -2.48639E+00 -3.04578E+00  9.31648E-01
   2.55066E+00 -3.30740E+00  9.49739E-01 -2.45156E+00 -1.25653E+00 -4.68629E+00 -2.23811E+00 -2.97649E+00 -3.38442E+00 -1.41668E+00
  -1.22457E+00 -5.34973E-01  1.03793E+00 -6.52883E-01  4.49438E-01  2.83763E+00  5.18988E+00  4.06742E+00  3.10666E+00  4.05582E+00
   2.47598E+00  5.59910E+00  6.20746E-01 -1.07151E+00 -2.93384E+00 -2.55232E+00 -3.11292E+00  4.61148E-01 -2.34845E+00 -4.30181E+00
  -6.54825E+00 -3.44023E+00 -5.64461E+00 -8.02697E+00 -7.83890E+00 -9.01191E+00 -8.81922E+00 -7.54906E+00 -7.04148E+00 -8.87988E+00
  -7.06553E+00 -3.23658E+00 -5.41440E+00 -5.09612E+00 -6.42143E+00 -4.54317E+00 -4.84879E+00 -2.84743E+00 -7.47142E+00 -7.14347E+00
  -3.76179E+00 -3.42854E+00 -3.23193E+00 -2.35592E+00 -2.79791E+00 -2.37279E+00 -2.63884E+00 -1.59145E+00 -1.64468E+00 -7.45628E-01
  -5.66400E-01 -7.00325E-01  1.95994E+00  2.59295E+00 -9.49061E-01  1.57995E+00  9.16952E-01  5.87558E+00  9.47370E+00  1.44217E+01
   2.21310E+01  3.21413E+01  3.54345E+01  3.80662E+01  3.39498E+01  3.13534E+01  2.10217E+01  1.62577E+01  8.33946E+00  6.63332E+00
   1.67853E+00 -1.82007E+00 -1.57962E+00 -1.32044E+00 -1.68631E+00 -2.08711E+00 -9.70759E-01  1.85043E+00 -1.70804E+00 -1.73895E+00
  -1.28553E+00  3.23702E+00  6.47498E+00  1.37636E+01  2.02153E+01  3.33375E+01  3.72375E+01  4.04581E+01  3.96665E+01  3.15419E+01
   2.29783E+01  1.85422E+01  1.43266E+01  8.07172E+00  2.74230E+00 -1.05052E+00 -4.90405E+00 -2.90102E+00 -3.17278E+00 -2.52361E+00
  -1.16879E+00 -2.06114E+00 -1.23050E+00 -2.76584E+00 -9.70471E-01 -5.61227E+00 -2.31298E+00 -1.70450E+00 -1.56809E+00 -1.68815E+00
   5.66042E-01 -2.28781E+00 -1.21629E+00 -1.68818E+00 -2.03614E+00  5.69639E-01 -3.89280E+00 -2.18128E+00 -1.84749E+00 -3.20873E+00
  -3.81611E+00 -5.12968E+00 -7.12207E+00 -5.56989E+00 -4.72156E+00 -4.83781E+00 -7.82124E+00 -9.55050E+00 -8.11173E+00 -9.25291E+00
  -1.06542E+01 -9.82414E+00 -1.24937E+01 -1.17967E+01 -1.69114E+01 -1.70879E+01 -1.74910E+01 -1.56092E+01 -1.23785E+01 -1.30425E+01
  -1.01850E+01 -1.11419E+01 -1.12032E+01 -1.20910E+01 -1.23215E+01 -9.28917E+00 -1.01897E+01 -1.09234E+01 -7.22964E+00 -4.65721E+00
  -4.06648E+00 -5.20072E-01 -1.72420E+00 -3.81087E+00 -1.12033E+00 -4.22877E+00 -2.57280E+00 -5.81087E+00 -8.52574E+00 -3.92947E+00
  -2.16867E+00 -2.92814E+00  1.43737E+00 -4.63599E-04  2.66196E+00  4.49551E-01 -2.67550E+00 -6.19203E+00 -4.69557E+00 -5.07043E+00
  -5.17516E+00 -3.39053E-01  9.48907E-01  4.57924E+00  9.16186E+00  9.32862E+00  9.91502E+00  9.22407E+00  5.92878E+00  3.08426E+00
  -1.75409E+00 -2.78371E+00 -4.60858E+00 -2.88226E+00 -8.35706E-01 -1.22693E-01  4.09077E+00  5.79539E+00  4.27878E+00  8.05336E+00
   6.34876E+00  5.98995E+00  5.02825E+00  3.92626E+00  9.57723E+00  5.04820E+00  7.48915E+00  6.54229E+00  6.45457E+00  2.97702E+00
   3.39484E+00  3.63925E+00  6.35571E-01  8.62796E-01  2.19218E+00  7.90667E+00  8.28612E+00  1.16355E+01  9.47461E+00  1.31009E+01
   1.53474E+01  1.63274E+01  1.98736E+01  2.48040E+01  2.67691E+01  3.66750E+01  4.28034E+01  5.54301E+01  6.90043E+01  8.32312E+01
   8.72423E+01  8.61973E+01  7.07937E+01  5.50108E+01  4.35054E+01  3.50099E+01  2.61654E+01  1.88746E+01  1.20515E+01  9.74992E+00
   8.79564E+00  7.91683E+00  6.20648E+00  6.53503E+00  6.27970E+00  7.40949E+00  6.32909E+00  6.13890E+00  3.75462E+00  6.52221E+00
   4.86861E+00  7.65796E+00  5.55193E+00  2.42200E+00  5.09254E+00  2.72800E+00  4.58649E+00  4.51987E+00  4.35121E+00  5.91065E+00
   4.67446E+00  5.18856E+00  6.19469E+00  4.96247E+00  4.22728E+00  4.34580E+00  2.84316E+00  4.70277E+00  7.11921E+00  6.66800E+00
   5.47154E+00  5.47645E+00  3.10515E+00  7.66575E+00  5.58024E+00  8.37287E+00  7.95736E+00  6.69214E+00  8.49324E+00  7.96971E+00
   9.46653E+00  7.14329E+00  6.45799E+00  6.09261E+00  7.47509E+00  7.25147E+00  8.31501E+00  8.43667E+00  7.13449E+00  5.60849E+00
   7.54765E+00  5.73383E+00  6.44270E+00  3.82772E+00  8.59146E+00  7.51658E+00  3.18854E+00  7.94875E+00  4.54073E+00  5.66539E+00
   4.98371E+00  7.12386E+00  9.01523E+00  4.96494E+00  6.88345E+00  6.49694E+00  6.25241E+00  7.76516E+00  6.39360E+00  7.55467E+00
   7.23730E+00  5.15248E+00  7.48859E+00  6.40707E+00  8.38415E+00  1.07930E+01  1.02277E+01  1.03556E+01  1.03486E+01  8.82133E+00
   8.17660E+00  8.95294E+00  1.10746E+01  9.08095E+00  9.32031E+00  9.81145E+00  1.03021E+01  1.04957E+01  9.67437E+00  9.21762E+00
   8.71570E+00  8.09418E+00  7.68003E+00  9.60879E+00  8.57403E+00  8.31179E+00  5.88637E+00  8.56248E+00  6.14012E+00  8.31521E+00
   7.86019E+00  6.10596E+00  7.69609E+00  4.25687E+00  5.14705E+00  5.46702E+00  5.38959E+00  6.41020E+00  5.64130E+00  5.29370E+00
   7.41720E+00  6.51066E+00  8.08098E+00  8.62296E+00  5.69152E+00  7.13116E+00  8.19368E+00  8.35739E+00  7.08696E+00  6.40783E+00
   7.47974E+00  7.56164E+00  7.71857E+00  1.20449E+01  1.01873E+01  1.00524E+01  8.95173E+00  1.19030E+01  1.21686E+01  1.14488E+01
   1.11559E+01  1.14328E+01  1.05301E+01  1.21810E+01  1.53551E+01  1.10167E+01  1.09219E+01  1.34055E+01  1.39106E+01  1.35646E+01
   1.23823E+01  1.29059E+01  1.12592E+01  1.36217E+01  1.09112E+01  9.91703E+00  1.10237E+01  1.00059E+01  7.51733E+00  9.07428E+00
   8.89275E+00  7.75151E+00  6.79111E+00  7.52193E+00  6.88988E+00  4.99730E+00  5.01592E+00  5.18693E+00  6.34625E+00  8.33331E+00
   5.94158E+00  6.82606E+00  7.32925E+00  3.45385E+00  5.91277E+00  6.26474E+00  2.88577E+00  4.18597E+00  6.47980E+00  6.25362E+00
   5.59255E+00  4.93464E+00  6.97613E+00  6.99403E+00  3.55603E+00  5.37521E+00  3.93585E+00  4.73833E+00  3.97074E+00  3.87976E+00
   3.32958E+00  4.42894E+00  3.58879E+00  4.17561E+00  3.34158E+00  4.25286E+00  6.11701E+00  5.80385E+00  7.71411E+00  6.11526E+00
   4.70118E+00  5.00915E+00  4.92395E+00  3.66086E+00  3.81615E+00  3.97021E+00  5.33611E+00  3.59760E+00  6.34724E+00  2.99186E+00
   4.86998E+00  4.33288E+00  3.65322E+00  3.03107E+00  5.89903E+00  4.71362E+00  4.17151E+00  5.11328E+00  1.29043E+00  4.13067E+00
   4.60598E+00  2.36056E+00  6.35420E+00  2.57154E+00  4.41671E+00  4.96001E+00  3.30855E+00  3.84624E+00  4.91641E+00  4.06223E+00
   6.10951E+00  4.48022E+00  4.73354E+00  2.95748E+00  7.19303E+00  6.76115E+00  4.05849E+00  3.77758E+00
 NY points of the fit to the data follow
  -8.04133E+00 -8.26012E+00 -7.83731E+00 -6.63628E+00 -4.71723E+00 -2.04786E+00  1.36559E+00  5.46545E+00  9.72778E+00  1.31783E+01
   1.48360E+01  1.42617E+01  1.18782E+01  8.66618E+00  5.50930E+00  2.78818E+00  4.62677E-01 -1.57309E+00 -3.19366E+00 -4.24955E+00
  -4.82881E+00 -5.26590E+00 -5.68992E+00 -5.87877E+00 -5.83949E+00 -5.52542E+00 -4.65120E+00 -3.06006E+00 -1.00321E+00  9.31216E-01
   2.30482E+00  2.86059E+00  2.48079E+00  1.41259E+00  5.23010E-03 -1.48300E+00 -2.88504E+00 -4.11589E+00 -4.93867E+00 -5.12907E+00
  -4.73398E+00 -3.89019E+00 -2.76148E+00 -1.42314E+00  1.16296E-01  1.72512E+00  3.10141E+00  3.78634E+00  3.40938E+00  2.05399E+00
   1.82308E-01 -1.66152E+00 -3.09776E+00 -4.08608E+00 -4.72604E+00 -5.00518E+00 -4.88001E+00 -4.40226E+00 -3.78892E+00 -3.29130E+00
  -3.10382E+00 -3.32344E+00 -3.88643E+00 -4.59171E+00 -5.19626E+00 -5.51651E+00 -5.55977E+00 -5.40855E+00 -5.10951E+00 -4.71188E+00
  -4.30108E+00 -3.97028E+00 -3.80507E+00 -3.83143E+00 -4.01065E+00 -4.25537E+00 -4.47971E+00 -4.65388E+00 -4.78288E+00 -4.87097E+00
  -4.80263E+00 -4.42078E+00 -3.92932E+00 -3.33290E+00 -2.51457E+00 -1.50040E+00 -5.63385E-01 -5.53284E-02 -1.77616E-01 -8.48387E-01
  -1.74279E+00 -2.50728E+00 -2.98892E+00 -3.25784E+00 -3.33727E+00 -2.68260E+00 -2.60173E-01  3.46648E+00  8.23384E+00  1.47268E+01
   2.30070E+01  3.14909E+01  3.75590E+01  3.91502E+01  3.58494E+01  2.91997E+01  2.17127E+01  1.51077E+01  9.61101E+00  4.82902E+00
   7.34080E-01 -2.12825E+00 -3.36405E+00 -3.75737E+00 -3.90354E+00 -3.94616E+00 -3.92877E+00 -3.84513E+00 -3.62739E+00 -2.87956E+00
  -4.24343E-01  3.40219E+00  8.05285E+00  1.41647E+01  2.21167E+01  3.07576E+01  3.76212E+01  4.03962E+01  3.82030E+01  3.22100E+01
   2.49294E+01  1.83451E+01  1.28148E+01  7.79812E+00  3.14485E+00 -5.34034E-01 -2.38216E+00 -2.88706E+00 -2.84739E+00 -2.57432E+00
  -2.27835E+00 -2.08146E+00 -2.01568E+00 -2.08663E+00 -2.26962E+00 -2.50455E+00 -2.76225E+00 -3.04358E+00 -3.32664E+00 -3.58871E+00
  -3.81026E+00 -3.99158E+00 -4.13136E+00 -4.23907E+00 -4.37302E+00 -4.50867E+00 -4.63806E+00 -4.81692E+00 -5.07364E+00 -5.43761E+00
  -5.78618E+00 -5.92476E+00 -5.79117E+00 -5.53867E+00 -5.41683E+00 -5.58364E+00 -6.01432E+00 -6.54039E+00 -7.00537E+00 -7.41212E+00
  -7.82209E+00 -8.20004E+00 -8.58624E+00 -8.98895E+00 -9.34595E+00 -9.52239E+00 -9.41197E+00 -9.09747E+00 -8.80200E+00 -8.69002E+00
  -8.76551E+00 -8.79501E+00 -8.59322E+00 -8.21546E+00 -7.78502E+00 -7.30282E+00 -6.60424E+00 -5.53476E+00 -4.24637E+00 -3.05109E+00
  -2.29048E+00 -2.12265E+00 -2.36041E+00 -2.70663E+00 -2.96856E+00 -3.06787E+00 -2.89800E+00 -2.26599E+00 -1.25458E+00 -4.62887E-02
   1.15323E+00  2.02816E+00  2.32905E+00  2.00804E+00  9.86019E-01 -7.89942E-01 -3.11690E+00 -5.34835E+00 -6.76890E+00 -6.94595E+00
  -5.98131E+00 -4.31432E+00 -2.09593E+00  6.02079E-01  3.36957E+00  5.42193E+00  5.98098E+00  4.85461E+00  2.49118E+00 -4.30125E-01
  -3.20493E+00 -5.23068E+00 -6.07566E+00 -5.50283E+00 -3.70388E+00 -1.19562E+00  1.29034E+00  3.11299E+00  4.16996E+00  4.72229E+00
   4.96864E+00  4.96388E+00  4.89145E+00  5.13066E+00  5.78721E+00  6.71747E+00  7.65001E+00  8.25980E+00  8.27872E+00  7.64709E+00
   6.56319E+00  5.49576E+00  4.94803E+00  5.10529E+00  5.84440E+00  6.96221E+00  8.23609E+00  9.46679E+00  1.06368E+01  1.19293E+01
   1.32307E+01  1.46133E+01  1.66894E+01  2.14072E+01  2.87886E+01  3.68334E+01  4.60082E+01  5.74816E+01  7.04418E+01  8.13819E+01
   8.62678E+01  8.29079E+01  7.23444E+01  5.85697E+01  4.57350E+01  3.53568E+01  2.66055E+01  1.87783E+01  1.24021E+01  8.76261E+00
   7.42050E+00  6.75726E+00  6.36942E+00  6.14619E+00  5.97926E+00  5.77998E+00  5.54084E+00  5.27254E+00  4.99782E+00  4.73969E+00
   4.50988E+00  4.31115E+00  4.15438E+00  4.04810E+00  3.98163E+00  3.93785E+00  3.91132E+00  3.90935E+00  3.93949E+00  4.00406E+00
   4.10240E+00  4.23621E+00  4.40173E+00  4.59109E+00  4.79611E+00  5.01224E+00  5.23742E+00  5.47032E+00  5.70901E+00  5.95099E+00
   6.19350E+00  6.43184E+00  6.65752E+00  6.86212E+00  7.03935E+00  7.18463E+00  7.29468E+00  7.36736E+00  7.40233E+00  7.40205E+00
   7.36947E+00  7.30794E+00  7.22208E+00  7.11748E+00  7.00018E+00  6.87644E+00  6.75243E+00  6.63406E+00  6.52730E+00  6.43910E+00
   6.37726E+00  6.33711E+00  6.31359E+00  6.30994E+00  6.32220E+00  6.33524E+00  6.33175E+00  6.30536E+00  6.27320E+00  6.26178E+00
   6.28508E+00  6.35050E+00  6.45933E+00  6.60772E+00  6.78483E+00  6.97246E+00  7.14858E+00  7.29151E+00  7.39995E+00  7.49478E+00
   7.59929E+00  7.71358E+00  7.82847E+00  7.95496E+00  8.10341E+00  8.26293E+00  8.40599E+00  8.52075E+00  8.63215E+00  8.77015E+00
   8.95059E+00  9.17959E+00  9.44610E+00  9.72285E+00  9.97206E+00  1.01530E+01  1.02298E+01  1.01763E+01  9.99774E+00  9.73144E+00
   9.41192E+00  9.06064E+00  8.69356E+00  8.32936E+00  7.99247E+00  7.69359E+00  7.43021E+00  7.19986E+00  6.99978E+00  6.82674E+00
   6.67768E+00  6.54980E+00  6.44090E+00  6.34941E+00  6.27467E+00  6.21673E+00  6.17627E+00  6.15418E+00  6.15166E+00  6.16998E+00
   6.21077E+00  6.27572E+00  6.36657E+00  6.48482E+00  6.63187E+00  6.80893E+00  7.01714E+00  7.25722E+00  7.52943E+00  7.83323E+00
   8.16741E+00  8.52989E+00  8.91783E+00  9.32719E+00  9.75283E+00  1.01883E+01  1.06264E+01  1.10587E+01  1.14767E+01  1.18709E+01
   1.22320E+01  1.25507E+01  1.28185E+01  1.30280E+01  1.31735E+01  1.32505E+01  1.32565E+01  1.31912E+01  1.30562E+01  1.28553E+01
   1.25940E+01  1.22792E+01  1.19188E+01  1.15217E+01  1.10973E+01  1.06548E+01  1.02031E+01  9.75053E+00  9.30424E+00  8.87056E+00
   8.45478E+00  8.06090E+00  7.69180E+00  7.34915E+00  7.03384E+00  6.74595E+00  6.48504E+00  6.25000E+00  6.03936E+00  5.85133E+00
   5.68411E+00  5.53588E+00  5.40490E+00  5.28933E+00  5.18743E+00  5.09759E+00  5.01847E+00  4.94885E+00  4.88767E+00  4.83383E+00
   4.78642E+00  4.74462E+00  4.70787E+00  4.67561E+00  4.64736E+00  4.62256E+00  4.60080E+00  4.58173E+00  4.56518E+00  4.55089E+00
   4.53863E+00  4.52808E+00  4.51908E+00  4.51151E+00  4.50534E+00  4.50040E+00  4.49658E+00  4.49366E+00  4.49162E+00  4.49043E+00
   4.49009E+00  4.49048E+00  4.49150E+00  4.49305E+00  4.49515E+00  4.49781E+00  4.50104E+00  4.50469E+00  4.50873E+00  4.51309E+00
   4.51785E+00  4.52301E+00  4.52857E+00  4.53439E+00  4.54047E+00  4.54678E+00  4.55342E+00  4.56037E+00  4.56761E+00  4.57500E+00
   4.58259E+00  4.59038E+00  4.59848E+00  4.60682E+00  4.61537E+00  4.62404E+00  4.63290E+00  4.64198E+00  4.65135E+00  4.66093E+00
   4.67069E+00  4.68057E+00  4.69069E+00  4.70106E+00  4.71175E+00  4.72264E+00  4.73375E+00  4.74506E+00
 NY background values follow
    -1.134E+01   -1.128E+01   -1.123E+01   -1.117E+01   -1.111E+01   -1.105E+01   -1.099E+01   -1.094E+01   -1.088E+01   -1.082E+01
    -1.076E+01   -1.070E+01   -1.064E+01   -1.059E+01   -1.053E+01   -1.047E+01   -1.041E+01   -1.035E+01   -1.030E+01   -1.024E+01
    -1.018E+01   -1.012E+01   -1.007E+01   -1.001E+01   -9.954E+00   -9.897E+00   -9.840E+00   -9.784E+00   -9.728E+00   -9.672E+00
    -9.616E+00   -9.560E+00   -9.505E+00   -9.449E+00   -9.394E+00   -9.340E+00   -9.285E+00   -9.231E+00   -9.177E+00   -9.123E+00
    -9.070E+00   -9.017E+00   -8.964E+00   -8.911E+00   -8.859E+00   -8.807E+00   -8.756E+00   -8.705E+00   -8.654E+00   -8.603E+00
    -8.553E+00   -8.504E+00   -8.454E+00   -8.405E+00   -8.356E+00   -8.308E+00   -8.260E+00   -8.213E+00   -8.165E+00   -8.119E+00
    -8.072E+00   -8.026E+00   -7.980E+00   -7.935E+00   -7.890E+00   -7.846E+00   -7.802E+00   -7.758E+00   -7.715E+00   -7.672E+00
    -7.629E+00   -7.587E+00   -7.546E+00   -7.504E+00   -7.464E+00   -7.423E+00   -7.383E+00   -7.344E+00   -7.305E+00   -7.266E+00
    -7.228E+00   -7.190E+00   -7.153E+00   -7.116E+00   -7.080E+00   -7.044E+00   -7.009E+00   -6.974E+00   -6.939E+00   -6.905E+00
    -6.871E+00   -6.838E+00   -6.806E+00   -6.774E+00   -6.742E+00   -6.711E+00   -6.680E+00   -6.650E+00   -6.620E+00   -6.590E+00
    -6.561E+00   -6.533E+00   -6.505E+00   -6.477E+00   -6.450E+00   -6.423E+00   -6.396E+00   -6.370E+00   -6.344E+00   -6.319E+00
    -6.294E+00   -6.270E+00   -6.246E+00   -6.222E+00   -6.198E+00   -6.175E+00   -6.153E+00   -6.130E+00   -6.108E+00   -6.087E+00
    -6.065E+00   -6.044E+00   -6.024E+00   -6.003E+00   -5.983E+00   -5.964E+00   -5.944E+00   -5.925E+00   -5.906E+00   -5.888E+00
    -5.870E+00   -5.852E+00   -5.834E+00   -5.817E+00   -5.799E+00   -5.783E+00   -5.766E+00   -5.750E+00   -5.733E+00   -5.718E+00
    -5.702E+00   -5.686E+00   -5.671E+00   -5.655E+00   -5.640E+00   -5.624E+00   -5.609E+00   -5.594E+00   -5.578E+00   -5.563E+00
    -5.547E+00   -5.532E+00   -5.516E+00   -5.500E+00   -5.484E+00   -5.467E+00   -5.450E+00   -5.433E+00   -5.416E+00   -5.399E+00
    -5.381E+00   -5.362E+00   -5.343E+00   -5.324E+00   -5.305E+00   -5.284E+00   -5.264E+00   -5.243E+00   -5.221E+00   -5.199E+00
    -5.176E+00   -5.152E+00   -5.128E+00   -5.103E+00   -5.077E+00   -5.051E+00   -5.023E+00   -4.995E+00   -4.966E+00   -4.937E+00
    -4.906E+00   -4.875E+00   -4.842E+00   -4.809E+00   -4.775E+00   -4.740E+00   -4.704E+00   -4.667E+00   -4.630E+00   -4.591E+00
    -4.553E+00   -4.513E+00   -4.473E+00   -4.432E+00   -4.390E+00   -4.348E+00   -4.305E+00   -4.261E+00   -4.217E+00   -4.173E+00
    -4.128E+00   -4.082E+00   -4.036E+00   -3.990E+00   -3.943E+00   -3.896E+00   -3.848E+00   -3.800E+00   -3.752E+00   -3.703E+00
    -3.654E+00   -3.605E+00   -3.556E+00   -3.506E+00   -3.456E+00   -3.406E+00   -3.356E+00   -3.306E+00   -3.256E+00   -3.205E+00
    -3.155E+00   -3.104E+00   -3.054E+00   -3.003E+00   -2.953E+00   -2.902E+00   -2.852E+00   -2.802E+00   -2.752E+00   -2.702E+00
    -2.652E+00   -2.602E+00   -2.553E+00   -2.503E+00   -2.454E+00   -2.404E+00   -2.355E+00   -2.306E+00   -2.257E+00   -2.208E+00
    -2.160E+00   -2.111E+00   -2.063E+00   -2.015E+00   -1.967E+00   -1.919E+00   -1.871E+00   -1.823E+00   -1.775E+00   -1.728E+00
    -1.681E+00   -1.634E+00   -1.587E+00   -1.540E+00   -1.493E+00   -1.447E+00   -1.401E+00   -1.355E+00   -1.309E+00   -1.263E+00
    -1.217E+00   -1.172E+00   -1.126E+00   -1.081E+00   -1.036E+00   -9.917E-01   -9.471E-01   -9.028E-01   -8.586E-01   -8.146E-01
    -7.708E-01   -7.272E-01   -6.838E-01   -6.406E-01   -5.976E-01   -5.548E-01   -5.122E-01   -4.698E-01   -4.276E-01   -3.856E-01
    -3.438E-01   -3.022E-01   -2.608E-01   -2.197E-01   -1.787E-01   -1.380E-01   -9.743E-02   -5.711E-02   -1.701E-02    2.287E-02
     6.253E-02    1.020E-01    1.412E-01    1.802E-01    2.190E-01    2.575E-01    2.959E-01    3.340E-01    3.718E-01    4.095E-01
     4.469E-01    4.841E-01    5.210E-01    5.577E-01    5.942E-01    6.304E-01    6.664E-01    7.022E-01    7.377E-01    7.730E-01
     8.080E-01    8.428E-01    8.774E-01    9.117E-01    9.457E-01    9.795E-01    1.013E+00    1.046E+00    1.079E+00    1.112E+00
     1.145E+00    1.177E+00    1.209E+00    1.241E+00    1.273E+00    1.304E+00    1.335E+00    1.366E+00    1.397E+00    1.427E+00
     1.457E+00    1.487E+00    1.517E+00    1.547E+00    1.576E+00    1.605E+00    1.634E+00    1.663E+00    1.691E+00    1.720E+00
     1.748E+00    1.776E+00    1.803E+00    1.831E+00    1.858E+00    1.885E+00    1.912E+00    1.939E+00    1.966E+00    1.992E+00
     2.018E+00    2.044E+00    2.070E+00    2.096E+00    2.122E+00    2.147E+00    2.172E+00    2.197E+00    2.222E+00    2.247E+00
     2.272E+00    2.296E+00    2.320E+00    2.345E+00    2.369E+00    2.393E+00    2.416E+00    2.440E+00    2.463E+00    2.487E+00
     2.510E+00    2.533E+00    2.556E+00    2.579E+00    2.601E+00    2.624E+00    2.646E+00    2.668E+00    2.691E+00    2.713E+00
     2.734E+00    2.756E+00    2.778E+00    2.799E+00    2.821E+00    2.842E+00    2.863E+00    2.884E+00    2.905E+00    2.926E+00
     2.947E+00    2.968E+00    2.988E+00    3.009E+00    3.029E+00    3.049E+00    3.070E+00    3.090E+00    3.110E+00    3.129E+00
     3.149E+00    3.169E+00    3.189E+00    3.208E+00    3.227E+00    3.247E+00    3.266E+00    3.285E+00    3.304E+00    3.323E+00
     3.342E+00    3.361E+00    3.380E+00    3.399E+00    3.417E+00    3.436E+00    3.454E+00    3.473E+00    3.491E+00    3.509E+00
     3.527E+00    3.545E+00    3.563E+00    3.581E+00    3.599E+00    3.616E+00    3.634E+00    3.651E+00    3.669E+00    3.686E+00
     3.703E+00    3.720E+00    3.737E+00    3.754E+00    3.771E+00    3.788E+00    3.804E+00    3.821E+00    3.837E+00    3.854E+00
     3.870E+00    3.886E+00    3.902E+00    3.918E+00    3.934E+00    3.950E+00    3.965E+00    3.981E+00    3.996E+00    4.012E+00
     4.027E+00    4.042E+00    4.057E+00    4.072E+00    4.087E+00    4.101E+00    4.116E+00    4.130E+00    4.145E+00    4.159E+00
     4.173E+00    4.187E+00    4.202E+00    4.216E+00    4.230E+00    4.243E+00    4.257E+00    4.271E+00    4.285E+00    4.298E+00
     4.312E+00    4.325E+00    4.339E+00    4.352E+00    4.366E+00    4.379E+00    4.393E+00    4.406E+00    4.419E+00    4.433E+00
     4.446E+00    4.459E+00    4.472E+00    4.485E+00    4.499E+00    4.512E+00    4.525E+00    4.538E+00    4.551E+00    4.565E+00
     4.578E+00    4.591E+00    4.604E+00    4.618E+00    4.631E+00    4.644E+00    4.658E+00    4.671E+00
 Ala      Conc. = 2.15E+01
