 LCModel (Version 6.3-1L) Copyright: S.W. Provencher.          Ref.: Magn. Reson. Med. 30:672-679 (1993).                
 Slice#2 Row#7 Col#2  PD_05_press_1_raw_act
 36 lines in following concentration table = NCONC+1
    Conc.  %SD /Cr+PCr  Metabolite                                         
    0.000 999%   0.000 Ala                                                 
   25.142 104%   0.213 Asp                                                 
  118.270  21%   1.000 Cr                                                  
    0.000 999%   0.000 PCr                                                 
   14.119 112%   0.119 GABA                                                
   11.691 136% 9.9E-02 Glc                                                 
   12.224 999%   0.103 Gln                                                 
  269.201  70%   2.276 Glu                                                 
   51.722  19%   0.437 GPC                                                 
    0.000 999%   0.000 PCh                                                 
  180.976  22%   1.530 GSH                                                 
  678.268  25%   5.735 Ins                                                 
  123.563  60%   1.045 Lac                                                 
  151.943  17%   1.285 NAA                                                 
    0.000 999%   0.000 NAAG                                                
   11.400  45% 9.6E-02 Scyllo                                              
   29.567  89%   0.250 Tau                                                 
  180.313  22%   1.525 -CrCH2                                              
   51.722  19%   0.437 GPC+PCh                                             
  151.943  17%   1.285 NAA+NAAG                                            
  118.270  21%   1.000 Cr+PCr                                              
  281.425 110%   2.380 Glu+Gln                                             
    0.000 999%   0.000 Lip13a                                              
    0.000 999%   0.000 Lip13b                                              
    0.000 999%   0.000 Lip09                                               
    0.000 999%   0.000 MM09                                                
    0.000 999%   0.000 Lip20                                               
    0.000 999%   0.000 MM20                                                
 1.66E-03 999% 1.4E-05 MM12                                                
    0.000 999%   0.000 MM14                                                
 1.19E-02 999% 1.0E-04 MM17                                                
    0.000 999%   0.000 Lip13a+Lip13b                                       
 1.66E-03 999% 1.4E-05 MM14+Lip13a+Lip13b+MM12                             
    0.000 999%   0.000 MM09+Lip09                                          
    0.000 999%   0.000 MM20+Lip20                                          
   6 lines in following misc. output table
  FWHM = 0.099 ppm    S/N =   2                                            
  Data shift = 0.015 ppm                                                   
  Ph: -48 deg      -4.0 deg/ppm                                            
  alphaB,S = 7.5E-01,   6.4E+00                                            
   14 spline knots.   Ns = 8(1)                                            
  (11) 9 infls.   (12) 7 extrs.                                            
  498 points on ppm-axis = NY
      4.000000     3.992357     3.984714     3.977070     3.969427     3.961784     3.954141     3.946497     3.938854     3.931211
      3.923568     3.915925     3.908281     3.900638     3.892995     3.885352     3.877708     3.870065     3.862422     3.854779
      3.847136     3.839492     3.831849     3.824206     3.816563     3.808919     3.801276     3.793633     3.785990     3.778347
      3.770703     3.763060     3.755417     3.747774     3.740130     3.732487     3.724844     3.717201     3.709558     3.701914
      3.694271     3.686628     3.678985     3.671341     3.663698     3.656055     3.648412     3.640769     3.633125     3.625482
      3.617839     3.610196     3.602552     3.594909     3.587266     3.579623     3.571980     3.564336     3.556693     3.549050
      3.541407     3.533763     3.526120     3.518477     3.510834     3.503191     3.495547     3.487904     3.480261     3.472618
      3.464974     3.457331     3.449688     3.442045     3.434402     3.426758     3.419115     3.411472     3.403829     3.396185
      3.388542     3.380899     3.373256     3.365613     3.357969     3.350326     3.342683     3.335040     3.327396     3.319753
      3.312110     3.304467     3.296824     3.289180     3.281537     3.273894     3.266251     3.258607     3.250964     3.243321
      3.235678     3.228034     3.220391     3.212748     3.205105     3.197462     3.189818     3.182175     3.174532     3.166889
      3.159245     3.151602     3.143959     3.136316     3.128673     3.121029     3.113386     3.105743     3.098100     3.090456
      3.082813     3.075170     3.067527     3.059884     3.052240     3.044597     3.036954     3.029311     3.021667     3.014024
      3.006381     2.998738     2.991095     2.983451     2.975808     2.968165     2.960522     2.952878     2.945235     2.937592
      2.929949     2.922306     2.914662     2.907019     2.899376     2.891733     2.884089     2.876446     2.868803     2.861160
      2.853517     2.845873     2.838230     2.830587     2.822944     2.815300     2.807657     2.800014     2.792371     2.784728
      2.777084     2.769441     2.761798     2.754155     2.746511     2.738868     2.731225     2.723582     2.715939     2.708295
      2.700652     2.693009     2.685366     2.677722     2.670079     2.662436     2.654793     2.647150     2.639506     2.631863
      2.624220     2.616577     2.608933     2.601290     2.593647     2.586004     2.578361     2.570717     2.563074     2.555431
      2.547788     2.540144     2.532501     2.524858     2.517215     2.509572     2.501928     2.494285     2.486642     2.478999
      2.471355     2.463712     2.456069     2.448426     2.440783     2.433139     2.425496     2.417853     2.410210     2.402566
      2.394923     2.387280     2.379637     2.371994     2.364350     2.356707     2.349064     2.341421     2.333777     2.326134
      2.318491     2.310848     2.303205     2.295561     2.287918     2.280275     2.272632     2.264988     2.257345     2.249702
      2.242059     2.234416     2.226772     2.219129     2.211486     2.203843     2.196199     2.188556     2.180913     2.173270
      2.165627     2.157983     2.150340     2.142697     2.135054     2.127410     2.119767     2.112124     2.104481     2.096838
      2.089194     2.081551     2.073908     2.066265     2.058621     2.050978     2.043335     2.035692     2.028049     2.020405
      2.012762     2.005119     1.997476     1.989833     1.982190     1.974546     1.966903     1.959260     1.951617     1.943974
      1.936331     1.928688     1.921045     1.913402     1.905759     1.898115     1.890472     1.882829     1.875186     1.867543
      1.859900     1.852257     1.844614     1.836971     1.829327     1.821684     1.814041     1.806398     1.798755     1.791112
      1.783469     1.775826     1.768183     1.760540     1.752896     1.745253     1.737610     1.729967     1.722324     1.714681
      1.707038     1.699395     1.691752     1.684108     1.676465     1.668822     1.661179     1.653536     1.645893     1.638250
      1.630607     1.622964     1.615321     1.607677     1.600034     1.592391     1.584748     1.577105     1.569462     1.561819
      1.554176     1.546533     1.538890     1.531246     1.523603     1.515960     1.508317     1.500674     1.493031     1.485388
      1.477745     1.470102     1.462458     1.454815     1.447172     1.439529     1.431886     1.424243     1.416600     1.408957
      1.401314     1.393671     1.386027     1.378384     1.370741     1.363098     1.355455     1.347812     1.340169     1.332526
      1.324883     1.317240     1.309596     1.301953     1.294310     1.286667     1.279024     1.271381     1.263738     1.256095
      1.248452     1.240808     1.233165     1.225522     1.217879     1.210236     1.202593     1.194950     1.187307     1.179664
      1.172021     1.164377     1.156734     1.149091     1.141448     1.133805     1.126162     1.118519     1.110876     1.103233
      1.095590     1.087946     1.080303     1.072660     1.065017     1.057374     1.049731     1.042088     1.034445     1.026802
      1.019158     1.011515     1.003872     0.996229     0.988586     0.980943     0.973300     0.965657     0.958014     0.950371
      0.942727     0.935084     0.927441     0.919798     0.912155     0.904512     0.896869     0.889226     0.881583     0.873940
      0.866296     0.858653     0.851010     0.843367     0.835724     0.828081     0.820438     0.812795     0.805152     0.797508
      0.789865     0.782222     0.774579     0.766936     0.759293     0.751650     0.744007     0.736364     0.728721     0.721077
      0.713434     0.705791     0.698148     0.690505     0.682862     0.675219     0.667576     0.659933     0.652290     0.644646
      0.637003     0.629360     0.621717     0.614074     0.606431     0.598788     0.591145     0.583502     0.575858     0.568215
      0.560572     0.552929     0.545286     0.537643     0.530000     0.522357     0.514714     0.507071     0.499427     0.491784
      0.484141     0.476498     0.468855     0.461212     0.453569     0.445925     0.438282     0.430639     0.422996     0.415353
      0.407710     0.400067     0.392424     0.384780     0.377137     0.369494     0.361851     0.354208     0.346565     0.338922
      0.331278     0.323635     0.315992     0.308349     0.300706     0.293063     0.285420     0.277777     0.270133     0.262490
      0.254847     0.247204     0.239561     0.231918     0.224275     0.216631     0.208988     0.201345
 NY phased data points follow
  -7.95224E+01 -7.51832E+01 -7.57446E+01 -7.70175E+01 -7.27870E+01 -7.52305E+01 -7.18667E+01 -6.93984E+01 -6.99513E+01 -6.96274E+01
  -6.86110E+01 -6.77355E+01 -6.59171E+01 -6.63049E+01 -6.78792E+01 -6.35541E+01 -6.51043E+01 -6.37221E+01 -6.29289E+01 -6.62305E+01
  -6.51891E+01 -6.29242E+01 -6.16161E+01 -5.94331E+01 -5.98528E+01 -5.97736E+01 -5.64445E+01 -5.57574E+01 -5.81821E+01 -5.57182E+01
  -5.50637E+01 -5.61830E+01 -5.65255E+01 -5.43725E+01 -5.26050E+01 -5.24317E+01 -5.43806E+01 -5.13148E+01 -5.23484E+01 -5.22538E+01
  -5.38308E+01 -4.69648E+01 -5.16774E+01 -5.10758E+01 -4.68358E+01 -5.03503E+01 -4.80036E+01 -4.80663E+01 -4.94955E+01 -4.60436E+01
  -4.61101E+01 -4.81000E+01 -4.65568E+01 -4.42402E+01 -4.49124E+01 -4.67458E+01 -4.49871E+01 -4.70417E+01 -4.34900E+01 -4.66213E+01
  -4.57026E+01 -4.50001E+01 -4.51491E+01 -4.52185E+01 -4.19696E+01 -4.26603E+01 -4.43374E+01 -4.36669E+01 -4.04242E+01 -3.97841E+01
  -4.32892E+01 -4.09790E+01 -4.01130E+01 -4.16254E+01 -4.01460E+01 -4.06223E+01 -3.73506E+01 -3.98950E+01 -3.86431E+01 -3.64893E+01
  -3.57146E+01 -3.55083E+01 -3.82843E+01 -3.63439E+01 -3.62281E+01 -3.55149E+01 -3.86698E+01 -3.44087E+01 -3.50342E+01 -3.66496E+01
  -3.28858E+01 -3.64023E+01 -3.59067E+01 -3.43384E+01 -3.29145E+01 -3.28411E+01 -3.33929E+01 -3.19986E+01 -2.99188E+01 -3.11864E+01
  -3.28184E+01 -2.74917E+01 -3.13579E+01 -2.99697E+01 -3.08191E+01 -3.03422E+01 -2.94387E+01 -3.16642E+01 -2.96625E+01 -3.06525E+01
  -3.03529E+01 -2.80337E+01 -2.95963E+01 -3.03525E+01 -2.92611E+01 -2.86711E+01 -2.92642E+01 -3.08991E+01 -3.00588E+01 -2.82257E+01
  -2.73293E+01 -2.89357E+01 -2.51568E+01 -2.65313E+01 -2.49835E+01 -2.54000E+01 -2.32979E+01 -2.50261E+01 -2.43458E+01 -2.41728E+01
  -2.29490E+01 -2.53422E+01 -2.37581E+01 -2.58205E+01 -2.45418E+01 -2.41182E+01 -2.58377E+01 -2.47277E+01 -2.48087E+01 -2.51741E+01
  -2.48610E+01 -2.44975E+01 -2.69871E+01 -2.33835E+01 -2.54358E+01 -2.41659E+01 -2.38278E+01 -2.52731E+01 -2.48887E+01 -2.38871E+01
  -2.44956E+01 -2.43979E+01 -2.31121E+01 -2.31798E+01 -2.40115E+01 -2.13901E+01 -2.21966E+01 -2.18113E+01 -2.24252E+01 -2.32795E+01
  -2.25718E+01 -2.18497E+01 -2.13574E+01 -2.26020E+01 -2.15008E+01 -2.24638E+01 -2.03109E+01 -2.24362E+01 -2.30851E+01 -2.08590E+01
  -2.28837E+01 -2.17066E+01 -2.32700E+01 -2.06648E+01 -2.15331E+01 -1.96236E+01 -1.92819E+01 -1.63631E+01 -2.04362E+01 -1.82032E+01
  -1.73741E+01 -1.86389E+01 -1.91040E+01 -1.81824E+01 -2.08352E+01 -1.87314E+01 -1.92606E+01 -1.75120E+01 -1.79125E+01 -1.96887E+01
  -1.84311E+01 -1.67875E+01 -1.76530E+01 -1.74485E+01 -1.75180E+01 -1.76790E+01 -1.77428E+01 -1.65588E+01 -1.87724E+01 -1.86125E+01
  -1.83961E+01 -1.53516E+01 -1.60260E+01 -1.54998E+01 -1.65913E+01 -1.76289E+01 -1.69128E+01 -1.72917E+01 -1.69088E+01 -1.68411E+01
  -1.59493E+01 -1.67432E+01 -1.66755E+01 -1.75853E+01 -1.84411E+01 -1.68348E+01 -1.61312E+01 -1.60412E+01 -1.69173E+01 -1.48716E+01
  -1.54337E+01 -1.73763E+01 -1.55631E+01 -1.63519E+01 -1.72344E+01 -1.47249E+01 -1.66663E+01 -1.68001E+01 -1.46627E+01 -1.44826E+01
  -1.39421E+01 -1.42726E+01 -1.57130E+01 -1.53286E+01 -1.51338E+01 -1.53508E+01 -1.53854E+01 -1.65800E+01 -1.59035E+01 -1.47508E+01
  -1.48148E+01 -1.54459E+01 -1.45868E+01 -1.47598E+01 -1.57301E+01 -1.25357E+01 -1.34725E+01 -1.50828E+01 -1.34911E+01 -1.36823E+01
  -1.34436E+01 -1.55665E+01 -1.49557E+01 -1.39439E+01 -1.55180E+01 -1.31445E+01 -1.05582E+01 -1.20486E+01 -1.19864E+01 -9.02189E+00
  -9.32392E+00 -8.63368E+00 -1.21171E+01 -1.37819E+01 -1.06668E+01 -1.03697E+01 -1.33738E+01 -1.58870E+01 -1.31579E+01 -1.48254E+01
  -1.24355E+01 -1.28644E+01 -1.49515E+01 -1.29225E+01 -1.32427E+01 -1.55343E+01 -1.31311E+01 -1.42690E+01 -1.45320E+01 -1.57683E+01
  -1.32982E+01 -1.36362E+01 -1.33472E+01 -1.37453E+01 -1.16290E+01 -1.29086E+01 -1.56763E+01 -1.38831E+01 -1.24691E+01 -1.48560E+01
  -1.27515E+01 -1.30932E+01 -1.29663E+01 -1.21124E+01 -1.13225E+01 -1.32872E+01 -1.33325E+01 -1.25066E+01 -1.11926E+01 -1.20707E+01
  -1.21894E+01 -1.15784E+01 -1.54734E+01 -1.15457E+01 -1.24561E+01 -1.15662E+01 -1.33950E+01 -1.17089E+01 -1.38972E+01 -1.40919E+01
  -1.20024E+01 -1.37288E+01 -1.25609E+01 -9.86663E+00 -1.12906E+01 -1.24608E+01 -1.26283E+01 -1.24473E+01 -1.16052E+01 -1.34434E+01
  -1.38611E+01 -1.36342E+01 -1.11700E+01 -1.35847E+01 -1.24626E+01 -1.22432E+01 -1.12042E+01 -1.20797E+01 -1.31146E+01 -1.12084E+01
  -1.16456E+01 -1.22182E+01 -1.18567E+01 -1.29984E+01 -1.24763E+01 -1.07300E+01 -1.36686E+01 -9.97162E+00 -1.21986E+01 -1.19711E+01
  -1.04897E+01 -1.28497E+01 -9.00478E+00 -1.15642E+01 -1.16954E+01 -9.87905E+00 -1.03399E+01 -1.21329E+01 -1.08441E+01 -1.33534E+01
  -1.15890E+01 -1.00655E+01 -1.29477E+01 -1.17715E+01 -1.16478E+01 -1.23444E+01 -1.24988E+01 -9.55138E+00 -1.05207E+01 -7.63787E+00
  -1.11647E+01 -1.08138E+01 -1.04373E+01 -8.88032E+00 -1.26932E+01 -1.16291E+01 -1.04784E+01 -1.35202E+01 -1.16500E+01 -9.28407E+00
  -1.21517E+01 -1.07957E+01 -9.00807E+00 -9.38656E+00 -9.52295E+00 -8.34166E+00 -8.01204E+00 -6.07706E+00 -8.87449E+00 -8.16809E+00
  -8.10947E+00 -1.09002E+01 -1.07764E+01 -7.17498E+00 -9.37030E+00 -1.07621E+01 -9.65522E+00 -1.07220E+01 -9.26683E+00 -9.64782E+00
  -1.01525E+01 -9.51513E+00 -1.07665E+01 -1.09683E+01 -8.40176E+00 -1.07189E+01 -9.38077E+00 -8.08671E+00 -1.04324E+01 -1.01985E+01
  -1.01011E+01 -1.18087E+01 -9.80593E+00 -1.02645E+01 -1.15878E+01 -1.27223E+01 -8.04462E+00 -1.00901E+01 -1.03643E+01 -8.96079E+00
  -1.24927E+01 -9.82929E+00 -9.05316E+00 -8.42570E+00 -1.23376E+01 -1.13231E+01 -9.21441E+00 -8.60581E+00 -9.57654E+00 -8.95276E+00
  -1.05309E+01 -9.09995E+00 -9.69258E+00 -9.55146E+00 -1.04489E+01 -9.45097E+00 -1.11549E+01 -1.03999E+01 -9.62204E+00 -8.81088E+00
  -1.05745E+01 -1.17782E+01 -8.38334E+00 -1.08147E+01 -9.63606E+00 -9.41492E+00 -9.67696E+00 -1.12176E+01 -8.53906E+00 -8.24558E+00
  -8.32305E+00 -8.89962E+00 -9.33971E+00 -7.49305E+00 -8.82551E+00 -1.03679E+01 -8.26714E+00 -9.71102E+00 -9.05233E+00 -9.27419E+00
  -7.30403E+00 -9.56669E+00 -9.11666E+00 -5.37426E+00 -9.43403E+00 -6.11239E+00 -7.53536E+00 -6.07632E+00 -8.90844E+00 -8.97828E+00
  -7.98444E+00 -9.83902E+00 -7.36188E+00 -8.27925E+00 -1.01242E+01 -6.80312E+00 -7.23667E+00 -8.13729E+00 -7.10886E+00 -7.63682E+00
  -1.04003E+01 -7.48308E+00 -7.84665E+00 -8.32416E+00 -7.77980E+00 -7.86062E+00 -7.69625E+00 -8.37624E+00 -7.67232E+00 -8.09603E+00
  -7.35078E+00 -7.27872E+00 -8.06982E+00 -6.41619E+00 -8.03131E+00 -6.43775E+00 -6.28389E+00 -6.55909E+00 -7.29692E+00 -6.67380E+00
  -8.51857E+00 -7.26223E+00 -6.27077E+00 -8.52266E+00 -6.75998E+00 -6.80752E+00 -6.45888E+00 -6.00115E+00
 NY points of the fit to the data follow
  -7.38597E+01 -7.30911E+01 -7.30657E+01 -7.36770E+01 -7.27754E+01 -7.20526E+01 -7.14829E+01 -7.03401E+01 -7.01146E+01 -6.96449E+01
  -6.82743E+01 -6.79688E+01 -6.76489E+01 -6.65810E+01 -6.57035E+01 -6.46771E+01 -6.41455E+01 -6.42160E+01 -6.38816E+01 -6.36195E+01
  -6.34870E+01 -6.26923E+01 -6.11832E+01 -6.03217E+01 -6.04452E+01 -5.87544E+01 -5.69080E+01 -5.71705E+01 -5.71815E+01 -5.59726E+01
  -5.51786E+01 -5.49322E+01 -5.52183E+01 -5.48823E+01 -5.35964E+01 -5.36912E+01 -5.46423E+01 -5.44641E+01 -5.40549E+01 -5.38416E+01
  -5.27424E+01 -5.16494E+01 -5.12707E+01 -5.03025E+01 -4.90360E+01 -4.89371E+01 -4.91250E+01 -4.86453E+01 -4.80355E+01 -4.77234E+01
  -4.79181E+01 -4.78786E+01 -4.68419E+01 -4.63980E+01 -4.70036E+01 -4.69722E+01 -4.65292E+01 -4.61982E+01 -4.57373E+01 -4.53288E+01
  -4.48095E+01 -4.42426E+01 -4.39968E+01 -4.36740E+01 -4.30488E+01 -4.25048E+01 -4.23711E+01 -4.21248E+01 -4.16305E+01 -4.13460E+01
  -4.10949E+01 -4.06013E+01 -4.01447E+01 -3.97232E+01 -3.93896E+01 -3.92051E+01 -3.88553E+01 -3.84776E+01 -3.81693E+01 -3.80928E+01
  -3.82028E+01 -3.78984E+01 -3.76856E+01 -3.78433E+01 -3.78029E+01 -3.75401E+01 -3.72489E+01 -3.69512E+01 -3.68724E+01 -3.64730E+01
  -3.59430E+01 -3.58449E+01 -3.56681E+01 -3.50601E+01 -3.37062E+01 -3.28136E+01 -3.31160E+01 -3.16936E+01 -3.01725E+01 -3.08450E+01
  -3.10725E+01 -3.02140E+01 -2.99654E+01 -3.00312E+01 -3.04631E+01 -3.04298E+01 -2.95679E+01 -2.97584E+01 -3.06245E+01 -3.07560E+01
  -3.06667E+01 -3.06283E+01 -3.04559E+01 -3.02348E+01 -3.00004E+01 -2.98218E+01 -2.96123E+01 -2.93067E+01 -2.89163E+01 -2.79166E+01
  -2.71155E+01 -2.74165E+01 -2.63851E+01 -2.50563E+01 -2.53852E+01 -2.53788E+01 -2.44661E+01 -2.43299E+01 -2.43775E+01 -2.44107E+01
  -2.46234E+01 -2.44227E+01 -2.44838E+01 -2.52297E+01 -2.53920E+01 -2.53561E+01 -2.54881E+01 -2.51607E+01 -2.48112E+01 -2.49288E+01
  -2.48485E+01 -2.45449E+01 -2.43747E+01 -2.41294E+01 -2.38538E+01 -2.36390E+01 -2.34871E+01 -2.34817E+01 -2.34722E+01 -2.33715E+01
  -2.33146E+01 -2.32456E+01 -2.31094E+01 -2.29939E+01 -2.28910E+01 -2.27601E+01 -2.26545E+01 -2.25028E+01 -2.23632E+01 -2.22531E+01
  -2.20696E+01 -2.19239E+01 -2.18335E+01 -2.16802E+01 -2.15473E+01 -2.14458E+01 -2.13085E+01 -2.11947E+01 -2.10931E+01 -2.09623E+01
  -2.08342E+01 -2.07939E+01 -2.07324E+01 -2.06060E+01 -2.04867E+01 -2.04038E+01 -2.03303E+01 -2.02766E+01 -2.02074E+01 -2.00904E+01
  -2.00358E+01 -1.99584E+01 -1.97392E+01 -1.94514E+01 -1.92269E+01 -1.90361E+01 -1.88402E+01 -1.85799E+01 -1.83995E+01 -1.84152E+01
  -1.85332E+01 -1.83085E+01 -1.80584E+01 -1.82303E+01 -1.81736E+01 -1.77665E+01 -1.76376E+01 -1.77329E+01 -1.76893E+01 -1.75621E+01
  -1.73001E+01 -1.72475E+01 -1.73931E+01 -1.71045E+01 -1.67880E+01 -1.68643E+01 -1.67683E+01 -1.65026E+01 -1.62102E+01 -1.63074E+01
  -1.62544E+01 -1.58794E+01 -1.59284E+01 -1.63425E+01 -1.65075E+01 -1.64211E+01 -1.63133E+01 -1.65932E+01 -1.68574E+01 -1.63540E+01
  -1.60929E+01 -1.64528E+01 -1.65375E+01 -1.64183E+01 -1.63493E+01 -1.61527E+01 -1.61134E+01 -1.59975E+01 -1.54992E+01 -1.50479E+01
  -1.48417E+01 -1.49206E+01 -1.50542E+01 -1.48332E+01 -1.48435E+01 -1.53783E+01 -1.54790E+01 -1.52156E+01 -1.51136E+01 -1.51879E+01
  -1.51729E+01 -1.49752E+01 -1.48913E+01 -1.51014E+01 -1.52046E+01 -1.50889E+01 -1.50012E+01 -1.48754E+01 -1.46937E+01 -1.45171E+01
  -1.44333E+01 -1.41814E+01 -1.31657E+01 -1.23830E+01 -1.31758E+01 -1.21870E+01 -1.05075E+01 -1.11462E+01 -1.16762E+01 -1.08914E+01
  -1.07405E+01 -1.09348E+01 -1.14849E+01 -1.18721E+01 -1.12908E+01 -1.15741E+01 -1.27873E+01 -1.32869E+01 -1.34805E+01 -1.37498E+01
  -1.37834E+01 -1.37502E+01 -1.37290E+01 -1.37019E+01 -1.36585E+01 -1.36368E+01 -1.36167E+01 -1.35588E+01 -1.35112E+01 -1.34993E+01
  -1.34835E+01 -1.34604E+01 -1.34412E+01 -1.34256E+01 -1.34077E+01 -1.33775E+01 -1.33441E+01 -1.33148E+01 -1.32838E+01 -1.32506E+01
  -1.32181E+01 -1.31893E+01 -1.31625E+01 -1.31323E+01 -1.31022E+01 -1.30737E+01 -1.30438E+01 -1.30136E+01 -1.29828E+01 -1.29516E+01
  -1.29207E+01 -1.28894E+01 -1.28576E+01 -1.28258E+01 -1.27936E+01 -1.27617E+01 -1.27292E+01 -1.26962E+01 -1.26633E+01 -1.26303E+01
  -1.25969E+01 -1.25633E+01 -1.25292E+01 -1.24947E+01 -1.24597E+01 -1.24244E+01 -1.23886E+01 -1.23525E+01 -1.23158E+01 -1.22786E+01
  -1.22407E+01 -1.22025E+01 -1.21634E+01 -1.21239E+01 -1.20834E+01 -1.20422E+01 -1.19998E+01 -1.19565E+01 -1.19115E+01 -1.18650E+01
  -1.18161E+01 -1.17646E+01 -1.17091E+01 -1.16486E+01 -1.15806E+01 -1.15011E+01 -1.14020E+01 -1.12640E+01 -1.10253E+01 -1.06526E+01
  -1.08578E+01 -1.10360E+01 -1.05571E+01 -1.07468E+01 -1.14514E+01 -1.15580E+01 -1.15404E+01 -1.12856E+01 -1.14958E+01 -1.20158E+01
  -1.13650E+01 -1.08187E+01 -1.14311E+01 -1.15962E+01 -1.12107E+01 -1.09270E+01 -1.07106E+01 -1.07541E+01 -1.05665E+01 -1.01257E+01
  -1.01319E+01 -1.03375E+01 -1.04099E+01 -1.04995E+01 -1.05727E+01 -1.05954E+01 -1.06025E+01 -1.06014E+01 -1.05946E+01 -1.05843E+01
  -1.05712E+01 -1.05564E+01 -1.05400E+01 -1.05228E+01 -1.05047E+01 -1.04862E+01 -1.04671E+01 -1.04479E+01 -1.04282E+01 -1.04086E+01
  -1.03886E+01 -1.03688E+01 -1.03487E+01 -1.03288E+01 -1.03087E+01 -1.02887E+01 -1.02685E+01 -1.02486E+01 -1.02285E+01 -1.02085E+01
  -1.01884E+01 -1.01684E+01 -1.01483E+01 -1.01283E+01 -1.01082E+01 -1.00881E+01 -1.00679E+01 -1.00478E+01 -1.00275E+01 -1.00072E+01
  -9.98677E+00 -9.96638E+00 -9.94570E+00 -9.92510E+00 -9.90421E+00 -9.88337E+00 -9.86220E+00 -9.84104E+00 -9.81954E+00 -9.79805E+00
  -9.77621E+00 -9.75437E+00 -9.73216E+00 -9.70992E+00 -9.68732E+00 -9.66471E+00 -9.64170E+00 -9.61867E+00 -9.59522E+00 -9.57174E+00
  -9.54784E+00 -9.52390E+00 -9.49954E+00 -9.47511E+00 -9.45024E+00 -9.42530E+00 -9.39991E+00 -9.37445E+00 -9.34852E+00 -9.32249E+00
  -9.29599E+00 -9.26938E+00 -9.24230E+00 -9.21509E+00 -9.18739E+00 -9.15955E+00 -9.13121E+00 -9.10273E+00 -9.07373E+00 -9.04458E+00
  -9.01488E+00 -8.98503E+00 -8.95463E+00 -8.92406E+00 -8.89293E+00 -8.86161E+00 -8.82972E+00 -8.79763E+00 -8.76496E+00 -8.73209E+00
  -8.69862E+00 -8.66492E+00 -8.63061E+00 -8.59607E+00 -8.56094E+00 -8.52561E+00 -8.48970E+00 -8.45360E+00 -8.41695E+00 -8.38015E+00
  -8.34282E+00 -8.30536E+00 -8.26739E+00 -8.22931E+00 -8.19075E+00 -8.15212E+00 -8.11303E+00 -8.07388E+00 -8.03429E+00 -7.99467E+00
  -7.95463E+00 -7.91460E+00 -7.87417E+00 -7.83377E+00 -7.79299E+00 -7.75225E+00 -7.71117E+00 -7.67017E+00 -7.62884E+00 -7.58760E+00
  -7.54606E+00 -7.50464E+00 -7.46294E+00 -7.42140E+00 -7.37959E+00 -7.33795E+00 -7.29608E+00 -7.25440E+00 -7.21252E+00 -7.17085E+00
  -7.12899E+00 -7.08737E+00 -7.04559E+00 -7.00407E+00 -6.96240E+00 -6.92102E+00 -6.87951E+00 -6.83831E+00
 NY background values follow
    -7.402E+01   -7.352E+01   -7.303E+01   -7.253E+01   -7.204E+01   -7.154E+01   -7.105E+01   -7.055E+01   -7.006E+01   -6.956E+01
    -6.907E+01   -6.858E+01   -6.809E+01   -6.760E+01   -6.711E+01   -6.662E+01   -6.613E+01   -6.564E+01   -6.515E+01   -6.467E+01
    -6.418E+01   -6.370E+01   -6.322E+01   -6.274E+01   -6.226E+01   -6.178E+01   -6.130E+01   -6.083E+01   -6.036E+01   -5.989E+01
    -5.942E+01   -5.895E+01   -5.848E+01   -5.802E+01   -5.756E+01   -5.710E+01   -5.664E+01   -5.619E+01   -5.573E+01   -5.528E+01
    -5.484E+01   -5.439E+01   -5.395E+01   -5.351E+01   -5.307E+01   -5.264E+01   -5.220E+01   -5.178E+01   -5.135E+01   -5.093E+01
    -5.051E+01   -5.009E+01   -4.968E+01   -4.926E+01   -4.886E+01   -4.845E+01   -4.805E+01   -4.765E+01   -4.725E+01   -4.686E+01
    -4.647E+01   -4.608E+01   -4.570E+01   -4.531E+01   -4.494E+01   -4.456E+01   -4.419E+01   -4.382E+01   -4.345E+01   -4.309E+01
    -4.273E+01   -4.238E+01   -4.202E+01   -4.167E+01   -4.133E+01   -4.098E+01   -4.064E+01   -4.030E+01   -3.997E+01   -3.964E+01
    -3.931E+01   -3.899E+01   -3.867E+01   -3.835E+01   -3.804E+01   -3.773E+01   -3.742E+01   -3.711E+01   -3.681E+01   -3.652E+01
    -3.622E+01   -3.593E+01   -3.564E+01   -3.536E+01   -3.508E+01   -3.480E+01   -3.453E+01   -3.426E+01   -3.399E+01   -3.372E+01
    -3.346E+01   -3.320E+01   -3.295E+01   -3.269E+01   -3.245E+01   -3.220E+01   -3.195E+01   -3.171E+01   -3.147E+01   -3.124E+01
    -3.101E+01   -3.077E+01   -3.055E+01   -3.032E+01   -3.010E+01   -2.988E+01   -2.966E+01   -2.944E+01   -2.923E+01   -2.902E+01
    -2.881E+01   -2.861E+01   -2.840E+01   -2.820E+01   -2.800E+01   -2.780E+01   -2.761E+01   -2.741E+01   -2.722E+01   -2.703E+01
    -2.684E+01   -2.666E+01   -2.647E+01   -2.629E+01   -2.611E+01   -2.593E+01   -2.575E+01   -2.558E+01   -2.540E+01   -2.523E+01
    -2.506E+01   -2.489E+01   -2.472E+01   -2.456E+01   -2.439E+01   -2.423E+01   -2.407E+01   -2.391E+01   -2.375E+01   -2.359E+01
    -2.344E+01   -2.328E+01   -2.313E+01   -2.298E+01   -2.283E+01   -2.269E+01   -2.254E+01   -2.240E+01   -2.225E+01   -2.211E+01
    -2.197E+01   -2.184E+01   -2.170E+01   -2.156E+01   -2.143E+01   -2.130E+01   -2.117E+01   -2.104E+01   -2.091E+01   -2.079E+01
    -2.066E+01   -2.054E+01   -2.042E+01   -2.030E+01   -2.018E+01   -2.006E+01   -1.995E+01   -1.983E+01   -1.972E+01   -1.961E+01
    -1.950E+01   -1.939E+01   -1.928E+01   -1.918E+01   -1.908E+01   -1.897E+01   -1.887E+01   -1.877E+01   -1.867E+01   -1.858E+01
    -1.848E+01   -1.839E+01   -1.829E+01   -1.820E+01   -1.811E+01   -1.802E+01   -1.793E+01   -1.785E+01   -1.776E+01   -1.768E+01
    -1.759E+01   -1.751E+01   -1.743E+01   -1.735E+01   -1.727E+01   -1.720E+01   -1.712E+01   -1.704E+01   -1.697E+01   -1.690E+01
    -1.683E+01   -1.675E+01   -1.668E+01   -1.662E+01   -1.655E+01   -1.648E+01   -1.642E+01   -1.635E+01   -1.629E+01   -1.623E+01
    -1.616E+01   -1.610E+01   -1.604E+01   -1.598E+01   -1.593E+01   -1.587E+01   -1.581E+01   -1.576E+01   -1.570E+01   -1.565E+01
    -1.560E+01   -1.554E+01   -1.549E+01   -1.544E+01   -1.539E+01   -1.534E+01   -1.529E+01   -1.525E+01   -1.520E+01   -1.515E+01
    -1.511E+01   -1.506E+01   -1.502E+01   -1.497E+01   -1.493E+01   -1.489E+01   -1.485E+01   -1.480E+01   -1.476E+01   -1.472E+01
    -1.468E+01   -1.464E+01   -1.460E+01   -1.457E+01   -1.453E+01   -1.449E+01   -1.445E+01   -1.441E+01   -1.438E+01   -1.434E+01
    -1.431E+01   -1.427E+01   -1.424E+01   -1.420E+01   -1.417E+01   -1.413E+01   -1.410E+01   -1.406E+01   -1.403E+01   -1.400E+01
    -1.396E+01   -1.393E+01   -1.390E+01   -1.387E+01   -1.383E+01   -1.380E+01   -1.377E+01   -1.374E+01   -1.370E+01   -1.367E+01
    -1.364E+01   -1.361E+01   -1.358E+01   -1.355E+01   -1.351E+01   -1.348E+01   -1.345E+01   -1.342E+01   -1.339E+01   -1.336E+01
    -1.333E+01   -1.329E+01   -1.326E+01   -1.323E+01   -1.320E+01   -1.317E+01   -1.314E+01   -1.311E+01   -1.307E+01   -1.304E+01
    -1.301E+01   -1.298E+01   -1.295E+01   -1.292E+01   -1.288E+01   -1.285E+01   -1.282E+01   -1.279E+01   -1.275E+01   -1.272E+01
    -1.269E+01   -1.265E+01   -1.262E+01   -1.259E+01   -1.255E+01   -1.252E+01   -1.248E+01   -1.245E+01   -1.242E+01   -1.238E+01
    -1.235E+01   -1.231E+01   -1.227E+01   -1.224E+01   -1.220E+01   -1.217E+01   -1.213E+01   -1.210E+01   -1.206E+01   -1.202E+01
    -1.199E+01   -1.195E+01   -1.191E+01   -1.188E+01   -1.184E+01   -1.181E+01   -1.177E+01   -1.173E+01   -1.170E+01   -1.166E+01
    -1.163E+01   -1.159E+01   -1.156E+01   -1.152E+01   -1.149E+01   -1.145E+01   -1.142E+01   -1.138E+01   -1.135E+01   -1.131E+01
    -1.128E+01   -1.125E+01   -1.121E+01   -1.118E+01   -1.115E+01   -1.112E+01   -1.109E+01   -1.105E+01   -1.102E+01   -1.099E+01
    -1.096E+01   -1.093E+01   -1.090E+01   -1.088E+01   -1.085E+01   -1.082E+01   -1.079E+01   -1.077E+01   -1.074E+01   -1.071E+01
    -1.069E+01   -1.066E+01   -1.064E+01   -1.061E+01   -1.059E+01   -1.056E+01   -1.054E+01   -1.052E+01   -1.049E+01   -1.047E+01
    -1.045E+01   -1.042E+01   -1.040E+01   -1.038E+01   -1.036E+01   -1.034E+01   -1.031E+01   -1.029E+01   -1.027E+01   -1.025E+01
    -1.023E+01   -1.021E+01   -1.019E+01   -1.017E+01   -1.014E+01   -1.012E+01   -1.010E+01   -1.008E+01   -1.006E+01   -1.004E+01
    -1.002E+01   -9.997E+00   -9.976E+00   -9.955E+00   -9.933E+00   -9.912E+00   -9.890E+00   -9.868E+00   -9.847E+00   -9.825E+00
    -9.802E+00   -9.780E+00   -9.758E+00   -9.735E+00   -9.712E+00   -9.689E+00   -9.666E+00   -9.642E+00   -9.619E+00   -9.595E+00
    -9.571E+00   -9.546E+00   -9.522E+00   -9.497E+00   -9.472E+00   -9.447E+00   -9.421E+00   -9.395E+00   -9.369E+00   -9.343E+00
    -9.316E+00   -9.289E+00   -9.262E+00   -9.235E+00   -9.207E+00   -9.179E+00   -9.150E+00   -9.121E+00   -9.092E+00   -9.063E+00
    -9.033E+00   -9.003E+00   -8.972E+00   -8.942E+00   -8.910E+00   -8.879E+00   -8.847E+00   -8.815E+00   -8.782E+00   -8.749E+00
    -8.715E+00   -8.681E+00   -8.647E+00   -8.612E+00   -8.577E+00   -8.541E+00   -8.505E+00   -8.469E+00   -8.432E+00   -8.395E+00
    -8.358E+00   -8.320E+00   -8.282E+00   -8.244E+00   -8.205E+00   -8.166E+00   -8.127E+00   -8.088E+00   -8.048E+00   -8.008E+00
    -7.968E+00   -7.928E+00   -7.888E+00   -7.847E+00   -7.806E+00   -7.765E+00   -7.724E+00   -7.683E+00   -7.642E+00   -7.600E+00
    -7.559E+00   -7.517E+00   -7.475E+00   -7.434E+00   -7.392E+00   -7.350E+00   -7.308E+00   -7.266E+00   -7.225E+00   -7.183E+00
    -7.141E+00   -7.099E+00   -7.057E+00   -7.016E+00   -6.974E+00   -6.933E+00   -6.891E+00   -6.850E+00
 Asp      Conc. = 2.51E+01
