 LCModel (Version 6.3-1L) Copyright: S.W. Provencher.          Ref.: Magn. Reson. Med. 30:672-679 (1993).                
 Slice#3 Row#10 Col#7  PD_05_press_1_raw_act
 36 lines in following concentration table = NCONC+1
    Conc.  %SD /Cr+PCr  Metabolite                                         
   42.434 172% 3.7E-02 Ala                                                 
    0.000 999%   0.000 Asp                                                 
  515.206  27%   0.448 Cr                                                  
  633.876  22%   0.552 PCr                                                 
    0.000 999%   0.000 GABA                                                
    0.000 999%   0.000 Glc                                                 
  673.086  22%   0.586 Gln                                                 
 1.31E+03  13%   1.138 Glu                                                 
  352.038   4%   0.306 GPC                                                 
    0.000 999%   0.000 PCh                                                 
  412.305  11%   0.359 GSH                                                 
  902.439  18%   0.785 Ins                                                 
  148.865  54%   0.130 Lac                                                 
 1.56E+03   5%   1.358 NAA                                                 
  123.610  68%   0.108 NAAG                                                
   30.217  56% 2.6E-02 Scyllo                                              
    0.000 999%   0.000 Tau                                                 
    0.000 999%   0.000 -CrCH2                                              
  352.038   4%   0.306 GPC+PCh                                             
 1.68E+03   3%   1.465 NAA+NAAG                                            
 1.15E+03   3%   1.000 Cr+PCr                                              
 1.98E+03  12%   1.724 Glu+Gln                                             
  977.167  55%   0.850 Lip13a                                              
    0.531 999% 4.6E-04 Lip13b                                              
  109.144 152% 9.5E-02 Lip09                                               
  898.753  22%   0.782 MM09                                                
  138.515  76%   0.121 Lip20                                               
 2.28E+03  12%   1.985 MM20                                                
  284.286  51%   0.247 MM12                                                
 2.41E+03  16%   2.096 MM14                                                
  744.244  26%   0.648 MM17                                                
  977.697  46%   0.851 Lip13a+Lip13b                                       
 3.67E+03   8%   3.194 MM14+Lip13a+Lip13b+MM12                             
 1.01E+03  13%   0.877 MM09+Lip09                                          
 2.42E+03  11%   2.106 MM20+Lip20                                          
   6 lines in following misc. output table
  FWHM = 0.054 ppm    S/N =  13                                            
  Data shift = 0.031 ppm                                                   
  Ph:  16 deg      -0.6 deg/ppm                                            
  alphaB,S = 1.2E+00,   1.0E+02                                            
   14 spline knots.   Ns = 7(1)                                            
  (12) 4 infls.   (11) 1 extrs.                                            
  498 points on ppm-axis = NY
      4.000000     3.992357     3.984714     3.977070     3.969427     3.961784     3.954141     3.946497     3.938854     3.931211
      3.923568     3.915925     3.908281     3.900638     3.892995     3.885352     3.877708     3.870065     3.862422     3.854779
      3.847136     3.839492     3.831849     3.824206     3.816563     3.808919     3.801276     3.793633     3.785990     3.778347
      3.770703     3.763060     3.755417     3.747774     3.740130     3.732487     3.724844     3.717201     3.709558     3.701914
      3.694271     3.686628     3.678985     3.671341     3.663698     3.656055     3.648412     3.640769     3.633125     3.625482
      3.617839     3.610196     3.602552     3.594909     3.587266     3.579623     3.571980     3.564336     3.556693     3.549050
      3.541407     3.533763     3.526120     3.518477     3.510834     3.503191     3.495547     3.487904     3.480261     3.472618
      3.464974     3.457331     3.449688     3.442045     3.434402     3.426758     3.419115     3.411472     3.403829     3.396185
      3.388542     3.380899     3.373256     3.365613     3.357969     3.350326     3.342683     3.335040     3.327396     3.319753
      3.312110     3.304467     3.296824     3.289180     3.281537     3.273894     3.266251     3.258607     3.250964     3.243321
      3.235678     3.228034     3.220391     3.212748     3.205105     3.197462     3.189818     3.182175     3.174532     3.166889
      3.159245     3.151602     3.143959     3.136316     3.128673     3.121029     3.113386     3.105743     3.098100     3.090456
      3.082813     3.075170     3.067527     3.059884     3.052240     3.044597     3.036954     3.029311     3.021667     3.014024
      3.006381     2.998738     2.991095     2.983451     2.975808     2.968165     2.960522     2.952878     2.945235     2.937592
      2.929949     2.922306     2.914662     2.907019     2.899376     2.891733     2.884089     2.876446     2.868803     2.861160
      2.853517     2.845873     2.838230     2.830587     2.822944     2.815300     2.807657     2.800014     2.792371     2.784728
      2.777084     2.769441     2.761798     2.754155     2.746511     2.738868     2.731225     2.723582     2.715939     2.708295
      2.700652     2.693009     2.685366     2.677722     2.670079     2.662436     2.654793     2.647150     2.639506     2.631863
      2.624220     2.616577     2.608933     2.601290     2.593647     2.586004     2.578361     2.570717     2.563074     2.555431
      2.547788     2.540144     2.532501     2.524858     2.517215     2.509572     2.501928     2.494285     2.486642     2.478999
      2.471355     2.463712     2.456069     2.448426     2.440783     2.433139     2.425496     2.417853     2.410210     2.402566
      2.394923     2.387280     2.379637     2.371994     2.364350     2.356707     2.349064     2.341421     2.333777     2.326134
      2.318491     2.310848     2.303205     2.295561     2.287918     2.280275     2.272632     2.264988     2.257345     2.249702
      2.242059     2.234416     2.226772     2.219129     2.211486     2.203843     2.196199     2.188556     2.180913     2.173270
      2.165627     2.157983     2.150340     2.142697     2.135054     2.127410     2.119767     2.112124     2.104481     2.096838
      2.089194     2.081551     2.073908     2.066265     2.058621     2.050978     2.043335     2.035692     2.028049     2.020405
      2.012762     2.005119     1.997476     1.989833     1.982190     1.974546     1.966903     1.959260     1.951617     1.943974
      1.936331     1.928688     1.921045     1.913402     1.905759     1.898115     1.890472     1.882829     1.875186     1.867543
      1.859900     1.852257     1.844614     1.836971     1.829327     1.821684     1.814041     1.806398     1.798755     1.791112
      1.783469     1.775826     1.768183     1.760540     1.752896     1.745253     1.737610     1.729967     1.722324     1.714681
      1.707038     1.699395     1.691752     1.684108     1.676465     1.668822     1.661179     1.653536     1.645893     1.638250
      1.630607     1.622964     1.615321     1.607677     1.600034     1.592391     1.584748     1.577105     1.569462     1.561819
      1.554176     1.546533     1.538890     1.531246     1.523603     1.515960     1.508317     1.500674     1.493031     1.485388
      1.477745     1.470102     1.462458     1.454815     1.447172     1.439529     1.431886     1.424243     1.416600     1.408957
      1.401314     1.393671     1.386027     1.378384     1.370741     1.363098     1.355455     1.347812     1.340169     1.332526
      1.324883     1.317240     1.309596     1.301953     1.294310     1.286667     1.279024     1.271381     1.263738     1.256095
      1.248452     1.240808     1.233165     1.225522     1.217879     1.210236     1.202593     1.194950     1.187307     1.179664
      1.172021     1.164377     1.156734     1.149091     1.141448     1.133805     1.126162     1.118519     1.110876     1.103233
      1.095590     1.087946     1.080303     1.072660     1.065017     1.057374     1.049731     1.042088     1.034445     1.026802
      1.019158     1.011515     1.003872     0.996229     0.988586     0.980943     0.973300     0.965657     0.958014     0.950371
      0.942727     0.935084     0.927441     0.919798     0.912155     0.904512     0.896869     0.889226     0.881583     0.873940
      0.866296     0.858653     0.851010     0.843367     0.835724     0.828081     0.820438     0.812795     0.805152     0.797508
      0.789865     0.782222     0.774579     0.766936     0.759293     0.751650     0.744007     0.736364     0.728721     0.721077
      0.713434     0.705791     0.698148     0.690505     0.682862     0.675219     0.667576     0.659933     0.652290     0.644646
      0.637003     0.629360     0.621717     0.614074     0.606431     0.598788     0.591145     0.583502     0.575858     0.568215
      0.560572     0.552929     0.545286     0.537643     0.530000     0.522357     0.514714     0.507071     0.499427     0.491784
      0.484141     0.476498     0.468855     0.461212     0.453569     0.445925     0.438282     0.430639     0.422996     0.415353
      0.407710     0.400067     0.392424     0.384780     0.377137     0.369494     0.361851     0.354208     0.346565     0.338922
      0.331278     0.323635     0.315992     0.308349     0.300706     0.293063     0.285420     0.277777     0.270133     0.262490
      0.254847     0.247204     0.239561     0.231918     0.224275     0.216631     0.208988     0.201345
 NY phased data points follow
   1.80117E+01  1.55422E+01  1.77419E+01  1.75248E+01  1.87024E+01  1.89955E+01  2.33192E+01  2.76424E+01  3.48529E+01  3.85893E+01
   4.37287E+01  4.25436E+01  4.34276E+01  3.74203E+01  3.26680E+01  2.84108E+01  2.75665E+01  2.49332E+01  1.82216E+01  1.98819E+01
   1.92439E+01  1.69627E+01  1.91408E+01  1.78781E+01  1.60657E+01  1.88048E+01  1.88792E+01  1.98967E+01  1.93274E+01  2.06346E+01
   2.42395E+01  2.41445E+01  2.45682E+01  2.27868E+01  1.98749E+01  2.00576E+01  2.04218E+01  1.47406E+01  1.79168E+01  1.83518E+01
   1.67538E+01  1.62862E+01  1.51649E+01  2.03359E+01  1.64245E+01  1.77783E+01  1.67464E+01  2.29193E+01  2.45093E+01  1.98735E+01
   1.74069E+01  1.35694E+01  1.45492E+01  1.29474E+01  1.26950E+01  1.37099E+01  1.39817E+01  1.33183E+01  1.38755E+01  1.40375E+01
   1.54651E+01  1.25668E+01  1.09266E+01  1.12054E+01  9.77995E+00  8.58902E+00  6.45153E+00  9.06800E+00  5.72438E+00  5.17192E+00
   7.63210E+00  2.65917E+00  6.41960E+00  7.59622E+00  1.00373E+01  8.99057E+00  6.75123E+00  6.96516E+00  6.94562E+00  5.49984E+00
   6.96641E+00  6.68507E+00  8.19626E+00  7.41726E+00  9.52645E+00  5.59205E+00  9.73556E+00  8.04455E+00  5.26326E+00  5.83742E+00
   6.92237E+00  6.95737E+00  8.17313E+00  7.95017E+00  8.77762E+00  7.66119E+00  9.87913E+00  8.07253E+00  8.98400E+00  1.40986E+01
   1.87730E+01  2.83476E+01  3.49708E+01  3.61219E+01  3.70036E+01  3.36632E+01  2.87142E+01  2.48330E+01  2.00144E+01  1.67819E+01
   1.27174E+01  1.30884E+01  1.08382E+01  1.16543E+01  6.07989E+00  9.52727E+00  6.77488E+00  6.20152E+00  9.04253E+00  6.37208E+00
   6.05796E+00  4.40153E+00  1.04351E+01  1.28101E+01  1.93812E+01  3.14719E+01  3.46858E+01  4.31509E+01  4.06502E+01  3.97517E+01
   3.41390E+01  2.70739E+01  2.26892E+01  1.79832E+01  1.42140E+01  1.49776E+01  6.69123E+00  8.39552E+00  4.68656E+00  4.22006E+00
   7.92265E+00  8.42635E+00  6.56160E+00  2.08882E+00  4.95949E+00  4.95360E+00  3.04012E+00  2.04501E+00  3.99018E+00  3.65673E+00
   1.40095E+00  2.26800E+00  3.19424E+00  4.20596E+00  3.38504E+00  3.17883E+00  2.31982E+00  1.97830E+00  1.41945E+00  1.25814E+00
   4.99406E-01 -5.01474E-01 -7.05955E-01 -5.81775E-01  7.59009E-01  6.36896E-01  5.63888E-01 -3.27727E-01  1.43739E+00  1.60063E+00
  -7.11382E-01  2.27246E-01 -1.59589E+00 -6.34101E+00 -7.23178E+00 -4.06344E+00 -6.73069E+00 -4.53177E+00 -5.14044E+00 -8.67185E+00
  -4.82019E+00 -8.49159E+00 -8.06335E+00 -6.57262E+00 -3.52520E+00 -5.73826E+00 -3.40589E+00 -3.87030E+00  1.24269E+00 -1.81066E+00
   1.84672E-01  2.79646E+00  3.22374E+00  2.92784E+00  5.28072E+00  4.27737E+00  1.28430E+00  8.69961E-01  2.40640E+00  8.23009E-01
   5.20582E-01  2.92200E+00  1.67661E+00  3.74232E+00  3.34529E+00  1.17082E+00  2.16880E+00 -2.00248E-01  1.76647E+00 -3.54708E+00
  -1.93931E+00 -1.28367E+00  1.11303E+00  2.84364E+00  6.25252E+00  1.09903E+01  1.11595E+01  7.28309E+00  7.85554E+00  6.25983E+00
   1.05870E+00  1.05994E+00 -2.73056E-01 -7.36957E-01  1.55271E+00  3.04158E+00  3.89764E+00  4.23079E+00  6.07240E+00  8.03304E+00
   7.95675E+00  9.77530E+00  8.43705E+00  5.73476E+00  7.78133E+00  4.17180E+00  5.74468E+00  6.46143E+00  5.73755E+00  7.90794E+00
   5.28706E+00  5.34907E+00  5.09425E+00  8.76563E-02  6.03663E+00  3.37298E+00  9.01545E+00  9.12716E+00  9.91342E+00  9.71126E+00
   1.07978E+01  1.25727E+01  1.52185E+01  1.45684E+01  1.48578E+01  2.26147E+01  2.26347E+01  3.37672E+01  4.57008E+01  5.67989E+01
   6.23398E+01  5.93618E+01  5.46756E+01  4.51108E+01  3.54070E+01  2.74292E+01  2.31250E+01  1.49821E+01  1.23253E+01  1.01812E+01
   7.94392E+00  7.51962E+00  6.11119E+00  3.50338E+00  7.19928E+00  4.80541E+00  2.26248E+00  4.38560E+00  2.76248E+00  3.08224E+00
   6.90219E+00  4.98106E+00  4.37941E+00  3.23264E+00  2.70989E+00  2.62638E+00  3.85181E+00  1.48902E+00  3.13655E+00  2.07523E+00
   3.18138E+00  3.57358E+00  2.95300E+00  3.31917E+00  3.72604E+00  6.97604E+00  1.66891E+00  3.77447E+00  2.84356E+00  4.25232E+00
   3.53784E+00  3.56500E+00  6.79434E-01  4.60660E+00  2.99825E+00  3.22006E+00  4.86020E+00  4.38717E+00  8.58530E+00  6.02276E+00
   6.41590E+00  7.60308E+00  7.68593E+00  5.06185E+00  4.78383E+00  7.84814E+00  8.53905E+00  5.15657E+00  9.85940E+00  7.03637E+00
   6.94859E+00  8.33791E+00  6.29795E+00  8.88277E+00  1.10811E+01  8.39296E+00  1.17734E+01  6.60495E+00  9.27986E+00  1.50620E+01
   1.43216E+01  1.13178E+01  1.26971E+01  1.36697E+01  1.60682E+01  1.47857E+01  1.61383E+01  1.67603E+01  1.57515E+01  1.56481E+01
   1.61532E+01  1.68159E+01  1.89024E+01  1.75975E+01  1.75054E+01  1.53161E+01  1.72820E+01  1.60794E+01  1.63571E+01  1.09358E+01
   1.33532E+01  1.21172E+01  1.04160E+01  1.25275E+01  1.05120E+01  1.11973E+01  7.62257E+00  1.15072E+01  1.14896E+01  1.06049E+01
   9.50101E+00  8.29981E+00  8.67598E+00  1.01786E+01  7.77736E+00  5.73827E+00  6.72806E+00  4.93272E+00  5.96889E+00  8.40141E+00
   6.51092E+00  1.89815E+00  4.69449E+00  5.14013E+00  3.50099E+00  4.45274E+00  2.81298E+00  4.55654E+00  4.15176E+00  2.57013E+00
   8.15982E+00  4.28528E+00  4.78573E+00  5.69834E+00  5.94351E+00  4.78718E+00  3.57869E+00  3.61169E+00  3.79580E+00  3.54153E+00
   4.05334E+00  4.90383E+00  4.89661E+00  6.29785E+00  8.44968E+00  5.51719E+00  3.54938E+00  7.06281E+00  7.87316E+00  6.56526E+00
   6.55742E+00  5.16740E+00  4.36177E+00  7.74280E+00  5.30672E+00  9.21159E+00  5.77008E+00  9.26398E+00  5.88441E+00  6.64278E+00
   5.91548E+00  6.46085E+00  6.33453E+00  8.48554E+00  3.04688E+00  3.75098E+00  9.02178E-01  4.34494E+00  4.23104E+00  3.29847E+00
   8.05256E+00  2.89398E+00  5.51385E+00  4.14810E+00  3.03388E+00  2.58558E+00  3.68952E+00  3.85231E+00  3.96711E+00  2.72663E+00
   6.15789E+00  1.41477E+00  1.17817E+00  5.18179E+00 -1.97863E+00  3.90987E+00  4.47441E+00  2.81861E+00  1.90449E+00  5.15558E+00
   1.28040E+00  2.63435E+00  9.20681E-01  1.74856E+00  1.09534E+00  3.15931E+00  3.70738E+00 -2.51396E-01  3.00717E+00  1.38058E+00
   2.57401E-01  1.84901E+00 -5.49405E-02  3.48137E+00  4.11579E+00  1.54178E+00  1.62207E+00  3.39255E+00 -1.16898E+00  1.42049E+00
   3.40093E-01  1.55282E+00  2.90566E+00  1.19095E+00  4.14473E+00 -4.66185E-01  1.45958E+00  4.02777E+00  6.29727E-01 -1.24360E+00
   4.24089E+00  1.54235E+00  7.28098E-01  1.68870E+00  2.48378E+00  2.79852E+00  1.53993E+00  1.59651E+00  2.73942E+00  2.27223E+00
   2.81642E+00  2.94427E+00  4.63759E+00 -8.72297E-01 -5.69097E-01 -3.58045E-01  1.85670E+00  2.68485E+00  1.16253E+00  1.60122E+00
   7.48721E-02  1.26812E+00  1.57954E-01  5.20388E+00  3.19636E+00  1.16101E+00 -4.27423E-01  7.59589E-01
 NY points of the fit to the data follow
   1.75174E+01  1.70631E+01  1.69716E+01  1.73149E+01  1.82285E+01  2.00259E+01  2.30484E+01  2.74951E+01  3.28548E+01  3.78014E+01
   4.08764E+01  4.13187E+01  3.93296E+01  3.58211E+01  3.19272E+01  2.84901E+01  2.57139E+01  2.32438E+01  2.07538E+01  1.87085E+01
   1.75329E+01  1.69929E+01  1.65735E+01  1.61906E+01  1.58571E+01  1.57545E+01  1.63052E+01  1.78099E+01  2.00650E+01  2.24417E+01
   2.42645E+01  2.50915E+01  2.47467E+01  2.33521E+01  2.13790E+01  1.92964E+01  1.74717E+01  1.58743E+01  1.45070E+01  1.38289E+01
   1.37671E+01  1.40420E+01  1.45585E+01  1.54093E+01  1.67116E+01  1.81680E+01  1.93224E+01  1.97849E+01  1.93518E+01  1.82018E+01
   1.66912E+01  1.51405E+01  1.38880E+01  1.30455E+01  1.24016E+01  1.18548E+01  1.16314E+01  1.18621E+01  1.23003E+01  1.26259E+01
   1.26843E+01  1.24139E+01  1.18644E+01  1.11781E+01  1.05509E+01  1.01460E+01  9.97245E+00  9.93221E+00  9.99639E+00  1.01617E+01
   1.03507E+01  1.05019E+01  1.05340E+01  1.04310E+01  1.02177E+01  9.93313E+00  9.64311E+00  9.38856E+00  9.17450E+00  8.98667E+00
   8.80844E+00  8.69507E+00  8.65401E+00  8.64257E+00  8.54815E+00  8.25644E+00  7.75648E+00  7.15697E+00  6.62068E+00  6.28541E+00
   6.21534E+00  6.37189E+00  6.63830E+00  6.88401E+00  7.04016E+00  7.20451E+00  7.64767E+00  8.69260E+00  1.06139E+01  1.41818E+01
   2.00006E+01  2.73109E+01  3.39635E+01  3.78363E+01  3.79711E+01  3.48665E+01  2.98743E+01  2.45555E+01  2.00681E+01  1.65811E+01
   1.34492E+01  1.00942E+01  7.34444E+00  6.34916E+00  6.06201E+00  5.94674E+00  5.88968E+00  5.86628E+00  5.89219E+00  6.04607E+00
   6.61528E+00  8.00786E+00  1.04996E+01  1.47492E+01  2.13796E+01  2.97061E+01  3.75155E+01  4.24268E+01  4.32368E+01  4.03330E+01
   3.51384E+01  2.93176E+01  2.40611E+01  1.95679E+01  1.52390E+01  1.06041E+01  6.65707E+00  4.91059E+00  4.63108E+00  4.90204E+00
   5.29794E+00  5.55867E+00  5.63758E+00  5.61280E+00  5.47459E+00  5.24554E+00  4.98216E+00  4.67128E+00  4.31041E+00  3.93214E+00
   3.55180E+00  3.23831E+00  2.98171E+00  2.78685E+00  2.64847E+00  2.54842E+00  2.43859E+00  2.24354E+00  1.93598E+00  1.55933E+00
   1.23984E+00  1.11486E+00  1.19973E+00  1.35458E+00  1.39826E+00  1.23495E+00  8.82152E-01  4.47958E-01  7.21142E-02 -1.84622E-01
  -4.26397E-01 -7.33325E-01 -1.14606E+00 -1.63372E+00 -2.01811E+00 -2.20067E+00 -2.19615E+00 -2.08660E+00 -2.00845E+00 -2.02993E+00
  -2.12760E+00 -2.23249E+00 -2.28658E+00 -2.27121E+00 -2.17444E+00 -1.96524E+00 -1.53947E+00 -7.25706E-01  4.17117E-01  1.62331E+00
   2.51005E+00  2.83204E+00  2.63352E+00  2.10155E+00  1.42742E+00  7.92240E-01  3.51303E-01  3.08703E-01  7.91026E-01  1.70915E+00
   2.90347E+00  4.16418E+00  5.18941E+00  5.64700E+00  5.40364E+00  4.40102E+00  2.73919E+00  6.63990E-01 -1.24037E+00 -2.42308E+00
  -2.60225E+00 -1.78383E+00 -6.22445E-02  2.36662E+00  4.93033E+00  6.88590E+00  7.71402E+00  7.23221E+00  5.55751E+00  2.89837E+00
   9.66549E-02 -1.97135E+00 -2.91396E+00 -2.68573E+00 -1.52606E+00  2.85664E-01  2.34622E+00  3.96654E+00  4.90989E+00  5.33287E+00
   5.56510E+00  5.70378E+00  5.66936E+00  5.68674E+00  6.09837E+00  6.82417E+00  7.56533E+00  8.06467E+00  8.14563E+00  7.75362E+00
   6.92942E+00  5.94178E+00  5.29146E+00  5.26974E+00  5.74793E+00  6.43924E+00  7.23697E+00  8.00268E+00  8.58906E+00  9.09477E+00
   9.72644E+00  1.06029E+01  1.17908E+01  1.36800E+01  1.65660E+01  2.05128E+01  2.64881E+01  3.54567E+01  4.62978E+01  5.57745E+01
   6.07806E+01  6.00131E+01  5.42927E+01  4.56756E+01  3.66998E+01  2.93328E+01  2.36437E+01  1.83607E+01  1.25458E+01  7.93419E+00
   6.19354E+00  5.46311E+00  5.03637E+00  4.78692E+00  4.64006E+00  4.47054E+00  4.26826E+00  4.03865E+00  3.79107E+00  3.55127E+00
   3.34164E+00  3.15299E+00  2.97866E+00  2.83644E+00  2.73495E+00  2.66024E+00  2.59934E+00  2.55499E+00  2.53776E+00  2.55256E+00
   2.59063E+00  2.65157E+00  2.73784E+00  2.84710E+00  2.97371E+00  3.11511E+00  3.27094E+00  3.44172E+00  3.62630E+00  3.82273E+00
   4.02805E+00  4.24040E+00  4.45525E+00  4.66698E+00  4.87046E+00  5.06204E+00  5.23967E+00  5.40190E+00  5.54702E+00  5.67628E+00
   5.79188E+00  5.89654E+00  5.99465E+00  6.09224E+00  6.19575E+00  6.31229E+00  6.44935E+00  6.61490E+00  6.81732E+00  7.06593E+00
   7.37129E+00  7.73693E+00  8.16508E+00  8.65675E+00  9.19066E+00  9.72182E+00  1.02115E+01  1.06519E+01  1.10697E+01  1.15015E+01
   1.19733E+01  1.25092E+01  1.31227E+01  1.37939E+01  1.44719E+01  1.51067E+01  1.56733E+01  1.61289E+01  1.64457E+01  1.66524E+01
   1.67978E+01  1.69066E+01  1.69728E+01  1.69936E+01  1.69438E+01  1.67224E+01  1.61866E+01  1.53056E+01  1.41948E+01  1.30279E+01
   1.19642E+01  1.11662E+01  1.07428E+01  1.06540E+01  1.07349E+01  1.08244E+01  1.08753E+01  1.08202E+01  1.05512E+01  1.01408E+01
   9.69107E+00  9.24756E+00  8.78021E+00  8.23169E+00  7.68731E+00  7.23165E+00  6.82934E+00  6.46121E+00  6.12047E+00  5.80445E+00
   5.51214E+00  5.24332E+00  4.99815E+00  4.77695E+00  4.58015E+00  4.40819E+00  4.26148E+00  4.14037E+00  4.04515E+00  3.97610E+00
   3.93347E+00  3.91745E+00  3.92814E+00  3.96553E+00  4.02945E+00  4.11963E+00  4.23552E+00  4.37627E+00  4.54064E+00  4.72693E+00
   4.93295E+00  5.15598E+00  5.39275E+00  5.63933E+00  5.89127E+00  6.14359E+00  6.39097E+00  6.62785E+00  6.84857E+00  7.04754E+00
   7.21947E+00  7.35961E+00  7.46397E+00  7.52940E+00  7.55381E+00  7.53614E+00  7.47653E+00  7.37626E+00  7.23771E+00  7.06418E+00
   6.85972E+00  6.62899E+00  6.37703E+00  6.10911E+00  5.83046E+00  5.54610E+00  5.26066E+00  4.97829E+00  4.70262E+00  4.43667E+00
   4.18282E+00  3.94285E+00  3.71791E+00  3.50868E+00  3.31541E+00  3.13798E+00  2.97596E+00  2.82867E+00  2.69527E+00  2.57483E+00
   2.46639E+00  2.36899E+00  2.28162E+00  2.20334E+00  2.13323E+00  2.07048E+00  2.01435E+00  1.96416E+00  1.91928E+00  1.87912E+00
   1.84319E+00  1.81106E+00  1.78236E+00  1.75674E+00  1.73388E+00  1.71348E+00  1.69531E+00  1.67917E+00  1.66490E+00  1.65230E+00
   1.64120E+00  1.63147E+00  1.62301E+00  1.61573E+00  1.60953E+00  1.60432E+00  1.59999E+00  1.59649E+00  1.59377E+00  1.59179E+00
   1.59048E+00  1.58978E+00  1.58963E+00  1.59003E+00  1.59094E+00  1.59234E+00  1.59418E+00  1.59642E+00  1.59902E+00  1.60199E+00
   1.60533E+00  1.60900E+00  1.61296E+00  1.61720E+00  1.62171E+00  1.62649E+00  1.63153E+00  1.63681E+00  1.64230E+00  1.64798E+00
   1.65386E+00  1.65996E+00  1.66625E+00  1.67270E+00  1.67931E+00  1.68607E+00  1.69300E+00  1.70009E+00  1.70734E+00  1.71471E+00
   1.72220E+00  1.72982E+00  1.73759E+00  1.74550E+00  1.75353E+00  1.76167E+00  1.76993E+00  1.77832E+00
 NY background values follow
     1.441E+01    1.431E+01    1.422E+01    1.412E+01    1.402E+01    1.392E+01    1.383E+01    1.373E+01    1.363E+01    1.353E+01
     1.344E+01    1.334E+01    1.324E+01    1.315E+01    1.305E+01    1.295E+01    1.285E+01    1.276E+01    1.266E+01    1.256E+01
     1.246E+01    1.237E+01    1.227E+01    1.217E+01    1.208E+01    1.198E+01    1.188E+01    1.178E+01    1.169E+01    1.159E+01
     1.149E+01    1.140E+01    1.130E+01    1.120E+01    1.111E+01    1.101E+01    1.092E+01    1.082E+01    1.072E+01    1.063E+01
     1.053E+01    1.044E+01    1.034E+01    1.025E+01    1.015E+01    1.006E+01    9.960E+00    9.865E+00    9.771E+00    9.676E+00
     9.582E+00    9.488E+00    9.394E+00    9.300E+00    9.206E+00    9.113E+00    9.020E+00    8.927E+00    8.834E+00    8.741E+00
     8.649E+00    8.557E+00    8.465E+00    8.373E+00    8.282E+00    8.191E+00    8.100E+00    8.009E+00    7.919E+00    7.829E+00
     7.739E+00    7.650E+00    7.561E+00    7.472E+00    7.383E+00    7.295E+00    7.207E+00    7.120E+00    7.033E+00    6.946E+00
     6.860E+00    6.773E+00    6.688E+00    6.602E+00    6.517E+00    6.433E+00    6.349E+00    6.265E+00    6.182E+00    6.099E+00
     6.016E+00    5.934E+00    5.852E+00    5.771E+00    5.690E+00    5.610E+00    5.530E+00    5.451E+00    5.371E+00    5.293E+00
     5.215E+00    5.137E+00    5.060E+00    4.983E+00    4.907E+00    4.831E+00    4.756E+00    4.681E+00    4.606E+00    4.532E+00
     4.459E+00    4.386E+00    4.313E+00    4.241E+00    4.170E+00    4.099E+00    4.028E+00    3.958E+00    3.888E+00    3.819E+00
     3.751E+00    3.683E+00    3.615E+00    3.548E+00    3.481E+00    3.415E+00    3.350E+00    3.285E+00    3.220E+00    3.157E+00
     3.093E+00    3.030E+00    2.968E+00    2.906E+00    2.845E+00    2.784E+00    2.724E+00    2.664E+00    2.605E+00    2.546E+00
     2.488E+00    2.431E+00    2.374E+00    2.318E+00    2.262E+00    2.207E+00    2.152E+00    2.098E+00    2.044E+00    1.992E+00
     1.939E+00    1.887E+00    1.836E+00    1.785E+00    1.735E+00    1.686E+00    1.637E+00    1.589E+00    1.541E+00    1.494E+00
     1.448E+00    1.402E+00    1.356E+00    1.312E+00    1.268E+00    1.224E+00    1.181E+00    1.139E+00    1.097E+00    1.056E+00
     1.016E+00    9.762E-01    9.371E-01    8.986E-01    8.607E-01    8.235E-01    7.868E-01    7.509E-01    7.155E-01    6.808E-01
     6.468E-01    6.134E-01    5.806E-01    5.485E-01    5.170E-01    4.861E-01    4.559E-01    4.262E-01    3.972E-01    3.687E-01
     3.409E-01    3.136E-01    2.869E-01    2.607E-01    2.351E-01    2.100E-01    1.855E-01    1.615E-01    1.381E-01    1.151E-01
     9.269E-02    7.076E-02    4.932E-02    2.836E-02    7.887E-03   -1.212E-02   -3.166E-02   -5.075E-02   -6.938E-02   -8.758E-02
    -1.053E-01   -1.227E-01   -1.396E-01   -1.561E-01   -1.722E-01   -1.879E-01   -2.033E-01   -2.182E-01   -2.328E-01   -2.470E-01
    -2.609E-01   -2.744E-01   -2.875E-01   -3.004E-01   -3.129E-01   -3.251E-01   -3.369E-01   -3.485E-01   -3.598E-01   -3.707E-01
    -3.814E-01   -3.918E-01   -4.019E-01   -4.117E-01   -4.212E-01   -4.304E-01   -4.394E-01   -4.481E-01   -4.564E-01   -4.646E-01
    -4.724E-01   -4.800E-01   -4.873E-01   -4.944E-01   -5.012E-01   -5.077E-01   -5.140E-01   -5.200E-01   -5.258E-01   -5.313E-01
    -5.366E-01   -5.417E-01   -5.465E-01   -5.511E-01   -5.554E-01   -5.595E-01   -5.634E-01   -5.670E-01   -5.704E-01   -5.736E-01
    -5.766E-01   -5.794E-01   -5.819E-01   -5.842E-01   -5.864E-01   -5.883E-01   -5.900E-01   -5.915E-01   -5.928E-01   -5.939E-01
    -5.949E-01   -5.956E-01   -5.961E-01   -5.965E-01   -5.967E-01   -5.967E-01   -5.965E-01   -5.961E-01   -5.956E-01   -5.948E-01
    -5.940E-01   -5.929E-01   -5.917E-01   -5.903E-01   -5.887E-01   -5.870E-01   -5.851E-01   -5.831E-01   -5.809E-01   -5.785E-01
    -5.760E-01   -5.734E-01   -5.706E-01   -5.677E-01   -5.646E-01   -5.614E-01   -5.580E-01   -5.545E-01   -5.509E-01   -5.471E-01
    -5.432E-01   -5.392E-01   -5.350E-01   -5.308E-01   -5.264E-01   -5.218E-01   -5.172E-01   -5.125E-01   -5.076E-01   -5.026E-01
    -4.975E-01   -4.923E-01   -4.870E-01   -4.816E-01   -4.761E-01   -4.705E-01   -4.648E-01   -4.590E-01   -4.531E-01   -4.471E-01
    -4.411E-01   -4.349E-01   -4.286E-01   -4.223E-01   -4.158E-01   -4.093E-01   -4.027E-01   -3.960E-01   -3.892E-01   -3.823E-01
    -3.753E-01   -3.683E-01   -3.612E-01   -3.539E-01   -3.466E-01   -3.393E-01   -3.318E-01   -3.242E-01   -3.166E-01   -3.089E-01
    -3.011E-01   -2.933E-01   -2.853E-01   -2.773E-01   -2.692E-01   -2.611E-01   -2.528E-01   -2.445E-01   -2.361E-01   -2.277E-01
    -2.191E-01   -2.105E-01   -2.019E-01   -1.931E-01   -1.843E-01   -1.754E-01   -1.665E-01   -1.575E-01   -1.484E-01   -1.393E-01
    -1.300E-01   -1.208E-01   -1.114E-01   -1.020E-01   -9.259E-02   -8.307E-02   -7.349E-02   -6.385E-02   -5.415E-02   -4.438E-02
    -3.456E-02   -2.467E-02   -1.473E-02   -4.721E-03    5.343E-03    1.547E-02    2.565E-02    3.589E-02    4.619E-02    5.654E-02
     6.696E-02    7.743E-02    8.796E-02    9.855E-02    1.092E-01    1.199E-01    1.306E-01    1.415E-01    1.523E-01    1.632E-01
     1.742E-01    1.852E-01    1.963E-01    2.075E-01    2.187E-01    2.299E-01    2.412E-01    2.526E-01    2.640E-01    2.754E-01
     2.869E-01    2.985E-01    3.101E-01    3.218E-01    3.335E-01    3.452E-01    3.571E-01    3.689E-01    3.808E-01    3.928E-01
     4.048E-01    4.169E-01    4.290E-01    4.411E-01    4.533E-01    4.655E-01    4.778E-01    4.900E-01    5.024E-01    5.147E-01
     5.271E-01    5.395E-01    5.520E-01    5.645E-01    5.769E-01    5.895E-01    6.020E-01    6.146E-01    6.272E-01    6.398E-01
     6.524E-01    6.650E-01    6.776E-01    6.903E-01    7.029E-01    7.156E-01    7.283E-01    7.410E-01    7.537E-01    7.663E-01
     7.790E-01    7.917E-01    8.044E-01    8.171E-01    8.298E-01    8.424E-01    8.551E-01    8.677E-01    8.804E-01    8.930E-01
     9.056E-01    9.182E-01    9.308E-01    9.433E-01    9.559E-01    9.684E-01    9.809E-01    9.934E-01    1.006E+00    1.018E+00
     1.031E+00    1.043E+00    1.056E+00    1.068E+00    1.080E+00    1.093E+00    1.105E+00    1.117E+00    1.130E+00    1.142E+00
     1.154E+00    1.167E+00    1.179E+00    1.191E+00    1.203E+00    1.216E+00    1.228E+00    1.240E+00    1.252E+00    1.265E+00
     1.277E+00    1.289E+00    1.301E+00    1.313E+00    1.326E+00    1.338E+00    1.350E+00    1.362E+00    1.374E+00    1.386E+00
     1.399E+00    1.411E+00    1.423E+00    1.435E+00    1.447E+00    1.459E+00    1.471E+00    1.484E+00
 Ala      Conc. = 4.24E+01
