 LCModel (Version 6.3-1L) Copyright: S.W. Provencher.          Ref.: Magn. Reson. Med. 30:672-679 (1993).                
 Slice#2 Row#12 Col#4  PD_05_press_1_raw_act
 36 lines in following concentration table = NCONC+1
    Conc.  %SD /Cr+PCr  Metabolite                                         
    0.000 999%   0.000 Ala                                                 
   34.458 143%   0.158 Asp                                                 
    0.000 999%   0.000 Cr                                                  
  218.281  12%   1.000 PCr                                                 
   10.294 297% 4.7E-02 GABA                                                
   23.835 127%   0.109 Glc                                                 
  276.740  43%   1.268 Gln                                                 
  446.191  30%   2.044 Glu                                                 
   60.281  14%   0.276 GPC                                                 
    0.000 999%   0.000 PCh                                                 
  237.463  16%   1.088 GSH                                                 
   40.735 325%   0.187 Ins                                                 
  169.656  39%   0.777 Lac                                                 
  401.440   7%   1.839 NAA                                                 
    0.000 999%   0.000 NAAG                                                
    0.000 999%   0.000 Scyllo                                              
   11.556 437% 5.3E-02 Tau                                                 
  113.894  39%   0.522 -CrCH2                                              
   60.281  14%   0.276 GPC+PCh                                             
  401.440   7%   1.839 NAA+NAAG                                            
  218.281  12%   1.000 Cr+PCr                                              
  722.931  28%   3.312 Glu+Gln                                             
    0.000 999%   0.000 Lip13a                                              
  146.584  36%   0.672 Lip13b                                              
    0.000 999%   0.000 Lip09                                               
  428.431  18%   1.963 MM09                                                
    0.000 999%   0.000 Lip20                                               
  421.122  32%   1.929 MM20                                                
  116.193  32%   0.532 MM12                                                
  991.637   8%   4.543+MM14                                                
  426.510  15%   1.954 MM17                                                
  146.584  36%   0.672 Lip13a+Lip13b                                       
 1.25E+03   9%   5.747 MM14+Lip13a+Lip13b+MM12                             
  428.431  18%   1.963 MM09+Lip09                                          
  421.122  32%   1.929 MM20+Lip20                                          
   6 lines in following misc. output table
  FWHM = 0.061 ppm    S/N =   4                                            
  Data shift = 0.008 ppm                                                   
  Ph: -21 deg     -25.2 deg/ppm                                            
  alphaB,S = 4.1E-01,   9.7E+01                                            
   14 spline knots.   Ns = 8(1)                                            
  (12) 2 infls.   (15) 1 extrs.                                            
  498 points on ppm-axis = NY
      4.000000     3.992357     3.984714     3.977070     3.969427     3.961784     3.954141     3.946497     3.938854     3.931211
      3.923568     3.915925     3.908281     3.900638     3.892995     3.885352     3.877708     3.870065     3.862422     3.854779
      3.847136     3.839492     3.831849     3.824206     3.816563     3.808919     3.801276     3.793633     3.785990     3.778347
      3.770703     3.763060     3.755417     3.747774     3.740130     3.732487     3.724844     3.717201     3.709558     3.701914
      3.694271     3.686628     3.678985     3.671341     3.663698     3.656055     3.648412     3.640769     3.633125     3.625482
      3.617839     3.610196     3.602552     3.594909     3.587266     3.579623     3.571980     3.564336     3.556693     3.549050
      3.541407     3.533763     3.526120     3.518477     3.510834     3.503191     3.495547     3.487904     3.480261     3.472618
      3.464974     3.457331     3.449688     3.442045     3.434402     3.426758     3.419115     3.411472     3.403829     3.396185
      3.388542     3.380899     3.373256     3.365613     3.357969     3.350326     3.342683     3.335040     3.327396     3.319753
      3.312110     3.304467     3.296824     3.289180     3.281537     3.273894     3.266251     3.258607     3.250964     3.243321
      3.235678     3.228034     3.220391     3.212748     3.205105     3.197462     3.189818     3.182175     3.174532     3.166889
      3.159245     3.151602     3.143959     3.136316     3.128673     3.121029     3.113386     3.105743     3.098100     3.090456
      3.082813     3.075170     3.067527     3.059884     3.052240     3.044597     3.036954     3.029311     3.021667     3.014024
      3.006381     2.998738     2.991095     2.983451     2.975808     2.968165     2.960522     2.952878     2.945235     2.937592
      2.929949     2.922306     2.914662     2.907019     2.899376     2.891733     2.884089     2.876446     2.868803     2.861160
      2.853517     2.845873     2.838230     2.830587     2.822944     2.815300     2.807657     2.800014     2.792371     2.784728
      2.777084     2.769441     2.761798     2.754155     2.746511     2.738868     2.731225     2.723582     2.715939     2.708295
      2.700652     2.693009     2.685366     2.677722     2.670079     2.662436     2.654793     2.647150     2.639506     2.631863
      2.624220     2.616577     2.608933     2.601290     2.593647     2.586004     2.578361     2.570717     2.563074     2.555431
      2.547788     2.540144     2.532501     2.524858     2.517215     2.509572     2.501928     2.494285     2.486642     2.478999
      2.471355     2.463712     2.456069     2.448426     2.440783     2.433139     2.425496     2.417853     2.410210     2.402566
      2.394923     2.387280     2.379637     2.371994     2.364350     2.356707     2.349064     2.341421     2.333777     2.326134
      2.318491     2.310848     2.303205     2.295561     2.287918     2.280275     2.272632     2.264988     2.257345     2.249702
      2.242059     2.234416     2.226772     2.219129     2.211486     2.203843     2.196199     2.188556     2.180913     2.173270
      2.165627     2.157983     2.150340     2.142697     2.135054     2.127410     2.119767     2.112124     2.104481     2.096838
      2.089194     2.081551     2.073908     2.066265     2.058621     2.050978     2.043335     2.035692     2.028049     2.020405
      2.012762     2.005119     1.997476     1.989833     1.982190     1.974546     1.966903     1.959260     1.951617     1.943974
      1.936331     1.928688     1.921045     1.913402     1.905759     1.898115     1.890472     1.882829     1.875186     1.867543
      1.859900     1.852257     1.844614     1.836971     1.829327     1.821684     1.814041     1.806398     1.798755     1.791112
      1.783469     1.775826     1.768183     1.760540     1.752896     1.745253     1.737610     1.729967     1.722324     1.714681
      1.707038     1.699395     1.691752     1.684108     1.676465     1.668822     1.661179     1.653536     1.645893     1.638250
      1.630607     1.622964     1.615321     1.607677     1.600034     1.592391     1.584748     1.577105     1.569462     1.561819
      1.554176     1.546533     1.538890     1.531246     1.523603     1.515960     1.508317     1.500674     1.493031     1.485388
      1.477745     1.470102     1.462458     1.454815     1.447172     1.439529     1.431886     1.424243     1.416600     1.408957
      1.401314     1.393671     1.386027     1.378384     1.370741     1.363098     1.355455     1.347812     1.340169     1.332526
      1.324883     1.317240     1.309596     1.301953     1.294310     1.286667     1.279024     1.271381     1.263738     1.256095
      1.248452     1.240808     1.233165     1.225522     1.217879     1.210236     1.202593     1.194950     1.187307     1.179664
      1.172021     1.164377     1.156734     1.149091     1.141448     1.133805     1.126162     1.118519     1.110876     1.103233
      1.095590     1.087946     1.080303     1.072660     1.065017     1.057374     1.049731     1.042088     1.034445     1.026802
      1.019158     1.011515     1.003872     0.996229     0.988586     0.980943     0.973300     0.965657     0.958014     0.950371
      0.942727     0.935084     0.927441     0.919798     0.912155     0.904512     0.896869     0.889226     0.881583     0.873940
      0.866296     0.858653     0.851010     0.843367     0.835724     0.828081     0.820438     0.812795     0.805152     0.797508
      0.789865     0.782222     0.774579     0.766936     0.759293     0.751650     0.744007     0.736364     0.728721     0.721077
      0.713434     0.705791     0.698148     0.690505     0.682862     0.675219     0.667576     0.659933     0.652290     0.644646
      0.637003     0.629360     0.621717     0.614074     0.606431     0.598788     0.591145     0.583502     0.575858     0.568215
      0.560572     0.552929     0.545286     0.537643     0.530000     0.522357     0.514714     0.507071     0.499427     0.491784
      0.484141     0.476498     0.468855     0.461212     0.453569     0.445925     0.438282     0.430639     0.422996     0.415353
      0.407710     0.400067     0.392424     0.384780     0.377137     0.369494     0.361851     0.354208     0.346565     0.338922
      0.331278     0.323635     0.315992     0.308349     0.300706     0.293063     0.285420     0.277777     0.270133     0.262490
      0.254847     0.247204     0.239561     0.231918     0.224275     0.216631     0.208988     0.201345
 NY phased data points follow
  -4.57313E+01 -4.30628E+01 -4.27226E+01 -3.89731E+01 -3.87284E+01 -3.94557E+01 -3.49048E+01 -3.53741E+01 -3.25618E+01 -3.30269E+01
  -3.30587E+01 -3.31524E+01 -3.06907E+01 -3.03529E+01 -3.06434E+01 -3.13993E+01 -2.95088E+01 -2.94978E+01 -2.78070E+01 -2.78052E+01
  -2.30788E+01 -2.42357E+01 -2.37661E+01 -2.02039E+01 -2.05272E+01 -1.74225E+01 -1.93103E+01 -1.66277E+01 -1.63335E+01 -1.36501E+01
  -1.40622E+01 -1.46042E+01 -1.27761E+01 -1.33290E+01 -1.37467E+01 -1.16662E+01 -1.23828E+01 -1.23436E+01 -1.04260E+01 -1.32807E+01
  -9.78936E+00 -8.03255E+00 -1.12092E+01 -8.95706E+00 -7.65091E+00 -5.98485E+00 -9.86945E+00 -7.37782E+00 -6.87607E+00 -8.04168E+00
  -6.38984E+00 -7.07780E+00 -6.99370E+00 -4.22096E+00 -3.10696E+00 -4.96553E+00 -5.68003E-01 -4.11105E+00 -1.02786E+00 -2.00495E+00
  -6.73299E-01  1.30445E+00 -6.38117E-01 -1.80930E+00 -2.32043E+00 -1.10249E+00  6.60906E-01  1.17721E+00 -7.90099E-01  2.64796E+00
   2.61148E+00  3.82921E+00  2.13000E+00  3.18318E+00  1.81080E+00  3.75391E+00  4.41957E+00  5.12748E+00  4.81728E+00  3.32384E+00
   5.89148E+00  6.30991E+00  3.94558E+00  4.69473E+00  5.88176E+00  6.91206E+00  7.65564E+00  5.76227E+00  5.31747E+00  9.31025E+00
   1.04436E+01  8.00463E+00  9.31148E+00  1.04436E+01  9.13050E+00  1.31388E+01  9.46202E+00  1.26602E+01  1.25284E+01  1.30488E+01
   1.58129E+01  1.62095E+01  1.72618E+01  1.73645E+01  1.83579E+01  1.69495E+01  1.63214E+01  1.54554E+01  1.57912E+01  1.41013E+01
   1.40315E+01  1.59054E+01  1.48321E+01  1.53366E+01  1.39212E+01  1.52016E+01  1.74251E+01  1.64798E+01  1.68782E+01  1.80990E+01
   1.80344E+01  2.13988E+01  1.96374E+01  2.28601E+01  2.40890E+01  2.54629E+01  2.54413E+01  2.59754E+01  2.63806E+01  2.39483E+01
   2.47749E+01  2.31972E+01  2.18550E+01  2.10641E+01  2.06496E+01  2.34570E+01  2.07239E+01  2.46152E+01  1.96759E+01  2.17122E+01
   2.23387E+01  2.35604E+01  2.48939E+01  2.21436E+01  2.10959E+01  2.47703E+01  2.14287E+01  2.39032E+01  2.45604E+01  2.25050E+01
   2.39345E+01  2.35412E+01  2.28551E+01  2.49058E+01  2.45840E+01  2.60149E+01  2.60998E+01  2.62954E+01  2.39115E+01  2.49109E+01
   2.49943E+01  2.55082E+01  2.43706E+01  2.54625E+01  2.71189E+01  2.72134E+01  2.79976E+01  2.92306E+01  2.74253E+01  2.69845E+01
   2.55164E+01  2.85196E+01  2.61051E+01  2.56525E+01  2.61529E+01  2.75729E+01  2.79672E+01  2.75826E+01  2.45513E+01  2.83366E+01
   2.87334E+01  2.74273E+01  2.64516E+01  3.13566E+01  2.74741E+01  2.94138E+01  2.62392E+01  2.93241E+01  2.90931E+01  2.98045E+01
   3.07972E+01  2.89301E+01  3.26635E+01  2.93622E+01  3.19882E+01  2.98984E+01  2.95958E+01  3.06080E+01  2.88796E+01  2.79634E+01
   2.94789E+01  3.05084E+01  3.09963E+01  3.28104E+01  3.23509E+01  3.16006E+01  2.86999E+01  3.09184E+01  3.07719E+01  3.23452E+01
   3.12390E+01  3.19832E+01  3.31046E+01  3.07944E+01  3.47504E+01  3.39996E+01  3.43960E+01  3.56140E+01  3.44880E+01  3.40523E+01
   3.17926E+01  3.18411E+01  3.36093E+01  3.37475E+01  3.31121E+01  3.50419E+01  3.53667E+01  3.75489E+01  3.56033E+01  3.68097E+01
   3.48883E+01  3.70623E+01  3.80404E+01  3.48689E+01  3.76708E+01  3.72251E+01  3.82446E+01  3.79848E+01  3.62923E+01  3.89480E+01
   3.93812E+01  3.77651E+01  3.73375E+01  3.90099E+01  3.92759E+01  3.85723E+01  3.93344E+01  3.95227E+01  4.14758E+01  4.13812E+01
   4.10668E+01  4.31731E+01  4.22149E+01  4.52574E+01  4.68817E+01  4.67057E+01  5.18032E+01  5.33179E+01  5.74736E+01  5.58260E+01
   5.89658E+01  5.95704E+01  6.02389E+01  5.70378E+01  5.37384E+01  5.33102E+01  5.14602E+01  5.34614E+01  5.06256E+01  5.26426E+01
   5.04335E+01  5.05816E+01  5.31889E+01  5.40223E+01  5.28906E+01  5.52297E+01  5.38272E+01  5.58388E+01  5.46312E+01  5.46518E+01
   5.55616E+01  5.81098E+01  5.77705E+01  5.55040E+01  5.68814E+01  5.67874E+01  5.52479E+01  5.61454E+01  5.76866E+01  5.68013E+01
   5.64734E+01  5.88791E+01  5.77760E+01  5.97272E+01  5.90295E+01  5.76496E+01  6.19936E+01  5.96577E+01  6.13884E+01  6.35982E+01
   6.26269E+01  6.18002E+01  6.32575E+01  6.34371E+01  6.53795E+01  6.54888E+01  6.83270E+01  6.55999E+01  6.93856E+01  6.59304E+01
   6.68968E+01  7.00461E+01  6.91882E+01  7.04773E+01  6.87526E+01  7.03959E+01  6.78433E+01  7.03835E+01  6.72948E+01  7.01128E+01
   7.19697E+01  7.19295E+01  7.11248E+01  7.01233E+01  7.21020E+01  7.40925E+01  6.97824E+01  7.18620E+01  7.11394E+01  7.05486E+01
   7.25131E+01  7.14388E+01  7.14150E+01  7.05547E+01  6.92710E+01  6.73819E+01  6.70730E+01  6.57916E+01  6.51769E+01  6.49773E+01
   6.47022E+01  6.32385E+01  6.14944E+01  6.41476E+01  6.45571E+01  6.44878E+01  6.16144E+01  5.79655E+01  5.98252E+01  5.79740E+01
   5.84504E+01  5.69514E+01  5.43623E+01  5.67496E+01  5.84161E+01  5.75354E+01  5.47304E+01  5.61803E+01  5.59842E+01  5.43424E+01
   5.27400E+01  5.22455E+01  5.02053E+01  5.28470E+01  5.12529E+01  5.13671E+01  4.98988E+01  4.77567E+01  4.77049E+01  4.83949E+01
   4.78382E+01  4.67723E+01  4.74061E+01  4.72001E+01  4.49066E+01  4.48814E+01  4.52117E+01  4.62657E+01  4.23411E+01  4.40338E+01
   4.21900E+01  4.27911E+01  4.27117E+01  3.94135E+01  3.99660E+01  4.05537E+01  3.98963E+01  3.83948E+01  4.04834E+01  4.03204E+01
   3.84862E+01  3.77234E+01  3.88155E+01  3.96084E+01  4.09935E+01  3.79283E+01  3.85058E+01  3.97291E+01  3.96982E+01  3.91866E+01
   3.79169E+01  3.75811E+01  3.77462E+01  3.75613E+01  3.75040E+01  3.64121E+01  3.89078E+01  3.62521E+01  3.84383E+01  3.64531E+01
   3.63865E+01  3.54046E+01  3.60298E+01  3.46447E+01  3.44490E+01  3.37941E+01  3.66082E+01  3.38126E+01  3.55114E+01  3.55965E+01
   3.61250E+01  3.33579E+01  3.26830E+01  3.29177E+01  3.34485E+01  3.36319E+01  3.18679E+01  3.17230E+01  3.27306E+01  3.36327E+01
   3.09587E+01  3.12084E+01  3.02056E+01  3.26046E+01  3.05093E+01  3.15051E+01  2.98523E+01  3.23053E+01  2.91948E+01  3.07140E+01
   3.04276E+01  2.96681E+01  3.03785E+01  2.95514E+01  2.99089E+01  3.02797E+01  3.03236E+01  2.87595E+01  3.01250E+01  2.96828E+01
   3.06214E+01  2.72859E+01  2.88383E+01  2.95884E+01  2.87684E+01  2.97950E+01  2.81787E+01  2.98791E+01  2.69005E+01  2.66759E+01
   2.77426E+01  2.80228E+01  2.81984E+01  2.97048E+01  2.78774E+01  2.59106E+01  2.64555E+01  2.72727E+01  2.67240E+01  2.63477E+01
   2.69467E+01  2.71587E+01  2.70306E+01  2.58831E+01  2.55504E+01  2.41366E+01  2.58755E+01  2.31629E+01  2.65460E+01  2.57700E+01
   2.69771E+01  2.50680E+01  2.41835E+01  2.51680E+01  2.50709E+01  2.49938E+01  2.35870E+01  2.15480E+01  2.36344E+01  2.26062E+01
   2.27164E+01  2.36518E+01  2.25103E+01  2.39297E+01  2.27505E+01  2.24860E+01  2.24801E+01  2.32257E+01
 NY points of the fit to the data follow
  -4.28844E+01 -4.18463E+01 -4.07160E+01 -3.95373E+01 -3.83251E+01 -3.71005E+01 -3.59109E+01 -3.48158E+01 -3.38480E+01 -3.30178E+01
  -3.23378E+01 -3.17952E+01 -3.13221E+01 -3.08221E+01 -3.02296E+01 -2.95465E+01 -2.88226E+01 -2.80856E+01 -2.73329E+01 -2.65632E+01
  -2.58248E+01 -2.50527E+01 -2.40854E+01 -2.29639E+01 -2.17292E+01 -2.03346E+01 -1.87785E+01 -1.71616E+01 -1.56567E+01 -1.43711E+01
  -1.33954E+01 -1.28357E+01 -1.27202E+01 -1.29516E+01 -1.33222E+01 -1.36028E+01 -1.36609E+01 -1.34812E+01 -1.31036E+01 -1.25378E+01
  -1.17880E+01 -1.09947E+01 -1.02472E+01 -9.56513E+00 -8.95240E+00 -8.39330E+00 -7.87205E+00 -7.37063E+00 -6.89625E+00 -6.45371E+00
  -6.02775E+00 -5.60973E+00 -5.19160E+00 -4.76678E+00 -4.33732E+00 -3.90735E+00 -3.47506E+00 -3.04173E+00 -2.61344E+00 -2.19363E+00
  -1.78169E+00 -1.37776E+00 -9.83351E-01 -5.98375E-01 -2.18029E-01  1.62928E-01  5.47181E-01  9.35318E-01  1.32605E+00  1.71620E+00
   2.10277E+00  2.48422E+00  2.85943E+00  3.22535E+00  3.57904E+00  3.91909E+00  4.24589E+00  4.56078E+00  4.86503E+00  5.16102E+00
   5.45135E+00  5.73829E+00  6.02360E+00  6.30637E+00  6.58588E+00  6.86340E+00  7.14171E+00  7.42311E+00  7.71049E+00  8.00537E+00
   8.30724E+00  8.61515E+00  8.92726E+00  9.24814E+00  9.62743E+00  1.02198E+01  1.10340E+01  1.19852E+01  1.30444E+01  1.41873E+01
   1.53266E+01  1.63110E+01  1.70256E+01  1.74178E+01  1.74442E+01  1.70937E+01  1.64777E+01  1.58217E+01  1.53368E+01  1.51002E+01
   1.50510E+01  1.50826E+01  1.51483E+01  1.53038E+01  1.55254E+01  1.57626E+01  1.60092E+01  1.62854E+01  1.67079E+01  1.74416E+01
   1.84133E+01  1.95465E+01  2.08253E+01  2.21993E+01  2.35292E+01  2.46470E+01  2.54436E+01  2.58219E+01  2.57062E+01  2.51157E+01
   2.42267E+01  2.33165E+01  2.25874E+01  2.20856E+01  2.17379E+01  2.14620E+01  2.13104E+01  2.14033E+01  2.17005E+01  2.21323E+01
   2.26088E+01  2.30389E+01  2.33623E+01  2.35736E+01  2.36986E+01  2.37676E+01  2.38191E+01  2.38746E+01  2.39371E+01  2.40106E+01
   2.40947E+01  2.41958E+01  2.43182E+01  2.44480E+01  2.45784E+01  2.47106E+01  2.48446E+01  2.49824E+01  2.51186E+01  2.52518E+01
   2.53889E+01  2.55369E+01  2.56993E+01  2.58735E+01  2.60513E+01  2.62184E+01  2.63593E+01  2.64641E+01  2.65352E+01  2.65890E+01
   2.66515E+01  2.67223E+01  2.67908E+01  2.68485E+01  2.69017E+01  2.69712E+01  2.70580E+01  2.71496E+01  2.72432E+01  2.73312E+01
   2.74072E+01  2.74812E+01  2.75783E+01  2.77368E+01  2.79837E+01  2.83123E+01  2.86917E+01  2.90904E+01  2.94803E+01  2.98030E+01
   2.99974E+01  3.00416E+01  2.99385E+01  2.97306E+01  2.95078E+01  2.93764E+01  2.94210E+01  2.96659E+01  3.00971E+01  3.06617E+01
   3.12758E+01  3.18396E+01  3.22147E+01  3.23238E+01  3.21982E+01  3.18865E+01  3.14571E+01  3.10116E+01  3.07138E+01  3.06775E+01
   3.09124E+01  3.14097E+01  3.21300E+01  3.29445E+01  3.36360E+01  3.40275E+01  3.40883E+01  3.38680E+01  3.34367E+01  3.29294E+01
   3.25100E+01  3.23372E+01  3.24882E+01  3.29009E+01  3.34850E+01  3.41679E+01  3.48642E+01  3.54508E+01  3.58477E+01  3.61133E+01
   3.63623E+01  3.66419E+01  3.69513E+01  3.72989E+01  3.77040E+01  3.80943E+01  3.83885E+01  3.85874E+01  3.87231E+01  3.88128E+01
   3.88906E+01  3.90070E+01  3.92029E+01  3.94992E+01  3.98892E+01  4.03599E+01  4.08747E+01  4.13959E+01  4.18938E+01  4.23469E+01
   4.27685E+01  4.32256E+01  4.39973E+01  4.53358E+01  4.70576E+01  4.90337E+01  5.12448E+01  5.35899E+01  5.57975E+01  5.75512E+01
   5.86723E+01  5.90422E+01  5.85354E+01  5.72083E+01  5.54518E+01  5.38160E+01  5.26733E+01  5.20467E+01  5.17266E+01  5.15224E+01
   5.14797E+01  5.16914E+01  5.20089E+01  5.23659E+01  5.27452E+01  5.31303E+01  5.35028E+01  5.38589E+01  5.42009E+01  5.45364E+01
   5.48724E+01  5.52128E+01  5.55577E+01  5.59080E+01  5.62639E+01  5.66230E+01  5.69823E+01  5.73404E+01  5.76972E+01  5.80540E+01
   5.84122E+01  5.87728E+01  5.91382E+01  5.95105E+01  5.98920E+01  6.02849E+01  6.06915E+01  6.11138E+01  6.15529E+01  6.20095E+01
   6.24835E+01  6.29738E+01  6.34777E+01  6.39921E+01  6.45125E+01  6.50336E+01  6.55496E+01  6.60546E+01  6.65429E+01  6.70094E+01
   6.74501E+01  6.78619E+01  6.82432E+01  6.85938E+01  6.89149E+01  6.92085E+01  6.94771E+01  6.97233E+01  6.99497E+01  7.01582E+01
   7.03492E+01  7.05212E+01  7.06710E+01  7.07934E+01  7.08818E+01  7.09285E+01  7.09253E+01  7.08641E+01  7.07376E+01  7.05399E+01
   7.02673E+01  6.99182E+01  6.94941E+01  6.89988E+01  6.84394E+01  6.78256E+01  6.71707E+01  6.64922E+01  6.58182E+01  6.51998E+01
   6.46468E+01  6.40927E+01  6.35155E+01  6.29103E+01  6.22469E+01  6.14722E+01  6.05540E+01  5.95672E+01  5.86124E+01  5.77264E+01
   5.69748E+01  5.64634E+01  5.62509E+01  5.62732E+01  5.63799E+01  5.64355E+01  5.63559E+01  5.60964E+01  5.56202E+01  5.49249E+01
   5.41089E+01  5.32841E+01  5.25118E+01  5.17937E+01  5.11043E+01  5.04565E+01  4.98692E+01  4.93242E+01  4.88079E+01  4.83121E+01
   4.78308E+01  4.73604E+01  4.68983E+01  4.64432E+01  4.59942E+01  4.55513E+01  4.51145E+01  4.46843E+01  4.42610E+01  4.38454E+01
   4.34380E+01  4.30398E+01  4.26515E+01  4.22739E+01  4.19080E+01  4.15548E+01  4.12153E+01  4.08905E+01  4.05814E+01  4.02890E+01
   4.00142E+01  3.97577E+01  3.95199E+01  3.93013E+01  3.91015E+01  3.89201E+01  3.87561E+01  3.86079E+01  3.84734E+01  3.83501E+01
   3.82350E+01  3.81246E+01  3.80152E+01  3.79031E+01  3.77844E+01  3.76557E+01  3.75138E+01  3.73562E+01  3.71808E+01  3.69863E+01
   3.67719E+01  3.65381E+01  3.62859E+01  3.60173E+01  3.57347E+01  3.54410E+01  3.51397E+01  3.48341E+01  3.45277E+01  3.42235E+01
   3.39245E+01  3.36334E+01  3.33520E+01  3.30820E+01  3.28245E+01  3.25803E+01  3.23495E+01  3.21321E+01  3.19278E+01  3.17359E+01
   3.15558E+01  3.13865E+01  3.12271E+01  3.10767E+01  3.09344E+01  3.07991E+01  3.06701E+01  3.05465E+01  3.04275E+01  3.03123E+01
   3.02005E+01  3.00912E+01  2.99839E+01  2.98781E+01  2.97733E+01  2.96691E+01  2.95649E+01  2.94604E+01  2.93551E+01  2.92488E+01
   2.91410E+01  2.90314E+01  2.89196E+01  2.88054E+01  2.86888E+01  2.85699E+01  2.84487E+01  2.83252E+01  2.81996E+01  2.80718E+01
   2.79419E+01  2.78100E+01  2.76762E+01  2.75405E+01  2.74031E+01  2.72639E+01  2.71230E+01  2.69806E+01  2.68367E+01  2.66914E+01
   2.65447E+01  2.63968E+01  2.62478E+01  2.60976E+01  2.59465E+01  2.57945E+01  2.56416E+01  2.54880E+01  2.53337E+01  2.51789E+01
   2.50236E+01  2.48679E+01  2.47118E+01  2.45556E+01  2.43992E+01  2.42428E+01  2.40864E+01  2.39302E+01  2.37742E+01  2.36185E+01
   2.34631E+01  2.33083E+01  2.31541E+01  2.30005E+01  2.28476E+01  2.26956E+01  2.25445E+01  2.23944E+01
 NY background values follow
    -4.301E+01   -4.216E+01   -4.132E+01   -4.048E+01   -3.964E+01   -3.880E+01   -3.796E+01   -3.713E+01   -3.630E+01   -3.548E+01
    -3.466E+01   -3.384E+01   -3.302E+01   -3.221E+01   -3.140E+01   -3.060E+01   -2.980E+01   -2.901E+01   -2.822E+01   -2.744E+01
    -2.666E+01   -2.589E+01   -2.512E+01   -2.436E+01   -2.360E+01   -2.286E+01   -2.212E+01   -2.138E+01   -2.065E+01   -1.993E+01
    -1.922E+01   -1.852E+01   -1.782E+01   -1.713E+01   -1.645E+01   -1.577E+01   -1.511E+01   -1.445E+01   -1.381E+01   -1.317E+01
    -1.254E+01   -1.193E+01   -1.132E+01   -1.072E+01   -1.013E+01   -9.553E+00   -8.986E+00   -8.430E+00   -7.883E+00   -7.347E+00
    -6.821E+00   -6.305E+00   -5.798E+00   -5.300E+00   -4.811E+00   -4.332E+00   -3.860E+00   -3.398E+00   -2.943E+00   -2.497E+00
    -2.058E+00   -1.627E+00   -1.203E+00   -7.865E-01   -3.770E-01    2.579E-02    4.220E-01    8.118E-01    1.195E+00    1.573E+00
     1.945E+00    2.312E+00    2.673E+00    3.029E+00    3.380E+00    3.726E+00    4.068E+00    4.406E+00    4.739E+00    5.069E+00
     5.395E+00    5.718E+00    6.037E+00    6.353E+00    6.667E+00    6.978E+00    7.286E+00    7.592E+00    7.896E+00    8.199E+00
     8.499E+00    8.799E+00    9.097E+00    9.393E+00    9.689E+00    9.983E+00    1.028E+01    1.057E+01    1.086E+01    1.114E+01
     1.143E+01    1.172E+01    1.200E+01    1.228E+01    1.257E+01    1.285E+01    1.312E+01    1.340E+01    1.368E+01    1.395E+01
     1.422E+01    1.449E+01    1.476E+01    1.503E+01    1.529E+01    1.556E+01    1.582E+01    1.608E+01    1.634E+01    1.660E+01
     1.685E+01    1.711E+01    1.736E+01    1.761E+01    1.786E+01    1.811E+01    1.835E+01    1.860E+01    1.884E+01    1.908E+01
     1.932E+01    1.956E+01    1.979E+01    2.002E+01    2.026E+01    2.049E+01    2.071E+01    2.094E+01    2.116E+01    2.138E+01
     2.160E+01    2.182E+01    2.204E+01    2.225E+01    2.246E+01    2.267E+01    2.288E+01    2.308E+01    2.329E+01    2.349E+01
     2.369E+01    2.388E+01    2.408E+01    2.427E+01    2.446E+01    2.465E+01    2.483E+01    2.501E+01    2.519E+01    2.537E+01
     2.555E+01    2.572E+01    2.589E+01    2.606E+01    2.622E+01    2.638E+01    2.654E+01    2.670E+01    2.685E+01    2.700E+01
     2.715E+01    2.730E+01    2.744E+01    2.758E+01    2.772E+01    2.785E+01    2.799E+01    2.811E+01    2.824E+01    2.836E+01
     2.848E+01    2.860E+01    2.871E+01    2.882E+01    2.893E+01    2.904E+01    2.914E+01    2.924E+01    2.935E+01    2.945E+01
     2.954E+01    2.964E+01    2.974E+01    2.984E+01    2.993E+01    3.003E+01    3.013E+01    3.022E+01    3.032E+01    3.042E+01
     3.053E+01    3.063E+01    3.073E+01    3.084E+01    3.095E+01    3.106E+01    3.118E+01    3.129E+01    3.142E+01    3.154E+01
     3.167E+01    3.180E+01    3.194E+01    3.208E+01    3.223E+01    3.238E+01    3.253E+01    3.270E+01    3.286E+01    3.304E+01
     3.322E+01    3.340E+01    3.360E+01    3.380E+01    3.400E+01    3.422E+01    3.444E+01    3.467E+01    3.491E+01    3.515E+01
     3.541E+01    3.567E+01    3.593E+01    3.621E+01    3.649E+01    3.678E+01    3.707E+01    3.737E+01    3.768E+01    3.799E+01
     3.831E+01    3.864E+01    3.897E+01    3.930E+01    3.964E+01    3.999E+01    4.034E+01    4.070E+01    4.106E+01    4.142E+01
     4.179E+01    4.216E+01    4.254E+01    4.292E+01    4.331E+01    4.370E+01    4.409E+01    4.449E+01    4.489E+01    4.529E+01
     4.569E+01    4.610E+01    4.651E+01    4.692E+01    4.734E+01    4.776E+01    4.818E+01    4.860E+01    4.902E+01    4.944E+01
     4.987E+01    5.030E+01    5.072E+01    5.115E+01    5.158E+01    5.201E+01    5.244E+01    5.286E+01    5.329E+01    5.371E+01
     5.413E+01    5.454E+01    5.496E+01    5.537E+01    5.577E+01    5.617E+01    5.656E+01    5.695E+01    5.733E+01    5.771E+01
     5.808E+01    5.844E+01    5.879E+01    5.913E+01    5.947E+01    5.979E+01    6.011E+01    6.041E+01    6.070E+01    6.099E+01
     6.125E+01    6.151E+01    6.176E+01    6.199E+01    6.221E+01    6.241E+01    6.260E+01    6.277E+01    6.293E+01    6.307E+01
     6.320E+01    6.331E+01    6.340E+01    6.347E+01    6.353E+01    6.356E+01    6.358E+01    6.357E+01    6.355E+01    6.351E+01
     6.345E+01    6.337E+01    6.328E+01    6.316E+01    6.303E+01    6.289E+01    6.272E+01    6.254E+01    6.235E+01    6.214E+01
     6.192E+01    6.169E+01    6.144E+01    6.118E+01    6.090E+01    6.062E+01    6.032E+01    6.001E+01    5.969E+01    5.936E+01
     5.902E+01    5.868E+01    5.832E+01    5.796E+01    5.758E+01    5.720E+01    5.682E+01    5.642E+01    5.602E+01    5.562E+01
     5.521E+01    5.479E+01    5.438E+01    5.395E+01    5.353E+01    5.310E+01    5.267E+01    5.223E+01    5.180E+01    5.136E+01
     5.092E+01    5.049E+01    5.005E+01    4.961E+01    4.918E+01    4.874E+01    4.831E+01    4.788E+01    4.745E+01    4.702E+01
     4.659E+01    4.617E+01    4.574E+01    4.532E+01    4.491E+01    4.449E+01    4.408E+01    4.367E+01    4.326E+01    4.286E+01
     4.246E+01    4.207E+01    4.168E+01    4.129E+01    4.091E+01    4.053E+01    4.016E+01    3.979E+01    3.943E+01    3.907E+01
     3.872E+01    3.837E+01    3.803E+01    3.770E+01    3.737E+01    3.705E+01    3.674E+01    3.643E+01    3.613E+01    3.584E+01
     3.555E+01    3.527E+01    3.500E+01    3.474E+01    3.448E+01    3.424E+01    3.400E+01    3.377E+01    3.355E+01    3.334E+01
     3.313E+01    3.293E+01    3.275E+01    3.256E+01    3.239E+01    3.222E+01    3.206E+01    3.191E+01    3.176E+01    3.162E+01
     3.148E+01    3.135E+01    3.122E+01    3.110E+01    3.098E+01    3.087E+01    3.076E+01    3.065E+01    3.055E+01    3.045E+01
     3.035E+01    3.026E+01    3.017E+01    3.008E+01    2.999E+01    2.990E+01    2.982E+01    2.973E+01    2.965E+01    2.957E+01
     2.949E+01    2.940E+01    2.932E+01    2.924E+01    2.916E+01    2.907E+01    2.898E+01    2.890E+01    2.881E+01    2.871E+01
     2.862E+01    2.852E+01    2.842E+01    2.832E+01    2.821E+01    2.811E+01    2.799E+01    2.788E+01    2.776E+01    2.764E+01
     2.752E+01    2.740E+01    2.727E+01    2.714E+01    2.701E+01    2.688E+01    2.674E+01    2.661E+01    2.647E+01    2.633E+01
     2.619E+01    2.605E+01    2.590E+01    2.576E+01    2.561E+01    2.546E+01    2.531E+01    2.517E+01    2.502E+01    2.486E+01
     2.471E+01    2.456E+01    2.441E+01    2.426E+01    2.410E+01    2.395E+01    2.380E+01    2.365E+01    2.349E+01    2.334E+01
     2.319E+01    2.304E+01    2.289E+01    2.274E+01    2.259E+01    2.244E+01    2.229E+01    2.214E+01
 Asp      Conc. = 3.45E+01
