 LCModel (Version 6.3-1L) Copyright: S.W. Provencher.          Ref.: Magn. Reson. Med. 30:672-679 (1993).                
 Slice#1 Row#6 Col#10  PD_05_press_1_raw_act
 36 lines in following concentration table = NCONC+1
    Conc.  %SD /Cr+PCr  Metabolite                                         
  167.515  47%   0.208 Ala                                                 
    0.000 999%   0.000 Asp                                                 
  362.524  44%   0.451 Cr                                                  
  441.839  37%   0.549 PCr                                                 
    0.000 999%   0.000 GABA                                                
   56.626 187% 7.0E-02 Glc                                                 
  431.843  38%   0.537 Gln                                                 
 1.00E+03  18%   1.245 Glu                                                 
  358.102   5%   0.445 GPC                                                 
    0.000 999%   0.000 PCh                                                 
  335.312  17%   0.417 GSH                                                 
  918.912  20%   1.142 Ins                                                 
    0.000 999%   0.000 Lac                                                 
 1.49E+03   6%   1.855 NAA                                                 
  273.825  32%   0.340 NAAG                                                
   57.225  36% 7.1E-02 Scyllo                                              
  153.428  94%   0.191 Tau                                                 
  347.142  23%   0.432 -CrCH2                                              
  358.102   5%   0.445 GPC+PCh                                             
 1.77E+03   4%   2.195 NAA+NAAG                                            
  804.363   6%   1.000 Cr+PCr                                              
 1.43E+03  17%   1.782 Glu+Gln                                             
    0.000 999%   0.000 Lip13a                                              
    0.000 999%   0.000 Lip13b                                              
    0.000 999%   0.000 Lip09                                               
  950.428  13%   1.182 MM09                                                
 2.03E-03 999% 2.5E-06 Lip20                                               
 1.96E+03  13%   2.435 MM20                                                
  226.070  37%   0.281 MM12                                                
 1.05E+03  18%   1.303 MM14                                                
  542.629  28%   0.675 MM17                                                
    0.000 999%   0.000 Lip13a+Lip13b                                       
 1.27E+03  16%   1.584 MM14+Lip13a+Lip13b+MM12                             
  950.428  13%   1.182 MM09+Lip09                                          
 1.96E+03  13%   2.435 MM20+Lip20                                          
   6 lines in following misc. output table
  FWHM = 0.046 ppm    S/N =  11                                            
  Data shift = 0.000 ppm                                                   
  Ph: -12 deg       4.3 deg/ppm                                            
  alphaB,S = 2.1E+00,   7.2E+01                                            
   14 spline knots.   Ns = 6(1)                                            
  ( 6) 4 infls.   ( 5) 1 extrs.                                            
  498 points on ppm-axis = NY
      4.000000     3.992357     3.984714     3.977070     3.969427     3.961784     3.954141     3.946497     3.938854     3.931211
      3.923568     3.915925     3.908281     3.900638     3.892995     3.885352     3.877708     3.870065     3.862422     3.854779
      3.847136     3.839492     3.831849     3.824206     3.816563     3.808919     3.801276     3.793633     3.785990     3.778347
      3.770703     3.763060     3.755417     3.747774     3.740130     3.732487     3.724844     3.717201     3.709558     3.701914
      3.694271     3.686628     3.678985     3.671341     3.663698     3.656055     3.648412     3.640769     3.633125     3.625482
      3.617839     3.610196     3.602552     3.594909     3.587266     3.579623     3.571980     3.564336     3.556693     3.549050
      3.541407     3.533763     3.526120     3.518477     3.510834     3.503191     3.495547     3.487904     3.480261     3.472618
      3.464974     3.457331     3.449688     3.442045     3.434402     3.426758     3.419115     3.411472     3.403829     3.396185
      3.388542     3.380899     3.373256     3.365613     3.357969     3.350326     3.342683     3.335040     3.327396     3.319753
      3.312110     3.304467     3.296824     3.289180     3.281537     3.273894     3.266251     3.258607     3.250964     3.243321
      3.235678     3.228034     3.220391     3.212748     3.205105     3.197462     3.189818     3.182175     3.174532     3.166889
      3.159245     3.151602     3.143959     3.136316     3.128673     3.121029     3.113386     3.105743     3.098100     3.090456
      3.082813     3.075170     3.067527     3.059884     3.052240     3.044597     3.036954     3.029311     3.021667     3.014024
      3.006381     2.998738     2.991095     2.983451     2.975808     2.968165     2.960522     2.952878     2.945235     2.937592
      2.929949     2.922306     2.914662     2.907019     2.899376     2.891733     2.884089     2.876446     2.868803     2.861160
      2.853517     2.845873     2.838230     2.830587     2.822944     2.815300     2.807657     2.800014     2.792371     2.784728
      2.777084     2.769441     2.761798     2.754155     2.746511     2.738868     2.731225     2.723582     2.715939     2.708295
      2.700652     2.693009     2.685366     2.677722     2.670079     2.662436     2.654793     2.647150     2.639506     2.631863
      2.624220     2.616577     2.608933     2.601290     2.593647     2.586004     2.578361     2.570717     2.563074     2.555431
      2.547788     2.540144     2.532501     2.524858     2.517215     2.509572     2.501928     2.494285     2.486642     2.478999
      2.471355     2.463712     2.456069     2.448426     2.440783     2.433139     2.425496     2.417853     2.410210     2.402566
      2.394923     2.387280     2.379637     2.371994     2.364350     2.356707     2.349064     2.341421     2.333777     2.326134
      2.318491     2.310848     2.303205     2.295561     2.287918     2.280275     2.272632     2.264988     2.257345     2.249702
      2.242059     2.234416     2.226772     2.219129     2.211486     2.203843     2.196199     2.188556     2.180913     2.173270
      2.165627     2.157983     2.150340     2.142697     2.135054     2.127410     2.119767     2.112124     2.104481     2.096838
      2.089194     2.081551     2.073908     2.066265     2.058621     2.050978     2.043335     2.035692     2.028049     2.020405
      2.012762     2.005119     1.997476     1.989833     1.982190     1.974546     1.966903     1.959260     1.951617     1.943974
      1.936331     1.928688     1.921045     1.913402     1.905759     1.898115     1.890472     1.882829     1.875186     1.867543
      1.859900     1.852257     1.844614     1.836971     1.829327     1.821684     1.814041     1.806398     1.798755     1.791112
      1.783469     1.775826     1.768183     1.760540     1.752896     1.745253     1.737610     1.729967     1.722324     1.714681
      1.707038     1.699395     1.691752     1.684108     1.676465     1.668822     1.661179     1.653536     1.645893     1.638250
      1.630607     1.622964     1.615321     1.607677     1.600034     1.592391     1.584748     1.577105     1.569462     1.561819
      1.554176     1.546533     1.538890     1.531246     1.523603     1.515960     1.508317     1.500674     1.493031     1.485388
      1.477745     1.470102     1.462458     1.454815     1.447172     1.439529     1.431886     1.424243     1.416600     1.408957
      1.401314     1.393671     1.386027     1.378384     1.370741     1.363098     1.355455     1.347812     1.340169     1.332526
      1.324883     1.317240     1.309596     1.301953     1.294310     1.286667     1.279024     1.271381     1.263738     1.256095
      1.248452     1.240808     1.233165     1.225522     1.217879     1.210236     1.202593     1.194950     1.187307     1.179664
      1.172021     1.164377     1.156734     1.149091     1.141448     1.133805     1.126162     1.118519     1.110876     1.103233
      1.095590     1.087946     1.080303     1.072660     1.065017     1.057374     1.049731     1.042088     1.034445     1.026802
      1.019158     1.011515     1.003872     0.996229     0.988586     0.980943     0.973300     0.965657     0.958014     0.950371
      0.942727     0.935084     0.927441     0.919798     0.912155     0.904512     0.896869     0.889226     0.881583     0.873940
      0.866296     0.858653     0.851010     0.843367     0.835724     0.828081     0.820438     0.812795     0.805152     0.797508
      0.789865     0.782222     0.774579     0.766936     0.759293     0.751650     0.744007     0.736364     0.728721     0.721077
      0.713434     0.705791     0.698148     0.690505     0.682862     0.675219     0.667576     0.659933     0.652290     0.644646
      0.637003     0.629360     0.621717     0.614074     0.606431     0.598788     0.591145     0.583502     0.575858     0.568215
      0.560572     0.552929     0.545286     0.537643     0.530000     0.522357     0.514714     0.507071     0.499427     0.491784
      0.484141     0.476498     0.468855     0.461212     0.453569     0.445925     0.438282     0.430639     0.422996     0.415353
      0.407710     0.400067     0.392424     0.384780     0.377137     0.369494     0.361851     0.354208     0.346565     0.338922
      0.331278     0.323635     0.315992     0.308349     0.300706     0.293063     0.285420     0.277777     0.270133     0.262490
      0.254847     0.247204     0.239561     0.231918     0.224275     0.216631     0.208988     0.201345
 NY phased data points follow
   1.95174E+00 -3.24708E+00  5.43799E-01  3.39122E+00  2.56179E+00  6.00736E+00  6.30011E+00  2.26381E+00  7.07453E+00  1.08637E+01
   1.14602E+01  1.18607E+01  1.01402E+01  1.20420E+01  7.52937E+00  6.14158E+00  1.52597E+00  5.07089E-01  9.46492E-01  1.93814E+00
   2.07861E+00  7.78486E-01  4.24896E+00  3.84076E+00  5.71721E+00  3.10908E+00  5.49983E+00  5.25754E+00  7.67969E+00  2.52131E+00
   1.15371E+01  7.97576E+00  2.77459E+00  4.76080E+00  3.46656E+00  4.52344E+00  3.55576E+00  1.26321E+00  8.32993E+00  5.84546E+00
   1.86469E+00  4.11619E+00  4.02340E+00  6.68025E+00  7.69959E+00  8.95346E+00  9.98208E+00  8.72072E+00  7.54862E+00  5.60198E+00
   8.02195E+00  2.80600E+00  3.87722E+00  2.17450E+00  1.26687E+00  3.42144E-01  2.61034E+00 -1.37050E+00  2.89772E+00  5.78423E-01
   1.85330E+00  6.20084E-01 -8.19702E-01 -1.01250E+00 -2.71899E+00 -2.64843E+00  6.35047E-01 -4.87797E+00 -4.99010E-01 -1.56201E+00
  -7.59529E-01 -6.57640E-02  1.30964E+00 -6.49368E-01 -1.67121E+00 -5.05530E-02 -8.79883E-01  1.48024E+00  9.98445E-01 -1.25643E+00
   3.37629E-02 -2.40999E+00 -1.21835E+00  3.23436E+00 -3.27996E+00 -2.18567E+00  1.13935E+00  2.73042E+00  5.68927E-01  3.68020E-02
   1.02149E+00 -1.24190E-01  1.83287E+00  4.36265E+00  4.91728E+00  3.58321E+00  3.63067E+00  6.00810E+00  8.53979E+00  1.01035E+01
   2.18012E+01  3.02368E+01  3.86878E+01  3.38112E+01  2.94676E+01  1.96829E+01  1.23653E+01  1.06013E+01  6.62972E+00  4.49856E+00
   7.83811E+00  4.02052E+00  3.84215E+00 -2.06129E-01  1.80031E+00  3.17023E+00  1.18458E+00  2.01528E-01  2.53528E+00  1.95631E+00
   5.10723E+00  2.74997E+00  5.68650E+00  6.47449E+00  1.61057E+01  2.21852E+01  2.52630E+01  3.00909E+01  2.70706E+01  2.15077E+01
   1.71227E+01  1.04968E+01  6.41867E+00  3.09143E+00 -3.61982E-02  1.46397E+00  4.70057E-01 -1.49209E+00  1.02581E+00  2.26773E+00
  -7.81487E-01 -2.33171E+00 -3.89511E+00 -8.09083E-02 -1.23208E+00 -1.85239E+00 -4.21936E-01 -3.69246E+00 -4.18538E-01 -2.83371E-01
   1.56769E+00 -1.09595E-01 -5.57521E-01 -2.68942E+00  1.16869E+00  5.10004E+00 -3.71364E+00 -1.28577E+00 -2.22163E+00 -8.03882E+00
  -1.98873E+00 -4.89488E+00 -4.64856E+00  1.12447E-01 -5.36561E+00 -1.72885E+00 -3.21209E+00 -7.91208E+00 -6.97019E+00 -8.32202E+00
  -7.32990E+00 -8.74310E+00 -1.27703E+01 -9.68773E+00 -1.08959E+01 -1.37640E+01 -1.61240E+01 -1.34371E+01 -1.02049E+01 -1.40717E+01
  -9.95018E+00 -6.18547E+00 -1.17093E+01 -9.37485E+00 -6.97511E+00 -6.98110E+00 -1.06853E+01 -5.78071E+00 -8.36848E+00 -2.83342E+00
  -5.09802E+00 -1.95963E+00 -5.82190E+00 -4.74905E+00 -5.41862E+00 -7.12226E+00 -8.02346E+00 -1.08624E+01 -1.45506E+01 -1.16918E+01
  -8.83229E+00 -3.78573E+00 -5.11154E+00 -2.04624E+00 -4.87111E+00 -4.68911E-01 -1.52424E+00 -2.66809E+00 -7.22425E+00 -5.09565E+00
  -4.48643E+00 -2.21604E+00 -2.25910E+00  2.95840E+00  6.74231E+00  7.16832E+00  8.77954E+00  4.05026E+00  4.97888E+00  1.62195E+00
  -3.07264E+00 -7.34672E+00 -5.85901E+00 -2.60381E+00 -3.52632E+00  2.81559E+00  1.50636E+00  5.45535E+00  3.27682E+00  9.24862E-01
   3.31288E+00  4.13083E-01  2.78137E+00  1.97350E+00  5.80972E+00  1.28817E+00  2.22027E+00  9.41962E-01  2.54040E+00 -5.89022E-01
  -8.67181E-01  3.11488E-01 -4.74271E+00 -2.77499E+00 -1.70007E+00  2.50164E+00  7.00967E+00  2.34017E+00  5.74619E+00  6.29080E+00
   1.02132E+01  9.72802E+00  7.61368E+00  8.34520E+00  2.06454E+01  2.92913E+01  2.87750E+01  3.69097E+01  4.38617E+01  5.86181E+01
   6.73685E+01  6.23958E+01  4.60992E+01  3.38950E+01  2.18903E+01  1.02350E+01  8.41470E+00  7.66641E+00  5.51526E+00  2.69335E+00
   1.65977E+00 -3.04507E+00 -5.76839E-01 -1.40861E+00  1.58205E+00 -2.14015E-01 -7.41849E-02  8.35689E-01 -2.57510E+00  8.26896E-01
  -3.34420E+00  9.27305E-01  2.71280E+00 -2.61298E+00  3.00538E-01 -3.34562E-01 -1.66662E+00  1.94458E+00  7.92843E-01 -5.43145E+00
  -1.32984E+00  2.30977E+00 -2.84567E+00 -6.54022E-01 -6.34523E+00 -4.11378E+00 -1.00783E+00 -2.26694E+00 -1.63461E+00  1.55984E+00
   8.91811E-01  1.06766E+00  1.29112E+00  1.01965E+00  1.26567E+00 -1.14597E+00  1.16436E+00 -9.96350E-02  2.92927E+00 -1.47222E+00
   2.19252E+00  1.41087E+00 -5.50222E+00  1.01233E-01  5.30881E-01  1.96215E+00  2.57466E+00 -2.73664E-01 -1.55227E+00 -1.19527E+00
   2.10403E+00  1.03936E+00  2.82406E+00  5.26526E-01  3.29777E+00 -4.16113E-01  2.57293E+00  3.20757E+00  3.01807E-01  1.77436E+00
  -2.88888E+00  1.66774E+00 -2.32602E-01  7.66596E-01  2.50175E-01  5.10129E+00 -7.96139E-01  1.99606E+00  3.67035E+00  3.58955E+00
   4.09338E+00 -7.40598E-01  2.77300E+00  3.89379E+00  6.57163E+00  5.21455E-01  1.14205E+00  2.72984E+00  2.08573E+00  4.43477E-01
   2.54643E+00 -3.43416E+00  1.13331E+00  1.69015E+00 -2.23443E+00 -1.81498E+00 -5.74574E+00 -6.70150E+00 -5.37993E+00 -3.04527E+00
  -7.73017E+00 -6.21556E+00 -1.56824E+00 -1.12554E+00 -1.01160E+00  4.10457E-01 -3.15425E+00  1.49459E+00  1.11953E+00 -3.05217E-02
  -3.17136E+00 -4.54418E+00 -3.17735E+00 -4.74970E+00 -2.33362E-01 -3.36784E+00 -6.55941E+00 -2.26829E+00  6.60600E-01 -2.86658E+00
  -8.02309E+00 -2.32123E+00 -3.94584E+00 -3.46660E+00 -4.49129E+00 -6.65353E+00 -3.10320E+00 -6.40127E+00 -4.77966E+00 -4.34498E+00
  -2.50521E+00  7.49925E-01 -2.51388E+00 -5.43186E-01  1.49250E+00 -2.48516E+00  2.52292E+00  6.20759E+00  2.90599E+00  1.29111E+00
   4.99067E-01  7.47540E-01  5.50999E-01  2.50834E+00  4.02051E+00  2.81382E+00  5.51225E+00  9.71226E+00  5.47386E+00  7.02114E+00
   6.59349E+00  5.77820E+00  2.60402E+00  3.20865E+00  1.31207E+00  4.11757E+00  3.46814E+00  4.77646E+00  8.13358E-01 -2.38075E+00
  -6.91639E-01 -1.60753E-01 -2.51509E+00 -2.83454E+00 -4.43878E+00 -3.05778E+00 -2.20837E+00 -5.73157E+00  2.21824E-01 -2.32812E+00
  -4.41293E+00 -5.93077E+00 -1.12986E+00 -2.87780E+00 -4.86935E+00 -6.85498E+00 -3.25535E+00 -5.70500E+00 -2.51686E+00 -3.82135E+00
  -2.53770E+00 -7.44573E-01 -3.27719E+00 -4.80005E+00 -2.82943E+00 -2.22001E+00 -1.52033E+00 -4.50189E+00 -2.11877E+00 -3.14703E+00
  -6.25160E+00 -3.61164E+00 -4.80554E+00 -2.16217E+00 -3.29729E+00 -2.40993E+00 -1.14910E+00 -5.03193E+00 -5.17523E+00 -5.01965E+00
  -4.60041E-01 -3.51972E+00 -3.13373E+00 -1.64751E+00 -4.73761E+00 -3.06338E+00 -2.30815E+00 -2.71317E-01  6.91068E-01 -2.10937E+00
   1.08936E+00 -1.85903E+00 -6.81611E+00  1.84831E+00 -3.53641E+00 -1.53853E-01 -1.07630E+00 -1.97162E+00  1.08729E+00  1.11968E-01
  -3.88482E+00  8.06930E-01 -1.82203E+00 -1.70921E+00 -4.77574E+00 -4.03370E-01 -2.08552E+00 -1.99268E+00  4.37754E-01 -2.51218E+00
   1.97420E+00 -3.62428E+00 -2.08766E+00 -1.48645E+00 -2.43998E+00 -4.14256E+00 -1.52878E+00 -4.67976E+00
 NY points of the fit to the data follow
   9.29609E-01  8.42589E-01  9.82914E-01  1.34653E+00  2.00824E+00  3.12607E+00  4.70569E+00  6.30779E+00  8.06038E+00  1.00636E+01
   1.18074E+01  1.24794E+01  1.16369E+01  9.67928E+00  7.46811E+00  5.62195E+00  4.30827E+00  3.37454E+00  2.59647E+00  2.07905E+00
   1.92569E+00  1.84157E+00  1.66826E+00  1.76471E+00  2.22949E+00  2.59764E+00  3.26507E+00  4.69316E+00  6.69729E+00  8.51984E+00
   9.44582E+00  9.40530E+00  8.63590E+00  7.38514E+00  5.87522E+00  4.28129E+00  2.66181E+00  1.39113E+00  7.29486E-01  4.91629E-01
   7.86210E-01  1.59737E+00  2.65667E+00  3.77337E+00  5.06029E+00  6.61312E+00  7.99344E+00  8.44109E+00  7.60689E+00  5.77884E+00
   3.67120E+00  1.93269E+00  7.86328E-01  2.09421E-01  2.17353E-02  1.34238E-01  5.21981E-01  1.08060E+00  1.69595E+00  2.15090E+00
   2.22062E+00  1.83834E+00  1.10299E+00  3.33491E-01 -2.03971E-01 -3.84146E-01 -2.46539E-01  4.51352E-02  3.52252E-01  6.80796E-01
   1.04919E+00  1.32488E+00  1.44598E+00  1.44000E+00  1.33773E+00  1.15367E+00  8.53207E-01  4.67072E-01  4.11562E-02 -2.97297E-01
  -3.59245E-01 -1.07502E-01  1.40480E-01  3.63404E-01  6.94989E-01  9.88509E-01  9.63468E-01  4.95531E-01 -2.35215E-01 -8.74588E-01
  -1.14538E+00 -1.11165E+00 -9.61242E-01 -8.14548E-01 -6.86525E-01 -2.53589E-01  1.41810E+00  5.06081E+00  9.07087E+00  1.41545E+01
   2.16332E+01  3.01146E+01  3.58948E+01  3.58613E+01  3.02236E+01  2.19653E+01  1.42587E+01  8.70769E+00  5.17151E+00  2.42786E+00
   1.25955E-01 -8.13964E-01 -1.09872E+00 -1.22852E+00 -1.29530E+00 -1.33286E+00 -1.34059E+00 -1.32045E+00 -1.23829E+00 -9.97030E-01
  -1.70157E-01  2.27396E+00  5.59328E+00  9.29388E+00  1.45414E+01  2.12916E+01  2.72572E+01  2.95487E+01  2.70312E+01  2.12612E+01
   1.49992E+01  1.00124E+01  6.51486E+00  3.69367E+00  7.97117E-01 -1.26065E+00 -2.12570E+00 -2.24083E+00 -1.80703E+00 -1.12690E+00
  -5.43347E-01 -2.25802E-01 -2.16182E-01 -4.67743E-01 -8.25827E-01 -1.17307E+00 -1.48063E+00 -1.73444E+00 -2.00333E+00 -2.25958E+00
  -2.47961E+00 -2.68722E+00 -2.87277E+00 -2.99371E+00 -3.04788E+00 -3.10839E+00 -3.14470E+00 -3.19950E+00 -3.41201E+00 -3.77322E+00
  -4.21055E+00 -4.46307E+00 -4.33325E+00 -3.97490E+00 -3.74032E+00 -3.86555E+00 -4.32528E+00 -4.87976E+00 -5.29973E+00 -5.58434E+00
  -5.80784E+00 -6.01134E+00 -6.21164E+00 -6.49806E+00 -6.88294E+00 -7.20938E+00 -7.19516E+00 -6.82047E+00 -6.44793E+00 -6.38803E+00
  -6.58620E+00 -6.81623E+00 -6.78082E+00 -6.45076E+00 -6.10343E+00 -5.77975E+00 -5.18128E+00 -4.15286E+00 -2.79384E+00 -1.49910E+00
  -7.29616E-01 -6.67562E-01 -1.23408E+00 -2.08333E+00 -2.90212E+00 -3.55144E+00 -3.87757E+00 -3.71766E+00 -3.03682E+00 -2.02331E+00
  -8.86406E-01  1.62198E-01  9.33195E-01  1.26103E+00  8.37481E-01 -2.14933E-01 -1.79899E+00 -3.80028E+00 -5.65511E+00 -6.72030E+00
  -6.59535E+00 -5.49702E+00 -3.79288E+00 -1.55752E+00  8.82744E-01  2.71472E+00  3.08051E+00  1.82481E+00 -5.16510E-01 -3.10749E+00
  -5.47790E+00 -7.19483E+00 -7.69423E+00 -6.76697E+00 -4.68357E+00 -2.28966E+00 -3.84926E-01  7.84500E-01  1.23586E+00  1.17458E+00
   8.60655E-01  6.51727E-01  7.20579E-01  1.08493E+00  1.63037E+00  2.21650E+00  2.61652E+00  2.59491E+00  2.27457E+00  1.76107E+00
   1.08163E+00  4.28278E-01  2.07491E-01  6.39223E-01  1.53404E+00  2.59422E+00  3.49109E+00  4.07487E+00  4.39890E+00  4.82719E+00
   5.86163E+00  7.14318E+00  8.85142E+00  1.17969E+01  1.77513E+01  2.53853E+01  3.14120E+01  3.82236E+01  4.81293E+01  5.85410E+01
   6.36303E+01  5.97209E+01  4.83667E+01  3.46326E+01  2.31634E+01  1.54388E+01  1.03866E+01  5.93535E+00  2.61285E+00  1.41752E+00
   8.50487E-01  4.81407E-01  2.78363E-01  1.91357E-01  8.46544E-02 -9.73303E-02 -3.45855E-01 -6.14241E-01 -8.67964E-01 -1.08623E+00
  -1.26269E+00 -1.39401E+00 -1.47799E+00 -1.52701E+00 -1.56858E+00 -1.61803E+00 -1.66551E+00 -1.69860E+00 -1.70745E+00 -1.68595E+00
  -1.62530E+00 -1.52258E+00 -1.39275E+00 -1.25818E+00 -1.12556E+00 -9.96753E-01 -8.73290E-01 -7.51468E-01 -6.27918E-01 -5.00145E-01
  -3.66069E-01 -2.31781E-01 -1.07433E-01 -9.39849E-04  8.26336E-02  1.43042E-01  1.80879E-01  1.95558E-01  1.90547E-01  1.70611E-01
   1.39306E-01  1.01379E-01  6.16394E-02  2.59713E-02  4.24591E-04 -8.18376E-03  6.29845E-03  5.09005E-02  1.33618E-01  2.67299E-01
   4.77543E-01  8.16274E-01  1.20507E+00  1.52331E+00  1.86979E+00  2.19068E+00  2.22915E+00  1.78058E+00  9.05699E-01 -3.96227E-03
  -5.20889E-01 -6.62342E-01 -4.74030E-01  9.62527E-02  1.01659E+00  2.12327E+00  3.07644E+00  3.54054E+00  3.53371E+00  3.25175E+00
   2.88636E+00  2.53869E+00  2.16908E+00  1.74772E+00  1.37873E+00  1.05288E+00  7.47773E-01  4.57672E-01  1.81504E-01 -7.96270E-02
  -3.24806E-01 -5.52572E-01 -7.62154E-01 -9.52542E-01 -1.12384E+00 -1.27628E+00 -1.41115E+00 -1.52946E+00 -1.63292E+00 -1.72281E+00
  -1.80125E+00 -1.86995E+00 -1.93115E+00 -1.98624E+00 -2.03687E+00 -2.08394E+00 -2.12882E+00 -2.17216E+00 -2.21480E+00 -2.25660E+00
  -2.29767E+00 -2.33742E+00 -2.37576E+00 -2.41189E+00 -2.44527E+00 -2.47452E+00 -2.49870E+00 -2.51633E+00 -2.52645E+00 -2.52735E+00
  -2.51756E+00 -2.49481E+00 -2.45723E+00 -2.40231E+00 -2.32791E+00 -2.23101E+00 -2.10883E+00 -1.95790E+00 -1.77543E+00 -1.55835E+00
  -1.30448E+00 -1.01155E+00 -6.78660E-01 -3.05572E-01  1.05797E-01  5.52288E-01  1.02836E+00  1.52710E+00  2.03911E+00  2.55356E+00
   3.05746E+00  3.53727E+00  3.97859E+00  4.36785E+00  4.69189E+00  4.93968E+00  5.10194E+00  5.17294E+00  5.14981E+00  5.03372E+00
   4.82866E+00  4.54218E+00  4.18392E+00  3.76622E+00  3.30235E+00  2.80665E+00  2.29272E+00  1.77384E+00  1.26144E+00  7.65918E-01
   2.95241E-01 -1.44180E-01 -5.48563E-01 -9.15466E-01 -1.24450E+00 -1.53600E+00 -1.79181E+00 -2.01411E+00 -2.20615E+00 -2.37088E+00
  -2.51171E+00 -2.63139E+00 -2.73301E+00 -2.81900E+00 -2.89208E+00 -2.95407E+00 -3.00694E+00 -3.05183E+00 -3.09025E+00 -3.12307E+00
  -3.15148E+00 -3.17594E+00 -3.19719E+00 -3.21540E+00 -3.23126E+00 -3.24494E+00 -3.25701E+00 -3.26739E+00 -3.27644E+00 -3.28404E+00
  -3.29065E+00 -3.29622E+00 -3.30111E+00 -3.30506E+00 -3.30834E+00 -3.31076E+00 -3.31274E+00 -3.31413E+00 -3.31520E+00 -3.31563E+00
  -3.31569E+00 -3.31521E+00 -3.31456E+00 -3.31351E+00 -3.31229E+00 -3.31058E+00 -3.30867E+00 -3.30639E+00 -3.30408E+00 -3.30149E+00
  -3.29878E+00 -3.29567E+00 -3.29247E+00 -3.28902E+00 -3.28561E+00 -3.28194E+00 -3.27819E+00 -3.27410E+00 -3.27002E+00 -3.26576E+00
  -3.26157E+00 -3.25712E+00 -3.25263E+00 -3.24786E+00 -3.24316E+00 -3.23831E+00 -3.23354E+00 -3.22851E+00 -3.22344E+00 -3.21816E+00
  -3.21300E+00 -3.20770E+00 -3.20245E+00 -3.19693E+00 -3.19140E+00 -3.18570E+00 -3.18014E+00 -3.17441E+00
 NY background values follow
    -1.594E+00   -1.607E+00   -1.619E+00   -1.631E+00   -1.644E+00   -1.656E+00   -1.668E+00   -1.680E+00   -1.693E+00   -1.705E+00
    -1.717E+00   -1.730E+00   -1.742E+00   -1.754E+00   -1.766E+00   -1.779E+00   -1.791E+00   -1.803E+00   -1.816E+00   -1.828E+00
    -1.840E+00   -1.853E+00   -1.865E+00   -1.877E+00   -1.889E+00   -1.902E+00   -1.914E+00   -1.926E+00   -1.939E+00   -1.951E+00
    -1.963E+00   -1.976E+00   -1.988E+00   -2.000E+00   -2.012E+00   -2.025E+00   -2.037E+00   -2.049E+00   -2.062E+00   -2.074E+00
    -2.086E+00   -2.098E+00   -2.111E+00   -2.123E+00   -2.135E+00   -2.148E+00   -2.160E+00   -2.172E+00   -2.185E+00   -2.197E+00
    -2.209E+00   -2.221E+00   -2.234E+00   -2.246E+00   -2.258E+00   -2.271E+00   -2.283E+00   -2.295E+00   -2.307E+00   -2.320E+00
    -2.332E+00   -2.344E+00   -2.357E+00   -2.369E+00   -2.381E+00   -2.393E+00   -2.406E+00   -2.418E+00   -2.430E+00   -2.442E+00
    -2.455E+00   -2.467E+00   -2.479E+00   -2.491E+00   -2.504E+00   -2.516E+00   -2.528E+00   -2.540E+00   -2.553E+00   -2.565E+00
    -2.577E+00   -2.589E+00   -2.601E+00   -2.614E+00   -2.626E+00   -2.638E+00   -2.650E+00   -2.662E+00   -2.674E+00   -2.687E+00
    -2.699E+00   -2.711E+00   -2.723E+00   -2.735E+00   -2.747E+00   -2.759E+00   -2.771E+00   -2.784E+00   -2.796E+00   -2.808E+00
    -2.820E+00   -2.832E+00   -2.844E+00   -2.856E+00   -2.868E+00   -2.880E+00   -2.892E+00   -2.904E+00   -2.916E+00   -2.928E+00
    -2.940E+00   -2.952E+00   -2.964E+00   -2.976E+00   -2.987E+00   -2.999E+00   -3.011E+00   -3.023E+00   -3.035E+00   -3.047E+00
    -3.058E+00   -3.070E+00   -3.082E+00   -3.094E+00   -3.105E+00   -3.117E+00   -3.129E+00   -3.140E+00   -3.152E+00   -3.163E+00
    -3.175E+00   -3.186E+00   -3.198E+00   -3.209E+00   -3.221E+00   -3.232E+00   -3.244E+00   -3.255E+00   -3.266E+00   -3.278E+00
    -3.289E+00   -3.300E+00   -3.311E+00   -3.323E+00   -3.334E+00   -3.345E+00   -3.356E+00   -3.367E+00   -3.378E+00   -3.389E+00
    -3.400E+00   -3.411E+00   -3.421E+00   -3.432E+00   -3.443E+00   -3.453E+00   -3.464E+00   -3.475E+00   -3.485E+00   -3.495E+00
    -3.506E+00   -3.516E+00   -3.526E+00   -3.537E+00   -3.547E+00   -3.557E+00   -3.567E+00   -3.577E+00   -3.586E+00   -3.596E+00
    -3.606E+00   -3.616E+00   -3.625E+00   -3.635E+00   -3.644E+00   -3.653E+00   -3.663E+00   -3.672E+00   -3.681E+00   -3.690E+00
    -3.699E+00   -3.708E+00   -3.716E+00   -3.725E+00   -3.733E+00   -3.742E+00   -3.750E+00   -3.759E+00   -3.767E+00   -3.775E+00
    -3.783E+00   -3.791E+00   -3.799E+00   -3.807E+00   -3.814E+00   -3.822E+00   -3.830E+00   -3.837E+00   -3.844E+00   -3.852E+00
    -3.859E+00   -3.866E+00   -3.873E+00   -3.880E+00   -3.887E+00   -3.894E+00   -3.901E+00   -3.907E+00   -3.914E+00   -3.921E+00
    -3.927E+00   -3.933E+00   -3.940E+00   -3.946E+00   -3.952E+00   -3.958E+00   -3.964E+00   -3.970E+00   -3.976E+00   -3.982E+00
    -3.988E+00   -3.993E+00   -3.999E+00   -4.005E+00   -4.010E+00   -4.015E+00   -4.021E+00   -4.026E+00   -4.031E+00   -4.036E+00
    -4.041E+00   -4.046E+00   -4.051E+00   -4.056E+00   -4.061E+00   -4.066E+00   -4.071E+00   -4.075E+00   -4.080E+00   -4.084E+00
    -4.089E+00   -4.093E+00   -4.097E+00   -4.102E+00   -4.106E+00   -4.110E+00   -4.114E+00   -4.118E+00   -4.122E+00   -4.126E+00
    -4.129E+00   -4.133E+00   -4.137E+00   -4.140E+00   -4.144E+00   -4.147E+00   -4.151E+00   -4.154E+00   -4.157E+00   -4.160E+00
    -4.164E+00   -4.167E+00   -4.170E+00   -4.173E+00   -4.176E+00   -4.178E+00   -4.181E+00   -4.184E+00   -4.187E+00   -4.189E+00
    -4.192E+00   -4.194E+00   -4.197E+00   -4.199E+00   -4.201E+00   -4.203E+00   -4.206E+00   -4.208E+00   -4.210E+00   -4.212E+00
    -4.214E+00   -4.216E+00   -4.217E+00   -4.219E+00   -4.221E+00   -4.222E+00   -4.224E+00   -4.226E+00   -4.227E+00   -4.228E+00
    -4.230E+00   -4.231E+00   -4.232E+00   -4.233E+00   -4.234E+00   -4.235E+00   -4.236E+00   -4.237E+00   -4.238E+00   -4.239E+00
    -4.240E+00   -4.240E+00   -4.241E+00   -4.242E+00   -4.242E+00   -4.243E+00   -4.243E+00   -4.243E+00   -4.244E+00   -4.244E+00
    -4.244E+00   -4.244E+00   -4.244E+00   -4.244E+00   -4.244E+00   -4.244E+00   -4.244E+00   -4.243E+00   -4.243E+00   -4.243E+00
    -4.242E+00   -4.242E+00   -4.241E+00   -4.241E+00   -4.240E+00   -4.239E+00   -4.238E+00   -4.238E+00   -4.237E+00   -4.236E+00
    -4.235E+00   -4.234E+00   -4.233E+00   -4.231E+00   -4.230E+00   -4.229E+00   -4.228E+00   -4.226E+00   -4.225E+00   -4.223E+00
    -4.221E+00   -4.220E+00   -4.218E+00   -4.216E+00   -4.214E+00   -4.213E+00   -4.211E+00   -4.209E+00   -4.206E+00   -4.204E+00
    -4.202E+00   -4.200E+00   -4.198E+00   -4.195E+00   -4.193E+00   -4.190E+00   -4.188E+00   -4.185E+00   -4.182E+00   -4.179E+00
    -4.177E+00   -4.174E+00   -4.171E+00   -4.168E+00   -4.165E+00   -4.162E+00   -4.158E+00   -4.155E+00   -4.152E+00   -4.148E+00
    -4.145E+00   -4.141E+00   -4.138E+00   -4.134E+00   -4.131E+00   -4.127E+00   -4.123E+00   -4.119E+00   -4.115E+00   -4.111E+00
    -4.107E+00   -4.103E+00   -4.099E+00   -4.095E+00   -4.090E+00   -4.086E+00   -4.082E+00   -4.077E+00   -4.073E+00   -4.068E+00
    -4.064E+00   -4.059E+00   -4.054E+00   -4.049E+00   -4.044E+00   -4.040E+00   -4.035E+00   -4.030E+00   -4.024E+00   -4.019E+00
    -4.014E+00   -4.009E+00   -4.004E+00   -3.998E+00   -3.993E+00   -3.987E+00   -3.982E+00   -3.976E+00   -3.971E+00   -3.965E+00
    -3.959E+00   -3.953E+00   -3.948E+00   -3.942E+00   -3.936E+00   -3.930E+00   -3.924E+00   -3.918E+00   -3.912E+00   -3.905E+00
    -3.899E+00   -3.893E+00   -3.887E+00   -3.880E+00   -3.874E+00   -3.868E+00   -3.861E+00   -3.855E+00   -3.848E+00   -3.841E+00
    -3.835E+00   -3.828E+00   -3.821E+00   -3.815E+00   -3.808E+00   -3.801E+00   -3.794E+00   -3.788E+00   -3.781E+00   -3.774E+00
    -3.767E+00   -3.760E+00   -3.753E+00   -3.746E+00   -3.739E+00   -3.732E+00   -3.724E+00   -3.717E+00   -3.710E+00   -3.703E+00
    -3.696E+00   -3.688E+00   -3.681E+00   -3.674E+00   -3.667E+00   -3.659E+00   -3.652E+00   -3.645E+00   -3.637E+00   -3.630E+00
    -3.622E+00   -3.615E+00   -3.608E+00   -3.600E+00   -3.593E+00   -3.585E+00   -3.578E+00   -3.570E+00   -3.563E+00   -3.555E+00
    -3.548E+00   -3.540E+00   -3.533E+00   -3.525E+00   -3.517E+00   -3.510E+00   -3.502E+00   -3.495E+00   -3.487E+00   -3.479E+00
    -3.472E+00   -3.464E+00   -3.457E+00   -3.449E+00   -3.441E+00   -3.434E+00   -3.426E+00   -3.418E+00   -3.411E+00   -3.403E+00
    -3.395E+00   -3.388E+00   -3.380E+00   -3.373E+00   -3.365E+00   -3.357E+00   -3.350E+00   -3.342E+00
 Ala      Conc. = 1.68E+02
