 LCModel (Version 6.3-1L) Copyright: S.W. Provencher.          Ref.: Magn. Reson. Med. 30:672-679 (1993).                
 Slice#3 Row#3 Col#5  PD_05_press_1_raw_act
 36 lines in following concentration table = NCONC+1
    Conc.  %SD /Cr+PCr  Metabolite                                         
   15.144 791% 1.5E-02 Ala                                                 
  139.949 111%   0.134 Asp                                                 
  586.814  38%   0.563 Cr                                                  
  455.675  50%   0.437 PCr                                                 
   32.101 358% 3.1E-02 GABA                                                
    0.000 999%   0.000 Glc                                                 
  798.663  35%   0.766 Gln                                                 
  813.633  40%   0.780 Glu                                                 
  336.094   5%   0.322 GPC                                                 
    0.000 999%   0.000 PCh                                                 
  288.221  23%   0.276 GSH                                                 
  806.915  28%   0.774 Ins                                                 
    0.000 999%   0.000 Lac                                                 
 1.49E+03   4%   1.427 NAA                                                 
    0.000 999%   0.000 NAAG                                                
  111.373  20%   0.107 Scyllo                                              
   62.772 227% 6.0E-02 Tau                                                 
  268.008  34%   0.257 -CrCH2                                              
  336.094   5%   0.322 GPC+PCh                                             
 1.49E+03   4%   1.427 NAA+NAAG                                            
 1.04E+03   4%   1.000 Cr+PCr                                              
 1.61E+03  33%   1.547 Glu+Gln                                             
    0.000 999%   0.000 Lip13a                                              
    0.000 999%   0.000 Lip13b                                              
    0.000 999%   0.000 Lip09                                               
  790.105  14%   0.758 MM09                                                
    0.000 999%   0.000 Lip20                                               
 1.54E+03  16%   1.477 MM20                                                
    0.000 999%   0.000 MM12                                                
 1.37E+03  16%   1.310 MM14                                                
  958.773  19%   0.920 MM17                                                
    0.000 999%   0.000 Lip13a+Lip13b                                       
 1.37E+03  16%   1.310 MM14+Lip13a+Lip13b+MM12                             
  790.105  14%   0.758 MM09+Lip09                                          
 1.54E+03  16%   1.477 MM20+Lip20                                          
   6 lines in following misc. output table
  FWHM = 0.069 ppm    S/N =  10                                            
  Data shift =-0.023 ppm                                                   
  Ph: -20 deg     -13.8 deg/ppm                                            
  alphaB,S = 9.2E-01,   1.6E+02                                            
   14 spline knots.   Ns =10(1)                                            
  (16) 7 infls.   (17) 1 extrs.                                            
  498 points on ppm-axis = NY
      4.000000     3.992357     3.984714     3.977070     3.969427     3.961784     3.954141     3.946497     3.938854     3.931211
      3.923568     3.915925     3.908281     3.900638     3.892995     3.885352     3.877708     3.870065     3.862422     3.854779
      3.847136     3.839492     3.831849     3.824206     3.816563     3.808919     3.801276     3.793633     3.785990     3.778347
      3.770703     3.763060     3.755417     3.747774     3.740130     3.732487     3.724844     3.717201     3.709558     3.701914
      3.694271     3.686628     3.678985     3.671341     3.663698     3.656055     3.648412     3.640769     3.633125     3.625482
      3.617839     3.610196     3.602552     3.594909     3.587266     3.579623     3.571980     3.564336     3.556693     3.549050
      3.541407     3.533763     3.526120     3.518477     3.510834     3.503191     3.495547     3.487904     3.480261     3.472618
      3.464974     3.457331     3.449688     3.442045     3.434402     3.426758     3.419115     3.411472     3.403829     3.396185
      3.388542     3.380899     3.373256     3.365613     3.357969     3.350326     3.342683     3.335040     3.327396     3.319753
      3.312110     3.304467     3.296824     3.289180     3.281537     3.273894     3.266251     3.258607     3.250964     3.243321
      3.235678     3.228034     3.220391     3.212748     3.205105     3.197462     3.189818     3.182175     3.174532     3.166889
      3.159245     3.151602     3.143959     3.136316     3.128673     3.121029     3.113386     3.105743     3.098100     3.090456
      3.082813     3.075170     3.067527     3.059884     3.052240     3.044597     3.036954     3.029311     3.021667     3.014024
      3.006381     2.998738     2.991095     2.983451     2.975808     2.968165     2.960522     2.952878     2.945235     2.937592
      2.929949     2.922306     2.914662     2.907019     2.899376     2.891733     2.884089     2.876446     2.868803     2.861160
      2.853517     2.845873     2.838230     2.830587     2.822944     2.815300     2.807657     2.800014     2.792371     2.784728
      2.777084     2.769441     2.761798     2.754155     2.746511     2.738868     2.731225     2.723582     2.715939     2.708295
      2.700652     2.693009     2.685366     2.677722     2.670079     2.662436     2.654793     2.647150     2.639506     2.631863
      2.624220     2.616577     2.608933     2.601290     2.593647     2.586004     2.578361     2.570717     2.563074     2.555431
      2.547788     2.540144     2.532501     2.524858     2.517215     2.509572     2.501928     2.494285     2.486642     2.478999
      2.471355     2.463712     2.456069     2.448426     2.440783     2.433139     2.425496     2.417853     2.410210     2.402566
      2.394923     2.387280     2.379637     2.371994     2.364350     2.356707     2.349064     2.341421     2.333777     2.326134
      2.318491     2.310848     2.303205     2.295561     2.287918     2.280275     2.272632     2.264988     2.257345     2.249702
      2.242059     2.234416     2.226772     2.219129     2.211486     2.203843     2.196199     2.188556     2.180913     2.173270
      2.165627     2.157983     2.150340     2.142697     2.135054     2.127410     2.119767     2.112124     2.104481     2.096838
      2.089194     2.081551     2.073908     2.066265     2.058621     2.050978     2.043335     2.035692     2.028049     2.020405
      2.012762     2.005119     1.997476     1.989833     1.982190     1.974546     1.966903     1.959260     1.951617     1.943974
      1.936331     1.928688     1.921045     1.913402     1.905759     1.898115     1.890472     1.882829     1.875186     1.867543
      1.859900     1.852257     1.844614     1.836971     1.829327     1.821684     1.814041     1.806398     1.798755     1.791112
      1.783469     1.775826     1.768183     1.760540     1.752896     1.745253     1.737610     1.729967     1.722324     1.714681
      1.707038     1.699395     1.691752     1.684108     1.676465     1.668822     1.661179     1.653536     1.645893     1.638250
      1.630607     1.622964     1.615321     1.607677     1.600034     1.592391     1.584748     1.577105     1.569462     1.561819
      1.554176     1.546533     1.538890     1.531246     1.523603     1.515960     1.508317     1.500674     1.493031     1.485388
      1.477745     1.470102     1.462458     1.454815     1.447172     1.439529     1.431886     1.424243     1.416600     1.408957
      1.401314     1.393671     1.386027     1.378384     1.370741     1.363098     1.355455     1.347812     1.340169     1.332526
      1.324883     1.317240     1.309596     1.301953     1.294310     1.286667     1.279024     1.271381     1.263738     1.256095
      1.248452     1.240808     1.233165     1.225522     1.217879     1.210236     1.202593     1.194950     1.187307     1.179664
      1.172021     1.164377     1.156734     1.149091     1.141448     1.133805     1.126162     1.118519     1.110876     1.103233
      1.095590     1.087946     1.080303     1.072660     1.065017     1.057374     1.049731     1.042088     1.034445     1.026802
      1.019158     1.011515     1.003872     0.996229     0.988586     0.980943     0.973300     0.965657     0.958014     0.950371
      0.942727     0.935084     0.927441     0.919798     0.912155     0.904512     0.896869     0.889226     0.881583     0.873940
      0.866296     0.858653     0.851010     0.843367     0.835724     0.828081     0.820438     0.812795     0.805152     0.797508
      0.789865     0.782222     0.774579     0.766936     0.759293     0.751650     0.744007     0.736364     0.728721     0.721077
      0.713434     0.705791     0.698148     0.690505     0.682862     0.675219     0.667576     0.659933     0.652290     0.644646
      0.637003     0.629360     0.621717     0.614074     0.606431     0.598788     0.591145     0.583502     0.575858     0.568215
      0.560572     0.552929     0.545286     0.537643     0.530000     0.522357     0.514714     0.507071     0.499427     0.491784
      0.484141     0.476498     0.468855     0.461212     0.453569     0.445925     0.438282     0.430639     0.422996     0.415353
      0.407710     0.400067     0.392424     0.384780     0.377137     0.369494     0.361851     0.354208     0.346565     0.338922
      0.331278     0.323635     0.315992     0.308349     0.300706     0.293063     0.285420     0.277777     0.270133     0.262490
      0.254847     0.247204     0.239561     0.231918     0.224275     0.216631     0.208988     0.201345
 NY phased data points follow
  -7.58511E+00 -6.06498E+00 -5.00777E+00  3.95091E-01 -8.88650E-01 -6.63630E-01  2.04756E+00  4.15388E+00  3.14876E+00  5.54210E+00
   8.30674E+00  7.93229E+00  5.41756E+00  3.42179E+00  2.78410E+00  2.61790E+00  6.26358E-01  3.37855E-01 -1.73555E+00 -3.66698E+00
  -3.73384E+00 -4.92128E+00 -4.56759E+00  1.39533E+00 -5.25737E+00 -4.14095E+00 -3.85649E+00 -1.00144E+00  1.06153E-02  1.77444E-03
   1.59768E+00 -1.13910E+00 -1.29261E+00 -8.18686E-01 -4.01232E-01 -2.78353E+00 -2.31959E+00 -2.35252E-01 -2.47030E+00  4.88252E-01
  -5.62495E-01  9.33054E-01 -9.24617E-01 -2.88936E-01  3.42171E-01  2.06569E-02  1.38416E+00  1.68500E+00  3.05808E-01 -7.30982E-01
   8.22742E-01  3.69946E-02 -1.34814E+00 -4.97511E-01 -1.16085E+00 -3.32736E+00 -1.14355E+00  1.21093E-01 -5.56887E+00 -3.79588E+00
  -4.53725E+00 -3.99741E+00 -2.29944E+00 -5.52437E+00 -6.02792E+00 -6.04744E+00 -4.05331E+00 -3.35751E+00 -6.03753E+00 -4.59740E+00
  -3.08715E+00 -4.39937E+00 -3.87674E+00 -3.32482E+00 -4.75219E+00 -3.59374E+00 -2.94497E+00 -3.94811E+00 -2.86709E+00 -3.57538E+00
  -2.80037E+00 -3.58169E+00 -2.41340E+00 -3.21446E-01 -3.18396E+00  6.97321E-01  6.44173E-01  1.57383E-01  4.14480E-01  7.37295E-01
  -1.06666E-01 -1.40762E+00  2.18879E+00  9.49260E-01  3.19091E+00  4.94086E+00  1.94910E+00  6.04244E+00  5.26680E+00  1.09847E+01
   1.20928E+01  1.51069E+01  1.94383E+01  1.62450E+01  1.66192E+01  1.36977E+01  1.08051E+01  9.95287E+00  8.59219E+00  9.97893E+00
   4.38217E+00  3.19932E+00  5.25032E+00  1.50967E+00  1.45004E+00  1.72592E+00  1.97391E+00  1.18471E+00  4.72915E+00  4.73367E+00
   5.72922E+00  9.29129E+00  9.94522E+00  1.10078E+01  1.72647E+01  1.62909E+01  2.05490E+01  2.19517E+01  2.22338E+01  1.85882E+01
   1.64875E+01  1.41877E+01  1.05065E+01  6.66554E+00  1.01281E+00  2.40627E+00 -5.21918E-01  2.09268E-01 -1.60853E+00 -1.59669E+00
  -2.53754E+00 -2.71724E+00 -2.59700E+00 -2.15510E-01 -3.45230E-01 -1.27575E+00 -1.35497E+00 -1.74024E+00 -2.86280E+00 -3.57276E+00
  -2.06969E+00 -2.93942E+00 -2.99196E+00 -2.80838E+00 -5.75952E-01 -5.42565E+00 -2.52854E+00 -4.64736E+00 -5.81404E+00 -4.27109E+00
  -2.63997E+00 -6.05270E+00 -4.04358E+00 -5.68301E+00 -6.14889E+00 -2.57324E+00 -5.37354E+00 -4.33313E+00 -3.76949E+00 -4.77463E+00
  -6.15687E+00 -4.59165E+00 -8.30552E+00 -8.42619E+00 -6.48395E+00 -6.06835E+00 -7.85654E+00 -6.72749E+00 -8.69381E+00 -6.36449E+00
  -6.42823E+00 -5.68909E+00 -7.98116E+00 -2.72637E+00 -5.81302E+00 -4.12157E+00 -6.25744E+00 -4.64004E+00 -9.17167E-01 -2.56515E+00
  -2.68558E+00  1.36316E-01 -9.73578E-01  1.25528E+00  2.85249E-01  8.88873E-01  3.32058E+00 -1.20337E+00 -9.51610E-01 -1.65062E+00
  -5.13749E-01 -1.60744E+00  5.82356E-01  4.53332E-01 -2.55060E-01 -1.16487E+00 -1.02334E+00 -1.47741E+00  3.55105E-01 -1.65522E+00
  -3.00319E-01 -5.21029E-01  1.91999E+00  1.99607E+00  1.24610E+00  3.33992E+00  2.67783E+00  1.97949E+00  2.47367E+00  1.72473E+00
   2.61960E+00  1.46380E+00  9.80004E-01 -2.28839E+00  3.75518E+00  1.10401E+00  4.50532E-01  3.21923E+00  3.79232E+00  5.49442E+00
   3.60803E+00  1.06021E+00  2.36630E+00  2.22402E+00  1.07032E+00  7.25291E-01  2.30412E+00  1.71149E+00  4.91978E+00  5.14902E+00
   1.98925E+00  1.33747E+00  3.88158E+00  1.66646E+00  5.69222E+00  5.12383E+00  4.43562E+00  5.30057E+00  5.04713E+00  4.74398E+00
   7.03083E+00  7.64340E+00  1.16333E+01  1.28418E+01  1.77408E+01  2.03008E+01  2.15854E+01  2.67687E+01  2.96653E+01  3.91273E+01
   3.97813E+01  3.92067E+01  3.91451E+01  3.03774E+01  2.70652E+01  2.53840E+01  2.03710E+01  1.77869E+01  1.46123E+01  1.12038E+01
   1.04530E+01  5.73546E+00  9.38796E+00  6.67708E+00  7.03768E+00  6.72247E+00  4.02939E+00  5.77797E+00  4.56434E+00  1.68234E+00
   4.97623E+00  1.03158E+00  4.74501E+00  4.06957E+00  4.94942E+00  4.62254E+00  4.02114E+00  4.87007E+00  5.02451E+00  4.63340E+00
   4.39664E+00  6.51396E+00  4.16304E+00  5.67021E+00  4.54880E+00  3.05464E+00  3.42841E+00  6.53377E+00  2.46479E+00  5.13139E+00
   3.46506E+00  5.42890E+00  4.07003E+00  7.87886E+00  7.07342E+00  6.81871E+00  7.16663E+00  8.07416E+00  7.34979E+00  5.15545E+00
   4.82925E+00  9.07049E+00  8.82432E+00  9.69048E+00  8.35552E+00  1.06209E+01  9.70697E+00  7.63885E+00  1.07982E+01  8.52354E+00
   9.19626E+00  8.16326E+00  1.17548E+01  1.03403E+01  9.20921E+00  5.96039E+00  8.81800E+00  7.51960E+00  1.06314E+01  8.58105E+00
   8.97369E+00  7.84528E+00  6.40055E+00  6.21693E+00  2.87735E+00  4.45587E+00  5.06164E+00  4.22832E+00  3.56472E+00  3.34338E+00
   2.60404E+00  4.26602E+00  4.85881E+00  1.57373E+00  3.67313E+00  3.88608E+00  1.86294E+00  1.32700E+00 -1.17882E+00  7.60956E-01
  -2.61426E+00 -2.06693E-01 -2.49669E+00 -3.73742E+00 -1.10715E+00 -2.87114E+00 -3.55793E+00 -1.58560E+00 -3.57669E+00 -4.15375E-01
  -1.03776E+00 -4.09477E+00 -3.83978E+00  2.87337E-01 -8.53274E-01 -2.08850E+00 -1.43524E+00  9.22188E-01  2.03329E+00  3.07740E-01
   4.46046E-01  6.52075E-02  6.36385E-02  4.61188E-01  4.82856E-01  3.81694E+00  3.69740E+00  3.76851E+00  1.97302E+00  4.49745E+00
   3.67635E+00  3.23214E+00  5.27294E+00  2.03732E+00  4.99745E+00  6.68466E+00  4.27916E+00  3.37248E+00  2.59439E+00  4.80633E+00
   4.67997E+00  5.82295E+00  3.96901E+00  4.52759E+00  5.17706E+00  5.73163E+00  6.82396E+00  3.65968E+00  3.58374E+00  4.41666E+00
   4.55361E+00  3.86098E+00  5.66688E+00  6.81624E+00  5.13294E+00  6.75250E+00  5.05292E+00  2.93894E+00  5.88617E+00  5.94329E+00
   5.09363E+00  4.44220E+00  4.36106E+00  5.65399E+00  6.06240E+00  4.66863E+00  5.87124E+00  5.64434E+00  4.26358E+00  2.46144E+00
   2.79615E+00  1.11906E+00  5.47615E+00  2.58952E+00  3.35805E+00  3.77099E+00  3.13622E+00  4.51720E+00  7.03093E-01  2.90943E+00
   2.79820E+00  3.96346E+00  1.97764E+00  5.29694E+00  3.37199E-01  2.83629E+00  1.19715E+00  2.76056E-01  6.12164E+00  1.92538E+00
   5.28969E+00  2.96026E+00  1.69171E+00  1.97457E+00  2.76862E+00 -7.54992E-01  2.52923E+00  2.61246E+00  5.73487E-01  2.82686E+00
   3.27903E+00  2.09014E+00  2.02778E+00  2.75531E+00  2.21666E+00  1.06002E+00 -3.20926E-01  4.28305E-01  1.57394E+00  2.78343E+00
   1.96902E+00  2.00647E+00  1.90300E+00  5.66079E+00  1.51555E+00  6.31106E-01  2.64725E+00  5.37328E+00  2.93826E+00  2.38533E+00
   3.51631E+00  2.28348E+00  2.61347E+00  1.80134E+00  2.38996E+00  6.66272E-01  1.96973E+00  2.17455E+00  3.35198E+00  4.05567E+00
   3.94711E+00  1.05993E+00  4.30776E+00  3.74623E+00  3.88252E+00  2.67512E+00  3.95046E+00  2.78092E+00  2.54838E+00  1.40851E+00
   1.06155E+00  2.57708E+00  2.88400E+00  2.10547E+00  2.33226E+00  2.21470E+00  5.33062E+00  1.27976E+00
 NY points of the fit to the data follow
  -4.47251E+00 -3.74254E+00 -2.84119E+00 -1.98758E+00 -1.08352E+00  2.40863E-02  1.36583E+00  2.94048E+00  4.56774E+00  5.89802E+00
   6.58295E+00  6.48343E+00  5.73623E+00  4.63206E+00  3.47091E+00  2.36419E+00  1.23488E+00  6.84179E-02 -1.07575E+00 -2.05388E+00
  -2.71566E+00 -3.10476E+00 -3.32748E+00 -3.28573E+00 -3.14402E+00 -2.94563E+00 -2.60909E+00 -2.01525E+00 -1.13146E+00 -1.43613E-01
   6.55205E-01  9.91219E-01  7.87085E-01  2.22330E-01 -4.78384E-01 -1.17287E+00 -1.72288E+00 -1.98151E+00 -1.96347E+00 -1.84849E+00
  -1.83959E+00 -1.91589E+00 -1.84055E+00 -1.52463E+00 -1.03383E+00 -5.08123E-01 -9.01082E-02  5.27544E-02 -1.73815E-01 -6.59954E-01
  -1.20252E+00 -1.67159E+00 -2.05241E+00 -2.42102E+00 -2.75015E+00 -2.95412E+00 -3.05746E+00 -3.14823E+00 -3.22716E+00 -3.22795E+00
  -3.21103E+00 -3.27001E+00 -3.38141E+00 -3.49112E+00 -3.56445E+00 -3.58613E+00 -3.55700E+00 -3.48358E+00 -3.38058E+00 -3.28439E+00
  -3.21812E+00 -3.16825E+00 -3.12959E+00 -3.09998E+00 -3.08015E+00 -3.06365E+00 -2.99359E+00 -2.77192E+00 -2.52722E+00 -2.34900E+00
  -2.19427E+00 -1.98823E+00 -1.69764E+00 -1.28511E+00 -7.74040E-01 -3.02881E-01 -3.46166E-02 -6.26547E-02 -3.47560E-01 -7.46736E-01
  -1.08137E+00 -1.25611E+00 -1.10723E+00 -1.17115E-01  1.44551E+00  2.92286E+00  4.16204E+00  5.38288E+00  6.98269E+00  9.35795E+00
   1.23500E+01  1.53860E+01  1.76241E+01  1.83651E+01  1.74697E+01  1.53821E+01  1.29160E+01  1.06185E+01  8.47962E+00  6.34322E+00
   4.32396E+00  2.66821E+00  1.26707E+00 -2.26255E-01 -1.66948E+00 -2.22846E+00 -1.62213E+00  1.37067E-01  2.19976E+00  3.99518E+00
   5.64343E+00  7.49780E+00  9.87112E+00  1.29363E+01  1.64588E+01  1.96735E+01  2.16040E+01  2.17057E+01  2.01164E+01  1.75653E+01
   1.49592E+01  1.26015E+01  1.02650E+01  7.82155E+00  5.51021E+00  3.56009E+00  1.76364E+00 -1.07198E-01 -1.56678E+00 -1.98738E+00
  -1.99204E+00 -1.94706E+00 -1.92613E+00 -1.95143E+00 -2.02277E+00 -2.10268E+00 -2.15864E+00 -2.21873E+00 -2.30045E+00 -2.40120E+00
  -2.53199E+00 -2.70851E+00 -2.91497E+00 -3.09983E+00 -3.21895E+00 -3.27890E+00 -3.31808E+00 -3.39669E+00 -3.52524E+00 -3.68030E+00
  -3.81621E+00 -3.87893E+00 -3.85253E+00 -3.76987E+00 -3.69808E+00 -3.70170E+00 -3.80621E+00 -3.99028E+00 -4.15839E+00 -4.27003E+00
  -4.36223E+00 -4.48005E+00 -4.63556E+00 -4.80592E+00 -4.96588E+00 -5.08464E+00 -5.14750E+00 -5.14694E+00 -5.11140E+00 -5.04715E+00
  -4.94278E+00 -4.77589E+00 -4.53766E+00 -4.27661E+00 -4.04603E+00 -3.83067E+00 -3.56266E+00 -3.16717E+00 -2.71322E+00 -2.31885E+00
  -2.00128E+00 -1.75258E+00 -1.56858E+00 -1.45923E+00 -1.36403E+00 -1.19587E+00 -9.45413E-01 -6.20583E-01 -2.37372E-01  9.34105E-02
   2.85542E-01  4.60571E-01  6.05619E-01  5.91976E-01  3.49702E-01 -9.95217E-02 -6.48901E-01 -1.21425E+00 -1.66964E+00 -1.82855E+00
  -1.67298E+00 -1.28985E+00 -7.94684E-01 -2.66616E-01  2.70558E-01  7.31317E-01  9.90314E-01  9.66041E-01  6.94724E-01  3.64974E-01
   1.30303E-01 -4.07453E-02 -1.42471E-01  4.66115E-02  5.11885E-01  9.77095E-01  1.26653E+00  1.49377E+00  1.81985E+00  2.15730E+00
   2.41306E+00  2.62540E+00  2.81526E+00  2.99579E+00  3.17026E+00  3.36239E+00  3.62814E+00  3.92290E+00  4.09708E+00  4.04723E+00
   3.81041E+00  3.54191E+00  3.37557E+00  3.35384E+00  3.48667E+00  3.79507E+00  4.21078E+00  4.61642E+00  4.98576E+00  5.51270E+00
   6.79307E+00  9.52678E+00  1.27047E+01  1.54709E+01  1.78649E+01  2.03326E+01  2.33611E+01  2.72888E+01  3.18953E+01  3.62140E+01
   3.88844E+01  3.90175E+01  3.66883E+01  3.28473E+01  2.87887E+01  2.50767E+01  2.14838E+01  1.78902E+01  1.46319E+01  1.19977E+01
   9.56468E+00  6.86794E+00  4.53782E+00  3.62468E+00  3.36179E+00  3.23360E+00  3.16198E+00  3.11641E+00  3.07996E+00  3.06292E+00
   3.06791E+00  3.09762E+00  3.15438E+00  3.23557E+00  3.33194E+00  3.44426E+00  3.57773E+00  3.73017E+00  3.89698E+00  4.07439E+00
   4.25850E+00  4.44549E+00  4.62959E+00  4.80521E+00  4.97093E+00  5.12460E+00  5.26354E+00  5.38691E+00  5.49544E+00  5.59026E+00
   5.67276E+00  5.74613E+00  5.81464E+00  5.88259E+00  5.95491E+00  6.03734E+00  6.13514E+00  6.25336E+00  6.39606E+00  6.56623E+00
   6.76535E+00  6.99336E+00  7.24819E+00  7.52583E+00  7.82045E+00  8.12501E+00  8.43168E+00  8.73221E+00  9.01098E+00  9.25181E+00
   9.44591E+00  9.58700E+00  9.66805E+00  9.68169E+00  9.62039E+00  9.48215E+00  9.26800E+00  8.97741E+00  8.61670E+00  8.19966E+00
   7.74271E+00  7.26010E+00  6.76298E+00  6.26187E+00  5.76536E+00  5.27727E+00  4.79724E+00  4.32654E+00  3.87452E+00  3.45509E+00
   3.07035E+00  2.71696E+00  2.39575E+00  2.10916E+00  1.85822E+00  1.63921E+00  1.44651E+00  1.28145E+00  1.14628E+00  1.03638E+00
   9.47729E-01  8.77274E-01  8.22293E-01  7.80501E-01  7.49883E-01  7.28829E-01  7.15911E-01  7.09992E-01  7.10048E-01  7.15353E-01
   7.25303E-01  7.39543E-01  7.57737E-01  7.79699E-01  8.05238E-01  8.34364E-01  8.67106E-01  9.03649E-01  9.44125E-01  9.88791E-01
   1.03789E+00  1.09187E+00  1.15114E+00  1.21629E+00  1.28784E+00  1.36644E+00  1.45278E+00  1.54770E+00  1.65199E+00  1.76656E+00
   1.89217E+00  2.02968E+00  2.17978E+00  2.34317E+00  2.52024E+00  2.71120E+00  2.91583E+00  3.13362E+00  3.36355E+00  3.60417E+00
   3.85338E+00  4.10856E+00  4.36643E+00  4.62332E+00  4.87505E+00  5.11717E+00  5.34495E+00  5.55367E+00  5.73874E+00  5.89601E+00
   6.02183E+00  6.11333E+00  6.16840E+00  6.18596E+00  6.16591E+00  6.10931E+00  6.01808E+00  5.89510E+00  5.74392E+00  5.56873E+00
   5.37407E+00  5.16478E+00  4.94558E+00  4.72109E+00  4.49551E+00  4.27269E+00  4.05592E+00  3.84799E+00  3.65099E+00  3.46650E+00
   3.29550E+00  3.13858E+00  2.99586E+00  2.86719E+00  2.75204E+00  2.64975E+00  2.55945E+00  2.48032E+00  2.41139E+00  2.35177E+00
   2.30050E+00  2.25674E+00  2.21964E+00  2.18853E+00  2.16271E+00  2.14162E+00  2.12464E+00  2.11134E+00  2.10127E+00  2.09412E+00
   2.08953E+00  2.08725E+00  2.08697E+00  2.08850E+00  2.09164E+00  2.09628E+00  2.10222E+00  2.10935E+00  2.11750E+00  2.12663E+00
   2.13662E+00  2.14744E+00  2.15896E+00  2.17115E+00  2.18390E+00  2.19723E+00  2.21106E+00  2.22539E+00  2.24012E+00  2.25525E+00
   2.27071E+00  2.28655E+00  2.30270E+00  2.31917E+00  2.33588E+00  2.35285E+00  2.37003E+00  2.38747E+00  2.40510E+00  2.42296E+00
   2.44095E+00  2.45913E+00  2.47746E+00  2.49597E+00  2.51462E+00  2.53342E+00  2.55231E+00  2.57135E+00  2.59049E+00  2.60979E+00
   2.62917E+00  2.64866E+00  2.66822E+00  2.68791E+00  2.70768E+00  2.72759E+00  2.74755E+00  2.76762E+00  2.78774E+00  2.80800E+00
   2.82833E+00  2.84879E+00  2.86931E+00  2.88994E+00  2.91065E+00  2.93152E+00  2.95249E+00  2.97361E+00
 NY background values follow
    -8.735E+00   -8.692E+00   -8.648E+00   -8.605E+00   -8.561E+00   -8.518E+00   -8.474E+00   -8.431E+00   -8.387E+00   -8.344E+00
    -8.301E+00   -8.257E+00   -8.214E+00   -8.171E+00   -8.128E+00   -8.084E+00   -8.041E+00   -7.998E+00   -7.955E+00   -7.912E+00
    -7.869E+00   -7.826E+00   -7.783E+00   -7.740E+00   -7.697E+00   -7.655E+00   -7.612E+00   -7.570E+00   -7.527E+00   -7.485E+00
    -7.442E+00   -7.400E+00   -7.358E+00   -7.316E+00   -7.274E+00   -7.232E+00   -7.190E+00   -7.148E+00   -7.107E+00   -7.065E+00
    -7.024E+00   -6.982E+00   -6.941E+00   -6.900E+00   -6.859E+00   -6.818E+00   -6.777E+00   -6.737E+00   -6.696E+00   -6.656E+00
    -6.615E+00   -6.575E+00   -6.535E+00   -6.495E+00   -6.456E+00   -6.416E+00   -6.377E+00   -6.337E+00   -6.298E+00   -6.259E+00
    -6.220E+00   -6.181E+00   -6.143E+00   -6.104E+00   -6.066E+00   -6.028E+00   -5.990E+00   -5.952E+00   -5.914E+00   -5.877E+00
    -5.839E+00   -5.802E+00   -5.765E+00   -5.728E+00   -5.692E+00   -5.655E+00   -5.619E+00   -5.582E+00   -5.546E+00   -5.511E+00
    -5.475E+00   -5.439E+00   -5.404E+00   -5.369E+00   -5.334E+00   -5.299E+00   -5.265E+00   -5.230E+00   -5.196E+00   -5.162E+00
    -5.128E+00   -5.095E+00   -5.061E+00   -5.028E+00   -4.995E+00   -4.962E+00   -4.929E+00   -4.897E+00   -4.865E+00   -4.832E+00
    -4.800E+00   -4.769E+00   -4.737E+00   -4.706E+00   -4.674E+00   -4.643E+00   -4.612E+00   -4.581E+00   -4.551E+00   -4.520E+00
    -4.490E+00   -4.460E+00   -4.430E+00   -4.400E+00   -4.370E+00   -4.340E+00   -4.311E+00   -4.282E+00   -4.252E+00   -4.223E+00
    -4.194E+00   -4.166E+00   -4.137E+00   -4.108E+00   -4.080E+00   -4.052E+00   -4.023E+00   -3.995E+00   -3.967E+00   -3.939E+00
    -3.911E+00   -3.884E+00   -3.856E+00   -3.829E+00   -3.801E+00   -3.774E+00   -3.747E+00   -3.720E+00   -3.693E+00   -3.666E+00
    -3.639E+00   -3.612E+00   -3.585E+00   -3.558E+00   -3.532E+00   -3.505E+00   -3.479E+00   -3.452E+00   -3.426E+00   -3.400E+00
    -3.373E+00   -3.347E+00   -3.321E+00   -3.294E+00   -3.268E+00   -3.242E+00   -3.216E+00   -3.190E+00   -3.164E+00   -3.137E+00
    -3.111E+00   -3.085E+00   -3.059E+00   -3.033E+00   -3.007E+00   -2.980E+00   -2.954E+00   -2.928E+00   -2.902E+00   -2.875E+00
    -2.849E+00   -2.823E+00   -2.796E+00   -2.770E+00   -2.743E+00   -2.717E+00   -2.690E+00   -2.664E+00   -2.637E+00   -2.610E+00
    -2.583E+00   -2.556E+00   -2.529E+00   -2.502E+00   -2.475E+00   -2.448E+00   -2.420E+00   -2.393E+00   -2.366E+00   -2.338E+00
    -2.311E+00   -2.284E+00   -2.256E+00   -2.229E+00   -2.202E+00   -2.174E+00   -2.147E+00   -2.120E+00   -2.092E+00   -2.065E+00
    -2.038E+00   -2.011E+00   -1.984E+00   -1.957E+00   -1.930E+00   -1.904E+00   -1.877E+00   -1.851E+00   -1.824E+00   -1.798E+00
    -1.772E+00   -1.746E+00   -1.720E+00   -1.695E+00   -1.669E+00   -1.644E+00   -1.619E+00   -1.594E+00   -1.569E+00   -1.544E+00
    -1.520E+00   -1.496E+00   -1.472E+00   -1.449E+00   -1.425E+00   -1.402E+00   -1.379E+00   -1.356E+00   -1.334E+00   -1.312E+00
    -1.290E+00   -1.269E+00   -1.247E+00   -1.226E+00   -1.205E+00   -1.185E+00   -1.165E+00   -1.145E+00   -1.125E+00   -1.105E+00
    -1.086E+00   -1.067E+00   -1.049E+00   -1.030E+00   -1.012E+00   -9.943E-01   -9.767E-01   -9.594E-01   -9.423E-01   -9.255E-01
    -9.089E-01   -8.926E-01   -8.766E-01   -8.609E-01   -8.454E-01   -8.302E-01   -8.152E-01   -8.005E-01   -7.861E-01   -7.719E-01
    -7.580E-01   -7.444E-01   -7.310E-01   -7.179E-01   -7.051E-01   -6.925E-01   -6.802E-01   -6.682E-01   -6.564E-01   -6.449E-01
    -6.337E-01   -6.227E-01   -6.120E-01   -6.015E-01   -5.913E-01   -5.814E-01   -5.716E-01   -5.622E-01   -5.529E-01   -5.439E-01
    -5.351E-01   -5.265E-01   -5.182E-01   -5.100E-01   -5.020E-01   -4.942E-01   -4.866E-01   -4.792E-01   -4.720E-01   -4.649E-01
    -4.580E-01   -4.512E-01   -4.446E-01   -4.381E-01   -4.318E-01   -4.256E-01   -4.195E-01   -4.136E-01   -4.077E-01   -4.020E-01
    -3.964E-01   -3.908E-01   -3.854E-01   -3.800E-01   -3.748E-01   -3.696E-01   -3.644E-01   -3.594E-01   -3.544E-01   -3.494E-01
    -3.445E-01   -3.396E-01   -3.348E-01   -3.300E-01   -3.252E-01   -3.204E-01   -3.157E-01   -3.109E-01   -3.061E-01   -3.014E-01
    -2.966E-01   -2.918E-01   -2.869E-01   -2.820E-01   -2.770E-01   -2.720E-01   -2.669E-01   -2.618E-01   -2.565E-01   -2.512E-01
    -2.457E-01   -2.402E-01   -2.345E-01   -2.287E-01   -2.228E-01   -2.167E-01   -2.104E-01   -2.040E-01   -1.975E-01   -1.907E-01
    -1.838E-01   -1.767E-01   -1.694E-01   -1.618E-01   -1.541E-01   -1.461E-01   -1.379E-01   -1.294E-01   -1.207E-01   -1.117E-01
    -1.025E-01   -9.293E-02   -8.312E-02   -7.302E-02   -6.261E-02   -5.190E-02   -4.086E-02   -2.950E-02   -1.780E-02   -5.762E-03
     6.630E-03    1.938E-02    3.250E-02    4.599E-02    5.984E-02    7.405E-02    8.860E-02    1.035E-01    1.187E-01    1.342E-01
     1.501E-01    1.663E-01    1.827E-01    1.995E-01    2.165E-01    2.339E-01    2.515E-01    2.693E-01    2.874E-01    3.058E-01
     3.244E-01    3.433E-01    3.623E-01    3.816E-01    4.011E-01    4.208E-01    4.407E-01    4.608E-01    4.810E-01    5.015E-01
     5.221E-01    5.428E-01    5.638E-01    5.848E-01    6.060E-01    6.273E-01    6.488E-01    6.703E-01    6.920E-01    7.138E-01
     7.356E-01    7.576E-01    7.796E-01    8.017E-01    8.238E-01    8.460E-01    8.682E-01    8.905E-01    9.128E-01    9.352E-01
     9.576E-01    9.800E-01    1.002E+00    1.025E+00    1.047E+00    1.070E+00    1.092E+00    1.115E+00    1.138E+00    1.160E+00
     1.183E+00    1.205E+00    1.228E+00    1.251E+00    1.273E+00    1.296E+00    1.319E+00    1.342E+00    1.364E+00    1.387E+00
     1.410E+00    1.432E+00    1.455E+00    1.478E+00    1.501E+00    1.523E+00    1.546E+00    1.569E+00    1.592E+00    1.614E+00
     1.637E+00    1.660E+00    1.682E+00    1.705E+00    1.728E+00    1.750E+00    1.773E+00    1.796E+00    1.818E+00    1.841E+00
     1.864E+00    1.886E+00    1.909E+00    1.931E+00    1.954E+00    1.976E+00    1.998E+00    2.021E+00    2.043E+00    2.066E+00
     2.088E+00    2.110E+00    2.133E+00    2.155E+00    2.177E+00    2.199E+00    2.222E+00    2.244E+00    2.266E+00    2.288E+00
     2.310E+00    2.332E+00    2.355E+00    2.377E+00    2.399E+00    2.421E+00    2.443E+00    2.465E+00    2.487E+00    2.509E+00
     2.531E+00    2.553E+00    2.575E+00    2.597E+00    2.619E+00    2.641E+00    2.663E+00    2.685E+00    2.707E+00    2.729E+00
     2.751E+00    2.773E+00    2.795E+00    2.817E+00    2.839E+00    2.861E+00    2.882E+00    2.904E+00
 Ala      Conc. = 1.51E+01
