 LCModel (Version 6.3-1L) Copyright: S.W. Provencher.          Ref.: Magn. Reson. Med. 30:672-679 (1993).                
 Slice#3 Row#8 Col#1  PD_05_press_1_raw_act
 36 lines in following concentration table = NCONC+1
    Conc.  %SD /Cr+PCr  Metabolite                                         
   12.610 231%   1.483 Ala                                                 
    3.975 226%   0.468 Asp                                                 
    8.502 163%   1.000 Cr                                                  
    0.000 999%   0.000 PCr                                                 
    2.478 217%   0.291 GABA                                                
    3.349 161%   0.394 Glc                                                 
    0.000 999%   0.000 Gln                                                 
  105.778  62%  12.441 Glu                                                 
    9.842  54%   1.158 GPC                                                 
    0.000 999%   0.000 PCh                                                 
   40.313  51%   4.742 GSH                                                 
  353.900  21%  41.626 Ins                                                 
   15.539 217%   1.828 Lac                                                 
   46.277  34%   5.443 NAA                                                 
    0.000 999%   0.000 NAAG                                                
    1.093 163%   0.129 Scyllo                                              
    4.231 212%   0.498 Tau                                                 
   11.034  93%   1.298 -CrCH2                                              
    9.842  54%   1.158 GPC+PCh                                             
   46.277  34%   5.443 NAA+NAAG                                            
    8.502 163%   1.000 Cr+PCr                                              
  105.778  62%  12.441 Glu+Gln                                             
  140.483 128%  16.524 Lip13a                                              
   50.218 112%   5.907 Lip13b                                              
   31.862 159%   3.748 Lip09                                               
    3.171 999%   0.373 MM09                                                
   29.284 107%   3.444 Lip20                                               
    4.847 999%   0.570 MM20                                                
    0.948 999%   0.112 MM12                                                
    2.661 999%   0.313 MM14                                                
    1.169 999%   0.137 MM17                                                
  190.702  72%  22.430 Lip13a+Lip13b                                       
  194.312  69%  22.855 MM14+Lip13a+Lip13b+MM12                             
   35.034 153%   4.121 MM09+Lip09                                          
   34.132 222%   4.015 MM20+Lip20                                          
   6 lines in following misc. output table
  FWHM = 0.054 ppm    S/N =   1                                            
  Data shift =-0.054 ppm                                                   
  Ph: -60 deg      64.8 deg/ppm                                            
  alphaB,S = 3.5E-01,   9.8E+01                                            
   14 spline knots.   Ns = 5(1)                                            
  ( 4) 2 infls.   ( 3) 1 extrs.                                            
  498 points on ppm-axis = NY
      4.000000     3.992357     3.984714     3.977070     3.969427     3.961784     3.954141     3.946497     3.938854     3.931211
      3.923568     3.915925     3.908281     3.900638     3.892995     3.885352     3.877708     3.870065     3.862422     3.854779
      3.847136     3.839492     3.831849     3.824206     3.816563     3.808919     3.801276     3.793633     3.785990     3.778347
      3.770703     3.763060     3.755417     3.747774     3.740130     3.732487     3.724844     3.717201     3.709558     3.701914
      3.694271     3.686628     3.678985     3.671341     3.663698     3.656055     3.648412     3.640769     3.633125     3.625482
      3.617839     3.610196     3.602552     3.594909     3.587266     3.579623     3.571980     3.564336     3.556693     3.549050
      3.541407     3.533763     3.526120     3.518477     3.510834     3.503191     3.495547     3.487904     3.480261     3.472618
      3.464974     3.457331     3.449688     3.442045     3.434402     3.426758     3.419115     3.411472     3.403829     3.396185
      3.388542     3.380899     3.373256     3.365613     3.357969     3.350326     3.342683     3.335040     3.327396     3.319753
      3.312110     3.304467     3.296824     3.289180     3.281537     3.273894     3.266251     3.258607     3.250964     3.243321
      3.235678     3.228034     3.220391     3.212748     3.205105     3.197462     3.189818     3.182175     3.174532     3.166889
      3.159245     3.151602     3.143959     3.136316     3.128673     3.121029     3.113386     3.105743     3.098100     3.090456
      3.082813     3.075170     3.067527     3.059884     3.052240     3.044597     3.036954     3.029311     3.021667     3.014024
      3.006381     2.998738     2.991095     2.983451     2.975808     2.968165     2.960522     2.952878     2.945235     2.937592
      2.929949     2.922306     2.914662     2.907019     2.899376     2.891733     2.884089     2.876446     2.868803     2.861160
      2.853517     2.845873     2.838230     2.830587     2.822944     2.815300     2.807657     2.800014     2.792371     2.784728
      2.777084     2.769441     2.761798     2.754155     2.746511     2.738868     2.731225     2.723582     2.715939     2.708295
      2.700652     2.693009     2.685366     2.677722     2.670079     2.662436     2.654793     2.647150     2.639506     2.631863
      2.624220     2.616577     2.608933     2.601290     2.593647     2.586004     2.578361     2.570717     2.563074     2.555431
      2.547788     2.540144     2.532501     2.524858     2.517215     2.509572     2.501928     2.494285     2.486642     2.478999
      2.471355     2.463712     2.456069     2.448426     2.440783     2.433139     2.425496     2.417853     2.410210     2.402566
      2.394923     2.387280     2.379637     2.371994     2.364350     2.356707     2.349064     2.341421     2.333777     2.326134
      2.318491     2.310848     2.303205     2.295561     2.287918     2.280275     2.272632     2.264988     2.257345     2.249702
      2.242059     2.234416     2.226772     2.219129     2.211486     2.203843     2.196199     2.188556     2.180913     2.173270
      2.165627     2.157983     2.150340     2.142697     2.135054     2.127410     2.119767     2.112124     2.104481     2.096838
      2.089194     2.081551     2.073908     2.066265     2.058621     2.050978     2.043335     2.035692     2.028049     2.020405
      2.012762     2.005119     1.997476     1.989833     1.982190     1.974546     1.966903     1.959260     1.951617     1.943974
      1.936331     1.928688     1.921045     1.913402     1.905759     1.898115     1.890472     1.882829     1.875186     1.867543
      1.859900     1.852257     1.844614     1.836971     1.829327     1.821684     1.814041     1.806398     1.798755     1.791112
      1.783469     1.775826     1.768183     1.760540     1.752896     1.745253     1.737610     1.729967     1.722324     1.714681
      1.707038     1.699395     1.691752     1.684108     1.676465     1.668822     1.661179     1.653536     1.645893     1.638250
      1.630607     1.622964     1.615321     1.607677     1.600034     1.592391     1.584748     1.577105     1.569462     1.561819
      1.554176     1.546533     1.538890     1.531246     1.523603     1.515960     1.508317     1.500674     1.493031     1.485388
      1.477745     1.470102     1.462458     1.454815     1.447172     1.439529     1.431886     1.424243     1.416600     1.408957
      1.401314     1.393671     1.386027     1.378384     1.370741     1.363098     1.355455     1.347812     1.340169     1.332526
      1.324883     1.317240     1.309596     1.301953     1.294310     1.286667     1.279024     1.271381     1.263738     1.256095
      1.248452     1.240808     1.233165     1.225522     1.217879     1.210236     1.202593     1.194950     1.187307     1.179664
      1.172021     1.164377     1.156734     1.149091     1.141448     1.133805     1.126162     1.118519     1.110876     1.103233
      1.095590     1.087946     1.080303     1.072660     1.065017     1.057374     1.049731     1.042088     1.034445     1.026802
      1.019158     1.011515     1.003872     0.996229     0.988586     0.980943     0.973300     0.965657     0.958014     0.950371
      0.942727     0.935084     0.927441     0.919798     0.912155     0.904512     0.896869     0.889226     0.881583     0.873940
      0.866296     0.858653     0.851010     0.843367     0.835724     0.828081     0.820438     0.812795     0.805152     0.797508
      0.789865     0.782222     0.774579     0.766936     0.759293     0.751650     0.744007     0.736364     0.728721     0.721077
      0.713434     0.705791     0.698148     0.690505     0.682862     0.675219     0.667576     0.659933     0.652290     0.644646
      0.637003     0.629360     0.621717     0.614074     0.606431     0.598788     0.591145     0.583502     0.575858     0.568215
      0.560572     0.552929     0.545286     0.537643     0.530000     0.522357     0.514714     0.507071     0.499427     0.491784
      0.484141     0.476498     0.468855     0.461212     0.453569     0.445925     0.438282     0.430639     0.422996     0.415353
      0.407710     0.400067     0.392424     0.384780     0.377137     0.369494     0.361851     0.354208     0.346565     0.338922
      0.331278     0.323635     0.315992     0.308349     0.300706     0.293063     0.285420     0.277777     0.270133     0.262490
      0.254847     0.247204     0.239561     0.231918     0.224275     0.216631     0.208988     0.201345
 NY phased data points follow
  -4.60117E+01 -4.68666E+01 -4.42143E+01 -4.55950E+01 -4.34661E+01 -4.32968E+01 -4.03717E+01 -4.14136E+01 -4.06025E+01 -3.99861E+01
  -3.70131E+01 -3.67992E+01 -3.67309E+01 -3.53137E+01 -3.39788E+01 -3.38079E+01 -3.35466E+01 -3.28986E+01 -3.20797E+01 -2.97277E+01
  -3.01913E+01 -3.15728E+01 -2.85865E+01 -2.76266E+01 -2.67632E+01 -2.45149E+01 -2.53217E+01 -2.47696E+01 -2.37085E+01 -2.42265E+01
  -2.30504E+01 -2.15958E+01 -2.15725E+01 -2.19943E+01 -2.04899E+01 -1.81528E+01 -1.75302E+01 -1.81426E+01 -1.65871E+01 -1.78366E+01
  -1.74450E+01 -1.68809E+01 -1.55989E+01 -1.42380E+01 -1.34886E+01 -1.29847E+01 -1.30602E+01 -1.11527E+01 -1.31006E+01 -1.19321E+01
  -8.94193E+00 -1.08341E+01 -8.37143E+00 -1.14672E+01 -8.41170E+00 -8.75748E+00 -9.41738E+00 -8.71900E+00 -8.32644E+00 -6.29790E+00
  -7.63944E+00 -7.00868E+00 -6.72489E+00 -5.32074E+00 -5.55360E+00 -4.51947E+00 -6.63068E+00 -6.52244E+00 -4.05373E+00 -6.17943E+00
  -5.11657E+00 -4.54836E+00 -3.31408E+00 -3.68977E+00 -2.02039E+00 -1.07079E+00 -1.77001E+00 -1.32551E+00 -1.92478E+00 -1.27646E+00
  -5.30347E-01 -1.78024E+00 -9.61446E-01 -1.11611E+00 -9.04779E-01 -3.33287E-01  5.87267E-01 -1.69004E+00 -1.09982E+00  7.28621E-01
   1.24290E-01 -5.67487E-01  5.21286E-01  2.04829E+00  1.25599E+00 -8.27391E-01  1.68742E+00  4.73168E-01  1.49252E+00  4.55175E-01
   2.12193E+00  3.10727E+00  3.07361E+00  3.47340E+00  1.68049E+00  2.23936E+00  4.34294E+00  2.46208E+00  2.68396E+00  3.56585E+00
   3.50532E+00  2.07118E+00  2.92004E+00  3.51799E+00  1.38183E+00  3.83593E+00  3.15897E+00  2.36729E+00  2.76824E+00  3.90578E+00
   3.57161E+00  3.83934E+00  4.71291E+00  3.71457E+00  3.77342E+00  4.64919E+00  4.74414E+00  5.18142E+00  4.85334E+00  6.48524E+00
   5.13331E+00  4.04333E+00  4.54443E+00  5.35781E+00  5.57546E+00  6.03762E+00  6.62667E+00  5.48022E+00  3.00359E+00  6.53841E+00
   5.67500E+00  6.58542E+00  5.53150E+00  4.46948E+00  5.79375E+00  5.84226E+00  3.91092E+00  5.51653E+00  6.42113E+00  5.59241E+00
   5.90271E+00  5.52295E+00  6.02800E+00  7.56594E+00  6.99711E+00  4.54470E+00  7.77315E+00  6.14624E+00  6.05806E+00  6.87377E+00
   5.76518E+00  5.99036E+00  7.66019E+00  6.67069E+00  7.49703E+00  5.85437E+00  5.98671E+00  6.03997E+00  7.79215E+00  7.59113E+00
   6.86095E+00  5.10779E+00  6.45926E+00  4.90715E+00  6.15811E+00  6.50218E+00  7.46478E+00  5.93037E+00  6.45300E+00  7.80764E+00
   5.60519E+00  7.41876E+00  7.85669E+00  7.68685E+00  7.00347E+00  7.56976E+00  8.00819E+00  7.29061E+00  6.83390E+00  5.76911E+00
   8.64702E+00  7.43160E+00  6.90556E+00  6.33661E+00  8.42810E+00  7.41412E+00  8.26096E+00  7.02526E+00  8.71006E+00  8.26118E+00
   9.61331E+00  8.04839E+00  7.91111E+00  8.61223E+00  8.11217E+00  8.04596E+00  7.37410E+00  1.02659E+01  9.69557E+00  9.34849E+00
   8.92872E+00  8.68512E+00  9.27462E+00  9.57139E+00  8.93248E+00  9.68565E+00  1.05308E+01  1.01982E+01  8.42505E+00  9.87907E+00
   9.84616E+00  9.32101E+00  9.04604E+00  9.85852E+00  9.55619E+00  7.56083E+00  9.93434E+00  1.00610E+01  1.13810E+01  8.35150E+00
   1.14814E+01  1.04383E+01  8.67480E+00  1.00458E+01  1.02237E+01  8.81797E+00  1.07442E+01  8.89814E+00  1.05119E+01  9.83654E+00
   1.11700E+01  1.00827E+01  1.12446E+01  1.21814E+01  7.60924E+00  1.11212E+01  1.16219E+01  1.09278E+01  1.06120E+01  1.14789E+01
   1.19747E+01  1.04674E+01  1.10720E+01  1.14649E+01  1.13717E+01  9.58405E+00  1.06012E+01  1.05320E+01  1.13206E+01  1.12559E+01
   1.28005E+01  1.24730E+01  1.27149E+01  1.37776E+01  1.15464E+01  1.21866E+01  1.38932E+01  1.20045E+01  1.04663E+01  9.09140E+00
   8.97708E+00  1.19974E+01  1.06198E+01  1.33216E+01  1.21580E+01  1.35642E+01  1.06785E+01  1.08673E+01  1.05598E+01  1.02045E+01
   1.05084E+01  1.01203E+01  1.27657E+01  1.20377E+01  1.18354E+01  1.18521E+01  1.16470E+01  9.83435E+00  1.23624E+01  1.01658E+01
   1.23688E+01  1.09153E+01  1.04132E+01  1.05355E+01  1.23377E+01  1.19830E+01  1.14826E+01  1.15321E+01  1.16549E+01  1.06660E+01
   1.15891E+01  1.17229E+01  1.21013E+01  9.76262E+00  1.22756E+01  1.03710E+01  9.81267E+00  9.90730E+00  1.13491E+01  1.16839E+01
   1.19796E+01  1.27035E+01  1.07840E+01  1.15886E+01  1.04526E+01  1.12306E+01  9.18626E+00  9.55523E+00  1.07110E+01  1.06840E+01
   1.11660E+01  1.11857E+01  1.06874E+01  8.92494E+00  1.09457E+01  1.15734E+01  1.02724E+01  1.02132E+01  9.86018E+00  1.09650E+01
   9.75290E+00  9.46834E+00  9.91754E+00  1.07331E+01  1.07272E+01  9.72065E+00  1.07163E+01  1.05193E+01  1.13513E+01  1.06244E+01
   1.02042E+01  1.06896E+01  9.66121E+00  9.14434E+00  1.00103E+01  1.14422E+01  1.13057E+01  1.10548E+01  9.90849E+00  1.03850E+01
   1.03048E+01  9.88417E+00  9.47184E+00  9.43308E+00  1.20298E+01  1.23908E+01  1.12335E+01  1.20017E+01  9.46070E+00  1.11673E+01
   1.13478E+01  9.76102E+00  1.09979E+01  1.09231E+01  1.13345E+01  8.86585E+00  9.69199E+00  1.01230E+01  9.38254E+00  1.03144E+01
   8.72853E+00  9.10291E+00  1.24190E+01  9.77772E+00  9.35808E+00  1.01627E+01  1.11309E+01  9.77346E+00  1.08750E+01  1.05860E+01
   1.00849E+01  8.41926E+00  9.18711E+00  8.42067E+00  8.63685E+00  8.15017E+00  7.87604E+00  8.06372E+00  8.62295E+00  9.58928E+00
   6.77003E+00  8.09124E+00  7.82946E+00  9.34179E+00  8.13183E+00  8.50733E+00  7.72420E+00  7.90208E+00  6.99424E+00  8.64318E+00
   8.26624E+00  9.13892E+00  9.00758E+00  9.10228E+00  7.45234E+00  7.14332E+00  6.41773E+00  8.24586E+00  7.22428E+00  7.55336E+00
   6.27002E+00  7.29799E+00  7.10648E+00  7.55647E+00  7.09978E+00  6.03236E+00  8.05944E+00  6.36919E+00  7.65133E+00  7.57129E+00
   8.57754E+00  7.03124E+00  7.65496E+00  8.23025E+00  7.73513E+00  6.02908E+00  5.25812E+00  7.07628E+00  6.30744E+00  7.69047E+00
   5.74603E+00  6.06678E+00  6.97944E+00  4.81555E+00  4.50274E+00  5.75264E+00  6.24115E+00  6.02609E+00  5.55842E+00  4.71734E+00
   7.60793E+00  6.55418E+00  7.80450E+00  4.79712E+00  6.67496E+00  6.73136E+00  6.60390E+00  5.22089E+00  5.08701E+00  5.62055E+00
   4.25492E+00  6.10445E+00  7.41875E+00  4.23246E+00  4.88257E+00  5.87622E+00  6.68780E+00  5.10682E+00  5.38958E+00  2.72132E+00
   4.67941E+00  4.50332E+00  6.76301E+00  4.78887E+00  4.26939E+00  2.59542E+00  6.48467E+00  4.76781E+00  5.32116E+00  3.99097E+00
   4.35594E+00  5.17583E+00  5.08647E+00  3.76144E+00  6.12584E+00  4.19630E+00  5.33826E+00  4.19752E+00  4.18409E+00  5.19230E+00
   3.37262E+00  4.78451E+00  5.47059E+00  2.44185E+00  5.27772E+00  3.41818E+00  5.12606E+00  3.72992E+00  4.71747E+00  2.07242E+00
   2.21389E+00  4.09546E+00  2.16804E+00  3.55432E+00  4.15751E+00  3.23617E+00  2.91400E+00  1.98252E+00
 NY points of the fit to the data follow
  -4.41068E+01 -4.35885E+01 -4.30167E+01 -4.23816E+01 -4.17314E+01 -4.10826E+01 -4.04170E+01 -3.97203E+01 -3.89989E+01 -3.82640E+01
  -3.75233E+01 -3.67797E+01 -3.60335E+01 -3.52896E+01 -3.45574E+01 -3.38494E+01 -3.31710E+01 -3.25007E+01 -3.18166E+01 -3.11230E+01
  -3.04312E+01 -2.97407E+01 -2.90543E+01 -2.83888E+01 -2.77292E+01 -2.69996E+01 -2.61917E+01 -2.53499E+01 -2.45009E+01 -2.36599E+01
  -2.28500E+01 -2.20997E+01 -2.14062E+01 -2.07689E+01 -2.02348E+01 -1.98204E+01 -1.94681E+01 -1.91004E+01 -1.87214E+01 -1.83422E+01
  -1.79414E+01 -1.74645E+01 -1.67839E+01 -1.58164E+01 -1.46455E+01 -1.34699E+01 -1.24680E+01 -1.17084E+01 -1.11957E+01 -1.09140E+01
  -1.08373E+01 -1.09197E+01 -1.10824E+01 -1.11834E+01 -1.10237E+01 -1.05428E+01 -9.85975E+00 -9.11167E+00 -8.39447E+00 -7.76734E+00
  -7.26387E+00 -6.89041E+00 -6.61950E+00 -6.41724E+00 -6.25264E+00 -6.09191E+00 -5.86699E+00 -5.52194E+00 -5.07045E+00 -4.56302E+00
  -4.06527E+00 -3.61609E+00 -3.23405E+00 -2.91914E+00 -2.65353E+00 -2.42582E+00 -2.22378E+00 -2.03835E+00 -1.84736E+00 -1.62818E+00
  -1.39246E+00 -1.16198E+00 -9.76400E-01 -8.65415E-01 -8.33337E-01 -8.51643E-01 -8.79931E-01 -8.82614E-01 -8.30261E-01 -6.97700E-01
  -4.76365E-01 -1.58037E-01  2.35099E-01  6.36791E-01  9.72229E-01  1.20444E+00  1.33529E+00  1.40430E+00  1.50192E+00  1.66715E+00
   1.87948E+00  2.12206E+00  2.37477E+00  2.62813E+00  2.85549E+00  3.02536E+00  3.12341E+00  3.15177E+00  3.13220E+00  3.11209E+00
   3.15139E+00  3.23691E+00  3.33366E+00  3.43360E+00  3.52959E+00  3.61752E+00  3.69550E+00  3.76515E+00  3.82894E+00  3.89023E+00
   3.95340E+00  4.02278E+00  4.11501E+00  4.24124E+00  4.38836E+00  4.53984E+00  4.68355E+00  4.81293E+00  4.93378E+00  5.05447E+00
   5.15946E+00  5.22673E+00  5.24893E+00  5.23190E+00  5.20084E+00  5.17632E+00  5.16010E+00  5.16476E+00  5.19513E+00  5.25457E+00
   5.34805E+00  5.47025E+00  5.59538E+00  5.70227E+00  5.78306E+00  5.83465E+00  5.86408E+00  5.88445E+00  5.90456E+00  5.93233E+00
   5.96288E+00  5.99423E+00  6.02767E+00  6.06417E+00  6.10405E+00  6.14701E+00  6.19056E+00  6.23126E+00  6.26925E+00  6.30648E+00
   6.34650E+00  6.38942E+00  6.43225E+00  6.47523E+00  6.51960E+00  6.56561E+00  6.61279E+00  6.65922E+00  6.70206E+00  6.74124E+00
   6.77862E+00  6.81377E+00  6.84604E+00  6.87777E+00  6.91089E+00  6.94705E+00  6.98394E+00  7.01898E+00  7.05385E+00  7.09253E+00
   7.13437E+00  7.17469E+00  7.20764E+00  7.23010E+00  7.24969E+00  7.28282E+00  7.34223E+00  7.43200E+00  7.54526E+00  7.66990E+00
   7.79691E+00  7.91698E+00  8.01474E+00  8.06982E+00  8.08332E+00  8.07322E+00  8.06005E+00  8.06009E+00  8.08511E+00  8.14287E+00
   8.23223E+00  8.34759E+00  8.47766E+00  8.60456E+00  8.71602E+00  8.79221E+00  8.83478E+00  8.85189E+00  8.84569E+00  8.82675E+00
   8.81760E+00  8.86858E+00  9.00256E+00  9.19334E+00  9.40442E+00  9.60467E+00  9.76923E+00  9.85047E+00  9.81069E+00  9.65989E+00
   9.44984E+00  9.23677E+00  9.07693E+00  9.02319E+00  9.07909E+00  9.21714E+00  9.40938E+00  9.61511E+00  9.79686E+00  9.92014E+00
   9.97562E+00  9.99619E+00  1.00260E+01  1.00868E+01  1.01783E+01  1.02834E+01  1.03784E+01  1.04480E+01  1.04672E+01  1.04251E+01
   1.03443E+01  1.02612E+01  1.01986E+01  1.01760E+01  1.02104E+01  1.02983E+01  1.04077E+01  1.05032E+01  1.05672E+01  1.05973E+01
   1.05893E+01  1.05516E+01  1.05018E+01  1.04465E+01  1.03769E+01  1.03457E+01  1.04821E+01  1.07801E+01  1.11624E+01  1.15598E+01
   1.19272E+01  1.22300E+01  1.24476E+01  1.25608E+01  1.25473E+01  1.23952E+01  1.21380E+01  1.18777E+01  1.17150E+01  1.16153E+01
   1.15470E+01  1.15031E+01  1.14777E+01  1.14626E+01  1.14572E+01  1.14592E+01  1.14642E+01  1.14679E+01  1.14672E+01  1.14596E+01
   1.14460E+01  1.14305E+01  1.14156E+01  1.14020E+01  1.13900E+01  1.13799E+01  1.13713E+01  1.13634E+01  1.13548E+01  1.13454E+01
   1.13351E+01  1.13241E+01  1.13123E+01  1.13001E+01  1.12876E+01  1.12747E+01  1.12613E+01  1.12475E+01  1.12332E+01  1.12184E+01
   1.12032E+01  1.11875E+01  1.11714E+01  1.11546E+01  1.11373E+01  1.11194E+01  1.11009E+01  1.10817E+01  1.10618E+01  1.10411E+01
   1.10198E+01  1.09979E+01  1.09753E+01  1.09522E+01  1.09285E+01  1.09042E+01  1.08794E+01  1.08541E+01  1.08285E+01  1.08029E+01
   1.07779E+01  1.07559E+01  1.07462E+01  1.07541E+01  1.07659E+01  1.07685E+01  1.07550E+01  1.07224E+01  1.06690E+01  1.05906E+01
   1.04870E+01  1.03783E+01  1.02827E+01  1.02130E+01  1.01783E+01  1.01740E+01  1.01826E+01  1.01963E+01  1.02103E+01  1.02179E+01
   1.02117E+01  1.01879E+01  1.01627E+01  1.01640E+01  1.01815E+01  1.01992E+01  1.02088E+01  1.02081E+01  1.01970E+01  1.01718E+01
   1.01392E+01  1.01232E+01  1.01394E+01  1.01958E+01  1.02969E+01  1.04318E+01  1.05697E+01  1.06915E+01  1.07848E+01  1.08383E+01
   1.08434E+01  1.07976E+01  1.07169E+01  1.06245E+01  1.05274E+01  1.04291E+01  1.03321E+01  1.02382E+01  1.01479E+01  1.00614E+01
   9.97822E+00  9.89777E+00  9.81950E+00  9.74292E+00  9.66770E+00  9.59358E+00  9.52044E+00  9.44819E+00  9.37680E+00  9.30628E+00
   9.23663E+00  9.16786E+00  9.10001E+00  9.03309E+00  8.96713E+00  8.90217E+00  8.83824E+00  8.77539E+00  8.71368E+00  8.65317E+00
   8.59392E+00  8.53600E+00  8.47949E+00  8.42444E+00  8.37093E+00  8.31897E+00  8.26862E+00  8.21984E+00  8.17262E+00  8.12687E+00
   8.08251E+00  8.03938E+00  7.99732E+00  7.95612E+00  7.91554E+00  7.87535E+00  7.83528E+00  7.79508E+00  7.75451E+00  7.71331E+00
   7.67130E+00  7.62828E+00  7.58415E+00  7.53880E+00  7.49219E+00  7.44431E+00  7.39521E+00  7.34495E+00  7.29364E+00  7.24137E+00
   7.18828E+00  7.13451E+00  7.08020E+00  7.02547E+00  6.97045E+00  6.91525E+00  6.85998E+00  6.80471E+00  6.74952E+00  6.69447E+00
   6.63959E+00  6.58492E+00  6.53048E+00  6.47628E+00  6.42234E+00  6.36864E+00  6.31519E+00  6.26197E+00  6.20897E+00  6.15619E+00
   6.10362E+00  6.05122E+00  5.99901E+00  5.94695E+00  5.89504E+00  5.84326E+00  5.79161E+00  5.74006E+00  5.68862E+00  5.63726E+00
   5.58599E+00  5.53478E+00  5.48364E+00  5.43255E+00  5.38150E+00  5.33048E+00  5.27949E+00  5.22852E+00  5.17757E+00  5.12662E+00
   5.07566E+00  5.02470E+00  4.97373E+00  4.92273E+00  4.87171E+00  4.82065E+00  4.76956E+00  4.71842E+00  4.66725E+00  4.61601E+00
   4.56473E+00  4.51338E+00  4.46196E+00  4.41048E+00  4.35893E+00  4.30729E+00  4.25558E+00  4.20377E+00  4.15189E+00  4.09991E+00
   4.04783E+00  3.99565E+00  3.94337E+00  3.89098E+00  3.83849E+00  3.78587E+00  3.73314E+00  3.68027E+00  3.62729E+00  3.57416E+00
   3.52091E+00  3.46751E+00  3.41396E+00  3.36024E+00  3.30638E+00  3.25233E+00  3.19812E+00  3.14371E+00
 NY background values follow
    -4.490E+01   -4.417E+01   -4.345E+01   -4.273E+01   -4.201E+01   -4.128E+01   -4.056E+01   -3.985E+01   -3.913E+01   -3.841E+01
    -3.770E+01   -3.698E+01   -3.627E+01   -3.556E+01   -3.486E+01   -3.416E+01   -3.346E+01   -3.276E+01   -3.207E+01   -3.138E+01
    -3.069E+01   -3.001E+01   -2.933E+01   -2.866E+01   -2.799E+01   -2.733E+01   -2.667E+01   -2.602E+01   -2.537E+01   -2.473E+01
    -2.409E+01   -2.346E+01   -2.284E+01   -2.222E+01   -2.161E+01   -2.101E+01   -2.042E+01   -1.983E+01   -1.925E+01   -1.867E+01
    -1.811E+01   -1.755E+01   -1.701E+01   -1.647E+01   -1.593E+01   -1.541E+01   -1.490E+01   -1.440E+01   -1.390E+01   -1.342E+01
    -1.294E+01   -1.247E+01   -1.201E+01   -1.156E+01   -1.112E+01   -1.068E+01   -1.026E+01   -9.841E+00   -9.431E+00   -9.030E+00
    -8.636E+00   -8.251E+00   -7.873E+00   -7.503E+00   -7.140E+00   -6.785E+00   -6.437E+00   -6.097E+00   -5.763E+00   -5.437E+00
    -5.118E+00   -4.806E+00   -4.500E+00   -4.202E+00   -3.910E+00   -3.624E+00   -3.345E+00   -3.073E+00   -2.806E+00   -2.546E+00
    -2.292E+00   -2.044E+00   -1.802E+00   -1.565E+00   -1.335E+00   -1.110E+00   -8.904E-01   -6.764E-01   -4.678E-01   -2.645E-01
    -6.629E-02    1.268E-01    3.149E-01    4.980E-01    6.764E-01    8.501E-01    1.019E+00    1.184E+00    1.344E+00    1.499E+00
     1.651E+00    1.798E+00    1.942E+00    2.081E+00    2.216E+00    2.348E+00    2.476E+00    2.600E+00    2.721E+00    2.839E+00
     2.953E+00    3.064E+00    3.171E+00    3.276E+00    3.378E+00    3.477E+00    3.573E+00    3.666E+00    3.757E+00    3.845E+00
     3.931E+00    4.014E+00    4.096E+00    4.175E+00    4.252E+00    4.327E+00    4.400E+00    4.471E+00    4.541E+00    4.608E+00
     4.675E+00    4.740E+00    4.803E+00    4.865E+00    4.926E+00    4.986E+00    5.045E+00    5.102E+00    5.159E+00    5.215E+00
     5.270E+00    5.324E+00    5.378E+00    5.430E+00    5.482E+00    5.533E+00    5.584E+00    5.634E+00    5.683E+00    5.732E+00
     5.781E+00    5.829E+00    5.877E+00    5.924E+00    5.971E+00    6.018E+00    6.064E+00    6.111E+00    6.157E+00    6.203E+00
     6.249E+00    6.295E+00    6.341E+00    6.387E+00    6.433E+00    6.479E+00    6.525E+00    6.572E+00    6.618E+00    6.665E+00
     6.712E+00    6.760E+00    6.807E+00    6.856E+00    6.904E+00    6.953E+00    7.003E+00    7.052E+00    7.103E+00    7.154E+00
     7.206E+00    7.258E+00    7.311E+00    7.365E+00    7.419E+00    7.474E+00    7.529E+00    7.584E+00    7.641E+00    7.697E+00
     7.754E+00    7.811E+00    7.869E+00    7.926E+00    7.984E+00    8.043E+00    8.101E+00    8.160E+00    8.218E+00    8.277E+00
     8.335E+00    8.394E+00    8.453E+00    8.511E+00    8.570E+00    8.628E+00    8.686E+00    8.745E+00    8.802E+00    8.860E+00
     8.917E+00    8.974E+00    9.031E+00    9.087E+00    9.143E+00    9.198E+00    9.253E+00    9.308E+00    9.362E+00    9.415E+00
     9.468E+00    9.520E+00    9.572E+00    9.623E+00    9.673E+00    9.723E+00    9.771E+00    9.820E+00    9.867E+00    9.913E+00
     9.959E+00    1.000E+01    1.005E+01    1.009E+01    1.013E+01    1.018E+01    1.022E+01    1.026E+01    1.030E+01    1.034E+01
     1.037E+01    1.041E+01    1.045E+01    1.048E+01    1.052E+01    1.055E+01    1.059E+01    1.062E+01    1.065E+01    1.068E+01
     1.071E+01    1.074E+01    1.077E+01    1.079E+01    1.082E+01    1.085E+01    1.087E+01    1.090E+01    1.092E+01    1.094E+01
     1.096E+01    1.098E+01    1.100E+01    1.102E+01    1.104E+01    1.106E+01    1.107E+01    1.109E+01    1.110E+01    1.112E+01
     1.113E+01    1.114E+01    1.115E+01    1.117E+01    1.118E+01    1.118E+01    1.119E+01    1.120E+01    1.121E+01    1.121E+01
     1.122E+01    1.122E+01    1.122E+01    1.123E+01    1.123E+01    1.123E+01    1.123E+01    1.123E+01    1.123E+01    1.123E+01
     1.122E+01    1.122E+01    1.122E+01    1.121E+01    1.121E+01    1.120E+01    1.120E+01    1.119E+01    1.118E+01    1.117E+01
     1.116E+01    1.115E+01    1.114E+01    1.113E+01    1.112E+01    1.111E+01    1.110E+01    1.108E+01    1.107E+01    1.106E+01
     1.104E+01    1.103E+01    1.101E+01    1.099E+01    1.098E+01    1.096E+01    1.094E+01    1.092E+01    1.091E+01    1.089E+01
     1.087E+01    1.085E+01    1.082E+01    1.080E+01    1.078E+01    1.076E+01    1.074E+01    1.071E+01    1.069E+01    1.066E+01
     1.064E+01    1.061E+01    1.059E+01    1.056E+01    1.053E+01    1.051E+01    1.048E+01    1.045E+01    1.042E+01    1.039E+01
     1.036E+01    1.033E+01    1.030E+01    1.027E+01    1.023E+01    1.020E+01    1.017E+01    1.013E+01    1.010E+01    1.006E+01
     1.003E+01    9.991E+00    9.955E+00    9.917E+00    9.879E+00    9.841E+00    9.802E+00    9.763E+00    9.722E+00    9.682E+00
     9.641E+00    9.599E+00    9.557E+00    9.514E+00    9.471E+00    9.428E+00    9.383E+00    9.339E+00    9.294E+00    9.248E+00
     9.203E+00    9.157E+00    9.110E+00    9.063E+00    9.016E+00    8.969E+00    8.921E+00    8.873E+00    8.825E+00    8.776E+00
     8.728E+00    8.679E+00    8.630E+00    8.581E+00    8.531E+00    8.482E+00    8.432E+00    8.383E+00    8.333E+00    8.283E+00
     8.233E+00    8.183E+00    8.133E+00    8.083E+00    8.033E+00    7.983E+00    7.932E+00    7.882E+00    7.832E+00    7.782E+00
     7.732E+00    7.682E+00    7.633E+00    7.583E+00    7.533E+00    7.483E+00    7.434E+00    7.385E+00    7.335E+00    7.286E+00
     7.237E+00    7.188E+00    7.139E+00    7.091E+00    7.042E+00    6.993E+00    6.945E+00    6.897E+00    6.848E+00    6.800E+00
     6.752E+00    6.704E+00    6.656E+00    6.608E+00    6.560E+00    6.512E+00    6.464E+00    6.416E+00    6.368E+00    6.321E+00
     6.273E+00    6.225E+00    6.178E+00    6.130E+00    6.082E+00    6.035E+00    5.987E+00    5.939E+00    5.892E+00    5.844E+00
     5.797E+00    5.749E+00    5.702E+00    5.654E+00    5.606E+00    5.559E+00    5.511E+00    5.463E+00    5.416E+00    5.368E+00
     5.320E+00    5.272E+00    5.224E+00    5.177E+00    5.129E+00    5.081E+00    5.033E+00    4.985E+00    4.936E+00    4.888E+00
     4.840E+00    4.792E+00    4.743E+00    4.695E+00    4.646E+00    4.598E+00    4.549E+00    4.500E+00    4.451E+00    4.403E+00
     4.354E+00    4.304E+00    4.255E+00    4.206E+00    4.157E+00    4.107E+00    4.057E+00    4.008E+00    3.958E+00    3.908E+00
     3.858E+00    3.808E+00    3.758E+00    3.707E+00    3.657E+00    3.607E+00    3.556E+00    3.505E+00    3.454E+00    3.403E+00
     3.352E+00    3.301E+00    3.250E+00    3.198E+00    3.147E+00    3.095E+00    3.043E+00    2.991E+00
 Ala      Conc. = 1.26E+01
