 LCModel (Version 6.3-1L) Copyright: S.W. Provencher.          Ref.: Magn. Reson. Med. 30:672-679 (1993).                
 Slice#2 Row#11 Col#5  PD_05_press_1_raw_act
 36 lines in following concentration table = NCONC+1
    Conc.  %SD /Cr+PCr  Metabolite                                         
  119.690  69%   0.113 Ala                                                 
    0.000 999%   0.000 Asp                                                 
  643.104  24%   0.607 Cr                                                  
  415.841  38%   0.393 PCr                                                 
    0.000 999%   0.000 GABA                                                
    0.000 999%   0.000 Glc                                                 
  650.602  27%   0.614 Gln                                                 
 1.16E+03  17%   1.100 Glu                                                 
  325.203   4%   0.307 GPC                                                 
    0.000 999%   0.000 PCh                                                 
  454.352  11%   0.429 GSH                                                 
 1.05E+03  16%   0.992 Ins                                                 
  104.083  88% 9.8E-02 Lac                                                 
 1.68E+03   6%   1.582 NAA                                                 
  236.876  50%   0.224 NAAG                                                
   49.391  34% 4.7E-02 Scyllo                                              
    0.000 999%   0.000 Tau                                                 
    0.000 999%   0.000 -CrCH2                                              
  325.203   4%   0.307 GPC+PCh                                             
 1.91E+03   3%   1.806 NAA+NAAG                                            
 1.06E+03   4%   1.000 Cr+PCr                                              
 1.82E+03  16%   1.714 Glu+Gln                                             
 3.10E+03  19%   2.927 Lip13a                                              
    0.000 999%   0.000 Lip13b                                              
  772.967  37%   0.730 Lip09                                               
  820.304  34%   0.775 MM09                                                
  211.215 101%   0.199 Lip20                                               
 2.28E+03  13%   2.150 MM20                                                
  331.712  65%   0.313 MM12                                                
   94.099 309% 8.9E-02 MM14                                                
  391.331  34%   0.370 MM17                                                
 3.10E+03  19%   2.927 Lip13a+Lip13b                                       
 3.53E+03  10%   3.330 MM14+Lip13a+Lip13b+MM12                             
 1.59E+03  10%   1.505 MM09+Lip09                                          
 2.49E+03  11%   2.350 MM20+Lip20                                          
   6 lines in following misc. output table
  FWHM = 0.061 ppm    S/N =  15                                            
  Data shift = 0.000 ppm                                                   
  Ph:   0 deg       3.5 deg/ppm                                            
  alphaB,S = 1.5E+00,   2.0E+02                                            
   14 spline knots.   Ns = 8(1)                                            
  (14) 4 infls.   (17) 1 extrs.                                            
  498 points on ppm-axis = NY
      4.000000     3.992357     3.984714     3.977070     3.969427     3.961784     3.954141     3.946497     3.938854     3.931211
      3.923568     3.915925     3.908281     3.900638     3.892995     3.885352     3.877708     3.870065     3.862422     3.854779
      3.847136     3.839492     3.831849     3.824206     3.816563     3.808919     3.801276     3.793633     3.785990     3.778347
      3.770703     3.763060     3.755417     3.747774     3.740130     3.732487     3.724844     3.717201     3.709558     3.701914
      3.694271     3.686628     3.678985     3.671341     3.663698     3.656055     3.648412     3.640769     3.633125     3.625482
      3.617839     3.610196     3.602552     3.594909     3.587266     3.579623     3.571980     3.564336     3.556693     3.549050
      3.541407     3.533763     3.526120     3.518477     3.510834     3.503191     3.495547     3.487904     3.480261     3.472618
      3.464974     3.457331     3.449688     3.442045     3.434402     3.426758     3.419115     3.411472     3.403829     3.396185
      3.388542     3.380899     3.373256     3.365613     3.357969     3.350326     3.342683     3.335040     3.327396     3.319753
      3.312110     3.304467     3.296824     3.289180     3.281537     3.273894     3.266251     3.258607     3.250964     3.243321
      3.235678     3.228034     3.220391     3.212748     3.205105     3.197462     3.189818     3.182175     3.174532     3.166889
      3.159245     3.151602     3.143959     3.136316     3.128673     3.121029     3.113386     3.105743     3.098100     3.090456
      3.082813     3.075170     3.067527     3.059884     3.052240     3.044597     3.036954     3.029311     3.021667     3.014024
      3.006381     2.998738     2.991095     2.983451     2.975808     2.968165     2.960522     2.952878     2.945235     2.937592
      2.929949     2.922306     2.914662     2.907019     2.899376     2.891733     2.884089     2.876446     2.868803     2.861160
      2.853517     2.845873     2.838230     2.830587     2.822944     2.815300     2.807657     2.800014     2.792371     2.784728
      2.777084     2.769441     2.761798     2.754155     2.746511     2.738868     2.731225     2.723582     2.715939     2.708295
      2.700652     2.693009     2.685366     2.677722     2.670079     2.662436     2.654793     2.647150     2.639506     2.631863
      2.624220     2.616577     2.608933     2.601290     2.593647     2.586004     2.578361     2.570717     2.563074     2.555431
      2.547788     2.540144     2.532501     2.524858     2.517215     2.509572     2.501928     2.494285     2.486642     2.478999
      2.471355     2.463712     2.456069     2.448426     2.440783     2.433139     2.425496     2.417853     2.410210     2.402566
      2.394923     2.387280     2.379637     2.371994     2.364350     2.356707     2.349064     2.341421     2.333777     2.326134
      2.318491     2.310848     2.303205     2.295561     2.287918     2.280275     2.272632     2.264988     2.257345     2.249702
      2.242059     2.234416     2.226772     2.219129     2.211486     2.203843     2.196199     2.188556     2.180913     2.173270
      2.165627     2.157983     2.150340     2.142697     2.135054     2.127410     2.119767     2.112124     2.104481     2.096838
      2.089194     2.081551     2.073908     2.066265     2.058621     2.050978     2.043335     2.035692     2.028049     2.020405
      2.012762     2.005119     1.997476     1.989833     1.982190     1.974546     1.966903     1.959260     1.951617     1.943974
      1.936331     1.928688     1.921045     1.913402     1.905759     1.898115     1.890472     1.882829     1.875186     1.867543
      1.859900     1.852257     1.844614     1.836971     1.829327     1.821684     1.814041     1.806398     1.798755     1.791112
      1.783469     1.775826     1.768183     1.760540     1.752896     1.745253     1.737610     1.729967     1.722324     1.714681
      1.707038     1.699395     1.691752     1.684108     1.676465     1.668822     1.661179     1.653536     1.645893     1.638250
      1.630607     1.622964     1.615321     1.607677     1.600034     1.592391     1.584748     1.577105     1.569462     1.561819
      1.554176     1.546533     1.538890     1.531246     1.523603     1.515960     1.508317     1.500674     1.493031     1.485388
      1.477745     1.470102     1.462458     1.454815     1.447172     1.439529     1.431886     1.424243     1.416600     1.408957
      1.401314     1.393671     1.386027     1.378384     1.370741     1.363098     1.355455     1.347812     1.340169     1.332526
      1.324883     1.317240     1.309596     1.301953     1.294310     1.286667     1.279024     1.271381     1.263738     1.256095
      1.248452     1.240808     1.233165     1.225522     1.217879     1.210236     1.202593     1.194950     1.187307     1.179664
      1.172021     1.164377     1.156734     1.149091     1.141448     1.133805     1.126162     1.118519     1.110876     1.103233
      1.095590     1.087946     1.080303     1.072660     1.065017     1.057374     1.049731     1.042088     1.034445     1.026802
      1.019158     1.011515     1.003872     0.996229     0.988586     0.980943     0.973300     0.965657     0.958014     0.950371
      0.942727     0.935084     0.927441     0.919798     0.912155     0.904512     0.896869     0.889226     0.881583     0.873940
      0.866296     0.858653     0.851010     0.843367     0.835724     0.828081     0.820438     0.812795     0.805152     0.797508
      0.789865     0.782222     0.774579     0.766936     0.759293     0.751650     0.744007     0.736364     0.728721     0.721077
      0.713434     0.705791     0.698148     0.690505     0.682862     0.675219     0.667576     0.659933     0.652290     0.644646
      0.637003     0.629360     0.621717     0.614074     0.606431     0.598788     0.591145     0.583502     0.575858     0.568215
      0.560572     0.552929     0.545286     0.537643     0.530000     0.522357     0.514714     0.507071     0.499427     0.491784
      0.484141     0.476498     0.468855     0.461212     0.453569     0.445925     0.438282     0.430639     0.422996     0.415353
      0.407710     0.400067     0.392424     0.384780     0.377137     0.369494     0.361851     0.354208     0.346565     0.338922
      0.331278     0.323635     0.315992     0.308349     0.300706     0.293063     0.285420     0.277777     0.270133     0.262490
      0.254847     0.247204     0.239561     0.231918     0.224275     0.216631     0.208988     0.201345
 NY phased data points follow
   3.43114E+00  4.30555E+00  5.23072E+00  7.88744E+00  1.20814E+01  1.16828E+01  1.47488E+01  1.88207E+01  2.23819E+01  2.33644E+01
   2.37251E+01  2.34795E+01  2.26636E+01  1.90705E+01  1.81674E+01  1.48764E+01  1.03839E+01  1.01079E+01  7.97841E+00  6.55810E+00
   6.10876E+00  1.07984E+01  8.80399E+00  7.88431E+00  1.15472E+01  6.64831E+00  1.03390E+01  1.14962E+01  1.08005E+01  1.15691E+01
   1.09128E+01  9.23230E+00  1.24861E+01  1.15449E+01  1.15018E+01  4.79710E+00  8.27445E+00  7.07734E+00  8.90813E+00  9.74820E+00
   7.70176E+00  7.90239E+00  7.01862E+00  8.03249E+00  8.78556E+00  9.39510E+00  1.12128E+01  9.55957E+00  1.15139E+01  7.93720E+00
   9.66756E+00  6.68609E+00  5.26938E+00  7.73407E+00  4.75113E+00  7.52654E+00  6.59432E+00  4.18415E+00  5.12617E+00  4.36182E+00
   3.28622E+00  3.79908E+00 -3.15010E-01  2.40760E+00  9.24995E-01  8.04771E-02 -1.39342E-01  6.44373E-01  7.88854E-01 -2.22356E+00
   1.46788E+00  6.42318E-01  1.02852E+00 -8.91782E-01  8.04901E-01 -9.94692E-01  1.69179E+00  4.63743E-03 -1.17472E+00 -5.80421E-01
   2.13670E+00  1.35894E+00 -6.17952E-01  4.29172E-01  5.13069E-01  7.20986E-01  5.39403E-01 -3.38688E-01 -8.77672E-01  2.08596E+00
   2.27141E+00  4.95139E-01  2.53005E-01  2.83952E+00  4.08003E+00  3.33298E+00  6.84750E+00  2.43080E+00  6.03787E+00  1.03228E+01
   1.13305E+01  1.64184E+01  2.17015E+01  2.43751E+01  2.55413E+01  2.29950E+01  1.87358E+01  1.64034E+01  1.05671E+01  8.08737E+00
   6.67916E+00  5.22393E+00  2.59430E+00  3.92312E+00  1.56434E+00  1.85860E+00  2.09895E+00  2.85879E+00  2.44894E+00  7.71086E+00
   6.55373E+00  1.07827E+01  1.30142E+01  1.64368E+01  1.95475E+01  2.40110E+01  2.76430E+01  2.91711E+01  3.04817E+01  2.66140E+01
   2.17638E+01  1.80735E+01  1.29250E+01  7.89154E+00  4.19809E+00  3.31223E+00  2.50736E+00  1.78076E-01  7.95397E-01  5.86688E-01
   1.61270E+00  1.54055E-01  1.87370E+00 -1.83976E-01  7.88961E-01  7.05592E-01  3.91685E-01 -3.39721E+00  2.49681E+00 -9.97792E-01
  -9.43386E-01 -3.21183E+00 -2.71557E+00 -2.01113E+00 -2.44916E+00 -4.75020E+00  4.32052E-01 -3.03100E+00 -4.21228E+00 -3.01498E+00
  -8.28866E-01 -3.40083E+00 -3.50849E+00 -5.57952E+00 -5.21195E+00 -5.90072E+00  7.51883E-01 -3.05399E+00 -4.04623E+00 -5.17842E+00
  -8.72678E+00 -9.51355E+00 -1.01605E+01 -1.06836E+01 -5.61405E+00 -1.11795E+01 -1.31179E+01 -8.92730E+00 -1.20926E+01 -9.93359E+00
  -8.82644E+00 -1.13947E+01 -1.04137E+01 -8.45622E+00 -7.97928E+00 -9.54287E+00 -5.13694E+00 -7.52392E+00 -6.50878E+00 -4.75655E+00
  -1.14227E+00 -2.32195E+00 -1.65457E+00 -1.03036E+00 -3.11714E+00 -1.73466E+00 -4.57353E+00 -3.79561E+00 -5.37111E+00 -4.58361E+00
  -3.99076E+00 -3.64346E+00 -3.49563E+00 -2.50327E+00 -2.36306E+00 -2.65736E+00 -4.93159E+00 -4.86537E+00 -5.59547E+00 -4.48034E+00
  -4.44293E+00 -4.27025E+00 -1.28606E+00 -7.46828E-01 -8.18329E-01  1.56203E+00  4.08084E+00  2.21014E+00  1.92056E+00 -2.35139E+00
  -2.71400E+00 -4.56894E+00 -4.74404E+00 -5.93063E+00 -3.40523E+00  9.33829E-02  1.35823E+00  4.17988E+00  3.89813E+00  2.01638E+00
   4.56387E+00 -1.38011E+00  3.86535E-01  1.24696E+00 -2.31224E-01  3.11532E+00  1.43943E+00  2.67724E+00  1.46287E-02  1.53773E+00
   2.08949E+00 -1.25045E+00  1.67356E-01  5.31215E-01  2.82075E+00 -1.99735E-01  4.59763E+00  6.69745E+00  7.02477E+00  1.15698E+01
   1.09591E+01  1.29913E+01  1.26029E+01  2.10059E+01  2.59501E+01  3.05285E+01  3.64954E+01  4.38608E+01  5.17111E+01  5.39960E+01
   5.79424E+01  5.73055E+01  4.98700E+01  3.52946E+01  2.47567E+01  1.95901E+01  1.32557E+01  1.07664E+01  4.59405E+00  5.26994E+00
   3.62323E+00  1.25004E+00  1.77608E+00  1.11671E+00  2.57689E+00  1.19481E+00 -2.44374E+00  1.11103E+00 -6.08094E-01 -4.54463E+00
  -1.80084E+00 -2.86159E-01  7.92923E-01 -2.25051E+00 -4.15456E-01 -2.77580E+00 -8.40317E-01 -3.14187E+00 -1.56321E+00 -1.16465E+00
  -4.51023E-01 -2.46462E+00 -9.02256E-01 -2.41872E+00 -1.24256E+00 -4.93401E+00 -3.02199E+00 -2.75138E+00 -2.84031E+00 -4.60787E+00
  -2.05970E+00 -6.97460E-01 -1.21376E+00  8.27908E-01 -3.65010E+00 -4.27831E-01  2.70198E+00 -6.62299E-01 -2.17626E+00 -1.83486E+00
   1.20411E+00  1.55517E+00  1.14912E-01 -6.08035E-01  1.27037E+00  7.92120E-02 -5.20362E-01 -3.47713E-01  7.18725E-01  4.31321E-01
   2.45522E+00  1.88431E+00  8.75667E-01  7.26433E-01 -3.31854E-01 -3.73321E+00 -4.31355E-02  2.58597E+00 -1.38800E-01  3.14542E+00
   2.70955E+00  1.66359E+00 -2.34337E+00 -1.49335E+00  7.70443E-01  3.37798E-01  6.95612E-01  2.13757E+00  4.67252E-01  2.56364E+00
   3.06790E+00  4.47502E+00  5.80184E+00  9.33780E+00  7.65042E+00  9.30510E+00  7.24421E+00  7.19747E+00  9.51705E+00  8.40063E+00
   6.17997E+00  7.58312E+00  7.03219E+00  9.43054E+00  1.04658E+01  1.05336E+01  9.38458E+00  9.76174E+00  1.08533E+01  8.80665E+00
   8.21284E+00  9.39211E+00  1.16968E+01  9.13188E+00  9.80589E+00  7.78746E+00  9.96630E+00  7.38158E+00  1.10871E+01  7.01435E+00
   3.45104E+00  7.24203E+00  6.69479E+00  4.13970E+00  6.18894E+00  5.79100E+00  5.58537E+00  4.64253E+00  6.76479E+00  4.75268E+00
   5.59539E+00  4.94108E+00  4.80406E+00  4.26600E+00  5.23488E+00  3.03714E+00  3.89520E+00  6.11575E+00  5.29028E+00  4.51707E+00
   4.11386E+00  5.97272E+00  4.36351E+00  8.36838E+00  7.36714E+00  6.23724E+00  7.33725E+00  8.04390E+00  7.21680E+00  5.68103E+00
   7.38000E+00  5.61509E+00  7.82824E+00  6.26982E+00  9.09419E+00  4.86037E+00  8.62542E+00  7.16379E+00  6.42614E+00  8.79771E+00
   8.57231E+00  6.75927E+00  5.93564E+00  7.25652E+00  6.02766E+00  5.47497E+00  3.46629E+00  3.09803E+00  5.60528E+00  4.54445E+00
   3.07276E+00  1.26146E+00  1.85601E+00  1.28189E+00  1.39815E+00  2.66637E+00  6.49813E-01  4.90683E+00  2.29779E+00  1.67637E+00
   1.51426E+00  3.20289E+00  1.97810E+00  1.60467E+00  1.80089E+00 -2.06227E-01  3.10014E-01 -7.05401E-01 -1.00325E+00  1.56664E+00
  -1.52150E+00  5.38400E-01  6.42540E-01 -1.72491E+00 -4.31497E-01 -2.58453E+00 -2.85387E-02  2.19193E-01 -5.53793E-01 -4.45927E-01
   2.28363E+00  7.54943E-01  1.32179E+00 -4.55988E+00  1.19430E+00  6.15186E-01 -7.34010E-01  1.26389E+00  8.37907E-01 -1.56244E-01
   1.01392E+00 -2.37770E-01  2.07773E+00  2.00385E-01 -1.28170E+00 -1.24969E+00 -8.62651E-01  5.64828E-01  2.29416E-01  9.72466E-01
  -1.14176E+00 -1.43141E+00 -9.88271E-01 -1.38514E+00 -1.90630E+00  1.71962E-01 -4.07516E-01 -1.72706E+00  1.22729E+00  7.35935E-01
  -1.60163E-01 -9.42021E-01 -2.33589E+00 -4.42074E-01  1.49839E-01 -1.17919E+00 -3.74254E-01 -2.55222E-01  2.43920E-01  3.75505E-01
  -2.21565E+00  5.44037E-01  4.79381E-01  1.89477E+00 -9.08360E-01 -7.57451E-01 -1.64670E+00 -1.34697E+00
 NY points of the fit to the data follow
   5.69632E+00  6.00952E+00  6.91507E+00  8.47769E+00  1.05379E+01  1.28238E+01  1.53103E+01  1.79717E+01  2.06291E+01  2.28777E+01
   2.41818E+01  2.41286E+01  2.26532E+01  2.00810E+01  1.70151E+01  1.40688E+01  1.16140E+01  9.71854E+00  8.26281E+00  7.15715E+00
   6.25263E+00  5.84399E+00  6.10384E+00  6.58789E+00  7.13718E+00  7.79713E+00  8.73939E+00  9.98023E+00  1.13634E+01  1.26895E+01
   1.36335E+01  1.38132E+01  1.31279E+01  1.17115E+01  9.88763E+00  8.05011E+00  6.47508E+00  5.26046E+00  4.51460E+00  4.49888E+00
   5.12367E+00  5.90740E+00  6.66302E+00  7.45735E+00  8.33628E+00  9.15910E+00  9.68274E+00  9.72044E+00  9.15144E+00  7.97780E+00
   6.50515E+00  5.16472E+00  4.21170E+00  3.68764E+00  3.45489E+00  3.35630E+00  3.37463E+00  3.55216E+00  3.79944E+00  3.95748E+00
   3.91535E+00  3.65497E+00  3.19868E+00  2.68820E+00  2.27184E+00  2.02714E+00  1.97115E+00  2.05482E+00  2.22282E+00  2.42527E+00
   2.59712E+00  2.69805E+00  2.69552E+00  2.57676E+00  2.36158E+00  2.09727E+00  1.84131E+00  1.63385E+00  1.49188E+00  1.43942E+00
   1.36145E+00  1.24535E+00  1.13561E+00  1.05186E+00  9.82903E-01  8.99393E-01  7.72526E-01  5.88588E-01  3.72520E-01  1.45070E-01
  -3.14392E-02 -9.50404E-02 -4.30410E-02  7.76655E-02  2.83464E-01  1.03510E+00  3.00538E+00  5.47445E+00  7.88014E+00  1.04435E+01
   1.35678E+01  1.72649E+01  2.09799E+01  2.38538E+01  2.50310E+01  2.39223E+01  2.06333E+01  1.60949E+01  1.15762E+01  7.90094E+00
   5.18796E+00  3.14055E+00  1.48257E+00  3.13159E-01 -1.29813E-01 -2.09576E-01 -1.49503E-01  7.46029E-02  8.40999E-01  3.04896E+00
   6.13790E+00  9.25941E+00  1.24616E+01  1.61482E+01  2.04544E+01  2.49385E+01  2.86625E+01  3.05721E+01  2.99234E+01  2.66665E+01
   2.16841E+01  1.64076E+01  1.18553E+01  8.27626E+00  5.38109E+00  2.85539E+00  8.37718E-01 -1.58984E-01 -3.40245E-01 -1.30941E-01
   2.22786E-01  5.23104E-01  6.47889E-01  5.87313E-01  3.76376E-01  6.24678E-02 -2.92544E-01 -6.53077E-01 -9.95806E-01 -1.30297E+00
  -1.57818E+00 -1.80716E+00 -2.03114E+00 -2.29953E+00 -2.54583E+00 -2.72546E+00 -2.82590E+00 -2.89036E+00 -3.04082E+00 -3.28247E+00
  -3.54442E+00 -3.74711E+00 -3.85061E+00 -3.87261E+00 -3.89617E+00 -4.02834E+00 -4.32518E+00 -4.77308E+00 -5.29687E+00 -5.71497E+00
  -5.97704E+00 -6.18266E+00 -6.42210E+00 -6.74369E+00 -7.03284E+00 -7.19627E+00 -7.23669E+00 -7.19725E+00 -7.14792E+00 -7.16367E+00
  -7.18586E+00 -7.14829E+00 -6.98144E+00 -6.64559E+00 -6.15613E+00 -5.59351E+00 -4.99076E+00 -4.27475E+00 -3.44049E+00 -2.64478E+00
  -2.12510E+00 -1.96448E+00 -2.12562E+00 -2.50718E+00 -2.97334E+00 -3.33890E+00 -3.44175E+00 -3.23148E+00 -2.69775E+00 -1.93756E+00
  -1.09202E+00 -4.15839E-01 -1.34173E-01 -2.24911E-01 -7.36411E-01 -1.71041E+00 -2.95897E+00 -4.20748E+00 -5.06490E+00 -5.41404E+00
  -5.22784E+00 -4.44308E+00 -3.14161E+00 -1.62056E+00 -3.36723E-01  4.05383E-01  5.60989E-01  9.28729E-02 -1.01666E+00 -2.54421E+00
  -4.05803E+00 -5.07136E+00 -5.37771E+00 -5.02575E+00 -4.08070E+00 -2.70078E+00 -1.19705E+00 -2.34977E-02  6.60958E-01  1.04641E+00
   1.28014E+00  1.41471E+00  1.50838E+00  1.68110E+00  1.95641E+00  2.25345E+00  2.51904E+00  2.73721E+00  2.81394E+00  2.64937E+00
   2.29515E+00  1.89711E+00  1.66067E+00  1.74917E+00  2.20914E+00  2.97715E+00  3.90200E+00  4.91181E+00  6.08313E+00  7.27780E+00
   8.42851E+00  1.03279E+01  1.48747E+01  2.08562E+01  2.66580E+01  3.22388E+01  3.81629E+01  4.45174E+01  5.05268E+01  5.49634E+01
   5.65613E+01  5.42182E+01  4.77483E+01  3.85697E+01  2.90607E+01  2.10628E+01  1.51002E+01  1.06067E+01  6.86978E+00  3.89954E+00
   2.38837E+00  1.72633E+00  1.29719E+00  9.74487E-01  7.14180E-01  4.65610E-01  1.94879E-01 -9.61431E-02 -3.92929E-01 -6.73021E-01
  -9.22184E-01 -1.13852E+00 -1.32659E+00 -1.48631E+00 -1.61557E+00 -1.72241E+00 -1.81682E+00 -1.90199E+00 -1.97208E+00 -2.01986E+00
  -2.04387E+00 -2.04697E+00 -2.02854E+00 -1.98968E+00 -1.93510E+00 -1.87007E+00 -1.79587E+00 -1.71151E+00 -1.61547E+00 -1.50643E+00
  -1.38426E+00 -1.25044E+00 -1.10707E+00 -9.59155E-01 -8.12379E-01 -6.71210E-01 -5.38817E-01 -4.17493E-01 -3.09426E-01 -2.16892E-01
  -1.40345E-01 -7.94409E-02 -3.34488E-02 -6.81683E-04  2.13512E-02  3.62860E-02  4.93492E-02  6.80928E-02  1.05425E-01  1.88014E-01
   3.12838E-01  4.03558E-01  4.55275E-01  4.97476E-01  5.37736E-01  5.46251E-01  4.71188E-01  2.97015E-01  9.83566E-02 -9.72165E-02
  -2.56431E-01 -2.99002E-01 -1.46307E-01  2.26694E-01  7.86593E-01  1.47214E+00  2.21914E+00  2.96589E+00  3.65280E+00  4.25151E+00
   4.77071E+00  5.21152E+00  5.62186E+00  6.03117E+00  6.42295E+00  6.75897E+00  7.02406E+00  7.23845E+00  7.41579E+00  7.54620E+00
   7.67285E+00  7.87592E+00  8.21133E+00  8.67145E+00  9.19976E+00  9.72554E+00  1.01811E+01  1.05116E+01  1.06711E+01  1.06528E+01
   1.05115E+01  1.02975E+01  1.00338E+01  9.72132E+00  9.35961E+00  8.97679E+00  8.59141E+00  8.19810E+00  7.79746E+00  7.39344E+00
   6.99115E+00  6.59604E+00  6.21357E+00  5.84885E+00  5.50656E+00  5.19085E+00  4.90542E+00  4.65358E+00  4.43815E+00  4.26143E+00
   4.12520E+00  4.03077E+00  3.97906E+00  3.97058E+00  4.00532E+00  4.08265E+00  4.20129E+00  4.35934E+00  4.55423E+00  4.78266E+00
   5.04047E+00  5.32263E+00  5.62331E+00  5.93601E+00  6.25370E+00  6.56889E+00  6.87378E+00  7.16049E+00  7.42142E+00  7.64950E+00
   7.83844E+00  7.98290E+00  8.07866E+00  8.12277E+00  8.11375E+00  8.05157E+00  7.93761E+00  7.77443E+00  7.56571E+00  7.31604E+00
   7.03076E+00  6.71575E+00  6.37707E+00  6.02077E+00  5.65269E+00  5.27836E+00  4.90292E+00  4.53092E+00  4.16630E+00  3.81227E+00
   3.47141E+00  3.14577E+00  2.83683E+00  2.54558E+00  2.27250E+00  2.01765E+00  1.78083E+00  1.56161E+00  1.35941E+00  1.17346E+00
   1.00286E+00  8.46633E-01  7.03821E-01  5.73510E-01  4.54796E-01  3.46758E-01  2.48486E-01  1.59134E-01  7.79659E-02  4.32097E-03
  -6.24349E-02 -1.22932E-01 -1.77760E-01 -2.27422E-01 -2.72329E-01 -3.12855E-01 -3.49378E-01 -3.82277E-01 -4.11886E-01 -4.38460E-01
  -4.62204E-01 -4.83321E-01 -5.02040E-01 -5.18587E-01 -5.33138E-01 -5.45810E-01 -5.56701E-01 -5.65935E-01 -5.73667E-01 -5.80036E-01
  -5.85126E-01 -5.88982E-01 -5.91658E-01 -5.93248E-01 -5.93859E-01 -5.93573E-01 -5.92417E-01 -5.90405E-01 -5.87581E-01 -5.84024E-01
  -5.79813E-01 -5.74979E-01 -5.69521E-01 -5.63442E-01 -5.56788E-01 -5.49630E-01 -5.42015E-01 -5.33947E-01 -5.25411E-01 -5.16419E-01
  -5.07022E-01 -4.97277E-01 -4.87203E-01 -4.76783E-01 -4.66002E-01 -4.54885E-01 -4.43485E-01 -4.31840E-01 -4.19946E-01 -4.07776E-01
  -3.95328E-01 -3.82638E-01 -3.69756E-01 -3.56698E-01 -3.43440E-01 -3.29957E-01 -3.16263E-01 -3.02402E-01
 NY background values follow
     2.243E+00    2.204E+00    2.165E+00    2.125E+00    2.086E+00    2.047E+00    2.008E+00    1.969E+00    1.930E+00    1.891E+00
     1.852E+00    1.813E+00    1.774E+00    1.735E+00    1.695E+00    1.656E+00    1.617E+00    1.578E+00    1.539E+00    1.500E+00
     1.461E+00    1.421E+00    1.382E+00    1.343E+00    1.304E+00    1.265E+00    1.226E+00    1.187E+00    1.147E+00    1.108E+00
     1.069E+00    1.030E+00    9.909E-01    9.518E-01    9.126E-01    8.735E-01    8.344E-01    7.953E-01    7.561E-01    7.170E-01
     6.779E-01    6.388E-01    5.997E-01    5.607E-01    5.216E-01    4.825E-01    4.435E-01    4.044E-01    3.654E-01    3.263E-01
     2.873E-01    2.483E-01    2.094E-01    1.704E-01    1.315E-01    9.258E-02    5.369E-02    1.484E-02   -2.398E-02   -6.278E-02
    -1.015E-01   -1.403E-01   -1.790E-01   -2.176E-01   -2.562E-01   -2.948E-01   -3.333E-01   -3.718E-01   -4.102E-01   -4.486E-01
    -4.869E-01   -5.252E-01   -5.634E-01   -6.016E-01   -6.397E-01   -6.778E-01   -7.158E-01   -7.537E-01   -7.916E-01   -8.294E-01
    -8.671E-01   -9.047E-01   -9.423E-01   -9.798E-01   -1.017E+00   -1.055E+00   -1.092E+00   -1.129E+00   -1.166E+00   -1.203E+00
    -1.240E+00   -1.277E+00   -1.314E+00   -1.350E+00   -1.387E+00   -1.424E+00   -1.460E+00   -1.496E+00   -1.532E+00   -1.569E+00
    -1.605E+00   -1.640E+00   -1.676E+00   -1.712E+00   -1.748E+00   -1.783E+00   -1.818E+00   -1.854E+00   -1.889E+00   -1.924E+00
    -1.959E+00   -1.994E+00   -2.028E+00   -2.063E+00   -2.097E+00   -2.132E+00   -2.166E+00   -2.200E+00   -2.234E+00   -2.268E+00
    -2.301E+00   -2.335E+00   -2.368E+00   -2.402E+00   -2.435E+00   -2.468E+00   -2.501E+00   -2.533E+00   -2.566E+00   -2.599E+00
    -2.631E+00   -2.663E+00   -2.695E+00   -2.727E+00   -2.759E+00   -2.790E+00   -2.822E+00   -2.853E+00   -2.884E+00   -2.915E+00
    -2.946E+00   -2.977E+00   -3.007E+00   -3.038E+00   -3.068E+00   -3.098E+00   -3.127E+00   -3.157E+00   -3.186E+00   -3.216E+00
    -3.245E+00   -3.273E+00   -3.302E+00   -3.330E+00   -3.358E+00   -3.386E+00   -3.414E+00   -3.442E+00   -3.469E+00   -3.496E+00
    -3.523E+00   -3.549E+00   -3.576E+00   -3.602E+00   -3.628E+00   -3.653E+00   -3.679E+00   -3.704E+00   -3.728E+00   -3.753E+00
    -3.777E+00   -3.801E+00   -3.825E+00   -3.848E+00   -3.872E+00   -3.894E+00   -3.917E+00   -3.939E+00   -3.961E+00   -3.983E+00
    -4.004E+00   -4.025E+00   -4.046E+00   -4.067E+00   -4.087E+00   -4.107E+00   -4.126E+00   -4.145E+00   -4.164E+00   -4.183E+00
    -4.201E+00   -4.219E+00   -4.237E+00   -4.254E+00   -4.271E+00   -4.288E+00   -4.305E+00   -4.321E+00   -4.337E+00   -4.353E+00
    -4.368E+00   -4.383E+00   -4.398E+00   -4.412E+00   -4.427E+00   -4.441E+00   -4.454E+00   -4.468E+00   -4.481E+00   -4.494E+00
    -4.506E+00   -4.518E+00   -4.530E+00   -4.542E+00   -4.554E+00   -4.565E+00   -4.576E+00   -4.586E+00   -4.597E+00   -4.607E+00
    -4.617E+00   -4.627E+00   -4.636E+00   -4.645E+00   -4.654E+00   -4.662E+00   -4.671E+00   -4.679E+00   -4.687E+00   -4.694E+00
    -4.702E+00   -4.709E+00   -4.715E+00   -4.722E+00   -4.728E+00   -4.734E+00   -4.740E+00   -4.746E+00   -4.751E+00   -4.756E+00
    -4.761E+00   -4.766E+00   -4.770E+00   -4.774E+00   -4.778E+00   -4.782E+00   -4.785E+00   -4.788E+00   -4.791E+00   -4.794E+00
    -4.796E+00   -4.798E+00   -4.800E+00   -4.802E+00   -4.804E+00   -4.805E+00   -4.806E+00   -4.807E+00   -4.807E+00   -4.807E+00
    -4.807E+00   -4.807E+00   -4.807E+00   -4.806E+00   -4.805E+00   -4.804E+00   -4.803E+00   -4.801E+00   -4.800E+00   -4.798E+00
    -4.795E+00   -4.793E+00   -4.790E+00   -4.787E+00   -4.784E+00   -4.781E+00   -4.777E+00   -4.773E+00   -4.769E+00   -4.765E+00
    -4.761E+00   -4.756E+00   -4.751E+00   -4.746E+00   -4.741E+00   -4.735E+00   -4.729E+00   -4.724E+00   -4.717E+00   -4.711E+00
    -4.704E+00   -4.698E+00   -4.691E+00   -4.684E+00   -4.676E+00   -4.669E+00   -4.661E+00   -4.653E+00   -4.645E+00   -4.637E+00
    -4.628E+00   -4.619E+00   -4.611E+00   -4.601E+00   -4.592E+00   -4.583E+00   -4.573E+00   -4.563E+00   -4.553E+00   -4.543E+00
    -4.533E+00   -4.522E+00   -4.512E+00   -4.501E+00   -4.490E+00   -4.479E+00   -4.467E+00   -4.456E+00   -4.444E+00   -4.432E+00
    -4.420E+00   -4.408E+00   -4.396E+00   -4.383E+00   -4.370E+00   -4.358E+00   -4.345E+00   -4.331E+00   -4.318E+00   -4.305E+00
    -4.291E+00   -4.277E+00   -4.264E+00   -4.249E+00   -4.235E+00   -4.221E+00   -4.207E+00   -4.192E+00   -4.177E+00   -4.162E+00
    -4.147E+00   -4.132E+00   -4.117E+00   -4.102E+00   -4.086E+00   -4.070E+00   -4.055E+00   -4.039E+00   -4.023E+00   -4.007E+00
    -3.990E+00   -3.974E+00   -3.957E+00   -3.941E+00   -3.924E+00   -3.907E+00   -3.890E+00   -3.873E+00   -3.856E+00   -3.839E+00
    -3.821E+00   -3.804E+00   -3.786E+00   -3.769E+00   -3.751E+00   -3.733E+00   -3.715E+00   -3.697E+00   -3.679E+00   -3.660E+00
    -3.642E+00   -3.624E+00   -3.605E+00   -3.586E+00   -3.568E+00   -3.549E+00   -3.530E+00   -3.511E+00   -3.492E+00   -3.473E+00
    -3.453E+00   -3.434E+00   -3.415E+00   -3.395E+00   -3.376E+00   -3.356E+00   -3.336E+00   -3.317E+00   -3.297E+00   -3.277E+00
    -3.257E+00   -3.237E+00   -3.217E+00   -3.196E+00   -3.176E+00   -3.156E+00   -3.135E+00   -3.115E+00   -3.094E+00   -3.074E+00
    -3.053E+00   -3.033E+00   -3.012E+00   -2.991E+00   -2.970E+00   -2.949E+00   -2.928E+00   -2.907E+00   -2.886E+00   -2.865E+00
    -2.844E+00   -2.823E+00   -2.801E+00   -2.780E+00   -2.759E+00   -2.737E+00   -2.716E+00   -2.695E+00   -2.673E+00   -2.652E+00
    -2.630E+00   -2.608E+00   -2.587E+00   -2.565E+00   -2.543E+00   -2.522E+00   -2.500E+00   -2.478E+00   -2.456E+00   -2.434E+00
    -2.413E+00   -2.391E+00   -2.369E+00   -2.347E+00   -2.325E+00   -2.303E+00   -2.281E+00   -2.259E+00   -2.237E+00   -2.215E+00
    -2.193E+00   -2.171E+00   -2.148E+00   -2.126E+00   -2.104E+00   -2.082E+00   -2.060E+00   -2.038E+00   -2.016E+00   -1.994E+00
    -1.971E+00   -1.949E+00   -1.927E+00   -1.905E+00   -1.883E+00   -1.861E+00   -1.838E+00   -1.816E+00   -1.794E+00   -1.772E+00
    -1.750E+00   -1.728E+00   -1.705E+00   -1.683E+00   -1.661E+00   -1.639E+00   -1.617E+00   -1.595E+00   -1.573E+00   -1.550E+00
    -1.528E+00   -1.506E+00   -1.484E+00   -1.462E+00   -1.440E+00   -1.417E+00   -1.395E+00   -1.373E+00   -1.351E+00   -1.329E+00
    -1.307E+00   -1.285E+00   -1.262E+00   -1.240E+00   -1.218E+00   -1.196E+00   -1.174E+00   -1.152E+00   -1.129E+00   -1.107E+00
    -1.085E+00   -1.063E+00   -1.041E+00   -1.019E+00   -9.967E-01   -9.746E-01   -9.524E-01   -9.303E-01
 Ala      Conc. = 1.20E+02
