 LCModel (Version 6.3-1L) Copyright: S.W. Provencher.          Ref.: Magn. Reson. Med. 30:672-679 (1993).                
 Slice#1 Row#3 Col#9  PD_05_press_1_raw_act
 36 lines in following concentration table = NCONC+1
    Conc.  %SD /Cr+PCr  Metabolite                                         
    0.000 999%   0.000 Ala                                                 
    0.000 999%   0.000 Asp                                                 
  736.168  49%   0.740 Cr                                                  
  259.167 137%   0.260 PCr                                                 
   56.283 322% 5.7E-02 GABA                                                
    0.000 999%   0.000 Glc                                                 
 1.02E+03  43%   1.026 Gln                                                 
    0.000 999%   0.000 Glu                                                 
  523.958   5%   0.526 GPC                                                 
    0.000 999%   0.000 PCh                                                 
  587.756  18%   0.591 GSH                                                 
 1.97E+03  16%   1.982 Ins                                                 
    0.000 999%   0.000 Lac                                                 
 1.80E+03   6%   1.804 NAA                                                 
    0.000 999%   0.000 NAAG                                                
  168.553  19%   0.169 Scyllo                                              
    0.000 999%   0.000 Tau                                                 
  145.229  99%   0.146 -CrCH2                                              
  523.958   5%   0.526 GPC+PCh                                             
 1.80E+03   6%   1.804 NAA+NAAG                                            
  995.335   6%   1.000 Cr+PCr                                              
 1.02E+03  43%   1.026 Glu+Gln                                             
    0.000 999%   0.000 Lip13a                                              
    0.000 999%   0.000 Lip13b                                              
    0.000 999%   0.000 Lip09                                               
 1.32E+03   9%   1.331 MM09                                                
 2.06E-02 999% 2.1E-05 Lip20                                               
 3.10E+03  11%   3.112 MM20                                                
    0.000 999%   0.000 MM12                                                
 1.07E+03  18%   1.078 MM14                                                
  919.076  20%   0.923 MM17                                                
    0.000 999%   0.000 Lip13a+Lip13b                                       
 1.07E+03  18%   1.078 MM14+Lip13a+Lip13b+MM12                             
 1.32E+03   9%   1.331 MM09+Lip09                                          
 3.10E+03  11%   3.112 MM20+Lip20                                          
   6 lines in following misc. output table
  FWHM = 0.107 ppm    S/N =   9                                            
  Data shift = 0.023 ppm                                                   
  Ph: -32 deg     -10.0 deg/ppm                                            
  alphaB,S = 1.4E+00,   9.6E+01                                            
   14 spline knots.   Ns = 8(2)                                            
  ( 8) 2 infls.   ( 1) 1 extrs.                                            
  498 points on ppm-axis = NY
      4.000000     3.992357     3.984714     3.977070     3.969427     3.961784     3.954141     3.946497     3.938854     3.931211
      3.923568     3.915925     3.908281     3.900638     3.892995     3.885352     3.877708     3.870065     3.862422     3.854779
      3.847136     3.839492     3.831849     3.824206     3.816563     3.808919     3.801276     3.793633     3.785990     3.778347
      3.770703     3.763060     3.755417     3.747774     3.740130     3.732487     3.724844     3.717201     3.709558     3.701914
      3.694271     3.686628     3.678985     3.671341     3.663698     3.656055     3.648412     3.640769     3.633125     3.625482
      3.617839     3.610196     3.602552     3.594909     3.587266     3.579623     3.571980     3.564336     3.556693     3.549050
      3.541407     3.533763     3.526120     3.518477     3.510834     3.503191     3.495547     3.487904     3.480261     3.472618
      3.464974     3.457331     3.449688     3.442045     3.434402     3.426758     3.419115     3.411472     3.403829     3.396185
      3.388542     3.380899     3.373256     3.365613     3.357969     3.350326     3.342683     3.335040     3.327396     3.319753
      3.312110     3.304467     3.296824     3.289180     3.281537     3.273894     3.266251     3.258607     3.250964     3.243321
      3.235678     3.228034     3.220391     3.212748     3.205105     3.197462     3.189818     3.182175     3.174532     3.166889
      3.159245     3.151602     3.143959     3.136316     3.128673     3.121029     3.113386     3.105743     3.098100     3.090456
      3.082813     3.075170     3.067527     3.059884     3.052240     3.044597     3.036954     3.029311     3.021667     3.014024
      3.006381     2.998738     2.991095     2.983451     2.975808     2.968165     2.960522     2.952878     2.945235     2.937592
      2.929949     2.922306     2.914662     2.907019     2.899376     2.891733     2.884089     2.876446     2.868803     2.861160
      2.853517     2.845873     2.838230     2.830587     2.822944     2.815300     2.807657     2.800014     2.792371     2.784728
      2.777084     2.769441     2.761798     2.754155     2.746511     2.738868     2.731225     2.723582     2.715939     2.708295
      2.700652     2.693009     2.685366     2.677722     2.670079     2.662436     2.654793     2.647150     2.639506     2.631863
      2.624220     2.616577     2.608933     2.601290     2.593647     2.586004     2.578361     2.570717     2.563074     2.555431
      2.547788     2.540144     2.532501     2.524858     2.517215     2.509572     2.501928     2.494285     2.486642     2.478999
      2.471355     2.463712     2.456069     2.448426     2.440783     2.433139     2.425496     2.417853     2.410210     2.402566
      2.394923     2.387280     2.379637     2.371994     2.364350     2.356707     2.349064     2.341421     2.333777     2.326134
      2.318491     2.310848     2.303205     2.295561     2.287918     2.280275     2.272632     2.264988     2.257345     2.249702
      2.242059     2.234416     2.226772     2.219129     2.211486     2.203843     2.196199     2.188556     2.180913     2.173270
      2.165627     2.157983     2.150340     2.142697     2.135054     2.127410     2.119767     2.112124     2.104481     2.096838
      2.089194     2.081551     2.073908     2.066265     2.058621     2.050978     2.043335     2.035692     2.028049     2.020405
      2.012762     2.005119     1.997476     1.989833     1.982190     1.974546     1.966903     1.959260     1.951617     1.943974
      1.936331     1.928688     1.921045     1.913402     1.905759     1.898115     1.890472     1.882829     1.875186     1.867543
      1.859900     1.852257     1.844614     1.836971     1.829327     1.821684     1.814041     1.806398     1.798755     1.791112
      1.783469     1.775826     1.768183     1.760540     1.752896     1.745253     1.737610     1.729967     1.722324     1.714681
      1.707038     1.699395     1.691752     1.684108     1.676465     1.668822     1.661179     1.653536     1.645893     1.638250
      1.630607     1.622964     1.615321     1.607677     1.600034     1.592391     1.584748     1.577105     1.569462     1.561819
      1.554176     1.546533     1.538890     1.531246     1.523603     1.515960     1.508317     1.500674     1.493031     1.485388
      1.477745     1.470102     1.462458     1.454815     1.447172     1.439529     1.431886     1.424243     1.416600     1.408957
      1.401314     1.393671     1.386027     1.378384     1.370741     1.363098     1.355455     1.347812     1.340169     1.332526
      1.324883     1.317240     1.309596     1.301953     1.294310     1.286667     1.279024     1.271381     1.263738     1.256095
      1.248452     1.240808     1.233165     1.225522     1.217879     1.210236     1.202593     1.194950     1.187307     1.179664
      1.172021     1.164377     1.156734     1.149091     1.141448     1.133805     1.126162     1.118519     1.110876     1.103233
      1.095590     1.087946     1.080303     1.072660     1.065017     1.057374     1.049731     1.042088     1.034445     1.026802
      1.019158     1.011515     1.003872     0.996229     0.988586     0.980943     0.973300     0.965657     0.958014     0.950371
      0.942727     0.935084     0.927441     0.919798     0.912155     0.904512     0.896869     0.889226     0.881583     0.873940
      0.866296     0.858653     0.851010     0.843367     0.835724     0.828081     0.820438     0.812795     0.805152     0.797508
      0.789865     0.782222     0.774579     0.766936     0.759293     0.751650     0.744007     0.736364     0.728721     0.721077
      0.713434     0.705791     0.698148     0.690505     0.682862     0.675219     0.667576     0.659933     0.652290     0.644646
      0.637003     0.629360     0.621717     0.614074     0.606431     0.598788     0.591145     0.583502     0.575858     0.568215
      0.560572     0.552929     0.545286     0.537643     0.530000     0.522357     0.514714     0.507071     0.499427     0.491784
      0.484141     0.476498     0.468855     0.461212     0.453569     0.445925     0.438282     0.430639     0.422996     0.415353
      0.407710     0.400067     0.392424     0.384780     0.377137     0.369494     0.361851     0.354208     0.346565     0.338922
      0.331278     0.323635     0.315992     0.308349     0.300706     0.293063     0.285420     0.277777     0.270133     0.262490
      0.254847     0.247204     0.239561     0.231918     0.224275     0.216631     0.208988     0.201345
 NY phased data points follow
   4.60651E-01  2.95313E+00  3.84726E+00  1.21725E+00  3.30568E-01  6.70863E+00  4.50905E+00  6.56373E+00  8.87195E+00  6.67036E+00
   9.13973E+00  5.63900E+00  6.79534E+00  7.47608E+00  4.97422E+00  9.01616E+00  5.11108E+00  2.80407E+00  6.30778E+00  2.36627E+00
   2.82048E+00  2.85120E-01  2.85396E+00 -4.25451E-01  1.02204E+00  4.72512E+00  4.53832E+00  3.33379E+00  4.84983E+00  5.61064E+00
   3.09677E+00  5.94126E+00  4.57557E+00  3.56147E+00  6.31030E+00  2.59633E+00  3.26370E+00  5.67965E+00  3.01817E+00  5.17444E+00
   4.28692E+00  2.91337E+00  7.74614E+00  7.57805E+00  7.42118E+00  7.21501E+00  5.21140E+00  4.29221E+00  6.53084E+00  5.16911E+00
   6.23784E+00  6.47426E+00  3.15780E+00  3.83543E+00  1.65193E+00  1.66487E+00  3.27869E-01  4.28661E+00  1.82191E+00  4.04439E+00
   3.49659E+00  1.77402E+00 -6.79092E+00 -1.41834E+00  1.44745E-01  6.01302E-01 -7.93471E-01 -4.10781E+00 -3.80625E+00 -1.31971E+00
  -1.35904E+00 -9.74651E-01 -2.85476E+00  2.34568E+00 -4.75259E+00 -1.48855E-01  1.26856E+00 -1.24735E+00  3.16294E+00  6.56241E-01
   3.58676E-01 -1.99426E+00 -4.60731E-01  1.49334E+00 -7.57585E-01 -5.04849E-02  1.02186E+00  2.15345E+00 -8.06313E-01 -4.96192E-01
   6.65871E-01  8.32027E+00  4.32820E+00  5.92756E+00  8.29965E+00  1.22181E+01  1.44951E+01  1.48330E+01  1.72211E+01  1.51504E+01
   1.88187E+01  2.11345E+01  2.06543E+01  1.76983E+01  2.03044E+01  1.69745E+01  1.62799E+01  1.66541E+01  1.31221E+01  9.85357E+00
   6.12613E+00  6.41465E+00  4.93421E+00  4.66119E+00  2.86849E+00  3.65702E+00  5.53861E+00  5.41592E+00  4.73992E+00  8.95306E+00
   5.84339E+00  8.06632E+00  1.21772E+01  1.33159E+01  1.47225E+01  1.35814E+01  1.51923E+01  1.93099E+01  1.33504E+01  1.87000E+01
   1.20256E+01  1.06694E+01  1.27598E+01  1.39851E+01  8.55719E+00  6.82514E+00  9.83962E+00  5.94185E+00  3.08302E+00  9.58258E-01
   1.11499E+00  2.64993E+00 -6.49632E-01  8.99727E-01  1.86680E+00 -5.74085E-01 -6.94121E-01  1.65000E+00 -1.07038E+00 -2.00095E+00
  -9.35364E-01 -2.16530E+00  4.23305E-01  1.63585E+00  1.57353E+00 -2.08880E+00 -4.21630E+00 -1.54726E+00  3.01416E-01 -6.91255E-01
  -4.38308E+00 -3.75102E+00 -4.09031E+00 -1.49648E-01 -3.35357E+00 -1.58548E+00 -4.88551E+00 -4.99974E+00 -4.65929E+00 -3.70822E+00
  -3.25538E+00 -4.68824E+00 -5.80924E+00 -7.16291E+00 -1.03796E+01 -8.81410E+00 -5.23056E+00 -5.43368E+00 -6.13731E+00 -9.64980E+00
  -6.85419E+00 -8.73294E+00 -8.48651E+00 -9.71910E+00 -5.91639E+00 -9.65657E+00 -4.13050E+00 -7.16762E+00 -4.87364E+00 -5.72690E+00
  -5.01136E+00 -3.69984E+00 -2.58266E+00 -6.61531E+00 -4.49127E+00 -1.65139E+00 -4.22407E+00 -4.41647E+00 -2.98709E+00 -2.07935E+00
  -2.50360E+00 -1.26027E+00 -3.39180E+00 -4.13203E+00  3.24675E-01 -9.65237E-01 -3.69243E+00 -1.24917E+00 -1.75505E+00 -2.92689E-01
  -3.61510E+00 -1.51606E+00  2.00051E+00 -2.24625E-01 -1.27469E+00  3.37517E+00  6.62800E-01  1.54673E+00  1.51434E+00 -2.11870E-01
  -4.07778E-01  7.42940E-02 -8.32780E-01  2.21227E+00  6.77439E-01 -1.16850E-01  4.74405E+00  2.02346E+00  2.53192E+00  1.16759E-01
   1.02910E+00 -1.40915E+00  2.23537E+00  6.25917E+00  2.58898E+00 -1.02926E+00  3.87320E+00  4.29740E+00  2.57682E+00  3.66669E+00
  -4.17209E-01  4.62187E+00  3.77654E+00  6.40978E+00  5.65656E+00  8.55545E+00  9.37916E+00  1.15262E+01  1.10693E+01  1.24809E+01
   1.58724E+01  2.07344E+01  2.22818E+01  2.72929E+01  2.84452E+01  3.47853E+01  3.11345E+01  3.53758E+01  3.62843E+01  3.80223E+01
   3.79875E+01  3.74378E+01  2.96729E+01  2.88269E+01  2.25315E+01  2.56426E+01  2.52555E+01  1.82221E+01  1.59985E+01  9.66023E+00
   8.83328E+00  1.08214E+01  8.97319E+00  3.65454E+00  4.66185E+00  1.36920E+00 -1.85648E+00  3.15444E+00  4.83334E-01 -6.75439E-01
  -4.91000E-01 -1.63579E+00 -1.62114E+00  1.89303E+00 -2.90106E+00 -1.17410E+00  1.05351E+00  2.69614E+00  3.03055E+00  1.28235E+00
  -2.46131E+00  1.15768E+00  1.99990E+00  2.02403E+00 -2.81906E+00  2.18741E+00  1.17208E+00  1.51559E+00  3.58480E+00  1.11105E+00
  -1.36340E+00  5.28738E+00  1.09482E+00  1.99116E+00  3.57911E+00  1.64179E-01  8.43664E+00  4.72190E-01 -4.15264E-01  1.25349E+00
   3.34767E+00  5.62134E+00  1.31886E+00  4.89625E+00  3.78935E+00  2.35222E+00  1.63682E+00  2.64189E+00  1.83352E+00  2.54084E+00
   1.41359E+00  1.15020E+00  1.68492E+00  2.04020E+00  7.97472E-02 -1.53295E+00  3.31911E+00  1.67344E+00  2.20092E+00  7.79337E+00
   2.99876E+00  6.53383E+00  3.70612E+00  5.00158E+00  7.98313E+00  6.98422E+00  1.26005E+00  5.58836E+00  2.68596E+00  3.19251E+00
   5.67626E+00  6.50325E+00  1.99052E+00  1.71195E+00  6.30134E+00  7.67536E-01  3.04234E+00  5.29607E+00  2.70985E+00  2.39922E+00
   3.85501E+00 -7.93983E-01 -2.02436E+00  1.28481E+00  1.87059E+00 -1.11187E+00 -3.43333E+00 -1.49956E+00 -3.68237E+00 -3.45615E+00
  -2.53867E+00 -1.01837E+00 -7.75657E+00 -3.36652E+00 -2.38581E+00 -7.82472E+00 -2.75607E+00 -4.25942E+00 -2.35493E+00 -5.07215E+00
  -4.31275E+00 -7.79820E+00 -7.63043E+00 -9.49476E+00 -6.29529E+00 -8.43233E+00 -7.67125E+00 -3.51514E+00 -4.65812E+00 -2.25802E+00
  -4.93066E+00 -5.24298E-01 -3.60912E+00  1.69415E+00 -1.31113E+00  1.60955E+00 -1.20072E+00 -4.19027E+00  1.95283E+00 -1.23178E+00
   2.50345E-01  2.42526E+00  5.91576E+00  3.02658E+00  4.67619E+00  4.10151E+00  6.97284E+00  8.53559E+00  7.75485E+00  8.60598E+00
   8.94973E+00  1.02004E+01  9.22297E+00  1.13417E+01  9.70870E+00  1.09194E+01  1.29068E+01  8.27719E+00  1.04189E+01  1.05246E+01
   9.41602E+00  1.12361E+01  1.07850E+01  1.01579E+01  7.50159E+00  9.15210E+00  5.68429E+00  1.11580E+01  8.06854E+00  6.10842E+00
   4.30398E+00  2.53705E+00  4.50775E+00  4.70514E+00  9.48475E-01  2.74852E+00  5.12173E+00 -5.25957E-01  1.91931E+00  3.22769E+00
   5.18312E+00  1.76406E+00  3.90077E+00  1.85230E+00  3.45404E+00  2.71119E+00  1.95182E+00  1.16460E+00  2.87272E+00 -4.09548E+00
  -5.00706E+00  3.57134E+00  5.72933E+00  8.65489E-01  2.37314E+00  8.61121E-01 -5.00629E-01  1.56165E+00  3.01672E+00  1.22005E+00
   1.99120E+00 -1.60738E+00  1.47570E+00  2.41114E+00  3.55360E+00  1.39923E+00 -3.66862E-01  3.76731E-01  2.66666E+00  3.63951E+00
   4.09290E+00  6.65340E-01  3.71670E+00  5.10975E-01  1.44420E+00  1.84975E+00  3.66721E+00 -1.71690E+00  4.34458E-01  3.78636E+00
   1.61034E+00  4.40248E+00  3.67460E+00  2.96088E+00  4.03009E+00  2.72640E+00  5.23381E+00  7.49085E+00  2.86329E+00  1.92954E+00
   3.21504E+00  3.43430E+00  1.03346E+00  2.42750E+00  2.87796E+00  5.39138E+00  3.64324E+00  4.74117E+00  2.02741E+00  3.18246E+00
   4.66813E+00  4.22774E+00  3.89122E+00  1.52210E+00  3.56176E+00  3.47208E+00  5.27316E+00  7.52954E+00
 NY points of the fit to the data follow
   1.40231E+00  1.99440E+00  2.44927E+00  3.26485E+00  3.93490E+00  4.77225E+00  5.52267E+00  6.14502E+00  6.87387E+00  7.11794E+00
   7.63729E+00  7.29188E+00  7.33613E+00  6.47769E+00  6.32432E+00  5.49056E+00  5.20888E+00  4.31867E+00  3.95951E+00  3.24910E+00
   3.00329E+00  2.86481E+00  2.94172E+00  3.16505E+00  3.33285E+00  3.66169E+00  3.84117E+00  4.36146E+00  4.61691E+00  5.13922E+00
   5.22997E+00  5.37193E+00  5.19140E+00  5.01066E+00  4.96615E+00  4.79307E+00  4.82288E+00  4.59818E+00  4.68574E+00  4.54528E+00
   4.86753E+00  4.90733E+00  5.21631E+00  5.22188E+00  5.28187E+00  5.20699E+00  5.08302E+00  4.93206E+00  4.68238E+00  4.41245E+00
   3.93905E+00  3.69448E+00  3.14020E+00  2.89781E+00  2.25559E+00  2.01685E+00  1.47049E+00  1.42235E+00  9.66310E-01  9.62981E-01
   4.91114E-01  4.10091E-01 -3.55526E-02 -2.09491E-03 -2.41529E-01  4.17880E-04 -1.34907E-01 -3.43214E-02 -1.93873E-01 -1.44208E-01
  -1.67544E-01 -9.98618E-02 -1.18422E-01 -8.65451E-02 -1.37275E-01 -3.72155E-02 -1.06903E-01  1.90790E-01  5.81099E-02  5.18905E-01
   1.50782E-01  6.79841E-01  6.17689E-02  6.05116E-01 -1.75367E-01  3.52418E-01 -4.90244E-01  5.88911E-01 -3.92435E-02  1.35454E+00
   1.22897E+00  3.19902E+00  3.49813E+00  6.07362E+00  6.84155E+00  1.00306E+01  1.11648E+01  1.43404E+01  1.53378E+01  1.78962E+01
   1.85324E+01  2.02955E+01  2.03783E+01  2.04703E+01  1.97533E+01  1.81427E+01  1.68250E+01  1.48887E+01  1.33847E+01  1.09207E+01
   9.40401E+00  7.22139E+00  6.09339E+00  5.19227E+00  4.60897E+00  4.71593E+00  4.45966E+00  5.36844E+00  5.48048E+00  7.71251E+00
   8.13675E+00  1.13517E+01  1.16410E+01  1.43497E+01  1.42042E+01  1.63952E+01  1.57289E+01  1.66516E+01  1.54149E+01  1.49552E+01
   1.35599E+01  1.26344E+01  1.13148E+01  9.73047E+00  8.53716E+00  6.54714E+00  5.74828E+00  4.18845E+00  3.83672E+00  2.43996E+00
   2.26916E+00  8.62865E-01  8.17819E-01 -1.40584E-01  2.43252E-02 -3.76717E-01 -2.65727E-01 -7.71299E-01 -8.23735E-01 -1.24540E+00
  -1.35173E+00 -1.69220E+00 -1.79816E+00 -2.12751E+00 -2.30853E+00 -2.59951E+00 -2.81201E+00 -3.03135E+00 -3.22833E+00 -3.41864E+00
  -3.62281E+00 -3.78462E+00 -3.99870E+00 -4.13133E+00 -4.38696E+00 -4.59752E+00 -4.85856E+00 -5.11250E+00 -5.31203E+00 -5.58834E+00
  -5.73361E+00 -6.10796E+00 -6.15977E+00 -6.58065E+00 -6.49218E+00 -6.84757E+00 -6.60283E+00 -6.90743E+00 -6.56966E+00 -6.83058E+00
  -6.43941E+00 -6.51555E+00 -6.10358E+00 -5.96486E+00 -5.63078E+00 -5.34800E+00 -5.16951E+00 -4.68432E+00 -4.62654E+00 -3.95951E+00
  -4.09644E+00 -3.37424E+00 -3.67827E+00 -2.94840E+00 -3.33616E+00 -2.55152E+00 -2.94531E+00 -2.28627E+00 -2.68033E+00 -2.18799E+00
  -2.58010E+00 -2.26215E+00 -2.73044E+00 -2.56178E+00 -3.06682E+00 -2.95186E+00 -3.40492E+00 -3.22450E+00 -3.53877E+00 -3.14214E+00
  -3.24354E+00 -2.70214E+00 -2.63443E+00 -2.11662E+00 -1.95441E+00 -1.39097E+00 -1.21118E+00 -6.84565E-01 -4.86599E-01 -1.30817E-01
   1.21739E-02  3.36425E-01  4.65513E-01  7.18243E-01  7.73467E-01  9.29033E-01  8.84642E-01  1.02110E+00  9.19204E-01  1.21394E+00
   1.11933E+00  1.51993E+00  1.41908E+00  1.91950E+00  1.79284E+00  2.37742E+00  2.22052E+00  2.85334E+00  2.71369E+00  3.31511E+00
   3.19973E+00  3.84429E+00  3.90203E+00  4.73818E+00  5.74686E+00  7.07428E+00  8.55864E+00  1.03842E+01  1.24420E+01  1.48975E+01
   1.74034E+01  2.05328E+01  2.31458E+01  2.67686E+01  2.85733E+01  3.22873E+01  3.27704E+01  3.61272E+01  3.51845E+01  3.78097E+01
   3.46191E+01  3.59240E+01  3.09001E+01  3.10258E+01  2.61005E+01  2.56374E+01  2.05849E+01  1.94813E+01  1.47564E+01  1.34001E+01
   1.01599E+01  9.03639E+00  6.62774E+00  5.56359E+00  3.55698E+00  2.56647E+00  1.52761E+00  9.59131E-01  9.42708E-01  7.55080E-01
   5.18874E-01  3.06046E-01  1.20248E-01 -2.87842E-02 -1.49340E-01 -2.31696E-01 -2.84017E-01 -2.96668E-01 -2.81471E-01 -2.22260E-01
  -1.36645E-01 -8.40655E-03  1.44359E-01  3.36028E-01  5.46579E-01  7.88420E-01  1.03919E+00  1.30861E+00  1.57521E+00  1.84431E+00
   2.09582E+00  2.33333E+00  2.53890E+00  2.71545E+00  2.84858E+00  2.94171E+00  2.98495E+00  2.98477E+00  2.93617E+00  2.84854E+00
   2.72196E+00  2.56898E+00  2.39283E+00  2.20873E+00  2.02156E+00  1.84738E+00  1.69087E+00  1.56708E+00  1.47886E+00  1.43866E+00
   1.44618E+00  1.51010E+00  1.62592E+00  1.79798E+00  2.01724E+00  2.28362E+00  2.58395E+00  2.91434E+00  3.25833E+00  3.60952E+00
   3.94976E+00  4.27197E+00  4.55832E+00  4.80305E+00  4.99069E+00  5.11878E+00  5.17593E+00  5.16437E+00  5.07772E+00  4.92331E+00
   4.69969E+00  4.41877E+00  4.08302E+00  3.70751E+00  3.29689E+00  2.86742E+00  2.42402E+00  1.98235E+00  1.54592E+00  1.12829E+00
   7.30430E-01  3.63087E-01  2.42932E-02 -2.78043E-01 -5.48569E-01 -7.81778E-01 -9.84365E-01 -1.15245E+00 -1.29394E+00 -1.40578E+00
  -1.49633E+00 -1.56272E+00 -1.61326E+00 -1.64480E+00 -1.66520E+00 -1.67081E+00 -1.66896E+00 -1.65542E+00 -1.63697E+00 -1.60883E+00
  -1.57725E+00 -1.53697E+00 -1.49380E+00 -1.44208E+00 -1.38718E+00 -1.32299E+00 -1.25445E+00 -1.17497E+00 -1.08896E+00 -9.89245E-01
  -8.79567E-01 -7.51991E-01 -6.09445E-01 -4.43142E-01 -2.55143E-01 -3.58099E-02  2.13556E-01  5.03158E-01  8.31941E-01  1.20992E+00
   1.63529E+00  2.11666E+00  2.65004E+00  3.24098E+00  3.88158E+00  4.57267E+00  5.30098E+00  6.06160E+00  6.83540E+00  7.61193E+00
   8.36724E+00  9.08724E+00  9.74596E+00  1.03292E+01  1.08129E+01  1.11871E+01  1.14339E+01  1.15510E+01  1.15300E+01  1.13783E+01
   1.10974E+01  1.07043E+01  1.02084E+01  9.63337E+00  8.99325E+00  8.31409E+00  7.61021E+00  6.90596E+00  6.21232E+00  5.54901E+00
   4.92154E+00  4.34379E+00  3.81540E+00  3.34474E+00  2.92657E+00  2.56517E+00  2.25205E+00  1.98909E+00  1.76623E+00  1.58447E+00
   1.43347E+00  1.31444E+00  1.21754E+00  1.14469E+00  1.08688E+00  1.04692E+00  1.01667E+00  9.99730E-01  9.88708E-01  9.87843E-01
   9.90274E-01  1.00071E+00  1.01270E+00  1.03126E+00  1.05019E+00  1.07473E+00  1.09882E+00  1.12786E+00  1.15590E+00  1.18842E+00
   1.21955E+00  1.25483E+00  1.28841E+00  1.32590E+00  1.36148E+00  1.40079E+00  1.43804E+00  1.47886E+00  1.51748E+00  1.55957E+00
   1.59938E+00  1.64257E+00  1.68339E+00  1.72750E+00  1.76919E+00  1.81412E+00  1.85657E+00  1.90221E+00  1.94532E+00  1.99159E+00
   2.03529E+00  2.08211E+00  2.12634E+00  2.17367E+00  2.21836E+00  2.26613E+00  2.31125E+00  2.35943E+00  2.40494E+00  2.45349E+00
   2.49935E+00  2.54824E+00  2.59444E+00  2.64367E+00  2.69018E+00  2.73971E+00  2.78653E+00  2.83636E+00  2.88348E+00  2.93362E+00
   2.98105E+00  3.03150E+00  3.07927E+00  3.13007E+00  3.17821E+00  3.22942E+00  3.27801E+00  3.32973E+00
 NY background values follow
    -5.429E+00   -5.420E+00   -5.410E+00   -5.401E+00   -5.392E+00   -5.382E+00   -5.373E+00   -5.363E+00   -5.354E+00   -5.344E+00
    -5.335E+00   -5.325E+00   -5.316E+00   -5.307E+00   -5.297E+00   -5.288E+00   -5.278E+00   -5.269E+00   -5.259E+00   -5.250E+00
    -5.240E+00   -5.231E+00   -5.221E+00   -5.212E+00   -5.202E+00   -5.193E+00   -5.184E+00   -5.174E+00   -5.165E+00   -5.155E+00
    -5.146E+00   -5.136E+00   -5.127E+00   -5.118E+00   -5.108E+00   -5.099E+00   -5.090E+00   -5.080E+00   -5.071E+00   -5.061E+00
    -5.052E+00   -5.043E+00   -5.034E+00   -5.024E+00   -5.015E+00   -5.006E+00   -4.996E+00   -4.987E+00   -4.978E+00   -4.969E+00
    -4.960E+00   -4.950E+00   -4.941E+00   -4.932E+00   -4.923E+00   -4.914E+00   -4.905E+00   -4.896E+00   -4.887E+00   -4.878E+00
    -4.869E+00   -4.860E+00   -4.851E+00   -4.842E+00   -4.833E+00   -4.824E+00   -4.815E+00   -4.806E+00   -4.797E+00   -4.788E+00
    -4.779E+00   -4.771E+00   -4.762E+00   -4.753E+00   -4.744E+00   -4.736E+00   -4.727E+00   -4.718E+00   -4.710E+00   -4.701E+00
    -4.692E+00   -4.684E+00   -4.675E+00   -4.667E+00   -4.658E+00   -4.650E+00   -4.641E+00   -4.633E+00   -4.625E+00   -4.616E+00
    -4.608E+00   -4.600E+00   -4.591E+00   -4.583E+00   -4.575E+00   -4.567E+00   -4.558E+00   -4.550E+00   -4.542E+00   -4.534E+00
    -4.526E+00   -4.518E+00   -4.510E+00   -4.502E+00   -4.494E+00   -4.487E+00   -4.479E+00   -4.471E+00   -4.463E+00   -4.456E+00
    -4.448E+00   -4.441E+00   -4.433E+00   -4.426E+00   -4.418E+00   -4.411E+00   -4.404E+00   -4.396E+00   -4.389E+00   -4.382E+00
    -4.375E+00   -4.368E+00   -4.361E+00   -4.354E+00   -4.347E+00   -4.341E+00   -4.334E+00   -4.327E+00   -4.321E+00   -4.314E+00
    -4.308E+00   -4.301E+00   -4.295E+00   -4.289E+00   -4.283E+00   -4.277E+00   -4.271E+00   -4.265E+00   -4.259E+00   -4.253E+00
    -4.247E+00   -4.242E+00   -4.236E+00   -4.231E+00   -4.225E+00   -4.220E+00   -4.215E+00   -4.210E+00   -4.204E+00   -4.199E+00
    -4.194E+00   -4.189E+00   -4.185E+00   -4.180E+00   -4.175E+00   -4.170E+00   -4.166E+00   -4.161E+00   -4.157E+00   -4.152E+00
    -4.148E+00   -4.144E+00   -4.140E+00   -4.136E+00   -4.131E+00   -4.127E+00   -4.123E+00   -4.119E+00   -4.116E+00   -4.112E+00
    -4.108E+00   -4.104E+00   -4.101E+00   -4.097E+00   -4.094E+00   -4.090E+00   -4.087E+00   -4.083E+00   -4.080E+00   -4.077E+00
    -4.074E+00   -4.070E+00   -4.067E+00   -4.064E+00   -4.061E+00   -4.058E+00   -4.055E+00   -4.052E+00   -4.050E+00   -4.047E+00
    -4.044E+00   -4.041E+00   -4.039E+00   -4.036E+00   -4.033E+00   -4.031E+00   -4.028E+00   -4.026E+00   -4.023E+00   -4.021E+00
    -4.019E+00   -4.016E+00   -4.014E+00   -4.012E+00   -4.009E+00   -4.007E+00   -4.005E+00   -4.003E+00   -4.001E+00   -3.999E+00
    -3.996E+00   -3.994E+00   -3.992E+00   -3.990E+00   -3.988E+00   -3.986E+00   -3.984E+00   -3.982E+00   -3.980E+00   -3.978E+00
    -3.976E+00   -3.975E+00   -3.973E+00   -3.971E+00   -3.969E+00   -3.967E+00   -3.965E+00   -3.963E+00   -3.962E+00   -3.960E+00
    -3.958E+00   -3.956E+00   -3.954E+00   -3.952E+00   -3.951E+00   -3.949E+00   -3.947E+00   -3.945E+00   -3.943E+00   -3.941E+00
    -3.939E+00   -3.937E+00   -3.935E+00   -3.933E+00   -3.930E+00   -3.928E+00   -3.926E+00   -3.924E+00   -3.921E+00   -3.919E+00
    -3.916E+00   -3.914E+00   -3.911E+00   -3.909E+00   -3.906E+00   -3.903E+00   -3.900E+00   -3.897E+00   -3.894E+00   -3.891E+00
    -3.888E+00   -3.884E+00   -3.881E+00   -3.877E+00   -3.874E+00   -3.870E+00   -3.866E+00   -3.862E+00   -3.858E+00   -3.854E+00
    -3.850E+00   -3.845E+00   -3.841E+00   -3.836E+00   -3.831E+00   -3.826E+00   -3.821E+00   -3.816E+00   -3.810E+00   -3.805E+00
    -3.799E+00   -3.793E+00   -3.787E+00   -3.781E+00   -3.775E+00   -3.769E+00   -3.762E+00   -3.755E+00   -3.748E+00   -3.741E+00
    -3.734E+00   -3.727E+00   -3.719E+00   -3.711E+00   -3.703E+00   -3.695E+00   -3.687E+00   -3.678E+00   -3.670E+00   -3.661E+00
    -3.652E+00   -3.642E+00   -3.633E+00   -3.623E+00   -3.613E+00   -3.603E+00   -3.593E+00   -3.583E+00   -3.572E+00   -3.561E+00
    -3.550E+00   -3.539E+00   -3.527E+00   -3.515E+00   -3.503E+00   -3.491E+00   -3.478E+00   -3.466E+00   -3.453E+00   -3.440E+00
    -3.426E+00   -3.412E+00   -3.398E+00   -3.384E+00   -3.370E+00   -3.355E+00   -3.340E+00   -3.325E+00   -3.309E+00   -3.294E+00
    -3.277E+00   -3.261E+00   -3.244E+00   -3.228E+00   -3.210E+00   -3.193E+00   -3.175E+00   -3.157E+00   -3.138E+00   -3.119E+00
    -3.100E+00   -3.081E+00   -3.061E+00   -3.041E+00   -3.021E+00   -3.000E+00   -2.979E+00   -2.957E+00   -2.936E+00   -2.913E+00
    -2.891E+00   -2.868E+00   -2.845E+00   -2.821E+00   -2.797E+00   -2.773E+00   -2.748E+00   -2.723E+00   -2.698E+00   -2.672E+00
    -2.646E+00   -2.619E+00   -2.592E+00   -2.564E+00   -2.536E+00   -2.508E+00   -2.480E+00   -2.451E+00   -2.421E+00   -2.391E+00
    -2.361E+00   -2.331E+00   -2.300E+00   -2.268E+00   -2.237E+00   -2.205E+00   -2.172E+00   -2.139E+00   -2.106E+00   -2.073E+00
    -2.039E+00   -2.005E+00   -1.970E+00   -1.936E+00   -1.900E+00   -1.865E+00   -1.829E+00   -1.793E+00   -1.757E+00   -1.720E+00
    -1.683E+00   -1.645E+00   -1.607E+00   -1.569E+00   -1.531E+00   -1.492E+00   -1.453E+00   -1.414E+00   -1.375E+00   -1.335E+00
    -1.295E+00   -1.254E+00   -1.213E+00   -1.173E+00   -1.131E+00   -1.090E+00   -1.048E+00   -1.006E+00   -9.636E-01   -9.211E-01
    -8.783E-01   -8.352E-01   -7.919E-01   -7.483E-01   -7.046E-01   -6.605E-01   -6.163E-01   -5.718E-01   -5.271E-01   -4.822E-01
    -4.371E-01   -3.918E-01   -3.463E-01   -3.006E-01   -2.547E-01   -2.086E-01   -1.623E-01   -1.159E-01   -6.922E-02   -2.241E-02
     2.456E-02    7.170E-02    1.190E-01    1.664E-01    2.140E-01    2.618E-01    3.097E-01    3.577E-01    4.058E-01    4.541E-01
     5.025E-01    5.511E-01    5.997E-01    6.484E-01    6.973E-01    7.463E-01    7.953E-01    8.445E-01    8.937E-01    9.431E-01
     9.925E-01    1.042E+00    1.092E+00    1.141E+00    1.191E+00    1.241E+00    1.290E+00    1.340E+00    1.390E+00    1.440E+00
     1.490E+00    1.540E+00    1.591E+00    1.641E+00    1.691E+00    1.741E+00    1.792E+00    1.842E+00    1.893E+00    1.943E+00
     1.994E+00    2.044E+00    2.095E+00    2.145E+00    2.196E+00    2.247E+00    2.297E+00    2.348E+00    2.399E+00    2.450E+00
     2.500E+00    2.551E+00    2.602E+00    2.653E+00    2.704E+00    2.755E+00    2.805E+00    2.856E+00    2.907E+00    2.958E+00
     3.009E+00    3.060E+00    3.111E+00    3.162E+00    3.212E+00    3.263E+00    3.314E+00    3.365E+00
 Cr       Conc. = 7.36E+02
