 LCModel (Version 6.3-1L) Copyright: S.W. Provencher.          Ref.: Magn. Reson. Med. 30:672-679 (1993).                
 Slice#1 Row#4 Col#14  PD_05_press_1_raw_act
 36 lines in following concentration table = NCONC+1
    Conc.  %SD /Cr+PCr  Metabolite                                         
 2.99E+03  29% 151.019 Ala                                                 
   11.259  60%   0.569 Asp                                                 
   19.802 277%   1.000 Cr                                                  
    0.000 999%   0.000 PCr                                                 
    6.755  60%   0.341 GABA                                                
    6.755  60%   0.341 Glc                                                 
  506.062  89%  25.556 Gln                                                 
  855.978  75%  43.227 Glu                                                 
    0.000 999%   0.000 GPC                                                 
   29.207  75%   1.475 PCh                                                 
    0.000 999%   0.000 GSH                                                 
  123.606 198%   6.242 Ins                                                 
    0.000 999%   0.000 Lac                                                 
  117.794  55%   5.949 NAA                                                 
    0.000 999%   0.000 NAAG                                                
    2.263  60%   0.114 Scyllo                                              
   11.273  60%   0.569 Tau                                                 
    1.979 300%   0.100 -CrCH2                                              
   29.207  75%   1.475 GPC+PCh                                             
  117.794  55%   5.949 NAA+NAAG                                            
   19.802 277%   1.000 Cr+PCr                                              
 1.36E+03  70%  68.784 Glu+Gln                                             
    0.000 999%   0.000 Lip13a                                              
  460.328  44%  23.247 Lip13b                                              
    0.000 999%   0.000 Lip09                                               
 1.64E+04  10% 826.866 MM09                                                
    0.000 999%   0.000 Lip20                                               
    0.000 999%   0.000 MM20                                                
 1.02E+04  17% 514.038 MM12                                                
 4.61E+03  24% 232.675 MM14                                                
 2.21E+03  31% 111.408 MM17                                                
  460.328  44%  23.247 Lip13a+Lip13b                                       
 1.52E+04  14% 769.960 MM14+Lip13a+Lip13b+MM12                             
 1.64E+04  10% 826.866 MM09+Lip09                                          
    0.000 999%   0.000 MM20+Lip20                                          
   6 lines in following misc. output table
  FWHM = 0.153 ppm    S/N =  20                                            
  Data shift =-0.138 ppm                                                   
  Ph: -96 deg      -8.3 deg/ppm                                            
  alphaB,S = 3.6E-01,   1.9E+02                                            
   12 spline knots.   Ns = 9(2)                                            
  ( 9) 2 infls.   ( 5) 1 extrs.                                            
  498 points on ppm-axis = NY
      4.000000     3.992357     3.984714     3.977070     3.969427     3.961784     3.954141     3.946497     3.938854     3.931211
      3.923568     3.915925     3.908281     3.900638     3.892995     3.885352     3.877708     3.870065     3.862422     3.854779
      3.847136     3.839492     3.831849     3.824206     3.816563     3.808919     3.801276     3.793633     3.785990     3.778347
      3.770703     3.763060     3.755417     3.747774     3.740130     3.732487     3.724844     3.717201     3.709558     3.701914
      3.694271     3.686628     3.678985     3.671341     3.663698     3.656055     3.648412     3.640769     3.633125     3.625482
      3.617839     3.610196     3.602552     3.594909     3.587266     3.579623     3.571980     3.564336     3.556693     3.549050
      3.541407     3.533763     3.526120     3.518477     3.510834     3.503191     3.495547     3.487904     3.480261     3.472618
      3.464974     3.457331     3.449688     3.442045     3.434402     3.426758     3.419115     3.411472     3.403829     3.396185
      3.388542     3.380899     3.373256     3.365613     3.357969     3.350326     3.342683     3.335040     3.327396     3.319753
      3.312110     3.304467     3.296824     3.289180     3.281537     3.273894     3.266251     3.258607     3.250964     3.243321
      3.235678     3.228034     3.220391     3.212748     3.205105     3.197462     3.189818     3.182175     3.174532     3.166889
      3.159245     3.151602     3.143959     3.136316     3.128673     3.121029     3.113386     3.105743     3.098100     3.090456
      3.082813     3.075170     3.067527     3.059884     3.052240     3.044597     3.036954     3.029311     3.021667     3.014024
      3.006381     2.998738     2.991095     2.983451     2.975808     2.968165     2.960522     2.952878     2.945235     2.937592
      2.929949     2.922306     2.914662     2.907019     2.899376     2.891733     2.884089     2.876446     2.868803     2.861160
      2.853517     2.845873     2.838230     2.830587     2.822944     2.815300     2.807657     2.800014     2.792371     2.784728
      2.777084     2.769441     2.761798     2.754155     2.746511     2.738868     2.731225     2.723582     2.715939     2.708295
      2.700652     2.693009     2.685366     2.677722     2.670079     2.662436     2.654793     2.647150     2.639506     2.631863
      2.624220     2.616577     2.608933     2.601290     2.593647     2.586004     2.578361     2.570717     2.563074     2.555431
      2.547788     2.540144     2.532501     2.524858     2.517215     2.509572     2.501928     2.494285     2.486642     2.478999
      2.471355     2.463712     2.456069     2.448426     2.440783     2.433139     2.425496     2.417853     2.410210     2.402566
      2.394923     2.387280     2.379637     2.371994     2.364350     2.356707     2.349064     2.341421     2.333777     2.326134
      2.318491     2.310848     2.303205     2.295561     2.287918     2.280275     2.272632     2.264988     2.257345     2.249702
      2.242059     2.234416     2.226772     2.219129     2.211486     2.203843     2.196199     2.188556     2.180913     2.173270
      2.165627     2.157983     2.150340     2.142697     2.135054     2.127410     2.119767     2.112124     2.104481     2.096838
      2.089194     2.081551     2.073908     2.066265     2.058621     2.050978     2.043335     2.035692     2.028049     2.020405
      2.012762     2.005119     1.997476     1.989833     1.982190     1.974546     1.966903     1.959260     1.951617     1.943974
      1.936331     1.928688     1.921045     1.913402     1.905759     1.898115     1.890472     1.882829     1.875186     1.867543
      1.859900     1.852257     1.844614     1.836971     1.829327     1.821684     1.814041     1.806398     1.798755     1.791112
      1.783469     1.775826     1.768183     1.760540     1.752896     1.745253     1.737610     1.729967     1.722324     1.714681
      1.707038     1.699395     1.691752     1.684108     1.676465     1.668822     1.661179     1.653536     1.645893     1.638250
      1.630607     1.622964     1.615321     1.607677     1.600034     1.592391     1.584748     1.577105     1.569462     1.561819
      1.554176     1.546533     1.538890     1.531246     1.523603     1.515960     1.508317     1.500674     1.493031     1.485388
      1.477745     1.470102     1.462458     1.454815     1.447172     1.439529     1.431886     1.424243     1.416600     1.408957
      1.401314     1.393671     1.386027     1.378384     1.370741     1.363098     1.355455     1.347812     1.340169     1.332526
      1.324883     1.317240     1.309596     1.301953     1.294310     1.286667     1.279024     1.271381     1.263738     1.256095
      1.248452     1.240808     1.233165     1.225522     1.217879     1.210236     1.202593     1.194950     1.187307     1.179664
      1.172021     1.164377     1.156734     1.149091     1.141448     1.133805     1.126162     1.118519     1.110876     1.103233
      1.095590     1.087946     1.080303     1.072660     1.065017     1.057374     1.049731     1.042088     1.034445     1.026802
      1.019158     1.011515     1.003872     0.996229     0.988586     0.980943     0.973300     0.965657     0.958014     0.950371
      0.942727     0.935084     0.927441     0.919798     0.912155     0.904512     0.896869     0.889226     0.881583     0.873940
      0.866296     0.858653     0.851010     0.843367     0.835724     0.828081     0.820438     0.812795     0.805152     0.797508
      0.789865     0.782222     0.774579     0.766936     0.759293     0.751650     0.744007     0.736364     0.728721     0.721077
      0.713434     0.705791     0.698148     0.690505     0.682862     0.675219     0.667576     0.659933     0.652290     0.644646
      0.637003     0.629360     0.621717     0.614074     0.606431     0.598788     0.591145     0.583502     0.575858     0.568215
      0.560572     0.552929     0.545286     0.537643     0.530000     0.522357     0.514714     0.507071     0.499427     0.491784
      0.484141     0.476498     0.468855     0.461212     0.453569     0.445925     0.438282     0.430639     0.422996     0.415353
      0.407710     0.400067     0.392424     0.384780     0.377137     0.369494     0.361851     0.354208     0.346565     0.338922
      0.331278     0.323635     0.315992     0.308349     0.300706     0.293063     0.285420     0.277777     0.270133     0.262490
      0.254847     0.247204     0.239561     0.231918     0.224275     0.216631     0.208988     0.201345
 NY phased data points follow
   1.07853E+01  1.17266E+01  8.05716E+00  7.91174E+00  9.07212E+00  9.88585E+00  8.93598E+00  1.01334E+01  8.87209E+00  6.00743E+00
   8.81614E+00  7.62408E+00  7.94950E+00  9.86811E+00  9.53613E+00  6.52431E+00  7.37157E+00  9.54428E+00  8.83241E+00  1.07805E+01
   8.18375E+00  7.63190E+00  7.84287E+00  9.81065E+00  8.17062E+00  8.87018E+00  9.44008E+00  9.29205E+00  7.18741E+00  8.90946E+00
   5.69573E+00  7.08996E+00  7.63711E+00  4.93838E+00  6.16216E+00  7.21490E+00  6.76236E+00  8.13579E+00  8.68525E+00  9.05007E+00
   9.84853E+00  8.04287E+00  7.45320E+00  8.60892E+00  7.22442E+00  9.04077E+00  7.22359E+00  6.78638E+00  8.11393E+00  9.38787E+00
   9.54000E+00  7.68656E+00  5.44763E+00  7.91795E+00  6.36877E+00  9.11131E+00  5.75384E+00  8.52165E+00  1.00137E+01  7.54620E+00
   8.31643E+00  6.97989E+00  8.32489E+00  7.67837E+00  7.83768E+00  8.81831E+00  7.92392E+00  7.33286E+00  8.43734E+00  7.65808E+00
   8.02416E+00  7.42026E+00  6.89377E+00  7.36849E+00  9.13407E+00  7.81812E+00  7.65484E+00  7.40092E+00  6.16578E+00  8.30444E+00
   9.02950E+00  8.49715E+00  7.73730E+00  7.54459E+00  6.96271E+00  1.02157E+01  9.93767E+00  1.00831E+01  7.39287E+00  8.34171E+00
   8.65459E+00  9.06692E+00  8.05003E+00  9.63953E+00  1.00317E+01  7.89807E+00  8.32104E+00  6.94344E+00  9.95365E+00  8.97203E+00
   8.73880E+00  9.57123E+00  8.48793E+00  1.04085E+01  9.83327E+00  7.56498E+00  1.06400E+01  1.11299E+01  1.10427E+01  6.63335E+00
   1.04196E+01  1.00790E+01  8.71591E+00  1.10667E+01  8.73723E+00  6.72968E+00  1.06125E+01  9.17417E+00  1.04106E+01  1.01641E+01
   9.77742E+00  9.32451E+00  6.37111E+00  8.60317E+00  9.87412E+00  7.16686E+00  1.01131E+01  8.73691E+00  9.75664E+00  1.14315E+01
   9.20334E+00  1.19340E+01  1.09276E+01  9.94055E+00  9.81486E+00  1.15653E+01  1.15999E+01  7.04909E+00  1.07425E+01  7.45807E+00
   1.25403E+01  8.92253E+00  1.11440E+01  1.08791E+01  1.11238E+01  9.99784E+00  1.01242E+01  1.09451E+01  1.09660E+01  8.62824E+00
   1.11295E+01  8.85073E+00  1.14069E+01  1.19405E+01  1.20058E+01  9.65781E+00  9.67937E+00  9.36886E+00  1.12758E+01  1.12550E+01
   1.10772E+01  1.04910E+01  1.04062E+01  8.55359E+00  1.50422E+01  1.26293E+01  1.25857E+01  1.16052E+01  1.11236E+01  9.69977E+00
   1.10194E+01  1.11367E+01  1.10231E+01  1.11091E+01  1.23280E+01  1.25539E+01  1.15397E+01  1.12397E+01  1.19252E+01  1.17634E+01
   1.17899E+01  1.49651E+01  9.70117E+00  1.36689E+01  1.25931E+01  1.12837E+01  1.15239E+01  1.31764E+01  1.23696E+01  1.30873E+01
   1.43089E+01  1.41229E+01  1.35162E+01  1.29586E+01  1.27063E+01  1.33063E+01  1.28585E+01  1.66824E+01  1.37974E+01  1.34975E+01
   1.58393E+01  1.62359E+01  1.44347E+01  1.39817E+01  1.38375E+01  1.43162E+01  1.21687E+01  1.55237E+01  1.41429E+01  1.40190E+01
   1.26927E+01  1.45601E+01  1.47885E+01  1.30583E+01  1.34442E+01  1.46653E+01  1.15466E+01  1.27405E+01  1.15303E+01  1.54970E+01
   1.66658E+01  1.61746E+01  1.50960E+01  1.48862E+01  1.43396E+01  1.37990E+01  1.36793E+01  1.43338E+01  1.65389E+01  1.76377E+01
   1.53192E+01  1.59067E+01  1.55891E+01  1.34909E+01  1.72356E+01  1.62577E+01  1.47208E+01  1.77372E+01  1.61629E+01  1.69983E+01
   1.62001E+01  1.50611E+01  1.60352E+01  1.65143E+01  1.52777E+01  1.78851E+01  1.56095E+01  1.50336E+01  1.66084E+01  1.60328E+01
   1.52134E+01  1.72348E+01  1.55517E+01  1.86622E+01  1.66984E+01  1.57133E+01  1.83770E+01  1.99560E+01  1.71658E+01  1.90011E+01
   1.79564E+01  1.83875E+01  1.80695E+01  1.89211E+01  1.77904E+01  1.85857E+01  1.97159E+01  1.94570E+01  1.91127E+01  1.84322E+01
   1.98439E+01  1.94790E+01  1.93490E+01  2.21706E+01  1.88386E+01  1.98270E+01  1.90884E+01  1.82582E+01  2.03661E+01  2.01119E+01
   1.92970E+01  2.20035E+01  1.85400E+01  1.93389E+01  2.07545E+01  2.18608E+01  2.50274E+01  2.22990E+01  2.27160E+01  2.38980E+01
   2.42303E+01  2.47013E+01  2.46535E+01  2.66966E+01  2.46891E+01  2.32615E+01  2.35104E+01  2.56712E+01  2.54184E+01  2.53387E+01
   2.60731E+01  2.69352E+01  2.80371E+01  2.86854E+01  3.00414E+01  3.07342E+01  2.93268E+01  2.65164E+01  2.74195E+01  2.76467E+01
   2.97016E+01  2.87875E+01  2.96591E+01  3.03113E+01  2.98368E+01  3.18946E+01  3.01301E+01  3.06270E+01  3.12973E+01  3.17761E+01
   3.50359E+01  3.52098E+01  3.35374E+01  3.54836E+01  3.67561E+01  3.62256E+01  3.41227E+01  3.55802E+01  3.65978E+01  3.58119E+01
   3.77062E+01  3.71716E+01  3.78095E+01  3.85737E+01  3.99065E+01  3.96526E+01  4.15846E+01  4.03150E+01  4.16573E+01  4.12410E+01
   4.00252E+01  4.02126E+01  4.12918E+01  4.37892E+01  4.37515E+01  4.12402E+01  4.60575E+01  4.44881E+01  4.38323E+01  4.46861E+01
   4.69587E+01  4.54298E+01  4.79017E+01  4.48127E+01  4.44568E+01  4.66091E+01  4.61809E+01  4.45223E+01  4.44575E+01  4.55442E+01
   4.83095E+01  4.60602E+01  4.63404E+01  4.75872E+01  4.80290E+01  4.86223E+01  4.80573E+01  4.59886E+01  4.80322E+01  4.60671E+01
   4.77973E+01  4.53135E+01  4.77152E+01  5.00862E+01  4.65996E+01  4.82936E+01  5.00678E+01  4.87798E+01  4.67088E+01  4.96111E+01
   4.96880E+01  4.92758E+01  4.71217E+01  4.81828E+01  4.82805E+01  5.05608E+01  5.01001E+01  4.93305E+01  4.93530E+01  4.93989E+01
   4.82861E+01  5.01908E+01  4.81330E+01  4.73671E+01  4.92950E+01  4.87541E+01  4.75929E+01  4.56290E+01  4.84905E+01  4.72126E+01
   4.70161E+01  4.59468E+01  4.27449E+01  4.50155E+01  4.39048E+01  4.20689E+01  4.33867E+01  4.13587E+01  3.96454E+01  3.72328E+01
   3.63027E+01  3.28190E+01  3.43880E+01  3.34803E+01  2.89896E+01  2.97788E+01  2.57906E+01  2.57922E+01  2.53532E+01  2.28615E+01
   1.94696E+01  1.63296E+01  1.33586E+01  9.98619E+00  7.98900E+00  6.61878E+00  4.40196E+00  4.22325E+00  2.56649E+00 -3.40769E+00
  -1.44373E+00 -5.65570E+00 -2.68185E+00 -4.75323E+00 -9.73818E+00 -1.20936E+01 -1.22926E+01 -1.14154E+01 -1.60841E+01 -1.69502E+01
  -1.64886E+01 -1.82436E+01 -1.89692E+01 -2.14334E+01 -2.11872E+01 -2.24294E+01 -2.43098E+01 -2.59170E+01 -2.76480E+01 -2.83572E+01
  -2.74089E+01 -2.85513E+01 -3.02567E+01 -2.93123E+01 -3.04086E+01 -3.34273E+01 -3.40478E+01 -3.54530E+01 -3.54137E+01 -3.75160E+01
  -3.61991E+01 -3.81381E+01 -3.88873E+01 -4.10637E+01 -4.11066E+01 -4.24986E+01 -4.36733E+01 -4.23214E+01 -4.52012E+01 -4.42135E+01
  -4.59848E+01 -4.44614E+01 -4.72747E+01 -4.70711E+01 -4.75751E+01 -4.75088E+01 -5.00817E+01 -4.95616E+01 -4.85800E+01 -4.89898E+01
  -4.92546E+01 -5.24866E+01 -5.15100E+01 -5.10838E+01 -5.10453E+01 -5.18420E+01 -5.10300E+01 -5.25916E+01 -5.09475E+01 -5.08890E+01
  -5.00749E+01 -5.05059E+01 -5.12086E+01 -5.06315E+01 -5.14427E+01 -4.98020E+01 -5.00902E+01 -5.06431E+01
 NY points of the fit to the data follow
   9.30841E+00  9.23249E+00  9.11268E+00  9.06659E+00  8.95682E+00  8.95191E+00  8.87512E+00  8.96550E+00  8.83609E+00  8.95164E+00
   8.68521E+00  8.81880E+00  8.46350E+00  8.67758E+00  8.25091E+00  8.62764E+00  8.23067E+00  8.78640E+00  8.32124E+00  8.90023E+00
   8.27064E+00  8.83137E+00  8.08680E+00  8.59628E+00  7.81118E+00  8.33576E+00  7.68195E+00  8.21865E+00  7.72228E+00  8.17911E+00
   7.83207E+00  8.16502E+00  7.92709E+00  8.06210E+00  7.95006E+00  7.90326E+00  7.96791E+00  7.76884E+00  7.99391E+00  7.71621E+00
   8.07354E+00  7.75365E+00  8.20186E+00  7.83947E+00  8.35565E+00  8.02048E+00  8.48675E+00  8.16477E+00  8.45456E+00  8.07990E+00
   8.22621E+00  7.84886E+00  7.89983E+00  7.64848E+00  7.72030E+00  7.64082E+00  7.76500E+00  7.73880E+00  7.82992E+00  7.82288E+00
   7.85830E+00  7.85073E+00  7.84824E+00  7.82750E+00  7.82972E+00  7.81243E+00  7.82391E+00  7.81648E+00  7.84136E+00  7.84130E+00
   7.87263E+00  7.86770E+00  7.89561E+00  7.88625E+00  7.91356E+00  7.90270E+00  7.93023E+00  7.91836E+00  7.94763E+00  7.93501E+00
   7.96495E+00  7.95290E+00  7.98424E+00  7.97267E+00  8.00853E+00  8.01633E+00  8.07281E+00  8.08913E+00  8.16639E+00  8.17954E+00
   8.27343E+00  8.29207E+00  8.41036E+00  8.42746E+00  8.57283E+00  8.60083E+00  8.78541E+00  8.80463E+00  9.02115E+00  9.00947E+00
   9.24314E+00  9.19505E+00  9.43499E+00  9.34654E+00  9.58038E+00  9.45918E+00  9.68030E+00  9.53164E+00  9.73320E+00  9.57129E+00
   9.74784E+00  9.57582E+00  9.71971E+00  9.54745E+00  9.65592E+00  9.50105E+00  9.57738E+00  9.45673E+00  9.51054E+00  9.43474E+00
   9.47077E+00  9.43538E+00  9.45889E+00  9.47780E+00  9.51022E+00  9.57096E+00  9.61737E+00  9.67679E+00  9.72172E+00  9.77586E+00
   9.81851E+00  9.86639E+00  9.90678E+00  9.94918E+00  9.98728E+00  1.00231E+01  1.00590E+01  1.00891E+01  1.01238E+01  1.01503E+01
   1.01855E+01  1.02124E+01  1.02491E+01  1.02773E+01  1.03162E+01  1.03468E+01  1.03904E+01  1.04317E+01  1.04806E+01  1.05317E+01
   1.05829E+01  1.06348E+01  1.06861E+01  1.07375E+01  1.07880E+01  1.08390E+01  1.08891E+01  1.09410E+01  1.09899E+01  1.10423E+01
   1.10910E+01  1.11439E+01  1.11929E+01  1.12450E+01  1.12938E+01  1.13453E+01  1.13957E+01  1.14471E+01  1.14985E+01  1.15485E+01
   1.16030E+01  1.16533E+01  1.17125E+01  1.17626E+01  1.18259E+01  1.18741E+01  1.19381E+01  1.19864E+01  1.20431E+01  1.20947E+01
   1.21441E+01  1.22013E+01  1.22461E+01  1.23221E+01  1.23676E+01  1.24672E+01  1.25077E+01  1.26362E+01  1.26576E+01  1.28107E+01
   1.28020E+01  1.29625E+01  1.28949E+01  1.31011E+01  1.29967E+01  1.32624E+01  1.31424E+01  1.34708E+01  1.33479E+01  1.37243E+01
   1.35624E+01  1.39418E+01  1.36843E+01  1.40768E+01  1.37402E+01  1.41442E+01  1.37866E+01  1.42354E+01  1.39220E+01  1.44083E+01
   1.41131E+01  1.45830E+01  1.42802E+01  1.46968E+01  1.43587E+01  1.47021E+01  1.43523E+01  1.46628E+01  1.43483E+01  1.46650E+01
   1.44169E+01  1.47590E+01  1.45975E+01  1.49440E+01  1.48115E+01  1.51298E+01  1.50084E+01  1.52860E+01  1.51609E+01  1.53951E+01
   1.52537E+01  1.54851E+01  1.53449E+01  1.56039E+01  1.54995E+01  1.57563E+01  1.57313E+01  1.59529E+01  1.59915E+01  1.61384E+01
   1.61754E+01  1.62289E+01  1.62743E+01  1.62565E+01  1.63179E+01  1.62815E+01  1.63948E+01  1.63927E+01  1.65555E+01  1.65939E+01
   1.67739E+01  1.68541E+01  1.70573E+01  1.72062E+01  1.73944E+01  1.76107E+01  1.77373E+01  1.80091E+01  1.80553E+01  1.83967E+01
   1.83641E+01  1.87525E+01  1.86359E+01  1.90199E+01  1.88226E+01  1.91681E+01  1.89323E+01  1.92489E+01  1.89954E+01  1.92739E+01
   1.90262E+01  1.92634E+01  1.90402E+01  1.92481E+01  1.90902E+01  1.92922E+01  1.92222E+01  1.94262E+01  1.94400E+01  1.96538E+01
   1.97906E+01  2.00523E+01  2.03189E+01  2.06464E+01  2.09888E+01  2.13571E+01  2.17578E+01  2.21630E+01  2.26004E+01  2.30354E+01
   2.34932E+01  2.39378E+01  2.43912E+01  2.48237E+01  2.52499E+01  2.56481E+01  2.60259E+01  2.63662E+01  2.66730E+01  2.69375E+01
   2.71616E+01  2.73450E+01  2.74914E+01  2.76077E+01  2.77042E+01  2.77950E+01  2.79017E+01  2.80598E+01  2.83460E+01  2.88180E+01
   2.90398E+01  2.95869E+01  2.96416E+01  3.01610E+01  3.01672E+01  3.07771E+01  3.05995E+01  3.15670E+01  3.16252E+01  3.30948E+01
   3.31357E+01  3.45604E+01  3.42711E+01  3.54880E+01  3.50391E+01  3.59560E+01  3.53653E+01  3.62205E+01  3.59810E+01  3.68180E+01
   3.70742E+01  3.76768E+01  3.83460E+01  3.86298E+01  3.95973E+01  3.93733E+01  4.05533E+01  3.98928E+01  4.13097E+01  4.03533E+01
   4.20101E+01  4.10014E+01  4.28331E+01  4.17785E+01  4.36136E+01  4.25726E+01  4.44416E+01  4.37544E+01  4.53436E+01  4.49678E+01
   4.59825E+01  4.55601E+01  4.61798E+01  4.57263E+01  4.58824E+01  4.56627E+01  4.56743E+01  4.58257E+01  4.59927E+01  4.61338E+01
   4.62436E+01  4.63353E+01  4.64301E+01  4.65490E+01  4.67078E+01  4.69134E+01  4.71634E+01  4.74476E+01  4.77499E+01  4.80519E+01
   4.83353E+01  4.85842E+01  4.87862E+01  4.89336E+01  4.90226E+01  4.90539E+01  4.90312E+01  4.89612E+01  4.88525E+01  4.87150E+01
   4.85594E+01  4.83964E+01  4.82359E+01  4.80873E+01  4.79582E+01  4.78548E+01  4.77810E+01  4.77388E+01  4.77278E+01  4.77455E+01
   4.77871E+01  4.78457E+01  4.79123E+01  4.79768E+01  4.80270E+01  4.80503E+01  4.80332E+01  4.79619E+01  4.78227E+01  4.76027E+01
   4.72896E+01  4.68723E+01  4.63413E+01  4.56890E+01  4.49093E+01  4.39988E+01  4.29557E+01  4.17807E+01  4.04764E+01  3.90475E+01
   3.75004E+01  3.58434E+01  3.40857E+01  3.22381E+01  3.03118E+01  2.83188E+01  2.62712E+01  2.41814E+01  2.20611E+01  1.99220E+01
   1.77748E+01  1.56298E+01  1.34960E+01  1.13820E+01  9.29485E+00  7.24103E+00  5.22574E+00  3.25348E+00  1.32761E+00 -5.49109E-01
  -2.37490E+00 -4.14845E+00 -5.86927E+00 -7.53717E+00 -9.15262E+00 -1.07162E+01 -1.22292E+01 -1.36925E+01 -1.51080E+01 -1.64769E+01
  -1.78012E+01 -1.90824E+01 -2.03225E+01 -2.15230E+01 -2.26857E+01 -2.38123E+01 -2.49043E+01 -2.59631E+01 -2.69905E+01 -2.79875E+01
  -2.89558E+01 -2.98963E+01 -3.08105E+01 -3.16993E+01 -3.25639E+01 -3.34051E+01 -3.42239E+01 -3.50211E+01 -3.57976E+01 -3.65540E+01
  -3.72910E+01 -3.80093E+01 -3.87094E+01 -3.93918E+01 -4.00570E+01 -4.07055E+01 -4.13377E+01 -4.19539E+01 -4.25546E+01 -4.31399E+01
  -4.37102E+01 -4.42656E+01 -4.48066E+01 -4.53332E+01 -4.58456E+01 -4.63440E+01 -4.68285E+01 -4.72992E+01 -4.77563E+01 -4.81998E+01
  -4.86299E+01 -4.90465E+01 -4.94497E+01 -4.98395E+01 -5.02160E+01 -5.05791E+01 -5.09290E+01 -5.12654E+01 -5.15886E+01 -5.18983E+01
  -5.21946E+01 -5.24774E+01 -5.27467E+01 -5.30024E+01 -5.32444E+01 -5.34727E+01 -5.36872E+01 -5.38877E+01
 NY background values follow
     8.375E+00    8.307E+00    8.240E+00    8.176E+00    8.113E+00    8.051E+00    7.992E+00    7.935E+00    7.879E+00    7.824E+00
     7.772E+00    7.721E+00    7.672E+00    7.625E+00    7.579E+00    7.535E+00    7.492E+00    7.451E+00    7.412E+00    7.374E+00
     7.337E+00    7.302E+00    7.269E+00    7.237E+00    7.206E+00    7.177E+00    7.149E+00    7.123E+00    7.098E+00    7.074E+00
     7.052E+00    7.031E+00    7.011E+00    6.993E+00    6.975E+00    6.959E+00    6.945E+00    6.931E+00    6.919E+00    6.908E+00
     6.897E+00    6.889E+00    6.881E+00    6.874E+00    6.868E+00    6.864E+00    6.860E+00    6.857E+00    6.856E+00    6.855E+00
     6.856E+00    6.857E+00    6.859E+00    6.862E+00    6.866E+00    6.871E+00    6.877E+00    6.883E+00    6.890E+00    6.899E+00
     6.908E+00    6.917E+00    6.928E+00    6.939E+00    6.951E+00    6.964E+00    6.978E+00    6.992E+00    7.007E+00    7.023E+00
     7.040E+00    7.057E+00    7.075E+00    7.094E+00    7.113E+00    7.133E+00    7.154E+00    7.175E+00    7.197E+00    7.220E+00
     7.243E+00    7.267E+00    7.292E+00    7.317E+00    7.342E+00    7.369E+00    7.396E+00    7.423E+00    7.451E+00    7.480E+00
     7.509E+00    7.539E+00    7.569E+00    7.600E+00    7.631E+00    7.663E+00    7.695E+00    7.728E+00    7.761E+00    7.794E+00
     7.829E+00    7.863E+00    7.898E+00    7.934E+00    7.970E+00    8.006E+00    8.043E+00    8.080E+00    8.117E+00    8.155E+00
     8.193E+00    8.232E+00    8.271E+00    8.310E+00    8.350E+00    8.390E+00    8.430E+00    8.471E+00    8.512E+00    8.553E+00
     8.595E+00    8.637E+00    8.679E+00    8.722E+00    8.765E+00    8.808E+00    8.851E+00    8.895E+00    8.939E+00    8.983E+00
     9.028E+00    9.072E+00    9.117E+00    9.163E+00    9.208E+00    9.254E+00    9.300E+00    9.346E+00    9.393E+00    9.439E+00
     9.486E+00    9.533E+00    9.580E+00    9.628E+00    9.675E+00    9.723E+00    9.771E+00    9.819E+00    9.868E+00    9.916E+00
     9.965E+00    1.001E+01    1.006E+01    1.011E+01    1.016E+01    1.021E+01    1.026E+01    1.031E+01    1.036E+01    1.041E+01
     1.046E+01    1.051E+01    1.056E+01    1.061E+01    1.066E+01    1.071E+01    1.076E+01    1.081E+01    1.086E+01    1.091E+01
     1.096E+01    1.101E+01    1.106E+01    1.111E+01    1.116E+01    1.122E+01    1.127E+01    1.132E+01    1.137E+01    1.142E+01
     1.147E+01    1.152E+01    1.157E+01    1.162E+01    1.166E+01    1.171E+01    1.176E+01    1.181E+01    1.186E+01    1.191E+01
     1.196E+01    1.200E+01    1.205E+01    1.210E+01    1.215E+01    1.219E+01    1.224E+01    1.228E+01    1.233E+01    1.238E+01
     1.242E+01    1.246E+01    1.251E+01    1.255E+01    1.259E+01    1.264E+01    1.268E+01    1.272E+01    1.276E+01    1.280E+01
     1.284E+01    1.288E+01    1.292E+01    1.296E+01    1.299E+01    1.303E+01    1.307E+01    1.310E+01    1.314E+01    1.317E+01
     1.321E+01    1.324E+01    1.327E+01    1.330E+01    1.333E+01    1.336E+01    1.339E+01    1.342E+01    1.345E+01    1.347E+01
     1.350E+01    1.352E+01    1.354E+01    1.357E+01    1.359E+01    1.360E+01    1.362E+01    1.364E+01    1.365E+01    1.367E+01
     1.368E+01    1.369E+01    1.370E+01    1.370E+01    1.371E+01    1.371E+01    1.371E+01    1.371E+01    1.371E+01    1.371E+01
     1.370E+01    1.370E+01    1.369E+01    1.367E+01    1.366E+01    1.364E+01    1.363E+01    1.361E+01    1.358E+01    1.356E+01
     1.353E+01    1.350E+01    1.347E+01    1.343E+01    1.340E+01    1.336E+01    1.331E+01    1.327E+01    1.322E+01    1.317E+01
     1.311E+01    1.306E+01    1.300E+01    1.294E+01    1.287E+01    1.280E+01    1.273E+01    1.266E+01    1.258E+01    1.250E+01
     1.241E+01    1.233E+01    1.224E+01    1.214E+01    1.205E+01    1.195E+01    1.184E+01    1.174E+01    1.163E+01    1.152E+01
     1.140E+01    1.128E+01    1.116E+01    1.104E+01    1.091E+01    1.078E+01    1.065E+01    1.051E+01    1.037E+01    1.023E+01
     1.009E+01    9.940E+00    9.789E+00    9.635E+00    9.478E+00    9.318E+00    9.155E+00    8.990E+00    8.821E+00    8.649E+00
     8.475E+00    8.297E+00    8.117E+00    7.934E+00    7.748E+00    7.559E+00    7.367E+00    7.172E+00    6.974E+00    6.774E+00
     6.570E+00    6.364E+00    6.155E+00    5.943E+00    5.728E+00    5.510E+00    5.290E+00    5.067E+00    4.841E+00    4.612E+00
     4.380E+00    4.146E+00    3.908E+00    3.668E+00    3.425E+00    3.180E+00    2.931E+00    2.680E+00    2.426E+00    2.169E+00
     1.909E+00    1.646E+00    1.380E+00    1.111E+00    8.392E-01    5.645E-01    2.868E-01    6.058E-03   -2.777E-01   -5.644E-01
    -8.542E-01   -1.147E+00   -1.443E+00   -1.742E+00   -2.044E+00   -2.349E+00   -2.658E+00   -2.969E+00   -3.284E+00   -3.602E+00
    -3.923E+00   -4.247E+00   -4.574E+00   -4.905E+00   -5.239E+00   -5.576E+00   -5.916E+00   -6.260E+00   -6.607E+00   -6.958E+00
    -7.311E+00   -7.668E+00   -8.029E+00   -8.393E+00   -8.760E+00   -9.130E+00   -9.504E+00   -9.882E+00   -1.026E+01   -1.065E+01
    -1.104E+01   -1.143E+01   -1.182E+01   -1.222E+01   -1.262E+01   -1.303E+01   -1.344E+01   -1.385E+01   -1.426E+01   -1.468E+01
    -1.511E+01   -1.553E+01   -1.596E+01   -1.640E+01   -1.683E+01   -1.727E+01   -1.771E+01   -1.816E+01   -1.860E+01   -1.905E+01
    -1.950E+01   -1.996E+01   -2.041E+01   -2.087E+01   -2.133E+01   -2.179E+01   -2.226E+01   -2.272E+01   -2.319E+01   -2.366E+01
    -2.413E+01   -2.461E+01   -2.508E+01   -2.555E+01   -2.603E+01   -2.651E+01   -2.699E+01   -2.747E+01   -2.795E+01   -2.843E+01
    -2.891E+01   -2.939E+01   -2.987E+01   -3.035E+01   -3.084E+01   -3.132E+01   -3.180E+01   -3.229E+01   -3.277E+01   -3.325E+01
    -3.373E+01   -3.422E+01   -3.470E+01   -3.518E+01   -3.566E+01   -3.614E+01   -3.662E+01   -3.709E+01   -3.757E+01   -3.805E+01
    -3.852E+01   -3.899E+01   -3.947E+01   -3.994E+01   -4.040E+01   -4.087E+01   -4.134E+01   -4.180E+01   -4.226E+01   -4.271E+01
    -4.317E+01   -4.362E+01   -4.407E+01   -4.451E+01   -4.495E+01   -4.539E+01   -4.583E+01   -4.625E+01   -4.668E+01   -4.710E+01
    -4.752E+01   -4.793E+01   -4.834E+01   -4.874E+01   -4.913E+01   -4.952E+01   -4.991E+01   -5.029E+01   -5.066E+01   -5.103E+01
    -5.139E+01   -5.174E+01   -5.209E+01   -5.243E+01   -5.276E+01   -5.309E+01   -5.341E+01   -5.372E+01   -5.402E+01   -5.431E+01
    -5.460E+01   -5.488E+01   -5.515E+01   -5.541E+01   -5.566E+01   -5.590E+01   -5.613E+01   -5.636E+01   -5.657E+01   -5.677E+01
    -5.697E+01   -5.715E+01   -5.732E+01   -5.749E+01   -5.764E+01   -5.778E+01   -5.791E+01   -5.803E+01
 Ala      Conc. = 2.99E+03
