 LCModel (Version 6.3-1L) Copyright: S.W. Provencher.          Ref.: Magn. Reson. Med. 30:672-679 (1993).                
 Slice#2 Row#4 Col#14  PD_05_press_1_raw_act
 36 lines in following concentration table = NCONC+1
    Conc.  %SD /Cr+PCr  Metabolite                                         
 2.28E+03  28% 107.585 Ala                                                 
    4.683  53%   0.221 Asp                                                 
    0.000 999%   0.000 Cr                                                  
   21.176 138%   1.000 PCr                                                 
    2.806  54%   0.132 GABA                                                
    2.805  54%   0.132 Glc                                                 
    0.000 999%   0.000 Gln                                                 
 1.03E+03  35%  48.869 Glu                                                 
    0.000 999%   0.000 GPC                                                 
   24.141  44%   1.140 PCh                                                 
   46.460 116%   2.194 GSH                                                 
    0.000 999%   0.000 Ins                                                 
  331.020 173%  15.632 Lac                                                 
    0.000 999%   0.000 NAA                                                 
    0.000 999%   0.000 NAAG                                                
    0.939  53% 4.4E-02 Scyllo                                              
    4.674  54%   0.221 Tau                                                 
    2.125 145%   0.100 -CrCH2                                              
   24.141  44%   1.140 GPC+PCh                                             
    0.000 999%   0.000 NAA+NAAG                                            
   21.176 138%   1.000 Cr+PCr                                              
 1.03E+03  35%  48.869 Glu+Gln                                             
 7.78E+03  12% 367.512 Lip13a                                              
    0.000 999%   0.000 Lip13b                                              
 3.60E+03   8% 169.812 Lip09                                               
 2.52E+03   8% 118.907 MM09                                                
    0.000 999%   0.000 Lip20                                               
    0.000 999%   0.000 MM20                                                
 2.09E+03  16%  98.560 MM12                                                
 8.36E+03   9% 394.946 MM14                                                
 8.17E+03   7% 385.825+MM17                                                
 7.78E+03  12% 367.512 Lip13a+Lip13b                                       
 1.82E+04   5% 861.018 MM14+Lip13a+Lip13b+MM12                             
 6.11E+03   5% 288.719 MM09+Lip09                                          
    0.000 999%   0.000 MM20+Lip20                                          
   6 lines in following misc. output table
  FWHM = 0.153 ppm    S/N =  25                                            
  Data shift = 0.168 ppm                                                   
  Ph: 145 deg      31.0 deg/ppm                                            
  alphaB,S = 8.5E+01,   2.0E+02                                            
    6 spline knots.   Ns = 9(2)                                            
   2 inflections.     1 extrema                                            
  498 points on ppm-axis = NY
      4.000000     3.992357     3.984714     3.977070     3.969427     3.961784     3.954141     3.946497     3.938854     3.931211
      3.923568     3.915925     3.908281     3.900638     3.892995     3.885352     3.877708     3.870065     3.862422     3.854779
      3.847136     3.839492     3.831849     3.824206     3.816563     3.808919     3.801276     3.793633     3.785990     3.778347
      3.770703     3.763060     3.755417     3.747774     3.740130     3.732487     3.724844     3.717201     3.709558     3.701914
      3.694271     3.686628     3.678985     3.671341     3.663698     3.656055     3.648412     3.640769     3.633125     3.625482
      3.617839     3.610196     3.602552     3.594909     3.587266     3.579623     3.571980     3.564336     3.556693     3.549050
      3.541407     3.533763     3.526120     3.518477     3.510834     3.503191     3.495547     3.487904     3.480261     3.472618
      3.464974     3.457331     3.449688     3.442045     3.434402     3.426758     3.419115     3.411472     3.403829     3.396185
      3.388542     3.380899     3.373256     3.365613     3.357969     3.350326     3.342683     3.335040     3.327396     3.319753
      3.312110     3.304467     3.296824     3.289180     3.281537     3.273894     3.266251     3.258607     3.250964     3.243321
      3.235678     3.228034     3.220391     3.212748     3.205105     3.197462     3.189818     3.182175     3.174532     3.166889
      3.159245     3.151602     3.143959     3.136316     3.128673     3.121029     3.113386     3.105743     3.098100     3.090456
      3.082813     3.075170     3.067527     3.059884     3.052240     3.044597     3.036954     3.029311     3.021667     3.014024
      3.006381     2.998738     2.991095     2.983451     2.975808     2.968165     2.960522     2.952878     2.945235     2.937592
      2.929949     2.922306     2.914662     2.907019     2.899376     2.891733     2.884089     2.876446     2.868803     2.861160
      2.853517     2.845873     2.838230     2.830587     2.822944     2.815300     2.807657     2.800014     2.792371     2.784728
      2.777084     2.769441     2.761798     2.754155     2.746511     2.738868     2.731225     2.723582     2.715939     2.708295
      2.700652     2.693009     2.685366     2.677722     2.670079     2.662436     2.654793     2.647150     2.639506     2.631863
      2.624220     2.616577     2.608933     2.601290     2.593647     2.586004     2.578361     2.570717     2.563074     2.555431
      2.547788     2.540144     2.532501     2.524858     2.517215     2.509572     2.501928     2.494285     2.486642     2.478999
      2.471355     2.463712     2.456069     2.448426     2.440783     2.433139     2.425496     2.417853     2.410210     2.402566
      2.394923     2.387280     2.379637     2.371994     2.364350     2.356707     2.349064     2.341421     2.333777     2.326134
      2.318491     2.310848     2.303205     2.295561     2.287918     2.280275     2.272632     2.264988     2.257345     2.249702
      2.242059     2.234416     2.226772     2.219129     2.211486     2.203843     2.196199     2.188556     2.180913     2.173270
      2.165627     2.157983     2.150340     2.142697     2.135054     2.127410     2.119767     2.112124     2.104481     2.096838
      2.089194     2.081551     2.073908     2.066265     2.058621     2.050978     2.043335     2.035692     2.028049     2.020405
      2.012762     2.005119     1.997476     1.989833     1.982190     1.974546     1.966903     1.959260     1.951617     1.943974
      1.936331     1.928688     1.921045     1.913402     1.905759     1.898115     1.890472     1.882829     1.875186     1.867543
      1.859900     1.852257     1.844614     1.836971     1.829327     1.821684     1.814041     1.806398     1.798755     1.791112
      1.783469     1.775826     1.768183     1.760540     1.752896     1.745253     1.737610     1.729967     1.722324     1.714681
      1.707038     1.699395     1.691752     1.684108     1.676465     1.668822     1.661179     1.653536     1.645893     1.638250
      1.630607     1.622964     1.615321     1.607677     1.600034     1.592391     1.584748     1.577105     1.569462     1.561819
      1.554176     1.546533     1.538890     1.531246     1.523603     1.515960     1.508317     1.500674     1.493031     1.485388
      1.477745     1.470102     1.462458     1.454815     1.447172     1.439529     1.431886     1.424243     1.416600     1.408957
      1.401314     1.393671     1.386027     1.378384     1.370741     1.363098     1.355455     1.347812     1.340169     1.332526
      1.324883     1.317240     1.309596     1.301953     1.294310     1.286667     1.279024     1.271381     1.263738     1.256095
      1.248452     1.240808     1.233165     1.225522     1.217879     1.210236     1.202593     1.194950     1.187307     1.179664
      1.172021     1.164377     1.156734     1.149091     1.141448     1.133805     1.126162     1.118519     1.110876     1.103233
      1.095590     1.087946     1.080303     1.072660     1.065017     1.057374     1.049731     1.042088     1.034445     1.026802
      1.019158     1.011515     1.003872     0.996229     0.988586     0.980943     0.973300     0.965657     0.958014     0.950371
      0.942727     0.935084     0.927441     0.919798     0.912155     0.904512     0.896869     0.889226     0.881583     0.873940
      0.866296     0.858653     0.851010     0.843367     0.835724     0.828081     0.820438     0.812795     0.805152     0.797508
      0.789865     0.782222     0.774579     0.766936     0.759293     0.751650     0.744007     0.736364     0.728721     0.721077
      0.713434     0.705791     0.698148     0.690505     0.682862     0.675219     0.667576     0.659933     0.652290     0.644646
      0.637003     0.629360     0.621717     0.614074     0.606431     0.598788     0.591145     0.583502     0.575858     0.568215
      0.560572     0.552929     0.545286     0.537643     0.530000     0.522357     0.514714     0.507071     0.499427     0.491784
      0.484141     0.476498     0.468855     0.461212     0.453569     0.445925     0.438282     0.430639     0.422996     0.415353
      0.407710     0.400067     0.392424     0.384780     0.377137     0.369494     0.361851     0.354208     0.346565     0.338922
      0.331278     0.323635     0.315992     0.308349     0.300706     0.293063     0.285420     0.277777     0.270133     0.262490
      0.254847     0.247204     0.239561     0.231918     0.224275     0.216631     0.208988     0.201345
 NY phased data points follow
  -5.43318E+00 -1.74777E+00 -5.31252E+00 -3.93692E+00 -4.25161E+00 -4.42823E+00 -3.55917E+00 -2.50283E+00 -4.62646E+00 -3.64900E+00
  -5.12606E+00 -3.29696E+00 -3.28921E+00 -2.52829E+00 -3.29061E+00 -3.25433E+00 -1.44957E+00 -4.49530E+00 -3.86355E+00 -4.84387E+00
  -3.31865E+00 -3.14630E+00 -4.49861E+00 -1.76035E+00 -4.74347E+00 -3.25996E+00 -2.10433E+00 -3.45088E+00 -4.28585E+00 -2.72771E+00
  -2.79546E+00 -2.37038E+00 -4.01730E+00 -3.54829E+00 -4.91257E+00 -2.75819E+00 -3.01337E+00 -3.31516E+00 -2.51814E+00 -3.29091E+00
  -5.54259E+00 -4.11023E+00 -4.26275E+00 -3.31102E+00 -4.44644E+00 -6.04655E+00 -6.10994E+00 -3.96390E+00 -2.64110E+00 -5.32874E+00
  -3.56377E+00 -5.29718E+00 -3.30843E+00 -6.39164E+00 -3.02948E+00 -3.45059E+00 -2.75442E+00 -4.72680E+00 -4.43818E+00 -3.72266E+00
  -4.22902E+00 -3.70678E+00 -4.19567E+00 -4.39421E+00 -4.70107E+00 -6.26190E+00 -7.79585E+00 -6.43213E+00 -5.94383E+00 -4.91624E+00
  -5.47159E+00 -3.63784E+00 -4.06248E+00 -6.07079E+00 -4.01871E+00 -5.87344E+00 -2.62888E+00 -3.01877E+00 -4.89425E+00 -4.69485E+00
  -6.10912E+00 -3.54550E+00 -3.95607E+00 -4.07550E+00 -2.64053E+00 -3.47318E+00 -2.23984E+00 -2.97271E+00 -4.19116E+00 -3.92771E+00
  -4.42382E+00 -4.65521E+00 -3.43079E+00 -4.52665E+00 -6.67083E+00 -7.22776E+00 -2.47019E+00 -3.69674E+00 -2.10453E+00 -3.42274E+00
  -4.69047E+00 -3.81546E+00 -4.60638E+00 -4.57019E+00 -4.05249E+00 -3.93420E+00 -3.75835E+00 -4.01341E+00 -2.73449E+00 -5.28639E+00
  -1.61246E+00 -4.93314E+00 -4.17047E+00 -1.84285E+00 -3.87378E+00 -2.14278E+00 -4.22534E+00 -5.10872E+00 -3.28506E+00 -4.07587E+00
  -3.64717E+00 -4.17590E+00 -3.42094E+00 -6.82543E+00 -4.83901E+00 -4.94735E+00 -4.52735E+00 -4.06451E+00 -4.20395E+00 -5.35457E+00
  -5.00922E+00 -2.75906E+00 -6.44048E+00 -4.32551E+00 -4.74383E+00 -5.27230E+00 -2.94304E+00 -4.36475E+00 -5.40304E+00 -4.33897E+00
  -6.04547E+00 -2.90500E+00 -5.72420E+00 -5.50160E+00 -5.09295E+00 -2.56737E+00 -5.32532E+00 -2.73310E+00 -2.70606E+00 -5.11305E+00
  -4.92371E+00 -5.09716E+00 -7.01460E+00 -4.50167E+00 -3.77812E+00 -4.97568E+00 -5.76852E+00 -6.26023E+00 -5.67894E+00 -6.14437E+00
  -6.15986E+00 -5.93720E+00 -6.23881E+00 -3.61888E+00 -3.19924E+00 -5.07057E+00 -5.32491E+00 -4.03480E+00 -4.84913E+00 -4.54308E+00
  -2.48573E+00 -3.89494E+00 -4.68555E+00 -4.51275E+00 -4.41114E+00 -4.23132E+00 -4.47118E+00 -3.93055E+00 -5.31010E+00 -4.77498E+00
  -3.56881E+00 -6.05130E+00 -3.58168E+00 -2.88690E+00 -5.10835E+00 -2.34967E+00 -3.48612E+00 -5.07394E+00 -5.24236E+00 -5.06760E+00
  -5.43108E+00 -4.89882E+00 -2.51583E+00 -3.92867E+00 -2.65049E+00 -3.00426E+00 -7.24063E+00 -4.12261E+00 -4.08708E+00 -3.58291E+00
  -2.91712E+00 -4.13231E+00 -4.15631E+00 -2.82962E+00 -5.85598E+00 -4.05723E+00 -5.18006E+00 -7.16361E+00 -4.10580E+00 -3.27578E+00
  -4.77198E+00 -4.27082E+00 -6.29169E+00 -5.09584E+00 -5.71708E+00 -4.86156E+00 -5.38410E+00 -3.92783E+00 -6.72572E+00 -5.91303E+00
  -5.55908E+00 -3.58611E+00 -6.15087E+00 -3.74094E+00 -6.65617E+00 -4.40386E+00 -4.25390E+00 -5.55065E+00 -5.73939E+00 -4.14695E+00
  -4.91846E+00 -4.62299E+00 -4.89843E+00 -3.98336E+00 -3.01201E+00 -2.53435E+00 -2.10226E+00 -4.16170E+00 -3.76557E+00 -2.10938E+00
  -3.18927E+00 -1.90698E+00 -2.20691E+00 -4.48065E+00 -4.13705E+00 -5.46514E+00 -3.07490E+00 -6.22469E+00 -4.85753E+00 -5.53465E+00
  -5.46723E+00 -3.89947E+00 -5.04616E+00 -5.28024E+00 -3.33787E+00 -4.40428E+00 -3.62560E+00 -3.33719E+00 -2.87031E+00 -3.58120E+00
  -1.93423E+00 -2.73731E+00 -2.99353E+00 -3.56844E+00 -1.69000E+00 -1.86460E+00 -4.45980E-01 -3.39316E-01  8.46803E-01 -2.05097E+00
   6.17975E-01  5.09762E-01  5.95568E-01  1.41169E+00  1.24877E+00  1.38615E+00  2.74685E+00  2.24191E+00  1.52727E+00  1.41940E+00
   3.67739E+00  4.55342E+00  4.95890E+00  5.71352E+00  6.90209E+00  7.37434E+00  7.38599E+00  9.51296E+00  1.14848E+01  1.18199E+01
   1.43811E+01  1.50942E+01  1.71212E+01  1.79826E+01  2.06934E+01  2.28864E+01  2.65872E+01  2.74599E+01  3.02446E+01  3.28470E+01
   3.53482E+01  3.81266E+01  4.11951E+01  4.54558E+01  4.52227E+01  4.71252E+01  5.07054E+01  5.25881E+01  5.42618E+01  5.65019E+01
   5.93276E+01  6.14813E+01  6.26612E+01  6.15983E+01  6.34269E+01  6.27218E+01  6.48899E+01  6.31599E+01  6.29196E+01  6.30245E+01
   6.13366E+01  6.01927E+01  6.03870E+01  5.94667E+01  5.74797E+01  5.74348E+01  5.65750E+01  5.47597E+01  5.28002E+01  5.27831E+01
   5.05428E+01  4.97249E+01  4.84796E+01  4.78559E+01  4.53090E+01  4.57006E+01  4.41583E+01  4.21599E+01  4.13709E+01  4.11656E+01
   3.94257E+01  4.01076E+01  3.76756E+01  3.62078E+01  3.50809E+01  3.53578E+01  3.38518E+01  3.33586E+01  3.38600E+01  3.34704E+01
   3.20085E+01  3.17393E+01  3.09089E+01  3.10128E+01  3.31973E+01  3.32881E+01  3.04056E+01  3.18460E+01  3.37813E+01  3.24460E+01
   3.35812E+01  3.29257E+01  3.25434E+01  3.23218E+01  3.21694E+01  3.32649E+01  3.35335E+01  3.44706E+01  3.42249E+01  3.09455E+01
   3.47801E+01  3.25781E+01  3.12945E+01  3.12674E+01  3.00313E+01  3.16773E+01  2.93913E+01  3.12833E+01  2.87165E+01  2.89350E+01
   2.82809E+01  2.95313E+01  2.88621E+01  2.83228E+01  2.64109E+01  2.53588E+01  2.62545E+01  2.61856E+01  2.64037E+01  2.26462E+01
   2.41029E+01  2.13447E+01  2.20584E+01  2.27376E+01  1.85150E+01  2.19557E+01  2.12013E+01  2.09180E+01  1.98141E+01  1.92746E+01
   2.06257E+01  1.67391E+01  1.83751E+01  1.69671E+01  1.76393E+01  1.65557E+01  1.70825E+01  1.52294E+01  1.43141E+01  1.28818E+01
   1.49810E+01  1.41293E+01  1.18077E+01  1.31467E+01  1.18994E+01  1.22771E+01  1.10755E+01  9.42628E+00  9.90664E+00  8.76051E+00
   9.01885E+00  7.33948E+00  8.64324E+00  5.99241E+00  6.47275E+00  5.24012E+00  4.86823E+00  6.02855E+00  5.71245E+00  4.61521E+00
   6.34770E+00  5.51795E+00  1.99322E+00  5.54929E+00  3.21203E+00  4.38487E+00  3.69169E+00  2.65441E+00  2.42496E+00  3.00132E+00
   2.82651E+00  2.06935E+00  2.23719E+00 -8.49958E-01 -3.42982E-01  7.48034E-02 -1.18072E-02  3.98986E-01 -4.31088E-01 -1.07063E+00
  -9.17402E-01 -2.65159E+00 -1.52004E+00 -2.76225E+00 -2.31508E+00 -2.69477E+00 -4.12863E+00 -2.08295E+00 -2.79629E+00 -1.33166E+00
  -4.56504E+00 -4.81756E+00 -4.82673E+00 -3.08190E+00 -3.80923E+00 -3.64593E+00 -4.67381E+00 -4.54345E+00 -5.78059E+00 -4.15905E+00
  -5.36212E+00 -5.26124E+00 -5.58287E+00 -6.29094E+00 -5.84375E+00 -6.67978E+00 -5.52537E+00 -6.85374E+00 -4.75798E+00 -6.50670E+00
  -6.48673E+00 -5.77777E+00 -7.29030E+00 -7.88114E+00 -8.05248E+00 -5.73702E+00 -7.77398E+00 -7.95458E+00 -7.90182E+00 -9.16775E+00
  -4.37294E+00 -6.63105E+00 -7.99734E+00 -9.28051E+00 -6.84139E+00 -7.69812E+00 -7.51214E+00 -6.26911E+00
 NY points of the fit to the data follow
  -3.80256E+00 -3.71529E+00 -3.86000E+00 -3.75572E+00 -3.88992E+00 -3.73489E+00 -3.82349E+00 -3.56512E+00 -3.67603E+00 -3.33978E+00
  -3.56122E+00 -3.19574E+00 -3.54706E+00 -3.18416E+00 -3.68005E+00 -3.22819E+00 -3.78869E+00 -3.22724E+00 -3.82458E+00 -3.18965E+00
  -3.81445E+00 -3.13673E+00 -3.78262E+00 -3.10276E+00 -3.72845E+00 -3.09811E+00 -3.68566E+00 -3.15004E+00 -3.67993E+00 -3.24216E+00
  -3.67252E+00 -3.33510E+00 -3.63565E+00 -3.38597E+00 -3.55496E+00 -3.40695E+00 -3.49803E+00 -3.45526E+00 -3.50273E+00 -3.58102E+00
  -3.61735E+00 -3.76467E+00 -3.74570E+00 -3.89337E+00 -3.83297E+00 -3.96170E+00 -3.87072E+00 -3.97151E+00 -3.91428E+00 -4.04159E+00
  -4.03668E+00 -4.14698E+00 -4.14364E+00 -4.23825E+00 -4.24154E+00 -4.27262E+00 -4.25024E+00 -4.25947E+00 -4.25289E+00 -4.26038E+00
  -4.26820E+00 -4.28026E+00 -4.30031E+00 -4.31599E+00 -4.33400E+00 -4.34821E+00 -4.36356E+00 -4.37651E+00 -4.38891E+00 -4.40088E+00
  -4.41072E+00 -4.42209E+00 -4.42992E+00 -4.44100E+00 -4.44713E+00 -4.45779E+00 -4.46291E+00 -4.47343E+00 -4.47809E+00 -4.48843E+00
  -4.49266E+00 -4.50220E+00 -4.50576E+00 -4.51306E+00 -4.51176E+00 -4.49432E+00 -4.46319E+00 -4.43248E+00 -4.36629E+00 -4.34081E+00
  -4.24216E+00 -4.23162E+00 -4.10119E+00 -4.11407E+00 -3.95542E+00 -4.00314E+00 -3.82699E+00 -3.91387E+00 -3.73066E+00 -3.85316E+00
  -3.67087E+00 -3.82755E+00 -3.65787E+00 -3.84149E+00 -3.69287E+00 -3.89530E+00 -3.77532E+00 -3.98313E+00 -3.89038E+00 -4.08255E+00
  -4.02120E+00 -4.17988E+00 -4.14730E+00 -4.26283E+00 -4.25185E+00 -4.32048E+00 -4.32609E+00 -4.35709E+00 -4.38209E+00 -4.38767E+00
  -4.43274E+00 -4.41182E+00 -4.46517E+00 -4.42898E+00 -4.48660E+00 -4.43850E+00 -4.49025E+00 -4.45165E+00 -4.50297E+00 -4.47791E+00
  -4.52539E+00 -4.51566E+00 -4.55712E+00 -4.56307E+00 -4.59588E+00 -4.61435E+00 -4.63725E+00 -4.66392E+00 -4.67748E+00 -4.70888E+00
  -4.71532E+00 -4.74907E+00 -4.75069E+00 -4.78529E+00 -4.78245E+00 -4.81454E+00 -4.81112E+00 -4.84083E+00 -4.83752E+00 -4.86083E+00
  -4.86073E+00 -4.87889E+00 -4.88057E+00 -4.89463E+00 -4.89767E+00 -4.90764E+00 -4.91174E+00 -4.91973E+00 -4.92525E+00 -4.93095E+00
  -4.93684E+00 -4.94016E+00 -4.94541E+00 -4.94702E+00 -4.95124E+00 -4.95274E+00 -4.95628E+00 -4.95898E+00 -4.96206E+00 -4.96660E+00
  -4.96891E+00 -4.97424E+00 -4.97376E+00 -4.97801E+00 -4.97301E+00 -4.97585E+00 -4.96705E+00 -4.96889E+00 -4.95760E+00 -4.95972E+00
  -4.94760E+00 -4.94657E+00 -4.93341E+00 -4.92660E+00 -4.91212E+00 -4.89752E+00 -4.88006E+00 -4.85312E+00 -4.82711E+00 -4.79050E+00
  -4.76726E+00 -4.71562E+00 -4.72813E+00 -4.66233E+00 -4.72545E+00 -4.63853E+00 -4.73669E+00 -4.59722E+00 -4.66533E+00 -4.44682E+00
  -4.51397E+00 -4.23115E+00 -4.34205E+00 -4.03311E+00 -4.24974E+00 -3.97536E+00 -4.29623E+00 -4.03521E+00 -4.44409E+00 -4.17310E+00
  -4.64315E+00 -4.35963E+00 -4.85124E+00 -4.55791E+00 -5.04745E+00 -4.73963E+00 -5.20160E+00 -4.88087E+00 -5.30516E+00 -4.97995E+00
  -5.35119E+00 -5.01917E+00 -5.33227E+00 -5.00808E+00 -5.22807E+00 -4.93023E+00 -5.03727E+00 -4.76510E+00 -4.76571E+00 -4.54706E+00
  -4.47769E+00 -4.34324E+00 -4.24228E+00 -4.20991E+00 -4.06671E+00 -4.10674E+00 -3.92141E+00 -3.99931E+00 -3.75838E+00 -3.86674E+00
  -3.64961E+00 -3.80746E+00 -3.60542E+00 -3.77551E+00 -3.58913E+00 -3.75056E+00 -3.54629E+00 -3.65277E+00 -3.44711E+00 -3.49475E+00
  -3.30346E+00 -3.29764E+00 -3.13050E+00 -3.07942E+00 -2.94607E+00 -2.84705E+00 -2.73648E+00 -2.58433E+00 -2.49266E+00 -2.29774E+00
  -2.22419E+00 -2.00174E+00 -1.94573E+00 -1.70083E+00 -1.64439E+00 -1.38298E+00 -1.31166E+00 -1.02574E+00 -9.30979E-01 -6.33669E-01
  -5.04635E-01 -1.88311E-01 -1.05851E-02  3.26884E-01  5.69808E-01  9.48782E-01  1.26999E+00  1.70306E+00  2.11872E+00  2.62918E+00
   3.15410E+00  3.76576E+00  4.43591E+00  5.18833E+00  6.03165E+00  6.96398E+00  8.01671E+00  9.16814E+00  1.04574E+01  1.18645E+01
   1.34195E+01  1.51054E+01  1.69433E+01  1.89145E+01  2.10283E+01  2.32653E+01  2.56226E+01  2.80746E+01  3.06063E+01  3.31885E+01
   3.57987E+01  3.84056E+01  4.09830E+01  4.35023E+01  4.59428E+01  4.82850E+01  5.05246E+01  5.26742E+01  5.48027E+01  5.69331E+01
   5.86065E+01  6.04755E+01  6.14342E+01  6.28526E+01  6.30045E+01  6.38719E+01  6.31156E+01  6.37649E+01  6.24012E+01  6.29027E+01
   6.11723E+01  6.14821E+01  5.95326E+01  5.96719E+01  5.76111E+01  5.75472E+01  5.55331E+01  5.52019E+01  5.33109E+01  5.26827E+01
   5.09376E+01  5.00472E+01  4.85220E+01  4.73803E+01  4.61438E+01  4.48668E+01  4.39041E+01  4.26092E+01  4.18105E+01  4.05249E+01
   3.97720E+01  3.84646E+01  3.76854E+01  3.64835E+01  3.57823E+01  3.49075E+01  3.42741E+01  3.37202E+01  3.32525E+01  3.30360E+01
   3.25619E+01  3.24324E+01  3.19739E+01  3.20519E+01  3.17386E+01  3.19586E+01  3.17602E+01  3.22120E+01  3.22271E+01  3.27096E+01
   3.27882E+01  3.31846E+01  3.32488E+01  3.35065E+01  3.35175E+01  3.36306E+01  3.35418E+01  3.34908E+01  3.32924E+01  3.30894E+01
   3.27552E+01  3.23827E+01  3.19439E+01  3.14739E+01  3.09771E+01  3.04537E+01  2.99431E+01  2.94456E+01  2.89645E+01  2.85041E+01
   2.80673E+01  2.76549E+01  2.72653E+01  2.68953E+01  2.65396E+01  2.61917E+01  2.58442E+01  2.54897E+01  2.51208E+01  2.47312E+01
   2.43157E+01  2.38707E+01  2.33942E+01  2.28864E+01  2.23488E+01  2.17847E+01  2.11987E+01  2.05962E+01  1.99833E+01  1.93664E+01
   1.87515E+01  1.81443E+01  1.75497E+01  1.69718E+01  1.64135E+01  1.58767E+01  1.53622E+01  1.48697E+01  1.43981E+01  1.39457E+01
   1.35098E+01  1.30878E+01  1.26766E+01  1.22731E+01  1.18741E+01  1.14771E+01  1.10794E+01  1.06789E+01  1.02738E+01  9.86311E+00
   9.44584E+00  9.02178E+00  8.59090E+00  8.15376E+00  7.71102E+00  7.26382E+00  6.81330E+00  6.36096E+00  5.90819E+00  5.45663E+00
   5.00770E+00  4.56302E+00  4.12386E+00  3.69167E+00  3.26751E+00  2.85255E+00  2.44757E+00  2.05345E+00  1.67068E+00  1.29984E+00
   9.41138E-01  5.94911E-01  2.61124E-01 -6.01017E-02 -3.68990E-01 -6.65588E-01 -9.50254E-01 -1.22315E+00 -1.48473E+00 -1.73523E+00
  -1.97516E+00 -2.20480E+00 -2.42468E+00 -2.63510E+00 -2.83659E+00 -3.02944E+00 -3.21418E+00 -3.39107E+00 -3.56062E+00 -3.72307E+00
  -3.87891E+00 -4.02835E+00 -4.17182E+00 -4.30954E+00 -4.44190E+00 -4.56907E+00 -4.69143E+00 -4.80911E+00 -4.92247E+00 -5.03162E+00
  -5.13688E+00 -5.23834E+00 -5.33631E+00 -5.43083E+00 -5.52221E+00 -5.61047E+00 -5.69590E+00 -5.77850E+00 -5.85853E+00 -5.93601E+00
  -6.01115E+00 -6.08397E+00 -6.15467E+00 -6.22325E+00 -6.28990E+00 -6.35462E+00 -6.41758E+00 -6.47876E+00 -6.53834E+00 -6.59628E+00
  -6.65276E+00 -6.70772E+00 -6.76133E+00 -6.81354E+00 -6.86449E+00 -6.91412E+00 -6.96258E+00 -7.00978E+00
 NY background values follow
    -4.220E+00   -4.228E+00   -4.236E+00   -4.244E+00   -4.252E+00   -4.260E+00   -4.268E+00   -4.276E+00   -4.283E+00   -4.291E+00
    -4.299E+00   -4.307E+00   -4.315E+00   -4.323E+00   -4.331E+00   -4.338E+00   -4.346E+00   -4.354E+00   -4.362E+00   -4.370E+00
    -4.378E+00   -4.386E+00   -4.394E+00   -4.401E+00   -4.409E+00   -4.417E+00   -4.425E+00   -4.433E+00   -4.441E+00   -4.449E+00
    -4.456E+00   -4.464E+00   -4.472E+00   -4.480E+00   -4.488E+00   -4.496E+00   -4.504E+00   -4.512E+00   -4.519E+00   -4.527E+00
    -4.535E+00   -4.543E+00   -4.551E+00   -4.559E+00   -4.567E+00   -4.575E+00   -4.582E+00   -4.590E+00   -4.598E+00   -4.606E+00
    -4.614E+00   -4.622E+00   -4.630E+00   -4.638E+00   -4.646E+00   -4.654E+00   -4.661E+00   -4.669E+00   -4.677E+00   -4.685E+00
    -4.693E+00   -4.701E+00   -4.709E+00   -4.717E+00   -4.725E+00   -4.733E+00   -4.741E+00   -4.749E+00   -4.757E+00   -4.765E+00
    -4.773E+00   -4.781E+00   -4.789E+00   -4.797E+00   -4.805E+00   -4.813E+00   -4.821E+00   -4.829E+00   -4.837E+00   -4.845E+00
    -4.853E+00   -4.861E+00   -4.869E+00   -4.877E+00   -4.885E+00   -4.893E+00   -4.901E+00   -4.909E+00   -4.917E+00   -4.925E+00
    -4.933E+00   -4.941E+00   -4.949E+00   -4.957E+00   -4.965E+00   -4.973E+00   -4.982E+00   -4.990E+00   -4.998E+00   -5.006E+00
    -5.014E+00   -5.022E+00   -5.030E+00   -5.038E+00   -5.047E+00   -5.055E+00   -5.063E+00   -5.071E+00   -5.079E+00   -5.087E+00
    -5.096E+00   -5.104E+00   -5.112E+00   -5.120E+00   -5.129E+00   -5.137E+00   -5.145E+00   -5.153E+00   -5.162E+00   -5.170E+00
    -5.178E+00   -5.186E+00   -5.195E+00   -5.203E+00   -5.211E+00   -5.220E+00   -5.228E+00   -5.236E+00   -5.245E+00   -5.253E+00
    -5.261E+00   -5.270E+00   -5.278E+00   -5.287E+00   -5.295E+00   -5.303E+00   -5.312E+00   -5.320E+00   -5.329E+00   -5.337E+00
    -5.346E+00   -5.354E+00   -5.362E+00   -5.371E+00   -5.379E+00   -5.388E+00   -5.396E+00   -5.405E+00   -5.414E+00   -5.422E+00
    -5.431E+00   -5.439E+00   -5.448E+00   -5.456E+00   -5.465E+00   -5.474E+00   -5.482E+00   -5.491E+00   -5.500E+00   -5.508E+00
    -5.517E+00   -5.526E+00   -5.534E+00   -5.543E+00   -5.552E+00   -5.560E+00   -5.569E+00   -5.578E+00   -5.587E+00   -5.596E+00
    -5.604E+00   -5.613E+00   -5.622E+00   -5.631E+00   -5.640E+00   -5.648E+00   -5.657E+00   -5.666E+00   -5.675E+00   -5.684E+00
    -5.693E+00   -5.702E+00   -5.711E+00   -5.720E+00   -5.729E+00   -5.738E+00   -5.747E+00   -5.756E+00   -5.765E+00   -5.774E+00
    -5.783E+00   -5.792E+00   -5.801E+00   -5.810E+00   -5.819E+00   -5.828E+00   -5.837E+00   -5.846E+00   -5.855E+00   -5.864E+00
    -5.874E+00   -5.883E+00   -5.892E+00   -5.901E+00   -5.910E+00   -5.919E+00   -5.929E+00   -5.938E+00   -5.947E+00   -5.956E+00
    -5.966E+00   -5.975E+00   -5.984E+00   -5.993E+00   -6.003E+00   -6.012E+00   -6.021E+00   -6.031E+00   -6.040E+00   -6.049E+00
    -6.059E+00   -6.068E+00   -6.077E+00   -6.087E+00   -6.096E+00   -6.105E+00   -6.115E+00   -6.124E+00   -6.134E+00   -6.143E+00
    -6.153E+00   -6.162E+00   -6.172E+00   -6.181E+00   -6.190E+00   -6.200E+00   -6.209E+00   -6.219E+00   -6.229E+00   -6.238E+00
    -6.248E+00   -6.257E+00   -6.267E+00   -6.276E+00   -6.286E+00   -6.295E+00   -6.305E+00   -6.315E+00   -6.324E+00   -6.334E+00
    -6.344E+00   -6.353E+00   -6.363E+00   -6.373E+00   -6.382E+00   -6.392E+00   -6.402E+00   -6.411E+00   -6.421E+00   -6.431E+00
    -6.441E+00   -6.450E+00   -6.460E+00   -6.470E+00   -6.480E+00   -6.489E+00   -6.499E+00   -6.509E+00   -6.519E+00   -6.529E+00
    -6.538E+00   -6.548E+00   -6.558E+00   -6.568E+00   -6.578E+00   -6.588E+00   -6.597E+00   -6.607E+00   -6.617E+00   -6.627E+00
    -6.637E+00   -6.647E+00   -6.657E+00   -6.667E+00   -6.677E+00   -6.687E+00   -6.697E+00   -6.707E+00   -6.716E+00   -6.726E+00
    -6.736E+00   -6.746E+00   -6.756E+00   -6.766E+00   -6.776E+00   -6.786E+00   -6.797E+00   -6.807E+00   -6.817E+00   -6.827E+00
    -6.837E+00   -6.847E+00   -6.857E+00   -6.867E+00   -6.877E+00   -6.887E+00   -6.897E+00   -6.907E+00   -6.917E+00   -6.928E+00
    -6.938E+00   -6.948E+00   -6.958E+00   -6.968E+00   -6.978E+00   -6.989E+00   -6.999E+00   -7.009E+00   -7.019E+00   -7.029E+00
    -7.039E+00   -7.050E+00   -7.060E+00   -7.070E+00   -7.080E+00   -7.091E+00   -7.101E+00   -7.111E+00   -7.121E+00   -7.132E+00
    -7.142E+00   -7.152E+00   -7.162E+00   -7.173E+00   -7.183E+00   -7.193E+00   -7.204E+00   -7.214E+00   -7.224E+00   -7.235E+00
    -7.245E+00   -7.255E+00   -7.266E+00   -7.276E+00   -7.286E+00   -7.297E+00   -7.307E+00   -7.317E+00   -7.328E+00   -7.338E+00
    -7.349E+00   -7.359E+00   -7.369E+00   -7.380E+00   -7.390E+00   -7.401E+00   -7.411E+00   -7.422E+00   -7.432E+00   -7.443E+00
    -7.453E+00   -7.463E+00   -7.474E+00   -7.484E+00   -7.495E+00   -7.505E+00   -7.516E+00   -7.526E+00   -7.537E+00   -7.547E+00
    -7.558E+00   -7.568E+00   -7.579E+00   -7.589E+00   -7.600E+00   -7.611E+00   -7.621E+00   -7.632E+00   -7.642E+00   -7.653E+00
    -7.663E+00   -7.674E+00   -7.684E+00   -7.695E+00   -7.706E+00   -7.716E+00   -7.727E+00   -7.737E+00   -7.748E+00   -7.759E+00
    -7.769E+00   -7.780E+00   -7.791E+00   -7.801E+00   -7.812E+00   -7.823E+00   -7.833E+00   -7.844E+00   -7.855E+00   -7.865E+00
    -7.876E+00   -7.887E+00   -7.897E+00   -7.908E+00   -7.919E+00   -7.929E+00   -7.940E+00   -7.951E+00   -7.961E+00   -7.972E+00
    -7.983E+00   -7.994E+00   -8.004E+00   -8.015E+00   -8.026E+00   -8.037E+00   -8.047E+00   -8.058E+00   -8.069E+00   -8.080E+00
    -8.090E+00   -8.101E+00   -8.112E+00   -8.123E+00   -8.133E+00   -8.144E+00   -8.155E+00   -8.166E+00   -8.177E+00   -8.188E+00
    -8.198E+00   -8.209E+00   -8.220E+00   -8.231E+00   -8.242E+00   -8.252E+00   -8.263E+00   -8.274E+00   -8.285E+00   -8.296E+00
    -8.307E+00   -8.318E+00   -8.328E+00   -8.339E+00   -8.350E+00   -8.361E+00   -8.372E+00   -8.383E+00   -8.394E+00   -8.405E+00
    -8.416E+00   -8.426E+00   -8.437E+00   -8.448E+00   -8.459E+00   -8.470E+00   -8.481E+00   -8.492E+00   -8.503E+00   -8.514E+00
    -8.525E+00   -8.536E+00   -8.547E+00   -8.558E+00   -8.568E+00   -8.579E+00   -8.590E+00   -8.601E+00   -8.612E+00   -8.623E+00
    -8.634E+00   -8.645E+00   -8.656E+00   -8.667E+00   -8.678E+00   -8.689E+00   -8.700E+00   -8.711E+00   -8.722E+00   -8.733E+00
    -8.744E+00   -8.755E+00   -8.766E+00   -8.777E+00   -8.788E+00   -8.799E+00   -8.810E+00   -8.821E+00   -8.832E+00   -8.843E+00
    -8.854E+00   -8.865E+00   -8.876E+00   -8.888E+00   -8.899E+00   -8.910E+00   -8.921E+00   -8.932E+00
 Ala      Conc. = 2.28E+03
