 LCModel (Version 6.3-1L) Copyright: S.W. Provencher.          Ref.: Magn. Reson. Med. 30:672-679 (1993).                
 Slice#1 Row#9 Col#3  PD_05_press_1_raw_act
 36 lines in following concentration table = NCONC+1
    Conc.  %SD /Cr+PCr  Metabolite                                         
   83.668  76%   0.165 Ala                                                 
   37.404 260% 7.4E-02 Asp                                                 
    0.000 999%   0.000 Cr                                                  
  506.768   6%   1.000 PCr                                                 
   13.113 487% 2.6E-02 GABA                                                
   33.860 184% 6.7E-02 Glc                                                 
  292.183  46%   0.577 Gln                                                 
  587.705  26%   1.160 Glu                                                 
  147.513   8%   0.291 GPC                                                 
    0.000 999%   0.000 PCh                                                 
  123.463  34%   0.244 GSH                                                 
  201.394  67%   0.397 Ins                                                 
    0.000 999%   0.000 Lac                                                 
 1.20E+03   6%   2.362 NAA                                                 
   26.070 325% 5.1E-02 NAAG                                                
   38.435  35% 7.6E-02 Scyllo                                              
  186.001  49%   0.367 Tau                                                 
  228.442  23%   0.451 -CrCH2                                              
  147.513   8%   0.291 GPC+PCh                                             
 1.22E+03   4%   2.413 NAA+NAAG                                            
  506.768   6%   1.000 Cr+PCr                                              
  879.888  25%   1.736 Glu+Gln                                             
   62.634 287%   0.124 Lip13a                                              
  104.895  78%   0.207 Lip13b                                              
    0.000 999%   0.000 Lip09                                               
  678.160  14%   1.338 MM09                                                
   43.593  90% 8.6E-02 Lip20                                               
 1.38E+03  12%   2.714 MM20                                                
  205.833  21%   0.406 MM12                                                
  719.045  17%   1.419 MM14                                                
  357.030  24%   0.705 MM17                                                
  167.529  77%   0.331 Lip13a+Lip13b                                       
 1.09E+03  14%   2.156 MM14+Lip13a+Lip13b+MM12                             
  678.160  14%   1.338 MM09+Lip09                                          
 1.42E+03  11%   2.800 MM20+Lip20                                          
   6 lines in following misc. output table
  FWHM = 0.061 ppm    S/N =  11                                            
  Data shift =-0.008 ppm                                                   
  Ph: -56 deg     -19.3 deg/ppm                                            
  alphaB,S = 2.1E+00,   8.0E+01                                            
   14 spline knots.   Ns = 7(1)                                            
  (12) 2 infls.   ( 7) 1 extrs.                                            
  498 points on ppm-axis = NY
      4.000000     3.992357     3.984714     3.977070     3.969427     3.961784     3.954141     3.946497     3.938854     3.931211
      3.923568     3.915925     3.908281     3.900638     3.892995     3.885352     3.877708     3.870065     3.862422     3.854779
      3.847136     3.839492     3.831849     3.824206     3.816563     3.808919     3.801276     3.793633     3.785990     3.778347
      3.770703     3.763060     3.755417     3.747774     3.740130     3.732487     3.724844     3.717201     3.709558     3.701914
      3.694271     3.686628     3.678985     3.671341     3.663698     3.656055     3.648412     3.640769     3.633125     3.625482
      3.617839     3.610196     3.602552     3.594909     3.587266     3.579623     3.571980     3.564336     3.556693     3.549050
      3.541407     3.533763     3.526120     3.518477     3.510834     3.503191     3.495547     3.487904     3.480261     3.472618
      3.464974     3.457331     3.449688     3.442045     3.434402     3.426758     3.419115     3.411472     3.403829     3.396185
      3.388542     3.380899     3.373256     3.365613     3.357969     3.350326     3.342683     3.335040     3.327396     3.319753
      3.312110     3.304467     3.296824     3.289180     3.281537     3.273894     3.266251     3.258607     3.250964     3.243321
      3.235678     3.228034     3.220391     3.212748     3.205105     3.197462     3.189818     3.182175     3.174532     3.166889
      3.159245     3.151602     3.143959     3.136316     3.128673     3.121029     3.113386     3.105743     3.098100     3.090456
      3.082813     3.075170     3.067527     3.059884     3.052240     3.044597     3.036954     3.029311     3.021667     3.014024
      3.006381     2.998738     2.991095     2.983451     2.975808     2.968165     2.960522     2.952878     2.945235     2.937592
      2.929949     2.922306     2.914662     2.907019     2.899376     2.891733     2.884089     2.876446     2.868803     2.861160
      2.853517     2.845873     2.838230     2.830587     2.822944     2.815300     2.807657     2.800014     2.792371     2.784728
      2.777084     2.769441     2.761798     2.754155     2.746511     2.738868     2.731225     2.723582     2.715939     2.708295
      2.700652     2.693009     2.685366     2.677722     2.670079     2.662436     2.654793     2.647150     2.639506     2.631863
      2.624220     2.616577     2.608933     2.601290     2.593647     2.586004     2.578361     2.570717     2.563074     2.555431
      2.547788     2.540144     2.532501     2.524858     2.517215     2.509572     2.501928     2.494285     2.486642     2.478999
      2.471355     2.463712     2.456069     2.448426     2.440783     2.433139     2.425496     2.417853     2.410210     2.402566
      2.394923     2.387280     2.379637     2.371994     2.364350     2.356707     2.349064     2.341421     2.333777     2.326134
      2.318491     2.310848     2.303205     2.295561     2.287918     2.280275     2.272632     2.264988     2.257345     2.249702
      2.242059     2.234416     2.226772     2.219129     2.211486     2.203843     2.196199     2.188556     2.180913     2.173270
      2.165627     2.157983     2.150340     2.142697     2.135054     2.127410     2.119767     2.112124     2.104481     2.096838
      2.089194     2.081551     2.073908     2.066265     2.058621     2.050978     2.043335     2.035692     2.028049     2.020405
      2.012762     2.005119     1.997476     1.989833     1.982190     1.974546     1.966903     1.959260     1.951617     1.943974
      1.936331     1.928688     1.921045     1.913402     1.905759     1.898115     1.890472     1.882829     1.875186     1.867543
      1.859900     1.852257     1.844614     1.836971     1.829327     1.821684     1.814041     1.806398     1.798755     1.791112
      1.783469     1.775826     1.768183     1.760540     1.752896     1.745253     1.737610     1.729967     1.722324     1.714681
      1.707038     1.699395     1.691752     1.684108     1.676465     1.668822     1.661179     1.653536     1.645893     1.638250
      1.630607     1.622964     1.615321     1.607677     1.600034     1.592391     1.584748     1.577105     1.569462     1.561819
      1.554176     1.546533     1.538890     1.531246     1.523603     1.515960     1.508317     1.500674     1.493031     1.485388
      1.477745     1.470102     1.462458     1.454815     1.447172     1.439529     1.431886     1.424243     1.416600     1.408957
      1.401314     1.393671     1.386027     1.378384     1.370741     1.363098     1.355455     1.347812     1.340169     1.332526
      1.324883     1.317240     1.309596     1.301953     1.294310     1.286667     1.279024     1.271381     1.263738     1.256095
      1.248452     1.240808     1.233165     1.225522     1.217879     1.210236     1.202593     1.194950     1.187307     1.179664
      1.172021     1.164377     1.156734     1.149091     1.141448     1.133805     1.126162     1.118519     1.110876     1.103233
      1.095590     1.087946     1.080303     1.072660     1.065017     1.057374     1.049731     1.042088     1.034445     1.026802
      1.019158     1.011515     1.003872     0.996229     0.988586     0.980943     0.973300     0.965657     0.958014     0.950371
      0.942727     0.935084     0.927441     0.919798     0.912155     0.904512     0.896869     0.889226     0.881583     0.873940
      0.866296     0.858653     0.851010     0.843367     0.835724     0.828081     0.820438     0.812795     0.805152     0.797508
      0.789865     0.782222     0.774579     0.766936     0.759293     0.751650     0.744007     0.736364     0.728721     0.721077
      0.713434     0.705791     0.698148     0.690505     0.682862     0.675219     0.667576     0.659933     0.652290     0.644646
      0.637003     0.629360     0.621717     0.614074     0.606431     0.598788     0.591145     0.583502     0.575858     0.568215
      0.560572     0.552929     0.545286     0.537643     0.530000     0.522357     0.514714     0.507071     0.499427     0.491784
      0.484141     0.476498     0.468855     0.461212     0.453569     0.445925     0.438282     0.430639     0.422996     0.415353
      0.407710     0.400067     0.392424     0.384780     0.377137     0.369494     0.361851     0.354208     0.346565     0.338922
      0.331278     0.323635     0.315992     0.308349     0.300706     0.293063     0.285420     0.277777     0.270133     0.262490
      0.254847     0.247204     0.239561     0.231918     0.224275     0.216631     0.208988     0.201345
 NY phased data points follow
  -1.14317E+01 -1.12161E+01 -9.21584E+00 -8.02683E+00 -8.40861E+00 -6.32681E+00 -6.45156E+00 -2.10040E+00 -3.07685E+00 -2.48642E+00
  -2.25111E+00 -2.16626E+00 -4.45969E+00 -4.51240E+00 -6.88142E+00 -5.46587E+00 -8.56346E+00 -1.03404E+01 -1.06585E+01 -8.95376E+00
  -7.61488E+00 -1.02243E+01 -9.02200E+00 -7.15110E+00 -5.95415E+00 -6.27034E+00 -5.13733E+00 -6.90706E+00 -5.65795E+00 -4.54729E+00
  -7.90352E+00 -3.71825E+00 -7.97269E+00 -5.51868E+00 -7.70837E+00 -5.40483E+00 -3.97742E+00 -6.61640E+00 -7.67183E+00 -7.53600E+00
  -6.28299E+00 -3.31187E+00 -4.50547E+00 -6.35086E+00 -5.19288E+00 -4.04489E+00 -2.89620E+00 -5.09615E+00 -3.53809E+00 -4.70708E+00
  -7.53473E+00 -4.28357E+00 -6.73902E+00 -5.59703E+00 -6.10147E+00 -5.00548E+00 -6.78049E+00 -8.31662E+00 -7.95835E+00 -7.89964E+00
  -6.06994E+00 -7.42426E+00 -6.40141E+00 -8.01938E+00 -6.30549E+00 -6.75900E+00 -6.09162E+00 -8.09131E+00 -6.66568E+00 -7.48605E+00
  -6.22612E+00 -6.76412E+00 -4.93564E+00 -7.60665E+00 -6.67552E+00 -5.49538E+00 -5.16080E+00 -4.45309E+00 -7.06699E+00 -6.60992E+00
  -5.82489E+00 -6.25386E+00 -5.73324E+00 -6.59196E+00 -3.18009E+00 -6.52857E+00 -3.99787E+00 -5.45729E+00 -3.84644E+00 -3.72388E+00
  -6.03730E+00 -1.59084E+00 -3.49717E+00 -2.28666E+00 -3.92914E+00 -1.01201E+00 -1.76762E+00  7.05533E-02 -1.63794E+00  2.37884E+00
   3.47097E+00  6.27925E+00  8.79776E+00  8.00728E+00  6.92790E+00  2.98537E+00  1.50173E+00 -5.71923E-01 -7.72341E-01 -4.23884E+00
  -4.00112E+00 -3.07239E+00 -4.67048E+00 -2.91598E+00 -2.37970E+00 -1.69070E+00 -2.46025E+00 -1.47178E+00 -3.59894E+00  1.77375E-01
  -2.43984E+00 -7.66178E-01  1.05356E+00  3.57332E+00  7.36944E+00  1.00029E+01  1.20583E+01  1.19252E+01  1.18980E+01  7.92241E+00
   4.00300E+00  2.45203E+00  3.25484E-01 -2.04243E+00 -2.66761E+00 -5.44632E-01 -3.70529E+00 -4.09897E+00 -3.14835E+00 -3.72504E+00
  -2.37899E+00 -1.17993E+00 -5.88389E+00 -4.25029E+00 -4.03454E+00 -3.72616E+00 -5.15407E+00 -4.07131E+00 -7.89037E+00 -5.25044E+00
  -2.85077E+00 -2.91683E+00 -3.21736E+00 -5.18028E+00 -3.46981E+00 -3.33003E+00 -5.81678E+00 -1.42778E+00 -5.20534E+00 -2.40605E+00
  -3.80828E+00 -4.92287E+00 -3.09691E+00 -4.96606E+00 -5.78347E+00 -6.27266E+00 -3.71780E+00 -4.73613E+00 -7.77242E+00 -6.09431E+00
  -8.15020E+00 -7.31414E+00 -8.30675E+00 -7.15452E+00 -8.49811E+00 -9.29144E+00 -1.17835E+01 -9.45961E+00 -9.40146E+00 -7.90208E+00
  -8.60055E+00 -4.83691E+00 -6.72721E+00 -3.81671E+00 -8.25142E+00 -4.71174E+00 -6.13505E+00 -4.65920E+00 -3.81238E+00 -5.99258E+00
  -5.22782E+00 -1.29481E+00 -4.97264E+00 -2.62489E+00 -4.37734E+00 -1.16128E+01 -7.99563E+00 -3.85364E+00 -5.97225E+00 -7.10140E+00
  -4.70123E+00 -2.15742E+00 -2.80850E+00 -4.19008E+00 -6.53455E-01 -3.52987E+00 -2.85909E+00 -4.65657E+00 -2.72986E+00 -4.05559E+00
  -3.09682E+00  8.50119E-01 -2.43791E+00  2.18345E+00  2.82084E-01  2.56993E+00  1.31555E+00  2.49460E+00  9.14033E-01  1.27140E+00
  -1.56241E+00  3.00855E-01 -2.24852E+00 -2.02036E+00 -1.05331E+00 -9.57330E-01 -1.33430E+00 -3.02831E+00  2.17669E+00  4.08794E+00
   1.26789E+00  2.96920E+00  2.49849E+00  2.10953E+00  4.21135E+00  1.35047E+00  1.17142E+00  3.34920E-01  8.67549E-01  1.74689E+00
   3.50816E+00  2.83215E-01 -1.14255E+00 -6.83436E-01  2.97500E+00  2.51668E+00  4.70419E+00  4.14249E+00  6.21382E+00  2.91880E+00
   5.33117E+00  4.57180E+00  4.94514E+00  7.37801E+00  1.24461E+01  1.42101E+01  2.06479E+01  2.76522E+01  3.23205E+01  3.79085E+01
   3.94093E+01  3.94127E+01  3.62118E+01  2.78189E+01  2.08896E+01  1.44374E+01  1.11015E+01  6.88913E+00  4.81367E+00  3.58853E+00
   4.76393E+00  2.22985E+00  2.07504E+00  4.28080E+00  2.92126E+00  3.12030E+00  3.14333E+00  9.73594E-01  1.70541E+00  1.36209E+00
  -1.16826E+00  2.90154E+00  2.00214E+00 -7.45235E-01  1.49204E+00  4.90453E-01  9.84671E-01  2.47978E+00  1.33781E-01  1.55734E+00
   8.89101E-01  1.67225E+00  3.34925E+00 -1.23874E+00  3.01381E+00 -9.36673E-01 -1.23880E+00 -1.23841E+00 -1.40954E+00  1.27468E+00
   1.03842E+00  2.12933E+00  7.72714E-01  8.72713E-01  3.09087E+00 -8.68877E-01  8.24059E-01  3.72656E+00  3.86345E+00  7.71451E-01
   1.27493E-01  2.12712E+00  1.32784E+00  4.63692E+00  7.34908E-01  3.42007E+00  9.02521E-01  3.89849E+00  2.07553E+00  2.05003E+00
   4.38000E+00  3.38397E+00  4.66689E+00  5.62973E+00  1.79504E+00  4.75901E+00  4.71936E+00  3.90228E+00  9.17638E-01  4.69530E+00
   2.22370E+00  3.72818E+00  4.74779E+00  7.92800E-01  2.89346E+00  2.19179E+00  2.71421E+00  1.21893E+00  2.34509E+00  2.40293E+00
   4.63054E+00  1.84274E+00  4.18005E+00  2.90520E+00  6.15734E+00  3.30856E+00  4.32490E+00  2.43924E+00  1.17516E+00  2.69235E+00
   7.34998E+00  2.95764E+00  2.29678E+00  2.62822E+00  4.75968E+00  3.64083E+00  3.22860E+00  4.10799E+00  3.00029E+00  2.12665E+00
   7.68332E-01  6.15861E-01  3.03323E-01  1.07295E+00  1.44657E+00  2.67868E+00  8.97614E-01 -8.96973E-02  5.38569E+00  3.15962E+00
   1.88681E+00  1.23225E+00  3.54635E+00  1.96013E+00  3.03935E+00  4.21473E+00  2.27665E+00  2.69152E+00 -1.71631E+00  2.03412E+00
   2.36259E+00  3.74122E+00  2.38021E+00  6.67317E-01  1.95018E+00  2.88118E+00  2.68375E+00  1.06040E+00  1.38872E+00  1.89692E+00
   2.08564E+00  1.97182E+00  1.95097E+00  4.48456E+00  1.59721E+00  2.96296E+00  8.83609E-01  4.07214E+00  1.35209E+00  2.75335E+00
   2.24688E+00  2.79691E+00  7.42314E-01  3.80062E+00  4.47929E-01  5.44195E+00  4.18135E+00  3.36095E+00  2.95433E+00  1.08385E+00
   4.01103E+00  5.14553E+00  1.53927E+00  5.30304E+00  3.64898E+00  1.42331E+00  2.20908E+00  3.63218E+00  4.15360E-01  1.62345E+00
   7.21225E-01  2.77728E+00  2.29037E-01  2.51329E-01  1.47188E+00  2.55424E+00 -7.64306E-01  4.52941E-01  6.38478E-01  2.07697E+00
   2.07740E+00  2.16293E+00  2.16320E+00  2.63909E+00  5.38701E+00  1.18571E+00 -3.20007E-01  8.76796E-01 -1.62641E-01  4.63495E-01
   2.44257E+00  2.72925E+00  1.84138E+00  7.17787E-01  3.82745E+00  2.98546E+00  1.11878E+00  3.82184E+00  4.43662E-01  1.54234E+00
   4.37312E+00  2.78682E+00  1.83168E+00  3.30443E+00  6.41175E-01  1.73907E+00  1.58839E-01  2.83478E-01  1.21049E+00  5.77397E-01
   3.31780E+00  2.71640E+00 -7.34338E-01  1.44573E+00 -3.09405E+00 -2.48472E-01 -4.11180E-01 -2.72094E-01 -1.55566E-02  8.74827E-01
   9.94333E-01  2.63062E+00  1.85840E+00  3.68314E+00  3.17527E+00  4.13182E+00  2.47994E+00  3.14161E+00  1.98656E+00  4.24578E-01
   1.25067E+00 -2.62130E-01 -1.43606E-01  1.70220E+00  2.82512E+00 -2.22070E-01  1.83245E+00  2.28133E+00 -4.86042E-01  1.85765E+00
   8.63591E-01  6.27337E-01  3.55878E+00  2.85661E+00  5.90399E-01  1.54232E+00 -1.08547E+00  2.01327E+00
 NY points of the fit to the data follow
  -8.97253E+00 -8.82431E+00 -8.28066E+00 -7.53107E+00 -6.70289E+00 -5.70583E+00 -4.58696E+00 -3.50502E+00 -2.67107E+00 -2.28057E+00
  -2.45181E+00 -3.16557E+00 -4.16533E+00 -5.11875E+00 -5.86092E+00 -6.41285E+00 -6.85827E+00 -7.22292E+00 -7.37874E+00 -7.42051E+00
  -7.42214E+00 -7.40958E+00 -7.37428E+00 -7.24193E+00 -7.11625E+00 -6.95027E+00 -6.67552E+00 -6.27468E+00 -5.76485E+00 -5.23977E+00
  -4.79085E+00 -4.50021E+00 -4.46327E+00 -4.69408E+00 -5.09626E+00 -5.60389E+00 -6.15596E+00 -6.69407E+00 -7.08332E+00 -7.19246E+00
  -7.08444E+00 -6.82671E+00 -6.49294E+00 -6.14692E+00 -5.82970E+00 -5.57094E+00 -5.38775E+00 -5.30271E+00 -5.35621E+00 -5.56311E+00
  -5.86898E+00 -6.19362E+00 -6.45891E+00 -6.64238E+00 -6.74926E+00 -6.78480E+00 -6.76614E+00 -6.70505E+00 -6.61972E+00 -6.53026E+00
  -6.45560E+00 -6.42824E+00 -6.43517E+00 -6.46234E+00 -6.49215E+00 -6.48571E+00 -6.44925E+00 -6.41680E+00 -6.36474E+00 -6.26258E+00
  -6.14830E+00 -6.03104E+00 -5.90307E+00 -5.78309E+00 -5.70530E+00 -5.68416E+00 -5.73541E+00 -5.87613E+00 -6.05827E+00 -6.15491E+00
  -6.05671E+00 -5.83186E+00 -5.52172E+00 -5.15044E+00 -4.76765E+00 -4.42845E+00 -4.22607E+00 -4.22906E+00 -4.44171E+00 -4.80474E+00
  -5.20995E+00 -5.53707E+00 -5.73045E+00 -5.83926E+00 -5.78996E+00 -5.07350E+00 -3.56951E+00 -1.83027E+00  1.51722E-01  2.43830E+00
   4.76284E+00  6.70908E+00  7.80682E+00  7.71385E+00  6.35843E+00  4.11117E+00  1.70637E+00 -2.89019E-01 -1.76786E+00 -2.91773E+00
  -3.87860E+00 -4.49379E+00 -4.72006E+00 -4.82012E+00 -4.87157E+00 -4.88979E+00 -4.88527E+00 -4.83631E+00 -4.67932E+00 -4.02731E+00
  -2.45592E+00 -5.67193E-01  1.55084E+00  4.10620E+00  6.92534E+00  9.53091E+00  1.13289E+01  1.17911E+01  1.06703E+01  8.23952E+00
   5.32834E+00  2.73132E+00  7.15888E-01 -8.83892E-01 -2.25529E+00 -3.29578E+00 -3.76565E+00 -3.91713E+00 -3.90333E+00 -3.79726E+00
  -3.67219E+00 -3.58271E+00 -3.54459E+00 -3.56261E+00 -3.63016E+00 -3.71967E+00 -3.81629E+00 -3.91972E+00 -4.02114E+00 -4.11207E+00
  -4.18230E+00 -4.23155E+00 -4.26303E+00 -4.28837E+00 -4.35229E+00 -4.44617E+00 -4.54249E+00 -4.64588E+00 -4.74132E+00 -4.85126E+00
  -4.96599E+00 -5.01860E+00 -4.97805E+00 -4.86645E+00 -4.75251E+00 -4.71972E+00 -4.81333E+00 -5.01384E+00 -5.25586E+00 -5.49892E+00
  -5.73878E+00 -5.92780E+00 -6.08695E+00 -6.23886E+00 -6.37215E+00 -6.45085E+00 -6.42682E+00 -6.31295E+00 -6.16296E+00 -6.03771E+00
  -6.00410E+00 -6.01138E+00 -5.94666E+00 -5.78058E+00 -5.52594E+00 -5.21578E+00 -4.86148E+00 -4.41536E+00 -3.87452E+00 -3.32152E+00
  -2.87739E+00 -2.65255E+00 -2.63039E+00 -2.72454E+00 -2.83753E+00 -2.90744E+00 -2.90900E+00 -2.77869E+00 -2.50355E+00 -2.12499E+00
  -1.67614E+00 -1.23883E+00 -9.23411E-01 -8.70018E-01 -1.07523E+00 -1.53240E+00 -2.26557E+00 -3.13451E+00 -3.88704E+00 -4.31825E+00
  -4.28290E+00 -3.87363E+00 -3.14318E+00 -2.17273E+00 -1.16946E+00 -3.81544E-01 -3.92590E-02 -2.18169E-01 -8.31701E-01 -1.76744E+00
  -2.74812E+00 -3.46127E+00 -3.76894E+00 -3.62787E+00 -3.07552E+00 -2.22533E+00 -1.24768E+00 -4.23533E-01  9.85452E-02  3.53315E-01
   5.00441E-01  6.00764E-01  6.53543E-01  7.43166E-01  9.39196E-01  1.18805E+00  1.40769E+00  1.58728E+00  1.73016E+00  1.78587E+00
   1.71907E+00  1.59697E+00  1.53862E+00  1.61973E+00  1.84669E+00  2.18722E+00  2.61424E+00  3.05233E+00  3.44211E+00  3.82565E+00
   4.23903E+00  4.72642E+00  5.52359E+00  7.74979E+00  1.17852E+01  1.62270E+01  2.10904E+01  2.66970E+01  3.25030E+01  3.73534E+01
   3.99465E+01  3.93040E+01  3.51708E+01  2.84986E+01  2.13206E+01  1.52848E+01  1.07322E+01  7.21374E+00  4.33940E+00  2.43646E+00
   1.67510E+00  1.32422E+00  1.11167E+00  9.79768E-01  8.95825E-01  8.21071E-01  7.37041E-01  6.36816E-01  5.22331E-01  4.05910E-01
   2.99428E-01  2.07754E-01  1.33453E-01  8.28522E-02  5.70320E-02  5.02296E-02  5.66945E-02  7.40505E-02  1.02270E-01  1.41901E-01
   1.91432E-01  2.50885E-01  3.20383E-01  3.98951E-01  4.84896E-01  5.76919E-01  6.73713E-01  7.74261E-01  8.76791E-01  9.79782E-01
   1.08154E+00  1.18074E+00  1.27576E+00  1.36506E+00  1.44729E+00  1.52181E+00  1.58833E+00  1.64737E+00  1.69982E+00  1.74731E+00
   1.79150E+00  1.83435E+00  1.87793E+00  1.92485E+00  1.97752E+00  2.03863E+00  2.11084E+00  2.19751E+00  2.30345E+00  2.43871E+00
   2.62294E+00  2.82841E+00  2.99814E+00  3.14518E+00  3.26416E+00  3.31572E+00  3.26113E+00  3.08006E+00  2.81741E+00  2.57500E+00
   2.39560E+00  2.33408E+00  2.42443E+00  2.64217E+00  2.93575E+00  3.25139E+00  3.54071E+00  3.73504E+00  3.77233E+00  3.68120E+00
   3.52855E+00  3.36415E+00  3.20479E+00  3.04881E+00  2.91127E+00  2.82675E+00  2.79130E+00  2.79855E+00  2.84456E+00  2.92317E+00
   3.02409E+00  3.13322E+00  3.23366E+00  3.30822E+00  3.34190E+00  3.32476E+00  3.25353E+00  3.13236E+00  2.97164E+00  2.78607E+00
   2.59164E+00  2.40319E+00  2.23216E+00  2.08584E+00  1.96700E+00  1.87490E+00  1.80621E+00  1.75656E+00  1.72134E+00  1.69670E+00
   1.67963E+00  1.66823E+00  1.66143E+00  1.65900E+00  1.66117E+00  1.66862E+00  1.68211E+00  1.70253E+00  1.73066E+00  1.76738E+00
   1.81338E+00  1.86937E+00  1.93577E+00  2.01296E+00  2.10102E+00  2.20000E+00  2.30963E+00  2.42951E+00  2.55883E+00  2.69663E+00
   2.84152E+00  2.99201E+00  3.14615E+00  3.30184E+00  3.45658E+00  3.60779E+00  3.75266E+00  3.88846E+00  4.01232E+00  4.12162E+00
   4.21380E+00  4.28675E+00  4.33868E+00  4.36837E+00  4.37501E+00  4.35846E+00  4.31901E+00  4.25767E+00  4.17584E+00  4.07550E+00
   3.95886E+00  3.82850E+00  3.68707E+00  3.53744E+00  3.38234E+00  3.22449E+00  3.06628E+00  2.90997E+00  2.75745E+00  2.61039E+00
   2.47007E+00  2.33751E+00  2.21332E+00  2.09797E+00  1.99159E+00  1.89422E+00  1.80563E+00  1.72554E+00  1.65347E+00  1.58898E+00
   1.53153E+00  1.48065E+00  1.43574E+00  1.39633E+00  1.36184E+00  1.33188E+00  1.30596E+00  1.28374E+00  1.26480E+00  1.24884E+00
   1.23550E+00  1.22458E+00  1.21580E+00  1.20901E+00  1.20393E+00  1.20045E+00  1.19836E+00  1.19759E+00  1.19798E+00  1.19947E+00
   1.20189E+00  1.20521E+00  1.20930E+00  1.21417E+00  1.21971E+00  1.22590E+00  1.23262E+00  1.23988E+00  1.24761E+00  1.25582E+00
   1.26444E+00  1.27346E+00  1.28280E+00  1.29250E+00  1.30250E+00  1.31282E+00  1.32339E+00  1.33423E+00  1.34528E+00  1.35657E+00
   1.36807E+00  1.37979E+00  1.39168E+00  1.40377E+00  1.41599E+00  1.42840E+00  1.44096E+00  1.45369E+00  1.46653E+00  1.47952E+00
   1.49261E+00  1.50587E+00  1.51923E+00  1.53273E+00  1.54632E+00  1.56004E+00  1.57385E+00  1.58780E+00  1.60186E+00  1.61604E+00
   1.63031E+00  1.64470E+00  1.65921E+00  1.67387E+00  1.68864E+00  1.70356E+00  1.71859E+00  1.73380E+00
 NY background values follow
    -9.357E+00   -9.326E+00   -9.296E+00   -9.266E+00   -9.235E+00   -9.205E+00   -9.175E+00   -9.145E+00   -9.114E+00   -9.084E+00
    -9.054E+00   -9.023E+00   -8.993E+00   -8.963E+00   -8.932E+00   -8.902E+00   -8.872E+00   -8.841E+00   -8.811E+00   -8.781E+00
    -8.750E+00   -8.720E+00   -8.689E+00   -8.659E+00   -8.629E+00   -8.598E+00   -8.568E+00   -8.538E+00   -8.507E+00   -8.477E+00
    -8.447E+00   -8.416E+00   -8.386E+00   -8.356E+00   -8.326E+00   -8.295E+00   -8.265E+00   -8.235E+00   -8.204E+00   -8.174E+00
    -8.144E+00   -8.114E+00   -8.083E+00   -8.053E+00   -8.023E+00   -7.993E+00   -7.962E+00   -7.932E+00   -7.902E+00   -7.872E+00
    -7.842E+00   -7.812E+00   -7.781E+00   -7.751E+00   -7.721E+00   -7.691E+00   -7.661E+00   -7.631E+00   -7.601E+00   -7.571E+00
    -7.541E+00   -7.511E+00   -7.481E+00   -7.451E+00   -7.421E+00   -7.391E+00   -7.361E+00   -7.332E+00   -7.302E+00   -7.272E+00
    -7.242E+00   -7.212E+00   -7.183E+00   -7.153E+00   -7.123E+00   -7.094E+00   -7.064E+00   -7.034E+00   -7.005E+00   -6.975E+00
    -6.946E+00   -6.916E+00   -6.887E+00   -6.857E+00   -6.828E+00   -6.799E+00   -6.769E+00   -6.740E+00   -6.711E+00   -6.681E+00
    -6.652E+00   -6.623E+00   -6.594E+00   -6.565E+00   -6.536E+00   -6.507E+00   -6.478E+00   -6.449E+00   -6.420E+00   -6.391E+00
    -6.362E+00   -6.333E+00   -6.304E+00   -6.276E+00   -6.247E+00   -6.218E+00   -6.190E+00   -6.161E+00   -6.132E+00   -6.104E+00
    -6.075E+00   -6.047E+00   -6.018E+00   -5.990E+00   -5.962E+00   -5.933E+00   -5.905E+00   -5.877E+00   -5.848E+00   -5.820E+00
    -5.792E+00   -5.764E+00   -5.736E+00   -5.708E+00   -5.680E+00   -5.652E+00   -5.624E+00   -5.596E+00   -5.568E+00   -5.540E+00
    -5.512E+00   -5.485E+00   -5.457E+00   -5.429E+00   -5.402E+00   -5.374E+00   -5.346E+00   -5.319E+00   -5.291E+00   -5.264E+00
    -5.236E+00   -5.209E+00   -5.182E+00   -5.154E+00   -5.127E+00   -5.100E+00   -5.072E+00   -5.045E+00   -5.018E+00   -4.991E+00
    -4.964E+00   -4.937E+00   -4.910E+00   -4.883E+00   -4.856E+00   -4.829E+00   -4.802E+00   -4.775E+00   -4.748E+00   -4.721E+00
    -4.694E+00   -4.667E+00   -4.641E+00   -4.614E+00   -4.587E+00   -4.560E+00   -4.534E+00   -4.507E+00   -4.480E+00   -4.454E+00
    -4.427E+00   -4.401E+00   -4.374E+00   -4.348E+00   -4.321E+00   -4.295E+00   -4.268E+00   -4.242E+00   -4.215E+00   -4.189E+00
    -4.163E+00   -4.136E+00   -4.110E+00   -4.084E+00   -4.057E+00   -4.031E+00   -4.005E+00   -3.979E+00   -3.952E+00   -3.926E+00
    -3.900E+00   -3.874E+00   -3.848E+00   -3.822E+00   -3.796E+00   -3.770E+00   -3.744E+00   -3.718E+00   -3.692E+00   -3.666E+00
    -3.640E+00   -3.614E+00   -3.589E+00   -3.563E+00   -3.537E+00   -3.511E+00   -3.486E+00   -3.460E+00   -3.435E+00   -3.409E+00
    -3.384E+00   -3.359E+00   -3.333E+00   -3.308E+00   -3.283E+00   -3.257E+00   -3.232E+00   -3.207E+00   -3.182E+00   -3.157E+00
    -3.132E+00   -3.107E+00   -3.083E+00   -3.058E+00   -3.033E+00   -3.009E+00   -2.984E+00   -2.959E+00   -2.935E+00   -2.911E+00
    -2.886E+00   -2.862E+00   -2.838E+00   -2.814E+00   -2.790E+00   -2.766E+00   -2.742E+00   -2.718E+00   -2.694E+00   -2.670E+00
    -2.647E+00   -2.623E+00   -2.599E+00   -2.576E+00   -2.552E+00   -2.529E+00   -2.506E+00   -2.483E+00   -2.459E+00   -2.436E+00
    -2.413E+00   -2.390E+00   -2.367E+00   -2.345E+00   -2.322E+00   -2.299E+00   -2.277E+00   -2.254E+00   -2.232E+00   -2.209E+00
    -2.187E+00   -2.165E+00   -2.143E+00   -2.120E+00   -2.098E+00   -2.076E+00   -2.055E+00   -2.033E+00   -2.011E+00   -1.989E+00
    -1.968E+00   -1.946E+00   -1.925E+00   -1.904E+00   -1.882E+00   -1.861E+00   -1.840E+00   -1.819E+00   -1.798E+00   -1.777E+00
    -1.756E+00   -1.735E+00   -1.715E+00   -1.694E+00   -1.673E+00   -1.653E+00   -1.633E+00   -1.612E+00   -1.592E+00   -1.572E+00
    -1.552E+00   -1.531E+00   -1.511E+00   -1.492E+00   -1.472E+00   -1.452E+00   -1.432E+00   -1.413E+00   -1.393E+00   -1.373E+00
    -1.354E+00   -1.335E+00   -1.315E+00   -1.296E+00   -1.277E+00   -1.258E+00   -1.239E+00   -1.220E+00   -1.201E+00   -1.182E+00
    -1.163E+00   -1.144E+00   -1.125E+00   -1.107E+00   -1.088E+00   -1.070E+00   -1.051E+00   -1.033E+00   -1.015E+00   -9.962E-01
    -9.780E-01   -9.599E-01   -9.418E-01   -9.237E-01   -9.057E-01   -8.878E-01   -8.699E-01   -8.521E-01   -8.343E-01   -8.166E-01
    -7.989E-01   -7.813E-01   -7.638E-01   -7.462E-01   -7.288E-01   -7.114E-01   -6.940E-01   -6.767E-01   -6.594E-01   -6.422E-01
    -6.250E-01   -6.078E-01   -5.908E-01   -5.737E-01   -5.567E-01   -5.397E-01   -5.228E-01   -5.059E-01   -4.891E-01   -4.723E-01
    -4.555E-01   -4.388E-01   -4.221E-01   -4.055E-01   -3.889E-01   -3.723E-01   -3.557E-01   -3.392E-01   -3.228E-01   -3.063E-01
    -2.899E-01   -2.735E-01   -2.572E-01   -2.409E-01   -2.246E-01   -2.084E-01   -1.921E-01   -1.759E-01   -1.598E-01   -1.436E-01
    -1.275E-01   -1.114E-01   -9.538E-02   -7.935E-02   -6.333E-02   -4.734E-02   -3.138E-02   -1.543E-02    4.934E-04    1.640E-02
     3.228E-02    4.815E-02    6.399E-02    7.982E-02    9.563E-02    1.114E-01    1.272E-01    1.430E-01    1.587E-01    1.745E-01
     1.902E-01    2.059E-01    2.216E-01    2.373E-01    2.529E-01    2.686E-01    2.843E-01    2.999E-01    3.155E-01    3.312E-01
     3.468E-01    3.624E-01    3.780E-01    3.936E-01    4.092E-01    4.248E-01    4.404E-01    4.560E-01    4.716E-01    4.872E-01
     5.028E-01    5.184E-01    5.339E-01    5.495E-01    5.651E-01    5.807E-01    5.962E-01    6.118E-01    6.274E-01    6.429E-01
     6.585E-01    6.741E-01    6.896E-01    7.052E-01    7.207E-01    7.362E-01    7.518E-01    7.673E-01    7.828E-01    7.984E-01
     8.139E-01    8.294E-01    8.449E-01    8.604E-01    8.759E-01    8.914E-01    9.069E-01    9.224E-01    9.379E-01    9.533E-01
     9.688E-01    9.843E-01    9.997E-01    1.015E+00    1.031E+00    1.046E+00    1.062E+00    1.077E+00    1.092E+00    1.108E+00
     1.123E+00    1.139E+00    1.154E+00    1.169E+00    1.185E+00    1.200E+00    1.216E+00    1.231E+00    1.246E+00    1.262E+00
     1.277E+00    1.292E+00    1.308E+00    1.323E+00    1.338E+00    1.354E+00    1.369E+00    1.384E+00    1.399E+00    1.415E+00
     1.430E+00    1.445E+00    1.461E+00    1.476E+00    1.491E+00    1.506E+00    1.522E+00    1.537E+00    1.552E+00    1.567E+00
     1.583E+00    1.598E+00    1.613E+00    1.628E+00    1.644E+00    1.659E+00    1.674E+00    1.689E+00    1.705E+00    1.720E+00
     1.735E+00    1.750E+00    1.765E+00    1.781E+00    1.796E+00    1.811E+00    1.826E+00    1.841E+00
 Ala      Conc. = 8.37E+01
