 LCModel (Version 6.3-1L) Copyright: S.W. Provencher.          Ref.: Magn. Reson. Med. 30:672-679 (1993).                
 Slice#2 Row#9 Col#6  PD_05_press_1_raw_act
 36 lines in following concentration table = NCONC+1
    Conc.  %SD /Cr+PCr  Metabolite                                         
    0.000 999%   0.000 Ala                                                 
    0.000 999%   0.000 Asp                                                 
  404.023  37%   0.302 Cr                                                  
  933.918  17%   0.698 PCr                                                 
    0.000 999%   0.000 GABA                                                
    2.315 999% 1.7E-03 Glc                                                 
  665.608  23%   0.497 Gln                                                 
 1.63E+03  11%   1.221 Glu                                                 
  575.912   4%   0.430 GPC                                                 
    0.000 999%   0.000 PCh                                                 
  401.288  14%   0.300 GSH                                                 
 1.28E+03  15%   0.956 Ins                                                 
    0.000 999%   0.000 Lac                                                 
 2.23E+03   4%   1.663 NAA                                                 
  456.499  17%   0.341 NAAG                                                
  115.111  20% 8.6E-02 Scyllo                                              
   57.454 313% 4.3E-02 Tau                                                 
  188.175  48%   0.141 -CrCH2                                              
  575.912   4%   0.430 GPC+PCh                                             
 2.68E+03   3%   2.005 NAA+NAAG                                            
 1.34E+03   4%   1.000 Cr+PCr                                              
 2.30E+03  10%   1.719 Glu+Gln                                             
    0.000 999%   0.000 Lip13a                                              
  298.252  29%   0.223 Lip13b                                              
   21.258 538% 1.6E-02 Lip09                                               
 1.27E+03  15%   0.946 MM09                                                
   41.378 195% 3.1E-02 Lip20                                               
 2.59E+03  13%   1.935 MM20                                                
  448.786  30%   0.335 MM12                                                
    0.000 999%   0.000 MM14                                                
  730.299  29%   0.546 MM17                                                
  298.252  29%   0.223 Lip13a+Lip13b                                       
  747.038  20%   0.558 MM14+Lip13a+Lip13b+MM12                             
 1.29E+03  14%   0.962 MM09+Lip09                                          
 2.63E+03  13%   1.966 MM20+Lip20                                          
   6 lines in following misc. output table
  FWHM = 0.046 ppm    S/N =  18                                            
  Data shift = 0.015 ppm                                                   
  Ph: -37 deg     -14.5 deg/ppm                                            
  alphaB,S = 8.5E-01,   1.0E+02                                            
   14 spline knots.   Ns = 6(1)                                            
  ( 6) 4 infls.   ( 1) 1 extrs.                                            
  498 points on ppm-axis = NY
      4.000000     3.992357     3.984714     3.977070     3.969427     3.961784     3.954141     3.946497     3.938854     3.931211
      3.923568     3.915925     3.908281     3.900638     3.892995     3.885352     3.877708     3.870065     3.862422     3.854779
      3.847136     3.839492     3.831849     3.824206     3.816563     3.808919     3.801276     3.793633     3.785990     3.778347
      3.770703     3.763060     3.755417     3.747774     3.740130     3.732487     3.724844     3.717201     3.709558     3.701914
      3.694271     3.686628     3.678985     3.671341     3.663698     3.656055     3.648412     3.640769     3.633125     3.625482
      3.617839     3.610196     3.602552     3.594909     3.587266     3.579623     3.571980     3.564336     3.556693     3.549050
      3.541407     3.533763     3.526120     3.518477     3.510834     3.503191     3.495547     3.487904     3.480261     3.472618
      3.464974     3.457331     3.449688     3.442045     3.434402     3.426758     3.419115     3.411472     3.403829     3.396185
      3.388542     3.380899     3.373256     3.365613     3.357969     3.350326     3.342683     3.335040     3.327396     3.319753
      3.312110     3.304467     3.296824     3.289180     3.281537     3.273894     3.266251     3.258607     3.250964     3.243321
      3.235678     3.228034     3.220391     3.212748     3.205105     3.197462     3.189818     3.182175     3.174532     3.166889
      3.159245     3.151602     3.143959     3.136316     3.128673     3.121029     3.113386     3.105743     3.098100     3.090456
      3.082813     3.075170     3.067527     3.059884     3.052240     3.044597     3.036954     3.029311     3.021667     3.014024
      3.006381     2.998738     2.991095     2.983451     2.975808     2.968165     2.960522     2.952878     2.945235     2.937592
      2.929949     2.922306     2.914662     2.907019     2.899376     2.891733     2.884089     2.876446     2.868803     2.861160
      2.853517     2.845873     2.838230     2.830587     2.822944     2.815300     2.807657     2.800014     2.792371     2.784728
      2.777084     2.769441     2.761798     2.754155     2.746511     2.738868     2.731225     2.723582     2.715939     2.708295
      2.700652     2.693009     2.685366     2.677722     2.670079     2.662436     2.654793     2.647150     2.639506     2.631863
      2.624220     2.616577     2.608933     2.601290     2.593647     2.586004     2.578361     2.570717     2.563074     2.555431
      2.547788     2.540144     2.532501     2.524858     2.517215     2.509572     2.501928     2.494285     2.486642     2.478999
      2.471355     2.463712     2.456069     2.448426     2.440783     2.433139     2.425496     2.417853     2.410210     2.402566
      2.394923     2.387280     2.379637     2.371994     2.364350     2.356707     2.349064     2.341421     2.333777     2.326134
      2.318491     2.310848     2.303205     2.295561     2.287918     2.280275     2.272632     2.264988     2.257345     2.249702
      2.242059     2.234416     2.226772     2.219129     2.211486     2.203843     2.196199     2.188556     2.180913     2.173270
      2.165627     2.157983     2.150340     2.142697     2.135054     2.127410     2.119767     2.112124     2.104481     2.096838
      2.089194     2.081551     2.073908     2.066265     2.058621     2.050978     2.043335     2.035692     2.028049     2.020405
      2.012762     2.005119     1.997476     1.989833     1.982190     1.974546     1.966903     1.959260     1.951617     1.943974
      1.936331     1.928688     1.921045     1.913402     1.905759     1.898115     1.890472     1.882829     1.875186     1.867543
      1.859900     1.852257     1.844614     1.836971     1.829327     1.821684     1.814041     1.806398     1.798755     1.791112
      1.783469     1.775826     1.768183     1.760540     1.752896     1.745253     1.737610     1.729967     1.722324     1.714681
      1.707038     1.699395     1.691752     1.684108     1.676465     1.668822     1.661179     1.653536     1.645893     1.638250
      1.630607     1.622964     1.615321     1.607677     1.600034     1.592391     1.584748     1.577105     1.569462     1.561819
      1.554176     1.546533     1.538890     1.531246     1.523603     1.515960     1.508317     1.500674     1.493031     1.485388
      1.477745     1.470102     1.462458     1.454815     1.447172     1.439529     1.431886     1.424243     1.416600     1.408957
      1.401314     1.393671     1.386027     1.378384     1.370741     1.363098     1.355455     1.347812     1.340169     1.332526
      1.324883     1.317240     1.309596     1.301953     1.294310     1.286667     1.279024     1.271381     1.263738     1.256095
      1.248452     1.240808     1.233165     1.225522     1.217879     1.210236     1.202593     1.194950     1.187307     1.179664
      1.172021     1.164377     1.156734     1.149091     1.141448     1.133805     1.126162     1.118519     1.110876     1.103233
      1.095590     1.087946     1.080303     1.072660     1.065017     1.057374     1.049731     1.042088     1.034445     1.026802
      1.019158     1.011515     1.003872     0.996229     0.988586     0.980943     0.973300     0.965657     0.958014     0.950371
      0.942727     0.935084     0.927441     0.919798     0.912155     0.904512     0.896869     0.889226     0.881583     0.873940
      0.866296     0.858653     0.851010     0.843367     0.835724     0.828081     0.820438     0.812795     0.805152     0.797508
      0.789865     0.782222     0.774579     0.766936     0.759293     0.751650     0.744007     0.736364     0.728721     0.721077
      0.713434     0.705791     0.698148     0.690505     0.682862     0.675219     0.667576     0.659933     0.652290     0.644646
      0.637003     0.629360     0.621717     0.614074     0.606431     0.598788     0.591145     0.583502     0.575858     0.568215
      0.560572     0.552929     0.545286     0.537643     0.530000     0.522357     0.514714     0.507071     0.499427     0.491784
      0.484141     0.476498     0.468855     0.461212     0.453569     0.445925     0.438282     0.430639     0.422996     0.415353
      0.407710     0.400067     0.392424     0.384780     0.377137     0.369494     0.361851     0.354208     0.346565     0.338922
      0.331278     0.323635     0.315992     0.308349     0.300706     0.293063     0.285420     0.277777     0.270133     0.262490
      0.254847     0.247204     0.239561     0.231918     0.224275     0.216631     0.208988     0.201345
 NY phased data points follow
  -2.48403E+01 -2.53099E+01 -2.69744E+01 -2.03045E+01 -2.14853E+01 -1.42863E+01 -1.54707E+01 -2.81172E-01  4.36461E+00  7.21665E+00
   1.07958E+01  9.07131E+00  6.94212E+00  1.74782E-01 -9.20264E+00 -6.26131E+00 -1.72494E+01 -1.61817E+01 -1.82603E+01 -1.90125E+01
  -1.85758E+01 -1.53368E+01 -1.57107E+01 -1.05654E+01 -1.66474E+01 -9.83161E+00 -9.55318E+00 -1.33317E+01 -5.93366E+00 -7.37480E+00
  -7.49030E+00 -1.34063E+00 -7.37585E+00 -1.47081E+00 -1.10116E+01 -1.03750E+01 -8.17939E+00 -8.66475E+00 -5.55662E+00 -3.92403E+00
  -8.73489E+00 -4.22163E+00 -7.77856E+00 -6.55972E+00 -3.75455E+00 -1.52228E+00  3.37171E+00  4.77617E+00  2.68726E-01  1.75129E+00
  -4.39169E+00 -5.23060E+00 -8.49814E+00 -9.94263E+00 -1.14372E+01 -7.97610E+00 -5.24374E+00 -6.19135E+00 -9.17257E+00 -5.35509E+00
  -8.40601E+00 -9.10018E+00 -5.68914E+00 -1.24462E+01 -8.56223E+00 -9.83091E+00 -1.17725E+01 -7.96454E+00 -9.78593E+00 -1.00181E+01
  -9.46135E+00 -9.32588E+00 -6.93060E+00 -6.44123E+00 -8.54444E+00 -4.24789E+00 -8.86429E+00 -7.24884E+00 -7.58912E+00 -7.36939E+00
  -5.48653E+00 -4.65396E+00 -6.12961E+00 -3.33867E+00 -6.93958E+00 -6.03488E-01 -2.81939E+00 -8.75207E-01 -2.08830E+00 -3.62449E+00
  -7.19573E-01 -2.27247E+00 -1.18640E-01  8.65345E-01  1.92756E+00  6.69641E-01 -1.04798E+00 -2.02857E-01  3.97607E+00  1.30705E+01
   3.07640E+01  5.02477E+01  5.19677E+01  5.55705E+01  4.50014E+01  3.37036E+01  2.67164E+01  2.08136E+01  1.33158E+01  7.18477E+00
   1.46009E+00  3.07454E+00  2.51720E+00  1.57660E+00  1.18096E+00  3.92567E-01  2.46915E+00 -3.89179E-01 -4.48495E-02  6.64484E-01
  -2.99998E+00  9.84647E-01  2.50755E+00  8.12140E+00  2.12073E+01  3.97307E+01  4.94746E+01  5.26513E+01  4.28376E+01  3.72652E+01
   2.90940E+01  1.93307E+01  1.34628E+01  6.95034E+00  4.32123E+00  1.60599E+00 -2.82026E+00  2.32288E-01 -7.51675E-01 -2.79759E-01
  -1.24677E+00  1.72828E+00 -4.31191E-01 -6.58305E-01 -5.64740E-01 -3.97166E+00 -2.07346E+00 -6.38331E-01  1.05206E+00 -3.03627E+00
  -1.51549E+00  1.98990E+00 -1.59111E+00 -5.95703E-01 -2.34831E+00 -1.30397E+00  2.08324E+00 -9.50838E-01  5.44086E+00 -4.73121E+00
  -5.70260E+00 -4.02219E+00 -8.82661E+00 -2.44168E+00  9.19824E-01 -9.47744E-01 -1.83828E+00 -1.96679E+00 -8.38923E+00 -6.13041E+00
  -5.57267E+00 -4.90656E+00 -6.52681E+00 -9.64552E+00 -1.08627E+01 -1.24961E+01 -1.31564E+01 -5.39108E+00 -1.05273E+01 -4.86001E+00
  -1.40669E+01 -1.46542E+01 -8.42047E+00 -8.67160E+00 -7.23352E+00 -3.61547E+00 -8.47892E+00 -8.25252E-01  1.66963E+00  4.18372E+00
   5.26288E+00  8.06496E+00  9.09019E+00  5.95215E+00  6.24223E+00  5.34704E+00  1.16600E+00  9.04427E-01  9.12567E-01 -2.56654E+00
  -1.13518E+00  7.18328E+00  7.76429E+00  1.27316E+01  7.71057E+00  7.41324E+00  2.58865E+00 -4.79308E-01  1.33816E-01 -3.88119E+00
  -3.53505E-01  3.54843E-01  4.47899E+00  5.98864E+00  1.44271E+01  1.99476E+01  1.98822E+01  1.92314E+01  1.34597E+01  7.20866E+00
   1.10972E+00  4.18187E+00 -1.42468E+00  1.76578E+00  5.60522E+00  5.48804E+00  1.07591E+01  1.20329E+01  1.13927E+01  1.41176E+01
   1.31208E+01  1.44364E+01  1.43024E+01  1.15531E+01  1.47089E+01  9.39804E+00  1.25173E+01  1.53125E+01  1.65441E+01  1.22267E+01
   1.09932E+01  7.12876E+00  5.22190E+00  1.13817E+01  1.39291E+01  1.66220E+01  1.65061E+01  1.80304E+01  1.60024E+01  1.89736E+01
   1.81253E+01  1.76837E+01  2.37453E+01  3.06342E+01  3.55573E+01  4.14393E+01  4.72972E+01  5.53361E+01  7.61719E+01  1.03602E+02
   1.22876E+02  1.07903E+02  8.16866E+01  6.24565E+01  5.27833E+01  4.39608E+01  3.18673E+01  2.23708E+01  1.96547E+01  1.57376E+01
   1.50118E+01  1.53931E+01  1.66438E+01  1.17773E+01  1.15191E+01  1.12123E+01  1.24237E+01  1.08710E+01  1.28048E+01  1.19303E+01
   1.26482E+01  1.21510E+01  1.04426E+01  1.19241E+01  1.35652E+01  7.70355E+00  1.30910E+01  7.84586E+00  9.58307E+00  1.36727E+01
   9.52947E+00  1.36943E+01  1.04961E+01  1.08722E+01  1.15310E+01  9.80249E+00  9.78470E+00  9.93497E+00  1.09369E+01  7.42702E+00
   9.09411E+00  1.35045E+01  1.33190E+01  9.77434E+00  1.21469E+01  1.10850E+01  1.27509E+01  1.26800E+01  1.26530E+01  1.34263E+01
   1.30950E+01  1.50890E+01  1.14884E+01  1.27194E+01  1.43981E+01  1.29665E+01  1.32473E+01  1.47614E+01  1.71994E+01  1.23911E+01
   1.45605E+01  1.69288E+01  9.99876E+00  1.32843E+01  1.05869E+01  1.34839E+01  1.61577E+01  9.52258E+00  1.17123E+01  1.01656E+01
   1.15458E+01  1.34240E+01  1.05211E+01  1.07362E+01  1.12342E+01  1.09812E+01  9.96156E+00  1.10961E+01  1.06558E+01  1.00260E+01
   9.32994E+00  8.24114E+00  5.95688E+00  5.60115E+00  7.19343E+00  9.45564E+00  1.04608E+01  8.39631E+00  1.26395E+01  1.17162E+01
   1.31470E+01  1.40644E+01  1.25184E+01  1.46961E+01  1.72531E+01  1.63641E+01  1.77915E+01  1.48943E+01  1.38198E+01  1.55901E+01
   1.49214E+01  1.22287E+01  1.22015E+01  1.30706E+01  1.58968E+01  1.34655E+01  1.41057E+01  1.39073E+01  1.36916E+01  1.61789E+01
   1.44161E+01  1.15312E+01  1.34037E+01  1.11601E+01  1.39238E+01  1.12985E+01  1.34713E+01  1.02692E+01  1.34212E+01  1.28181E+01
   1.42202E+01  1.11043E+01  9.30792E+00  9.34096E+00  6.48260E+00  1.13843E+01  1.45767E+01  1.33383E+01  8.05551E+00  1.02471E+01
   1.01397E+01  1.36334E+01  1.17609E+01  1.68510E+01  1.41703E+01  1.88297E+01  1.50666E+01  1.72591E+01  1.53722E+01  1.53912E+01
   1.99746E+01  1.85119E+01  1.45957E+01  1.86142E+01  1.79265E+01  1.75441E+01  2.01286E+01  2.07621E+01  2.03942E+01  2.01716E+01
   2.14698E+01  2.31181E+01  2.15974E+01  1.87587E+01  2.12109E+01  1.79321E+01  1.77016E+01  1.64146E+01  1.52365E+01  1.57399E+01
   1.02267E+01  1.36238E+01  1.43445E+01  9.24027E+00  1.39584E+01  1.21087E+01  1.29691E+01  9.37201E+00  1.03149E+01  1.28877E+01
   1.40658E+01  1.43116E+01  1.11004E+01  1.26126E+01  1.02564E+01  1.26253E+01  1.07722E+01  1.01591E+01  1.08610E+01  1.18344E+01
   1.17942E+01  1.10194E+01  1.11328E+01  1.00017E+01  8.58425E+00  1.07531E+01  8.99784E+00  1.01441E+01  1.08964E+01  1.05887E+01
   1.05205E+01  1.42454E+01  1.12960E+01  1.11945E+01  1.37253E+01  1.26502E+01  8.12268E+00  8.30856E+00  1.20908E+01  8.29445E+00
   1.26192E+01  1.12687E+01  1.03144E+01  1.15034E+01  9.45670E+00  9.66941E+00  7.39143E+00  9.49309E+00  1.16954E+01  1.17159E+01
   8.35764E+00  1.33488E+01  1.30146E+01  1.03674E+01  1.16361E+01  8.88618E+00  9.33681E+00  9.49332E+00  1.00254E+01  1.30433E+01
   9.01097E+00  1.14809E+01  1.21045E+01  1.13411E+01  1.30152E+01  1.13909E+01  1.19232E+01  7.20264E+00  9.56830E+00  9.49913E+00
   1.25910E+01  9.93597E+00  8.18785E+00  8.48938E+00  1.12252E+01  1.05567E+01  1.43828E+01  7.54735E+00
 NY points of the fit to the data follow
  -2.19194E+01 -2.19069E+01 -2.15927E+01 -2.07979E+01 -1.91380E+01 -1.61134E+01 -1.09293E+01 -3.54394E+00  4.32881E+00  9.72207E+00
   1.06047E+01  7.53617E+00  2.86016E+00 -1.42863E+00 -4.81877E+00 -7.71744E+00 -1.04613E+01 -1.27222E+01 -1.40545E+01 -1.46767E+01
  -1.48694E+01 -1.49957E+01 -1.51613E+01 -1.52589E+01 -1.51356E+01 -1.46122E+01 -1.32763E+01 -1.09095E+01 -7.98170E+00 -5.43618E+00
  -3.88642E+00 -3.24214E+00 -3.26342E+00 -4.05147E+00 -5.76444E+00 -8.05633E+00 -1.03328E+01 -1.19489E+01 -1.26289E+01 -1.25991E+01
  -1.19513E+01 -1.08999E+01 -9.59361E+00 -7.77643E+00 -5.10398E+00 -1.82848E+00  8.09522E-01  1.45215E+00 -6.17548E-02 -2.65357E+00
  -5.11195E+00 -6.93327E+00 -8.27932E+00 -9.31184E+00 -9.92282E+00 -9.91162E+00 -9.22961E+00 -8.05860E+00 -6.74126E+00 -5.78921E+00
  -5.61462E+00 -6.22527E+00 -7.23963E+00 -8.16959E+00 -8.71087E+00 -8.81620E+00 -8.59146E+00 -8.13993E+00 -7.52925E+00 -6.80172E+00
  -6.04888E+00 -5.48543E+00 -5.25372E+00 -5.30680E+00 -5.47872E+00 -5.64837E+00 -5.82132E+00 -5.99966E+00 -6.14759E+00 -6.19436E+00
  -6.08171E+00 -5.79383E+00 -5.28238E+00 -4.39169E+00 -3.01591E+00 -1.52442E+00 -7.01207E-01 -1.05590E+00 -2.23812E+00 -3.36102E+00
  -3.86669E+00 -3.89020E+00 -3.80738E+00 -3.76939E+00 -3.72346E+00 -3.48132E+00 -2.76571E+00 -6.71432E-01  4.35759E+00  1.44543E+01
   2.99976E+01  4.66442E+01  5.68214E+01  5.58680E+01  4.63307E+01  3.48002E+01  2.55169E+01  1.83221E+01  1.16692E+01  5.36161E+00
   5.52247E-01 -1.60831E+00 -2.23859E+00 -2.44464E+00 -2.49971E+00 -2.49252E+00 -2.45903E+00 -2.40922E+00 -2.30477E+00 -2.06014E+00
  -1.48006E+00  7.84627E-02  3.59150E+00  1.06960E+01  2.27873E+01  3.77545E+01  4.93424E+01  5.17654E+01  4.52118E+01  3.53145E+01
   2.71137E+01  2.11309E+01  1.53645E+01  8.94108E+00  2.93841E+00 -6.15664E-01 -1.65071E+00 -1.53618E+00 -8.76880E-01 -9.27586E-02
   5.10184E-01  8.09704E-01  8.17316E-01  6.39639E-01  4.09133E-01  1.63772E-01 -1.07220E-01 -3.79663E-01 -6.59100E-01 -9.15910E-01
  -1.16636E+00 -1.42840E+00 -1.65875E+00 -1.76110E+00 -1.65997E+00 -1.40379E+00 -1.16920E+00 -1.19829E+00 -1.69318E+00 -2.55942E+00
  -3.34274E+00 -3.50316E+00 -2.89073E+00 -1.99054E+00 -1.54110E+00 -1.88487E+00 -2.71607E+00 -3.46117E+00 -3.80840E+00 -3.88588E+00
  -3.97030E+00 -4.23428E+00 -4.76882E+00 -5.51395E+00 -6.21649E+00 -6.48234E+00 -6.03316E+00 -5.17327E+00 -4.63093E+00 -4.75716E+00
  -5.14026E+00 -5.12961E+00 -4.59978E+00 -4.01738E+00 -3.81103E+00 -3.72705E+00 -2.92450E+00 -1.03142E+00  1.47332E+00  3.60646E+00
   4.64288E+00  4.62157E+00  3.95304E+00  3.06582E+00  2.27893E+00  1.74405E+00  1.57771E+00  1.93776E+00  2.80864E+00  4.08798E+00
   5.64906E+00  7.34118E+00  8.91240E+00  9.92063E+00  9.76016E+00  8.18542E+00  5.44082E+00  2.19396E+00 -6.16017E-01 -2.18449E+00
  -2.23573E+00 -9.21634E-01  1.71795E+00  5.72636E+00  1.04247E+01  1.41223E+01  1.51487E+01  1.32808E+01  9.56217E+00  5.25216E+00
   1.04935E+00 -2.28357E+00 -3.49527E+00 -1.90513E+00  1.66778E+00  5.57157E+00  8.54759E+00  1.04844E+01  1.15967E+01  1.20131E+01
   1.19287E+01  1.17314E+01  1.17977E+01  1.22287E+01  1.28875E+01  1.36755E+01  1.44268E+01  1.48090E+01  1.45741E+01  1.36814E+01
   1.23771E+01  1.12195E+01  1.08769E+01  1.16270E+01  1.30583E+01  1.45090E+01  1.55338E+01  1.61526E+01  1.65771E+01  1.70283E+01
   1.79374E+01  1.99208E+01  2.37389E+01  2.92525E+01  3.51771E+01  4.06585E+01  4.70120E+01  5.96627E+01  8.12591E+01  1.04264E+02
   1.14942E+02  1.06707E+02  8.67198E+01  6.72553E+01  5.38102E+01  4.35656E+01  3.34038E+01  2.35756E+01  1.65191E+01  1.41054E+01
   1.32998E+01  1.28998E+01  1.27837E+01  1.28090E+01  1.27535E+01  1.25455E+01  1.22429E+01  1.19392E+01  1.16673E+01  1.14176E+01
   1.11937E+01  1.10270E+01  1.09286E+01  1.08602E+01  1.07734E+01  1.06624E+01  1.05475E+01  1.04414E+01  1.03583E+01  1.03194E+01
   1.03426E+01  1.04177E+01  1.05073E+01  1.05880E+01  1.06636E+01  1.07416E+01  1.08240E+01  1.09157E+01  1.10302E+01  1.11827E+01
   1.13765E+01  1.15983E+01  1.18351E+01  1.20790E+01  1.23244E+01  1.25660E+01  1.27977E+01  1.30128E+01  1.32079E+01  1.33776E+01
   1.35166E+01  1.36218E+01  1.36913E+01  1.37229E+01  1.37147E+01  1.36665E+01  1.35800E+01  1.34590E+01  1.33080E+01  1.31313E+01
   1.29332E+01  1.27189E+01  1.24944E+01  1.22662E+01  1.20397E+01  1.18187E+01  1.16062E+01  1.14054E+01  1.12194E+01  1.10506E+01
   1.08999E+01  1.07668E+01  1.06506E+01  1.05514E+01  1.04691E+01  1.04035E+01  1.03531E+01  1.03166E+01  1.02936E+01  1.02852E+01
   1.02934E+01  1.03213E+01  1.03730E+01  1.04552E+01  1.05778E+01  1.07533E+01  1.09947E+01  1.13132E+01  1.17153E+01  1.22003E+01
   1.27570E+01  1.33620E+01  1.39783E+01  1.45595E+01  1.50558E+01  1.54225E+01  1.56276E+01  1.56574E+01  1.55181E+01  1.52349E+01
   1.48472E+01  1.44018E+01  1.39440E+01  1.35113E+01  1.31286E+01  1.28083E+01  1.25522E+01  1.23547E+01  1.22054E+01  1.20922E+01
   1.20034E+01  1.19300E+01  1.18660E+01  1.18084E+01  1.17560E+01  1.17088E+01  1.16674E+01  1.16336E+01  1.16102E+01  1.16000E+01
   1.16056E+01  1.16290E+01  1.16726E+01  1.17392E+01  1.18319E+01  1.19537E+01  1.21070E+01  1.22941E+01  1.25173E+01  1.27790E+01
   1.30813E+01  1.34252E+01  1.38105E+01  1.42356E+01  1.46982E+01  1.51944E+01  1.57188E+01  1.62634E+01  1.68185E+01  1.73726E+01
   1.79136E+01  1.84286E+01  1.89039E+01  1.93255E+01  1.96806E+01  1.99577E+01  2.01483E+01  2.02463E+01  2.02479E+01  2.01528E+01
   1.99636E+01  1.96866E+01  1.93309E+01  1.89076E+01  1.84290E+01  1.79082E+01  1.73589E+01  1.67949E+01  1.62289E+01  1.56721E+01
   1.51337E+01  1.46210E+01  1.41400E+01  1.36951E+01  1.32885E+01  1.29211E+01  1.25919E+01  1.22995E+01  1.20419E+01  1.18168E+01
   1.16214E+01  1.14523E+01  1.13064E+01  1.11807E+01  1.10731E+01  1.09813E+01  1.09031E+01  1.08361E+01  1.07786E+01  1.07294E+01
   1.06877E+01  1.06523E+01  1.06222E+01  1.05965E+01  1.05744E+01  1.05557E+01  1.05402E+01  1.05274E+01  1.05167E+01  1.05076E+01
   1.05001E+01  1.04943E+01  1.04899E+01  1.04868E+01  1.04845E+01  1.04829E+01  1.04821E+01  1.04822E+01  1.04832E+01  1.04847E+01
   1.04864E+01  1.04884E+01  1.04910E+01  1.04943E+01  1.04980E+01  1.05018E+01  1.05057E+01  1.05098E+01  1.05143E+01  1.05192E+01
   1.05244E+01  1.05294E+01  1.05345E+01  1.05398E+01  1.05455E+01  1.05515E+01  1.05574E+01  1.05633E+01  1.05691E+01  1.05753E+01
   1.05818E+01  1.05884E+01  1.05948E+01  1.06012E+01  1.06077E+01  1.06145E+01  1.06215E+01  1.06286E+01  1.06355E+01  1.06423E+01
   1.06495E+01  1.06569E+01  1.06646E+01  1.06721E+01  1.06795E+01  1.06871E+01  1.06951E+01  1.07033E+01
 NY background values follow
    -2.535E+01   -2.511E+01   -2.487E+01   -2.463E+01   -2.439E+01   -2.415E+01   -2.391E+01   -2.366E+01   -2.342E+01   -2.318E+01
    -2.294E+01   -2.270E+01   -2.246E+01   -2.222E+01   -2.198E+01   -2.175E+01   -2.151E+01   -2.127E+01   -2.103E+01   -2.080E+01
    -2.056E+01   -2.033E+01   -2.009E+01   -1.986E+01   -1.962E+01   -1.939E+01   -1.916E+01   -1.893E+01   -1.870E+01   -1.847E+01
    -1.824E+01   -1.802E+01   -1.779E+01   -1.757E+01   -1.734E+01   -1.712E+01   -1.690E+01   -1.668E+01   -1.646E+01   -1.624E+01
    -1.603E+01   -1.581E+01   -1.560E+01   -1.539E+01   -1.518E+01   -1.497E+01   -1.476E+01   -1.455E+01   -1.435E+01   -1.415E+01
    -1.394E+01   -1.374E+01   -1.355E+01   -1.335E+01   -1.315E+01   -1.296E+01   -1.277E+01   -1.258E+01   -1.239E+01   -1.220E+01
    -1.202E+01   -1.184E+01   -1.165E+01   -1.147E+01   -1.130E+01   -1.112E+01   -1.094E+01   -1.077E+01   -1.060E+01   -1.043E+01
    -1.026E+01   -1.010E+01   -9.935E+00   -9.773E+00   -9.613E+00   -9.455E+00   -9.298E+00   -9.144E+00   -8.992E+00   -8.841E+00
    -8.693E+00   -8.546E+00   -8.401E+00   -8.259E+00   -8.118E+00   -7.980E+00   -7.843E+00   -7.708E+00   -7.576E+00   -7.445E+00
    -7.317E+00   -7.191E+00   -7.066E+00   -6.944E+00   -6.824E+00   -6.706E+00   -6.589E+00   -6.475E+00   -6.363E+00   -6.252E+00
    -6.143E+00   -6.036E+00   -5.931E+00   -5.828E+00   -5.726E+00   -5.626E+00   -5.528E+00   -5.431E+00   -5.336E+00   -5.243E+00
    -5.151E+00   -5.060E+00   -4.971E+00   -4.884E+00   -4.798E+00   -4.713E+00   -4.630E+00   -4.548E+00   -4.468E+00   -4.388E+00
    -4.310E+00   -4.234E+00   -4.158E+00   -4.084E+00   -4.011E+00   -3.939E+00   -3.868E+00   -3.798E+00   -3.729E+00   -3.661E+00
    -3.594E+00   -3.528E+00   -3.463E+00   -3.399E+00   -3.336E+00   -3.274E+00   -3.212E+00   -3.151E+00   -3.091E+00   -3.032E+00
    -2.973E+00   -2.915E+00   -2.857E+00   -2.799E+00   -2.742E+00   -2.686E+00   -2.629E+00   -2.573E+00   -2.517E+00   -2.460E+00
    -2.404E+00   -2.348E+00   -2.292E+00   -2.236E+00   -2.179E+00   -2.122E+00   -2.065E+00   -2.008E+00   -1.950E+00   -1.891E+00
    -1.832E+00   -1.772E+00   -1.712E+00   -1.651E+00   -1.589E+00   -1.526E+00   -1.462E+00   -1.398E+00   -1.332E+00   -1.266E+00
    -1.198E+00   -1.129E+00   -1.058E+00   -9.867E-01   -9.137E-01   -8.393E-01   -7.634E-01   -6.860E-01   -6.070E-01   -5.263E-01
    -4.439E-01   -3.597E-01   -2.737E-01   -1.860E-01   -9.668E-02   -5.749E-03    8.669E-02    1.806E-01    2.758E-01    3.724E-01
     4.701E-01    5.691E-01    6.691E-01    7.701E-01    8.721E-01    9.749E-01    1.079E+00    1.183E+00    1.288E+00    1.394E+00
     1.500E+00    1.606E+00    1.713E+00    1.820E+00    1.928E+00    2.036E+00    2.143E+00    2.251E+00    2.359E+00    2.466E+00
     2.574E+00    2.681E+00    2.788E+00    2.894E+00    3.000E+00    3.105E+00    3.210E+00    3.314E+00    3.417E+00    3.520E+00
     3.621E+00    3.722E+00    3.821E+00    3.920E+00    4.017E+00    4.113E+00    4.207E+00    4.301E+00    4.392E+00    4.483E+00
     4.572E+00    4.660E+00    4.746E+00    4.831E+00    4.915E+00    4.998E+00    5.079E+00    5.159E+00    5.238E+00    5.315E+00
     5.391E+00    5.467E+00    5.541E+00    5.613E+00    5.685E+00    5.755E+00    5.825E+00    5.893E+00    5.960E+00    6.026E+00
     6.091E+00    6.155E+00    6.218E+00    6.280E+00    6.340E+00    6.400E+00    6.459E+00    6.517E+00    6.574E+00    6.630E+00
     6.685E+00    6.739E+00    6.792E+00    6.844E+00    6.896E+00    6.946E+00    6.996E+00    7.045E+00    7.093E+00    7.140E+00
     7.186E+00    7.232E+00    7.277E+00    7.321E+00    7.364E+00    7.407E+00    7.449E+00    7.490E+00    7.531E+00    7.570E+00
     7.609E+00    7.648E+00    7.685E+00    7.722E+00    7.758E+00    7.794E+00    7.829E+00    7.863E+00    7.896E+00    7.929E+00
     7.962E+00    7.993E+00    8.024E+00    8.054E+00    8.084E+00    8.113E+00    8.142E+00    8.170E+00    8.197E+00    8.224E+00
     8.250E+00    8.276E+00    8.301E+00    8.325E+00    8.349E+00    8.372E+00    8.395E+00    8.417E+00    8.439E+00    8.460E+00
     8.481E+00    8.501E+00    8.521E+00    8.540E+00    8.559E+00    8.577E+00    8.595E+00    8.613E+00    8.629E+00    8.646E+00
     8.662E+00    8.677E+00    8.693E+00    8.707E+00    8.722E+00    8.736E+00    8.749E+00    8.762E+00    8.775E+00    8.788E+00
     8.800E+00    8.812E+00    8.823E+00    8.834E+00    8.845E+00    8.856E+00    8.866E+00    8.876E+00    8.886E+00    8.896E+00
     8.905E+00    8.914E+00    8.923E+00    8.931E+00    8.940E+00    8.948E+00    8.956E+00    8.964E+00    8.972E+00    8.979E+00
     8.987E+00    8.994E+00    9.001E+00    9.008E+00    9.015E+00    9.022E+00    9.029E+00    9.035E+00    9.042E+00    9.048E+00
     9.055E+00    9.061E+00    9.068E+00    9.074E+00    9.081E+00    9.087E+00    9.094E+00    9.100E+00    9.106E+00    9.113E+00
     9.119E+00    9.126E+00    9.132E+00    9.139E+00    9.146E+00    9.152E+00    9.159E+00    9.166E+00    9.173E+00    9.180E+00
     9.187E+00    9.194E+00    9.202E+00    9.209E+00    9.217E+00    9.224E+00    9.232E+00    9.240E+00    9.248E+00    9.256E+00
     9.265E+00    9.273E+00    9.282E+00    9.291E+00    9.300E+00    9.310E+00    9.319E+00    9.329E+00    9.339E+00    9.349E+00
     9.359E+00    9.370E+00    9.381E+00    9.392E+00    9.403E+00    9.415E+00    9.427E+00    9.439E+00    9.451E+00    9.464E+00
     9.477E+00    9.490E+00    9.503E+00    9.517E+00    9.531E+00    9.545E+00    9.559E+00    9.573E+00    9.588E+00    9.603E+00
     9.618E+00    9.633E+00    9.648E+00    9.663E+00    9.678E+00    9.694E+00    9.710E+00    9.725E+00    9.741E+00    9.757E+00
     9.772E+00    9.788E+00    9.804E+00    9.820E+00    9.836E+00    9.852E+00    9.868E+00    9.884E+00    9.899E+00    9.915E+00
     9.931E+00    9.946E+00    9.962E+00    9.977E+00    9.993E+00    1.001E+01    1.002E+01    1.004E+01    1.005E+01    1.007E+01
     1.008E+01    1.010E+01    1.011E+01    1.013E+01    1.014E+01    1.015E+01    1.017E+01    1.018E+01    1.019E+01    1.021E+01
     1.022E+01    1.023E+01    1.024E+01    1.026E+01    1.027E+01    1.028E+01    1.029E+01    1.030E+01    1.032E+01    1.033E+01
     1.034E+01    1.035E+01    1.036E+01    1.037E+01    1.038E+01    1.039E+01    1.041E+01    1.042E+01    1.043E+01    1.044E+01
     1.045E+01    1.046E+01    1.047E+01    1.048E+01    1.049E+01    1.050E+01    1.051E+01    1.052E+01    1.053E+01    1.054E+01
     1.055E+01    1.056E+01    1.057E+01    1.058E+01    1.059E+01    1.060E+01    1.061E+01    1.062E+01
 Cr       Conc. = 4.04E+02
