 LCModel (Version 6.3-1L) Copyright: S.W. Provencher.          Ref.: Magn. Reson. Med. 30:672-679 (1993).                
 Slice#2 Row#1 Col#11  PD_05_press_1_raw_act
 36 lines in following concentration table = NCONC+1
    Conc.  %SD /Cr+PCr  Metabolite                                         
   67.132  54%  10.187 Ala                                                 
    3.845 223%   0.583 Asp                                                 
    6.590 224%   1.000 Cr                                                  
    0.000 999%   0.000 PCr                                                 
    2.329 220%   0.353 GABA                                                
    2.138 241%   0.324 Glc                                                 
   28.865 179%   4.380 Gln                                                 
   11.138 502%   1.690 Glu                                                 
    0.000 999%   0.000 GPC                                                 
    4.269 134%   0.648 PCh                                                 
   23.884  88%   3.624 GSH                                                 
    0.000 999%   0.000 Ins                                                 
    0.000 999%   0.000 Lac                                                 
   16.511 122%   2.505 NAA                                                 
   40.995  49%   6.221 NAAG                                                
    1.209 140%   0.183 Scyllo                                              
    5.392 158%   0.818 Tau                                                 
    3.694 215%   0.560 -CrCH2                                              
    4.269 134%   0.648 GPC+PCh                                             
   57.506  49%   8.726 NAA+NAAG                                            
    6.590 224%   1.000 Cr+PCr                                              
   40.003 176%   6.070 Glu+Gln                                             
 4.63E+03   7% 702.854 Lip13a                                              
    0.000 999%   0.000 Lip13b                                              
  585.223  23%  88.801 Lip09                                               
    0.000 999%   0.000 MM09                                                
 1.04E+03  21% 158.535 Lip20                                               
  281.132  62%  42.658 MM20                                                
    0.000 999%   0.000 MM12                                                
  860.675  24% 130.597 MM14                                                
 1.02E+03  16% 155.450+MM17                                                
 4.63E+03   7% 702.854 Lip13a+Lip13b                                       
 5.49E+03   5% 833.451 MM14+Lip13a+Lip13b+MM12                             
  585.223  23%  88.801 MM09+Lip09                                          
 1.33E+03  15% 201.194 MM20+Lip20                                          
   6 lines in following misc. output table
  FWHM = 0.031 ppm    S/N =   5                                            
  Data shift =-0.015 ppm                                                   
  Ph:  54 deg       3.8 deg/ppm                                            
  alphaB,S = 8.5E+01,   9.2E+00                                            
   14 spline knots.   Ns = 5(1)                                            
   2 inflections.     2 extrema                                            
  498 points on ppm-axis = NY
      4.000000     3.992357     3.984714     3.977070     3.969427     3.961784     3.954141     3.946497     3.938854     3.931211
      3.923568     3.915925     3.908281     3.900638     3.892995     3.885352     3.877708     3.870065     3.862422     3.854779
      3.847136     3.839492     3.831849     3.824206     3.816563     3.808919     3.801276     3.793633     3.785990     3.778347
      3.770703     3.763060     3.755417     3.747774     3.740130     3.732487     3.724844     3.717201     3.709558     3.701914
      3.694271     3.686628     3.678985     3.671341     3.663698     3.656055     3.648412     3.640769     3.633125     3.625482
      3.617839     3.610196     3.602552     3.594909     3.587266     3.579623     3.571980     3.564336     3.556693     3.549050
      3.541407     3.533763     3.526120     3.518477     3.510834     3.503191     3.495547     3.487904     3.480261     3.472618
      3.464974     3.457331     3.449688     3.442045     3.434402     3.426758     3.419115     3.411472     3.403829     3.396185
      3.388542     3.380899     3.373256     3.365613     3.357969     3.350326     3.342683     3.335040     3.327396     3.319753
      3.312110     3.304467     3.296824     3.289180     3.281537     3.273894     3.266251     3.258607     3.250964     3.243321
      3.235678     3.228034     3.220391     3.212748     3.205105     3.197462     3.189818     3.182175     3.174532     3.166889
      3.159245     3.151602     3.143959     3.136316     3.128673     3.121029     3.113386     3.105743     3.098100     3.090456
      3.082813     3.075170     3.067527     3.059884     3.052240     3.044597     3.036954     3.029311     3.021667     3.014024
      3.006381     2.998738     2.991095     2.983451     2.975808     2.968165     2.960522     2.952878     2.945235     2.937592
      2.929949     2.922306     2.914662     2.907019     2.899376     2.891733     2.884089     2.876446     2.868803     2.861160
      2.853517     2.845873     2.838230     2.830587     2.822944     2.815300     2.807657     2.800014     2.792371     2.784728
      2.777084     2.769441     2.761798     2.754155     2.746511     2.738868     2.731225     2.723582     2.715939     2.708295
      2.700652     2.693009     2.685366     2.677722     2.670079     2.662436     2.654793     2.647150     2.639506     2.631863
      2.624220     2.616577     2.608933     2.601290     2.593647     2.586004     2.578361     2.570717     2.563074     2.555431
      2.547788     2.540144     2.532501     2.524858     2.517215     2.509572     2.501928     2.494285     2.486642     2.478999
      2.471355     2.463712     2.456069     2.448426     2.440783     2.433139     2.425496     2.417853     2.410210     2.402566
      2.394923     2.387280     2.379637     2.371994     2.364350     2.356707     2.349064     2.341421     2.333777     2.326134
      2.318491     2.310848     2.303205     2.295561     2.287918     2.280275     2.272632     2.264988     2.257345     2.249702
      2.242059     2.234416     2.226772     2.219129     2.211486     2.203843     2.196199     2.188556     2.180913     2.173270
      2.165627     2.157983     2.150340     2.142697     2.135054     2.127410     2.119767     2.112124     2.104481     2.096838
      2.089194     2.081551     2.073908     2.066265     2.058621     2.050978     2.043335     2.035692     2.028049     2.020405
      2.012762     2.005119     1.997476     1.989833     1.982190     1.974546     1.966903     1.959260     1.951617     1.943974
      1.936331     1.928688     1.921045     1.913402     1.905759     1.898115     1.890472     1.882829     1.875186     1.867543
      1.859900     1.852257     1.844614     1.836971     1.829327     1.821684     1.814041     1.806398     1.798755     1.791112
      1.783469     1.775826     1.768183     1.760540     1.752896     1.745253     1.737610     1.729967     1.722324     1.714681
      1.707038     1.699395     1.691752     1.684108     1.676465     1.668822     1.661179     1.653536     1.645893     1.638250
      1.630607     1.622964     1.615321     1.607677     1.600034     1.592391     1.584748     1.577105     1.569462     1.561819
      1.554176     1.546533     1.538890     1.531246     1.523603     1.515960     1.508317     1.500674     1.493031     1.485388
      1.477745     1.470102     1.462458     1.454815     1.447172     1.439529     1.431886     1.424243     1.416600     1.408957
      1.401314     1.393671     1.386027     1.378384     1.370741     1.363098     1.355455     1.347812     1.340169     1.332526
      1.324883     1.317240     1.309596     1.301953     1.294310     1.286667     1.279024     1.271381     1.263738     1.256095
      1.248452     1.240808     1.233165     1.225522     1.217879     1.210236     1.202593     1.194950     1.187307     1.179664
      1.172021     1.164377     1.156734     1.149091     1.141448     1.133805     1.126162     1.118519     1.110876     1.103233
      1.095590     1.087946     1.080303     1.072660     1.065017     1.057374     1.049731     1.042088     1.034445     1.026802
      1.019158     1.011515     1.003872     0.996229     0.988586     0.980943     0.973300     0.965657     0.958014     0.950371
      0.942727     0.935084     0.927441     0.919798     0.912155     0.904512     0.896869     0.889226     0.881583     0.873940
      0.866296     0.858653     0.851010     0.843367     0.835724     0.828081     0.820438     0.812795     0.805152     0.797508
      0.789865     0.782222     0.774579     0.766936     0.759293     0.751650     0.744007     0.736364     0.728721     0.721077
      0.713434     0.705791     0.698148     0.690505     0.682862     0.675219     0.667576     0.659933     0.652290     0.644646
      0.637003     0.629360     0.621717     0.614074     0.606431     0.598788     0.591145     0.583502     0.575858     0.568215
      0.560572     0.552929     0.545286     0.537643     0.530000     0.522357     0.514714     0.507071     0.499427     0.491784
      0.484141     0.476498     0.468855     0.461212     0.453569     0.445925     0.438282     0.430639     0.422996     0.415353
      0.407710     0.400067     0.392424     0.384780     0.377137     0.369494     0.361851     0.354208     0.346565     0.338922
      0.331278     0.323635     0.315992     0.308349     0.300706     0.293063     0.285420     0.277777     0.270133     0.262490
      0.254847     0.247204     0.239561     0.231918     0.224275     0.216631     0.208988     0.201345
 NY phased data points follow
   2.12743E-01 -9.31473E-02 -9.12380E-01 -3.04982E-01  1.73699E+00  1.46855E+00 -9.34203E-01  1.82732E+00  1.21952E+00 -5.43110E-01
  -3.14278E-01  7.49260E-01  1.76144E+00  9.96494E-01  9.19588E-01  1.91781E+00  1.40318E+00  1.43174E+00 -1.17576E+00  9.04156E-02
  -4.57219E-01  3.18623E+00 -9.43005E-01  1.00612E+00  1.65298E+00  1.11817E-01  1.60687E+00 -4.47551E-01  1.08232E+00  4.07524E-01
   2.88231E+00  9.40889E-01  2.47040E+00  3.43433E-01  3.51447E+00  5.35128E-02  1.17980E+00  1.36820E+00  2.62031E-01  1.38810E+00
   3.54290E+00  4.58993E-01  2.72407E+00  1.07879E+00  1.43412E+00  9.50095E-01 -4.38565E-01  1.70621E+00  8.84542E-01  1.72952E+00
   1.08890E+00  8.67154E-01  2.02657E+00  4.70073E-01  3.30306E+00  9.49961E-01  1.51123E+00  2.69095E+00  1.15727E+00  3.77057E+00
  -1.47438E+00 -7.75426E-01 -7.21070E-01  1.09669E+00 -2.47282E-01  1.52422E-01  6.21266E-01  3.29876E-01 -6.33776E-02 -6.10534E-01
   2.37971E-01  1.77053E+00  2.28679E+00  1.76874E+00 -3.26328E-01  1.85743E+00  1.69186E+00  1.31506E+00  3.32747E-02  1.77746E+00
   2.08937E-01 -2.39975E-01  9.42253E-01 -7.50770E-02  1.33668E+00  4.03035E+00  2.24904E+00  2.47940E+00  1.13484E+00  4.04252E-01
   1.34532E+00  3.10560E+00  3.70790E+00  3.00444E-01  2.48170E+00  1.20131E+00  2.07769E+00  1.74769E+00  2.49550E-01  2.21364E+00
   1.30328E+00  2.36001E+00  1.46717E+00  9.88486E-01  4.47338E+00 -2.26362E-02  3.12909E-01  3.40861E-01  3.26270E+00  1.70477E+00
   1.52257E+00  3.14918E+00  2.22022E+00  1.54518E+00  1.66580E+00  1.82757E+00  2.17525E+00  1.91748E+00  1.59067E+00  1.37662E+00
   1.09322E+00  2.65763E+00 -4.35339E-01  3.35846E+00  9.91681E-01  2.57864E+00  3.12892E-01  2.72310E+00  2.52086E-01  4.65029E+00
   1.66958E+00  1.51143E+00 -1.95372E-01  1.22347E+00  1.55018E+00  1.87756E+00  2.84883E+00  1.79111E+00 -1.03296E+00  2.32200E+00
   4.03717E-01  1.05685E+00  2.85212E+00  3.81905E+00  2.14354E+00  8.08928E-01  1.25794E+00  2.83486E+00  1.95242E+00  9.08236E-01
   7.84235E-01  2.03558E+00  8.28382E-01  1.81650E+00  7.33649E-01  9.08627E-01  5.84687E+00  2.30169E+00  2.90430E+00  2.37396E+00
   1.34876E+00  1.68980E+00 -2.18482E-01  1.40670E+00  3.42434E-01  2.51599E+00  5.27748E+00  2.05342E+00  1.33435E+00  1.80622E+00
   3.93543E-01  9.80452E-01  2.88514E-01  8.88304E-01  1.11220E-01 -5.14673E-01  2.63714E+00 -1.98537E-01  1.98798E+00  5.16203E-01
   8.20924E-01  1.64182E+00  1.58430E+00  1.64054E+00  3.18786E-01  1.46576E+00  1.61053E-01  1.10835E-01  2.65720E+00  2.12931E+00
   3.76152E-01  3.04423E+00  1.39608E+00  2.73822E-01  1.45765E+00  3.29568E+00  1.48888E+00 -2.74600E-01  3.49205E-01  1.50972E+00
   1.05051E+00  1.79531E+00  4.18358E+00  1.52047E+00  2.21424E+00  2.44096E+00  4.67987E-01  2.88568E+00  1.72099E+00  2.68210E+00
   1.90913E+00  1.35764E+00  2.42357E+00  2.25310E+00  2.00055E+00  2.59010E+00  1.77311E+00  2.77426E+00  4.05902E+00  2.33479E+00
   4.24315E+00  1.12192E+00  2.11762E+00  4.71897E+00  1.60688E+00  2.09747E+00  3.60973E+00  3.53148E+00  1.43175E-01  2.14493E+00
   4.01768E+00  3.23961E+00  3.18507E+00  2.27743E+00  2.98931E+00  1.30482E+00  5.37067E+00  4.36485E+00  1.40130E-01  9.80954E-01
   4.76362E+00  3.80271E+00  2.87585E+00  4.30329E+00  3.40381E+00  1.38283E+00  3.73435E+00  4.48680E+00  3.67605E+00  2.42254E+00
   4.88830E+00  3.71798E+00  2.47254E+00  2.51788E+00  4.80235E+00  5.61179E+00  5.56740E+00  6.68932E+00  6.06868E+00  6.00097E+00
   4.73869E+00  6.00930E+00  4.54195E+00  3.43595E+00  3.30080E+00  6.86196E+00  6.55916E+00  7.18124E+00  4.87781E+00  3.62066E+00
   3.66964E+00  3.95707E-01  4.38186E+00  3.49679E+00  3.34490E+00  5.61378E+00  3.25324E+00  4.29384E+00  4.28673E+00  4.36448E+00
   3.15856E+00  4.65251E+00  4.91651E+00  2.88578E+00  1.38696E-01  4.96422E+00  4.17784E+00  4.19821E+00  4.86584E+00  5.43795E+00
   3.10444E+00  4.91391E+00  4.80513E+00  4.32595E+00  6.70124E+00  4.69927E+00  6.87296E+00  5.73257E+00  7.40379E+00  6.63608E+00
   6.04944E+00  6.60502E+00  9.64398E+00  5.12212E+00  5.81229E+00  7.46803E+00  5.75990E+00  7.15352E+00  5.67522E+00  6.99057E+00
   4.81409E+00  5.95278E+00  7.46925E+00  6.68688E+00  4.74058E+00  6.21778E+00  6.46105E+00  6.49685E+00  8.40873E+00  6.86283E+00
   9.45486E+00  6.51408E+00  6.22958E+00  6.91469E+00  5.48821E+00  6.08130E+00  8.23830E+00  5.54033E+00  9.36951E+00  7.58418E+00
   6.51650E+00  4.86581E+00  5.55824E+00  5.25476E+00  5.35643E+00  5.84943E+00  7.29954E+00  6.59332E+00  1.04224E+01  7.52260E+00
   7.71230E+00  7.21844E+00  7.44237E+00  7.33193E+00  1.27309E+01  8.18348E+00  7.58322E+00  6.06206E+00  9.12512E+00  1.03393E+01
   1.11107E+01  1.12363E+01  1.06188E+01  1.27745E+01  1.11199E+01  1.38413E+01  1.29904E+01  1.44658E+01  1.35666E+01  1.24400E+01
   1.29554E+01  1.58271E+01  1.45600E+01  1.42667E+01  1.41813E+01  1.45937E+01  1.60091E+01  1.39666E+01  1.68126E+01  1.82279E+01
   1.62591E+01  1.72291E+01  1.53827E+01  1.60220E+01  1.61017E+01  1.75351E+01  1.49707E+01  1.71850E+01  1.40464E+01  1.42897E+01
   1.10172E+01  8.58155E+00  8.56578E+00  9.04155E+00  7.52193E+00  6.68771E+00  6.28262E+00  7.20340E+00  5.98831E+00  7.17440E+00
   4.59423E+00  7.13463E+00  4.37958E+00  4.14051E+00  3.48452E+00  4.77780E+00  4.66464E+00  3.81963E+00  2.88919E+00  4.20943E+00
   2.14911E+00  2.23920E+00  4.10014E+00  1.40431E+00  2.59909E+00  3.28550E+00  2.43204E+00  9.77371E-01  1.67428E+00  2.74644E+00
   2.90911E+00  3.04475E+00  4.08461E+00  2.19561E+00  3.02162E+00  5.50363E+00  5.45259E+00  4.23791E+00  2.71915E+00  3.88885E+00
   5.77978E+00  2.58383E+00  3.92377E+00  5.18081E+00  2.00314E+00  2.38879E+00  3.92542E+00  4.88859E+00  3.13547E+00  3.24119E+00
   4.55372E+00  1.54152E+00  1.88892E+00  2.33068E+00  2.51375E+00  2.54713E+00  1.34747E+00  2.10026E+00  2.42565E+00 -7.69194E-01
   2.09491E+00  1.37334E+00  2.55287E-02  7.58065E-01  1.60322E+00  1.55917E+00  5.22170E-01 -1.03173E+00  2.21283E-01  2.70099E-01
   1.61252E+00  1.45151E+00  2.67058E+00 -6.00882E-01  1.44568E+00  8.34616E-01 -3.73046E-01 -2.97519E-01 -7.37092E-01 -1.09497E+00
  -5.27037E-01 -1.90047E+00 -1.45636E+00 -4.95156E-01 -6.67685E-01  2.24419E-01  1.90853E-01 -6.92132E-01 -4.18470E+00  8.82210E-01
  -6.71960E-01 -5.03507E-01 -2.63291E+00 -1.44606E+00 -3.94424E+00 -2.32759E+00 -1.42915E+00 -3.86800E+00 -3.82389E+00 -1.39137E+00
  -3.10951E+00 -2.44601E+00 -7.61207E-01 -1.77941E+00  5.86229E-01 -9.14160E-01  1.41548E+00  3.54580E-01 -1.81578E+00 -6.16185E-01
  -4.02548E+00 -1.06427E+00 -2.53759E+00 -7.99536E-01 -3.03537E+00 -2.06921E+00 -1.85627E+00 -1.78736E+00
 NY points of the fit to the data follow
   1.37412E+00  1.36936E+00  1.36515E+00  1.36337E+00  1.36644E+00  1.36867E+00  1.35321E+00  1.31051E+00  1.26028E+00  1.24031E+00
   1.27544E+00  1.35587E+00  1.44174E+00  1.48866E+00  1.48031E+00  1.42986E+00  1.35172E+00  1.26419E+00  1.19750E+00  1.17639E+00
   1.20310E+00  1.27695E+00  1.38844E+00  1.51375E+00  1.59358E+00  1.54819E+00  1.38129E+00  1.19943E+00  1.14565E+00  1.27904E+00
   1.53702E+00  1.78207E+00  1.91811E+00  1.91824E+00  1.82890E+00  1.69081E+00  1.52025E+00  1.38742E+00  1.30389E+00  1.24347E+00
   1.19801E+00  1.16725E+00  1.14491E+00  1.13373E+00  1.13643E+00  1.14255E+00  1.14972E+00  1.15578E+00  1.15390E+00  1.14854E+00
   1.14223E+00  1.13721E+00  1.13405E+00  1.13244E+00  1.13141E+00  1.12871E+00  1.12333E+00  1.11639E+00  1.10864E+00  1.10142E+00
   1.09579E+00  1.09130E+00  1.08737E+00  1.08467E+00  1.08374E+00  1.08453E+00  1.08582E+00  1.08570E+00  1.08175E+00  1.07354E+00
   1.06239E+00  1.05046E+00  1.04201E+00  1.04339E+00  1.05613E+00  1.07352E+00  1.08736E+00  1.08775E+00  1.07094E+00  1.04502E+00
   1.02202E+00  1.00581E+00  9.99422E-01  1.00845E+00  1.03493E+00  1.07433E+00  1.11450E+00  1.13902E+00  1.13666E+00  1.11213E+00
   1.08179E+00  1.05617E+00  1.03398E+00  1.01492E+00  9.96791E-01  9.80892E-01  9.76052E-01  9.84500E-01  9.90734E-01  9.86299E-01
   1.00165E+00  1.08864E+00  1.26640E+00  1.48599E+00  1.65788E+00  1.70200E+00  1.60950E+00  1.44871E+00  1.29915E+00  1.18696E+00
   1.12568E+00  1.11299E+00  1.11512E+00  1.12217E+00  1.13226E+00  1.14662E+00  1.16455E+00  1.18353E+00  1.20045E+00  1.21361E+00
   1.22310E+00  1.23076E+00  1.23600E+00  1.24709E+00  1.28724E+00  1.38101E+00  1.52254E+00  1.67131E+00  1.77629E+00  1.80612E+00
   1.78130E+00  1.76154E+00  1.78018E+00  1.81288E+00  1.82582E+00  1.78371E+00  1.68323E+00  1.57600E+00  1.52504E+00  1.55834E+00
   1.66935E+00  1.82172E+00  1.95943E+00  2.04914E+00  2.08917E+00  2.09336E+00  2.08647E+00  2.08463E+00  2.08971E+00  2.10461E+00
   2.12191E+00  2.13300E+00  2.12980E+00  2.11145E+00  2.08572E+00  2.06774E+00  2.07322E+00  2.10184E+00  2.13303E+00  2.14293E+00
   2.12165E+00  2.07430E+00  2.01700E+00  1.96891E+00  1.93301E+00  1.90274E+00  1.86984E+00  1.82252E+00  1.75861E+00  1.69081E+00
   1.63694E+00  1.60798E+00  1.59866E+00  1.58432E+00  1.54208E+00  1.47271E+00  1.39681E+00  1.33441E+00  1.29542E+00  1.26745E+00
   1.23041E+00  1.18224E+00  1.13614E+00  1.10290E+00  1.08766E+00  1.08215E+00  1.07406E+00  1.06527E+00  1.07708E+00  1.12877E+00
   1.21472E+00  1.30918E+00  1.36817E+00  1.36063E+00  1.27562E+00  1.12862E+00  9.61982E-01  8.30859E-01  7.81270E-01  8.39534E-01
   9.88204E-01  1.17024E+00  1.33358E+00  1.45425E+00  1.52913E+00  1.55942E+00  1.54751E+00  1.48042E+00  1.35623E+00  1.21850E+00
   1.13047E+00  1.13643E+00  1.24914E+00  1.43494E+00  1.63669E+00  1.81801E+00  1.96531E+00  2.06482E+00  2.12237E+00  2.15469E+00
   2.17084E+00  2.18348E+00  2.20901E+00  2.26626E+00  2.35822E+00  2.47357E+00  2.59517E+00  2.70692E+00  2.79297E+00  2.83637E+00
   2.83530E+00  2.81607E+00  2.81310E+00  2.85243E+00  2.94511E+00  3.07908E+00  3.22960E+00  3.37634E+00  3.50151E+00  3.58610E+00
   3.61596E+00  3.59627E+00  3.55941E+00  3.53450E+00  3.56024E+00  3.65943E+00  3.80542E+00  3.95162E+00  4.07355E+00  4.16419E+00
   4.21109E+00  4.19159E+00  4.16327E+00  4.28703E+00  4.70850E+00  5.35868E+00  5.99205E+00  6.35056E+00  6.32571E+00  6.03285E+00
   5.69693E+00  5.39345E+00  5.05252E+00  4.70405E+00  4.35266E+00  4.02613E+00  3.74688E+00  3.53203E+00  3.38582E+00  3.26561E+00
   3.16145E+00  3.07649E+00  3.01207E+00  2.96530E+00  2.92898E+00  2.89491E+00  2.86096E+00  2.83075E+00  2.81321E+00  2.81855E+00
   2.85268E+00  2.91663E+00  3.00984E+00  3.12981E+00  3.27151E+00  3.43076E+00  3.60528E+00  3.79377E+00  3.99514E+00  4.20895E+00
   4.43725E+00  4.68055E+00  4.93471E+00  5.19321E+00  5.44674E+00  5.68601E+00  5.90465E+00  6.09776E+00  6.26188E+00  6.39707E+00
   6.50382E+00  6.58244E+00  6.63260E+00  6.65335E+00  6.64518E+00  6.61054E+00  6.55265E+00  6.47677E+00  6.38884E+00  6.29466E+00
   6.20002E+00  6.11035E+00  6.03054E+00  5.96481E+00  5.91654E+00  5.88826E+00  5.88159E+00  5.89725E+00  5.93503E+00  5.99369E+00
   6.07064E+00  6.15967E+00  6.25161E+00  6.39188E+00  6.67349E+00  7.11769E+00  7.57922E+00  7.82657E+00  7.70330E+00  7.22394E+00
   6.56417E+00  5.93343E+00  5.46964E+00  5.27830E+00  5.51038E+00  6.13441E+00  6.94201E+00  7.68081E+00  8.12738E+00  8.26176E+00
   8.23224E+00  8.14241E+00  8.08414E+00  8.14510E+00  8.29084E+00  8.49707E+00  8.75504E+00  9.06055E+00  9.41062E+00  9.80234E+00
   1.02323E+01  1.06963E+01  1.11894E+01  1.17056E+01  1.22378E+01  1.27781E+01  1.33181E+01  1.38484E+01  1.43594E+01  1.48414E+01
   1.52844E+01  1.56793E+01  1.60173E+01  1.62906E+01  1.64928E+01  1.66188E+01  1.66649E+01  1.66295E+01  1.65126E+01  1.63158E+01
   1.60428E+01  1.56983E+01  1.52889E+01  1.48218E+01  1.43055E+01  1.37486E+01  1.31603E+01  1.25495E+01  1.19252E+01  1.12956E+01
   1.06684E+01  1.00504E+01  9.44777E+00  8.86544E+00  8.30763E+00  7.77762E+00  7.27787E+00  6.81007E+00  6.37523E+00  5.97384E+00
   5.60589E+00  5.27102E+00  4.96862E+00  4.69784E+00  4.45772E+00  4.24721E+00  4.06522E+00  3.91066E+00  3.78239E+00  3.67926E+00
   3.60007E+00  3.54357E+00  3.50839E+00  3.49305E+00  3.49585E+00  3.51491E+00  3.54809E+00  3.59301E+00  3.64704E+00  3.70730E+00
   3.77071E+00  3.83403E+00  3.89397E+00  3.94723E+00  3.99063E+00  4.02123E+00  4.03639E+00  4.03388E+00  4.01201E+00  3.96965E+00
   3.90629E+00  3.82203E+00  3.71759E+00  3.59424E+00  3.45376E+00  3.29834E+00  3.13046E+00  2.95280E+00  2.76809E+00  2.57908E+00
   2.38838E+00  2.19841E+00  2.01131E+00  1.82893E+00  1.65280E+00  1.48411E+00  1.32375E+00  1.17229E+00  1.03003E+00  8.97049E-01
   7.73229E-01  6.58302E-01  5.51884E-01  4.53507E-01  3.62648E-01  2.78757E-01  2.01283E-01  1.29687E-01  6.34466E-02  2.06655E-03
  -5.49165E-02 -1.07927E-01 -1.57348E-01 -2.03527E-01 -2.46778E-01 -2.87386E-01 -3.25606E-01 -3.61664E-01 -3.95756E-01 -4.28059E-01
  -4.58733E-01 -4.87924E-01 -5.15760E-01 -5.42352E-01 -5.67797E-01 -5.92185E-01 -6.15599E-01 -6.38118E-01 -6.59806E-01 -6.80721E-01
  -7.00914E-01 -7.20436E-01 -7.39334E-01 -7.57651E-01 -7.75423E-01 -7.92682E-01 -8.09455E-01 -8.25776E-01 -8.41672E-01 -8.57171E-01
  -8.72290E-01 -8.87050E-01 -9.01468E-01 -9.15566E-01 -9.29363E-01 -9.42873E-01 -9.56109E-01 -9.69081E-01 -9.81804E-01 -9.94292E-01
  -1.00656E+00 -1.01861E+00 -1.03046E+00 -1.04210E+00 -1.05356E+00 -1.06484E+00 -1.07595E+00 -1.08690E+00
 NY background values follow
     1.290E+00    1.284E+00    1.279E+00    1.273E+00    1.268E+00    1.263E+00    1.257E+00    1.252E+00    1.246E+00    1.241E+00
     1.235E+00    1.230E+00    1.225E+00    1.219E+00    1.214E+00    1.208E+00    1.203E+00    1.198E+00    1.192E+00    1.187E+00
     1.181E+00    1.176E+00    1.171E+00    1.165E+00    1.160E+00    1.154E+00    1.149E+00    1.143E+00    1.138E+00    1.133E+00
     1.127E+00    1.122E+00    1.116E+00    1.111E+00    1.106E+00    1.100E+00    1.095E+00    1.089E+00    1.084E+00    1.078E+00
     1.073E+00    1.068E+00    1.062E+00    1.057E+00    1.051E+00    1.046E+00    1.041E+00    1.035E+00    1.030E+00    1.024E+00
     1.019E+00    1.013E+00    1.008E+00    1.003E+00    9.972E-01    9.918E-01    9.864E-01    9.810E-01    9.756E-01    9.702E-01
     9.648E-01    9.593E-01    9.539E-01    9.485E-01    9.431E-01    9.377E-01    9.323E-01    9.268E-01    9.214E-01    9.160E-01
     9.106E-01    9.052E-01    8.998E-01    8.944E-01    8.889E-01    8.835E-01    8.781E-01    8.727E-01    8.673E-01    8.619E-01
     8.565E-01    8.510E-01    8.456E-01    8.402E-01    8.348E-01    8.294E-01    8.240E-01    8.185E-01    8.131E-01    8.077E-01
     8.023E-01    7.969E-01    7.915E-01    7.861E-01    7.806E-01    7.752E-01    7.698E-01    7.644E-01    7.590E-01    7.536E-01
     7.481E-01    7.427E-01    7.373E-01    7.319E-01    7.265E-01    7.211E-01    7.157E-01    7.102E-01    7.048E-01    6.994E-01
     6.940E-01    6.886E-01    6.832E-01    6.777E-01    6.723E-01    6.669E-01    6.615E-01    6.561E-01    6.507E-01    6.452E-01
     6.398E-01    6.344E-01    6.290E-01    6.236E-01    6.182E-01    6.127E-01    6.073E-01    6.019E-01    5.965E-01    5.911E-01
     5.857E-01    5.803E-01    5.748E-01    5.694E-01    5.640E-01    5.586E-01    5.532E-01    5.478E-01    5.423E-01    5.369E-01
     5.315E-01    5.261E-01    5.207E-01    5.153E-01    5.098E-01    5.044E-01    4.990E-01    4.936E-01    4.882E-01    4.828E-01
     4.773E-01    4.719E-01    4.665E-01    4.611E-01    4.557E-01    4.503E-01    4.448E-01    4.394E-01    4.340E-01    4.286E-01
     4.232E-01    4.178E-01    4.123E-01    4.069E-01    4.015E-01    3.961E-01    3.907E-01    3.853E-01    3.798E-01    3.744E-01
     3.690E-01    3.636E-01    3.582E-01    3.527E-01    3.473E-01    3.419E-01    3.365E-01    3.311E-01    3.257E-01    3.202E-01
     3.148E-01    3.094E-01    3.040E-01    2.986E-01    2.932E-01    2.877E-01    2.823E-01    2.769E-01    2.715E-01    2.661E-01
     2.606E-01    2.552E-01    2.498E-01    2.444E-01    2.390E-01    2.336E-01    2.281E-01    2.227E-01    2.173E-01    2.119E-01
     2.065E-01    2.010E-01    1.956E-01    1.902E-01    1.848E-01    1.794E-01    1.740E-01    1.685E-01    1.631E-01    1.577E-01
     1.523E-01    1.469E-01    1.414E-01    1.360E-01    1.306E-01    1.252E-01    1.198E-01    1.144E-01    1.089E-01    1.035E-01
     9.810E-02    9.268E-02    8.726E-02    8.184E-02    7.642E-02    7.100E-02    6.558E-02    6.016E-02    5.475E-02    4.933E-02
     4.391E-02    3.849E-02    3.307E-02    2.765E-02    2.223E-02    1.681E-02    1.139E-02    5.972E-03    5.530E-04   -4.866E-03
    -1.029E-02   -1.571E-02   -2.112E-02   -2.654E-02   -3.196E-02   -3.738E-02   -4.280E-02   -4.822E-02   -5.364E-02   -5.906E-02
    -6.448E-02   -6.990E-02   -7.532E-02   -8.074E-02   -8.616E-02   -9.158E-02   -9.700E-02   -1.024E-01   -1.078E-01   -1.133E-01
    -1.187E-01   -1.241E-01   -1.295E-01   -1.349E-01   -1.404E-01   -1.458E-01   -1.512E-01   -1.566E-01   -1.620E-01   -1.675E-01
    -1.729E-01   -1.783E-01   -1.837E-01   -1.891E-01   -1.946E-01   -2.000E-01   -2.054E-01   -2.108E-01   -2.162E-01   -2.217E-01
    -2.271E-01   -2.325E-01   -2.379E-01   -2.434E-01   -2.488E-01   -2.542E-01   -2.596E-01   -2.650E-01   -2.705E-01   -2.759E-01
    -2.813E-01   -2.867E-01   -2.921E-01   -2.976E-01   -3.030E-01   -3.084E-01   -3.138E-01   -3.192E-01   -3.247E-01   -3.301E-01
    -3.355E-01   -3.409E-01   -3.464E-01   -3.518E-01   -3.572E-01   -3.626E-01   -3.680E-01   -3.735E-01   -3.789E-01   -3.843E-01
    -3.897E-01   -3.952E-01   -4.006E-01   -4.060E-01   -4.114E-01   -4.168E-01   -4.223E-01   -4.277E-01   -4.331E-01   -4.385E-01
    -4.439E-01   -4.494E-01   -4.548E-01   -4.602E-01   -4.656E-01   -4.711E-01   -4.765E-01   -4.819E-01   -4.873E-01   -4.927E-01
    -4.982E-01   -5.036E-01   -5.090E-01   -5.144E-01   -5.199E-01   -5.253E-01   -5.307E-01   -5.361E-01   -5.416E-01   -5.470E-01
    -5.524E-01   -5.578E-01   -5.632E-01   -5.687E-01   -5.741E-01   -5.795E-01   -5.849E-01   -5.904E-01   -5.958E-01   -6.012E-01
    -6.066E-01   -6.120E-01   -6.175E-01   -6.229E-01   -6.283E-01   -6.337E-01   -6.392E-01   -6.446E-01   -6.500E-01   -6.554E-01
    -6.609E-01   -6.663E-01   -6.717E-01   -6.771E-01   -6.825E-01   -6.880E-01   -6.934E-01   -6.988E-01   -7.042E-01   -7.097E-01
    -7.151E-01   -7.205E-01   -7.259E-01   -7.314E-01   -7.368E-01   -7.422E-01   -7.476E-01   -7.530E-01   -7.585E-01   -7.639E-01
    -7.693E-01   -7.747E-01   -7.802E-01   -7.856E-01   -7.910E-01   -7.964E-01   -8.019E-01   -8.073E-01   -8.127E-01   -8.181E-01
    -8.236E-01   -8.290E-01   -8.344E-01   -8.398E-01   -8.452E-01   -8.507E-01   -8.561E-01   -8.615E-01   -8.669E-01   -8.724E-01
    -8.778E-01   -8.832E-01   -8.886E-01   -8.941E-01   -8.995E-01   -9.049E-01   -9.103E-01   -9.158E-01   -9.212E-01   -9.266E-01
    -9.320E-01   -9.375E-01   -9.429E-01   -9.483E-01   -9.537E-01   -9.591E-01   -9.646E-01   -9.700E-01   -9.754E-01   -9.808E-01
    -9.863E-01   -9.917E-01   -9.971E-01   -1.003E+00   -1.008E+00   -1.013E+00   -1.019E+00   -1.024E+00   -1.030E+00   -1.035E+00
    -1.041E+00   -1.046E+00   -1.051E+00   -1.057E+00   -1.062E+00   -1.068E+00   -1.073E+00   -1.078E+00   -1.084E+00   -1.089E+00
    -1.095E+00   -1.100E+00   -1.106E+00   -1.111E+00   -1.116E+00   -1.122E+00   -1.127E+00   -1.133E+00   -1.138E+00   -1.144E+00
    -1.149E+00   -1.154E+00   -1.160E+00   -1.165E+00   -1.171E+00   -1.176E+00   -1.182E+00   -1.187E+00   -1.192E+00   -1.198E+00
    -1.203E+00   -1.209E+00   -1.214E+00   -1.220E+00   -1.225E+00   -1.230E+00   -1.236E+00   -1.241E+00   -1.247E+00   -1.252E+00
    -1.257E+00   -1.263E+00   -1.268E+00   -1.274E+00   -1.279E+00   -1.285E+00   -1.290E+00   -1.295E+00   -1.301E+00   -1.306E+00
    -1.312E+00   -1.317E+00   -1.323E+00   -1.328E+00   -1.333E+00   -1.339E+00   -1.344E+00   -1.350E+00   -1.355E+00   -1.361E+00
    -1.366E+00   -1.371E+00   -1.377E+00   -1.382E+00   -1.388E+00   -1.393E+00   -1.399E+00   -1.404E+00
 Ala      Conc. = 6.71E+01
