 LCModel (Version 6.3-1L) Copyright: S.W. Provencher.          Ref.: Magn. Reson. Med. 30:672-679 (1993).                
 Slice#2 Row#10 Col#14  PD_05_press_1_raw_act
 36 lines in following concentration table = NCONC+1
    Conc.  %SD /Cr+PCr  Metabolite                                         
   11.878 146%   0.350 Ala                                                 
    5.460  56%   0.161 Asp                                                 
    0.000 999%   0.000 Cr                                                  
   33.953  26%   1.000 PCr                                                 
    3.372  54% 9.9E-02 GABA                                                
    3.214  57% 9.5E-02 Glc                                                 
   13.676 238%   0.403 Gln                                                 
    3.238 999% 9.5E-02 Glu                                                 
    6.178  51%   0.182 GPC                                                 
    0.000 999%   0.000 PCh                                                 
   13.275  90%   0.391 GSH                                                 
    0.000 999%   0.000 Ins                                                 
   23.023  94%   0.678 Lac                                                 
   59.931  20%   1.765 NAA                                                 
    0.000 999%   0.000 NAAG                                                
    1.081  56% 3.2E-02 Scyllo                                              
    5.258  58%   0.155 Tau                                                 
    3.803 112%   0.112 -CrCH2                                              
    6.178  51%   0.182 GPC+PCh                                             
   59.931  20%   1.765 NAA+NAAG                                            
   33.953  26%   1.000 Cr+PCr                                              
   16.914 277%   0.498 Glu+Gln                                             
 1.93E+03  28%  56.739 Lip13a                                              
  259.175 115%   7.633 Lip13b                                              
  902.488  18%  26.581 Lip09                                               
  651.862  21%  19.199 MM09                                                
  138.434  64%   4.077 Lip20                                               
    0.000 999%   0.000 MM20                                                
  369.352  61%  10.878 MM12                                                
  815.416  23%  24.016 MM14                                                
  459.063  27%  13.521 MM17                                                
 2.19E+03  18%  64.372 Lip13a+Lip13b                                       
 3.37E+03   8%  99.267 MM14+Lip13a+Lip13b+MM12                             
 1.55E+03   8%  45.780 MM09+Lip09                                          
  138.434  64%   4.077 MM20+Lip20                                          
   6 lines in following misc. output table
  FWHM = 0.038 ppm    S/N =   8                                            
  Data shift = 0.008 ppm                                                   
  Ph:   5 deg      -3.6 deg/ppm                                            
  alphaB,S = 1.5E+00,   1.8E+01                                            
   14 spline knots.   Ns = 6(1)                                            
  ( 9) 4 infls.   ( 8) 1 extrs.                                            
  498 points on ppm-axis = NY
      4.000000     3.992357     3.984714     3.977070     3.969427     3.961784     3.954141     3.946497     3.938854     3.931211
      3.923568     3.915925     3.908281     3.900638     3.892995     3.885352     3.877708     3.870065     3.862422     3.854779
      3.847136     3.839492     3.831849     3.824206     3.816563     3.808919     3.801276     3.793633     3.785990     3.778347
      3.770703     3.763060     3.755417     3.747774     3.740130     3.732487     3.724844     3.717201     3.709558     3.701914
      3.694271     3.686628     3.678985     3.671341     3.663698     3.656055     3.648412     3.640769     3.633125     3.625482
      3.617839     3.610196     3.602552     3.594909     3.587266     3.579623     3.571980     3.564336     3.556693     3.549050
      3.541407     3.533763     3.526120     3.518477     3.510834     3.503191     3.495547     3.487904     3.480261     3.472618
      3.464974     3.457331     3.449688     3.442045     3.434402     3.426758     3.419115     3.411472     3.403829     3.396185
      3.388542     3.380899     3.373256     3.365613     3.357969     3.350326     3.342683     3.335040     3.327396     3.319753
      3.312110     3.304467     3.296824     3.289180     3.281537     3.273894     3.266251     3.258607     3.250964     3.243321
      3.235678     3.228034     3.220391     3.212748     3.205105     3.197462     3.189818     3.182175     3.174532     3.166889
      3.159245     3.151602     3.143959     3.136316     3.128673     3.121029     3.113386     3.105743     3.098100     3.090456
      3.082813     3.075170     3.067527     3.059884     3.052240     3.044597     3.036954     3.029311     3.021667     3.014024
      3.006381     2.998738     2.991095     2.983451     2.975808     2.968165     2.960522     2.952878     2.945235     2.937592
      2.929949     2.922306     2.914662     2.907019     2.899376     2.891733     2.884089     2.876446     2.868803     2.861160
      2.853517     2.845873     2.838230     2.830587     2.822944     2.815300     2.807657     2.800014     2.792371     2.784728
      2.777084     2.769441     2.761798     2.754155     2.746511     2.738868     2.731225     2.723582     2.715939     2.708295
      2.700652     2.693009     2.685366     2.677722     2.670079     2.662436     2.654793     2.647150     2.639506     2.631863
      2.624220     2.616577     2.608933     2.601290     2.593647     2.586004     2.578361     2.570717     2.563074     2.555431
      2.547788     2.540144     2.532501     2.524858     2.517215     2.509572     2.501928     2.494285     2.486642     2.478999
      2.471355     2.463712     2.456069     2.448426     2.440783     2.433139     2.425496     2.417853     2.410210     2.402566
      2.394923     2.387280     2.379637     2.371994     2.364350     2.356707     2.349064     2.341421     2.333777     2.326134
      2.318491     2.310848     2.303205     2.295561     2.287918     2.280275     2.272632     2.264988     2.257345     2.249702
      2.242059     2.234416     2.226772     2.219129     2.211486     2.203843     2.196199     2.188556     2.180913     2.173270
      2.165627     2.157983     2.150340     2.142697     2.135054     2.127410     2.119767     2.112124     2.104481     2.096838
      2.089194     2.081551     2.073908     2.066265     2.058621     2.050978     2.043335     2.035692     2.028049     2.020405
      2.012762     2.005119     1.997476     1.989833     1.982190     1.974546     1.966903     1.959260     1.951617     1.943974
      1.936331     1.928688     1.921045     1.913402     1.905759     1.898115     1.890472     1.882829     1.875186     1.867543
      1.859900     1.852257     1.844614     1.836971     1.829327     1.821684     1.814041     1.806398     1.798755     1.791112
      1.783469     1.775826     1.768183     1.760540     1.752896     1.745253     1.737610     1.729967     1.722324     1.714681
      1.707038     1.699395     1.691752     1.684108     1.676465     1.668822     1.661179     1.653536     1.645893     1.638250
      1.630607     1.622964     1.615321     1.607677     1.600034     1.592391     1.584748     1.577105     1.569462     1.561819
      1.554176     1.546533     1.538890     1.531246     1.523603     1.515960     1.508317     1.500674     1.493031     1.485388
      1.477745     1.470102     1.462458     1.454815     1.447172     1.439529     1.431886     1.424243     1.416600     1.408957
      1.401314     1.393671     1.386027     1.378384     1.370741     1.363098     1.355455     1.347812     1.340169     1.332526
      1.324883     1.317240     1.309596     1.301953     1.294310     1.286667     1.279024     1.271381     1.263738     1.256095
      1.248452     1.240808     1.233165     1.225522     1.217879     1.210236     1.202593     1.194950     1.187307     1.179664
      1.172021     1.164377     1.156734     1.149091     1.141448     1.133805     1.126162     1.118519     1.110876     1.103233
      1.095590     1.087946     1.080303     1.072660     1.065017     1.057374     1.049731     1.042088     1.034445     1.026802
      1.019158     1.011515     1.003872     0.996229     0.988586     0.980943     0.973300     0.965657     0.958014     0.950371
      0.942727     0.935084     0.927441     0.919798     0.912155     0.904512     0.896869     0.889226     0.881583     0.873940
      0.866296     0.858653     0.851010     0.843367     0.835724     0.828081     0.820438     0.812795     0.805152     0.797508
      0.789865     0.782222     0.774579     0.766936     0.759293     0.751650     0.744007     0.736364     0.728721     0.721077
      0.713434     0.705791     0.698148     0.690505     0.682862     0.675219     0.667576     0.659933     0.652290     0.644646
      0.637003     0.629360     0.621717     0.614074     0.606431     0.598788     0.591145     0.583502     0.575858     0.568215
      0.560572     0.552929     0.545286     0.537643     0.530000     0.522357     0.514714     0.507071     0.499427     0.491784
      0.484141     0.476498     0.468855     0.461212     0.453569     0.445925     0.438282     0.430639     0.422996     0.415353
      0.407710     0.400067     0.392424     0.384780     0.377137     0.369494     0.361851     0.354208     0.346565     0.338922
      0.331278     0.323635     0.315992     0.308349     0.300706     0.293063     0.285420     0.277777     0.270133     0.262490
      0.254847     0.247204     0.239561     0.231918     0.224275     0.216631     0.208988     0.201345
 NY phased data points follow
   2.78433E-01  5.63546E-01  9.77087E-01  2.37701E+00  1.05443E+00  2.00318E+00  8.23989E-01  1.09454E+00  1.23120E+00  1.12074E+00
   5.23327E-01  1.79464E+00  1.65404E+00  2.18910E+00  1.21738E+00  1.18000E+00  1.71734E-01  5.66072E-01  7.79879E-01  2.43486E+00
   9.36464E-01  3.73400E-01  1.40786E+00  9.91113E-01  3.75585E-01  1.30499E+00  9.35929E-01  3.49952E-01  7.91531E-01  9.18518E-01
   1.19432E+00  1.15705E+00  2.02327E+00  9.32178E-01  9.92924E-01  1.69179E+00  7.03610E-01  5.31301E-01  7.29921E-01  3.56252E-01
   1.30682E+00 -2.69909E-01  6.22542E-01  8.71414E-01  1.19749E+00  1.08569E+00  6.61031E-01  1.57546E+00  1.86380E+00  2.10055E+00
   7.33141E-01  3.45185E-01  6.86999E-01  3.75611E-01  1.03056E+00  1.33455E+00  1.18887E+00  1.44407E+00  1.82295E+00  1.90691E+00
   3.78783E-01  9.90510E-01  1.59270E+00  1.35013E+00  1.49551E+00  3.93266E-01  1.46047E+00  2.49261E+00  1.18521E+00  1.87241E+00
   8.10221E-01  1.65389E+00  4.78072E-01  8.16357E-01  1.95265E+00  5.38720E-01  7.10032E-01  5.77097E-01  2.73121E-01 -3.37740E-01
   9.97557E-01  1.16650E+00  4.78454E-01  1.25296E+00  1.40914E+00  1.23493E+00  4.85299E-01  5.30725E-01  1.73630E+00  1.90288E+00
   9.44139E-01  1.09771E+00  3.75747E-02  3.05343E+00  1.54003E+00  8.98413E-01  1.84570E+00  5.71799E-01 -8.61242E-03  1.00206E+00
   2.08091E+00  1.98480E+00  1.86196E+00  1.50407E+00  1.70310E+00  2.08589E+00  2.55081E+00  2.19963E+00  1.68204E+00  6.04612E-01
   1.75881E+00  5.93684E-01 -1.48986E-02  8.11694E-01  1.53876E+00  2.28145E+00  1.64967E+00  1.04472E+00  5.53132E-01  1.90272E+00
   1.57079E+00  2.78027E+00  1.27759E+00  6.65095E-01  2.06143E+00  1.79078E+00  1.44650E+00  2.42142E+00  2.14514E+00  3.22309E+00
   4.02866E+00  3.09120E+00  1.22491E+00  1.45389E+00  1.75205E+00  1.71162E+00  2.42712E+00  7.85632E-01  1.49099E+00  2.06860E+00
   8.34526E-01  1.37246E+00  1.84755E+00  2.23673E+00  5.87322E-01  1.79539E+00  2.04793E+00  2.24774E+00  1.61638E+00  1.28809E+00
   8.62775E-01  1.92686E+00  1.95485E+00  1.68901E+00  1.85427E+00  1.48174E+00  1.51191E+00  1.75381E+00  1.99237E+00  2.06315E+00
   1.63302E+00  1.98035E+00  2.37543E+00  1.89988E+00  2.19425E+00  1.18436E+00  1.68595E+00  1.94240E+00  1.80810E+00  2.72853E+00
   1.88570E+00  1.61630E+00  2.13558E+00  1.23529E+00  1.70371E+00  1.22860E+00  1.29798E+00  1.90309E+00  1.44418E+00  1.36214E+00
   2.30203E+00  2.62784E+00  3.17178E+00  1.11827E+00  2.09602E+00  6.97044E-01  2.60716E+00  2.60061E+00  1.92522E+00  4.69781E-01
   1.12996E+00  2.05331E+00  2.50520E+00  2.14474E+00  2.74912E+00  2.24474E+00  1.43180E+00  2.41081E+00  1.38623E+00  1.63629E+00
   2.52035E+00  1.85012E+00  8.27018E-01  2.40354E+00  1.35424E+00  2.41093E+00  2.63377E+00  2.83650E+00  1.59698E+00  1.09174E+00
   1.49766E+00  2.65765E+00  2.53071E+00  1.85818E+00  1.95053E+00  1.25651E+00  1.94432E+00  2.31689E+00  2.17753E+00  1.47015E+00
   2.10321E+00  1.75214E+00  3.20221E+00  1.21882E+00  1.19197E+00  2.18520E+00  1.93925E+00  1.95337E+00  2.60398E+00  1.56631E+00
   1.57882E+00  2.06804E+00  1.25570E+00  1.02239E+00  1.21228E+00  2.09232E+00  1.90475E+00  1.22308E+00  2.49141E+00  1.10084E+00
   9.88029E-01  1.62334E+00  1.84266E+00  2.99305E+00  4.83904E-01  2.18244E+00  1.45683E+00  1.51774E+00  2.33027E+00  1.17093E+00
   1.65372E+00  1.64647E+00  1.80656E+00  1.45015E+00  2.32600E+00  1.26187E+00  2.90734E+00  1.95327E+00  1.99888E+00  2.94841E+00
   4.08408E+00  4.47150E+00  3.97799E+00  3.68392E+00  4.71321E+00  4.65104E+00  3.30008E+00  2.23122E+00  2.32206E+00  3.11862E+00
   2.58913E+00  1.83358E+00  2.89676E+00  2.49601E+00  2.88627E+00  2.95189E+00  3.68745E+00  3.47939E+00  3.15906E+00  2.84178E+00
   2.92126E+00  3.70059E+00  3.61765E+00  2.82895E+00  3.31836E+00  3.59919E+00  2.69557E+00  3.49583E+00  3.36273E+00  3.72908E+00
   3.76266E+00  3.44575E+00  2.07743E+00  3.23013E+00  2.53672E+00  3.52052E+00  2.86087E+00  4.32161E+00  4.40615E+00  2.98641E+00
   3.29338E+00  4.11647E+00  3.65829E+00  3.96034E+00  3.88136E+00  4.10521E+00  4.22855E+00  5.18008E+00  4.58183E+00  3.60231E+00
   5.05618E+00  4.96128E+00  4.49925E+00  3.31100E+00  5.86513E+00  4.39117E+00  4.93114E+00  4.55134E+00  4.83437E+00  5.93063E+00
   5.83957E+00  6.97671E+00  5.95294E+00  6.57018E+00  6.21182E+00  6.66041E+00  7.16320E+00  8.01862E+00  6.71556E+00  5.33795E+00
   7.21598E+00  6.14778E+00  6.48889E+00  6.99756E+00  7.09538E+00  6.77426E+00  6.76543E+00  8.53295E+00  7.09855E+00  6.68523E+00
   7.43395E+00  7.11062E+00  8.71905E+00  8.96781E+00  8.06861E+00  9.05481E+00  8.90236E+00  9.94279E+00  1.04927E+01  8.71145E+00
   1.07491E+01  1.04888E+01  1.10101E+01  1.13538E+01  1.17017E+01  1.20870E+01  1.30588E+01  1.09583E+01  1.13793E+01  1.27157E+01
   1.31480E+01  1.33819E+01  1.23968E+01  1.23492E+01  1.15523E+01  1.13011E+01  1.12722E+01  1.07398E+01  1.01383E+01  9.00965E+00
   9.48632E+00  8.75560E+00  8.27092E+00  8.39563E+00  7.52714E+00  7.15335E+00  8.86986E+00  7.59400E+00  6.77622E+00  8.59987E+00
   8.55085E+00  8.26768E+00  8.05406E+00  8.30936E+00  8.01507E+00  8.08756E+00  8.35960E+00  8.35851E+00  7.34944E+00  8.79207E+00
   8.62787E+00  6.86216E+00  8.19422E+00  9.31909E+00  9.16115E+00  8.54578E+00  9.29847E+00  8.63583E+00  8.25740E+00  8.00920E+00
   9.96413E+00  9.69846E+00  9.06524E+00  9.09785E+00  8.50622E+00  8.84240E+00  7.95007E+00  8.56146E+00  7.89065E+00  7.78791E+00
   7.14669E+00  8.95129E+00  7.79227E+00  7.27741E+00  7.31160E+00  6.77416E+00  7.07607E+00  6.51701E+00  6.00378E+00  6.85559E+00
   6.53921E+00  5.20578E+00  5.60774E+00  5.05361E+00  4.84698E+00  4.49720E+00  5.56524E+00  3.87746E+00  3.84295E+00  3.96660E+00
   4.18874E+00  4.78403E+00  4.16184E+00  2.46238E+00  2.84672E+00  5.24308E+00  4.63781E+00  3.91953E+00  3.38532E+00  4.44675E+00
   3.81828E+00  4.17116E+00  3.01700E+00  3.94638E+00  2.50686E+00  2.60616E+00  2.66739E+00  1.42693E+00  1.20544E+00  1.91382E+00
   9.70413E-01  2.91104E+00  2.92511E+00  1.52090E+00  1.50020E+00  2.10776E+00  1.22474E+00  1.90170E+00  2.01685E+00  1.89419E+00
   1.59195E+00  1.78317E+00 -4.84777E-02  1.30929E+00  1.19637E+00  1.84458E+00  5.42233E-01  1.55170E+00  6.60131E-01  2.81798E-01
   1.06436E+00  7.58412E-01  1.10997E+00  7.43999E-01 -3.85131E-01 -6.31196E-02  2.94159E-01  8.98400E-01 -2.87250E-01  1.23060E+00
  -1.34406E-01 -5.07599E-01 -1.23128E+00 -1.12924E-01  1.62296E-02 -1.34408E+00  2.30665E-01  1.42394E+00 -4.49073E-01  5.45779E-01
  -4.77555E-01 -7.55682E-01 -8.23623E-01 -1.02411E-01 -6.59915E-02 -9.19095E-02 -3.58408E-01  2.01888E-01
 NY points of the fit to the data follow
   7.79075E-01  7.78887E-01  7.89494E-01  8.12664E-01  8.46212E-01  8.97083E-01  9.86961E-01  1.12474E+00  1.28689E+00  1.43369E+00
   1.54952E+00  1.64590E+00  1.68549E+00  1.58891E+00  1.35908E+00  1.11990E+00  9.81033E-01  9.33426E-01  9.21424E-01  9.21120E-01
   9.25113E-01  9.29795E-01  9.37659E-01  9.50729E-01  9.64176E-01  9.70518E-01  9.71282E-01  9.82573E-01  1.01824E+00  1.07528E+00
   1.14159E+00  1.21484E+00  1.29966E+00  1.36742E+00  1.36172E+00  1.26899E+00  1.14668E+00  1.05882E+00  1.01401E+00  9.93748E-01
   9.93160E-01  1.00996E+00  1.03147E+00  1.04384E+00  1.04550E+00  1.04599E+00  1.05072E+00  1.05549E+00  1.05778E+00  1.06125E+00
   1.06661E+00  1.07155E+00  1.07828E+00  1.08870E+00  1.09767E+00  1.09975E+00  1.09699E+00  1.09468E+00  1.09469E+00  1.09573E+00
   1.09672E+00  1.09825E+00  1.10182E+00  1.10786E+00  1.11526E+00  1.12260E+00  1.12943E+00  1.13580E+00  1.14167E+00  1.14657E+00
   1.14971E+00  1.15175E+00  1.15508E+00  1.16208E+00  1.17333E+00  1.18726E+00  1.20082E+00  1.21177E+00  1.21956E+00  1.22223E+00
   1.21730E+00  1.20810E+00  1.20378E+00  1.21155E+00  1.23177E+00  1.25921E+00  1.28548E+00  1.30477E+00  1.31898E+00  1.32948E+00
   1.32915E+00  1.31278E+00  1.28912E+00  1.27254E+00  1.26732E+00  1.26840E+00  1.27196E+00  1.27891E+00  1.29581E+00  1.33795E+00
   1.42549E+00  1.56034E+00  1.71340E+00  1.84461E+00  1.94573E+00  2.03434E+00  2.07251E+00  1.98171E+00  1.76797E+00  1.55138E+00
   1.43167E+00  1.39548E+00  1.38820E+00  1.38670E+00  1.38767E+00  1.39114E+00  1.39634E+00  1.40199E+00  1.40755E+00  1.41327E+00
   1.41975E+00  1.42812E+00  1.44656E+00  1.50419E+00  1.64461E+00  1.87708E+00  2.15365E+00  2.40618E+00  2.61720E+00  2.80427E+00
   2.88469E+00  2.71855E+00  2.32940E+00  1.94014E+00  1.72336E+00  1.64709E+00  1.61473E+00  1.58579E+00  1.55358E+00  1.52895E+00
   1.52938E+00  1.56046E+00  1.61116E+00  1.66487E+00  1.70771E+00  1.73053E+00  1.73384E+00  1.72695E+00  1.72043E+00  1.71872E+00
   1.71925E+00  1.71953E+00  1.72029E+00  1.72211E+00  1.72457E+00  1.72778E+00  1.73210E+00  1.73592E+00  1.73628E+00  1.73161E+00
   1.72264E+00  1.71210E+00  1.70282E+00  1.69490E+00  1.68971E+00  1.69294E+00  1.70757E+00  1.72601E+00  1.73262E+00  1.71841E+00
   1.69027E+00  1.66356E+00  1.64658E+00  1.63411E+00  1.61887E+00  1.60194E+00  1.58816E+00  1.57888E+00  1.57002E+00  1.56060E+00
   1.55959E+00  1.57250E+00  1.58731E+00  1.58510E+00  1.56547E+00  1.54861E+00  1.55024E+00  1.56721E+00  1.58794E+00  1.60859E+00
   1.63747E+00  1.68227E+00  1.73539E+00  1.77597E+00  1.78713E+00  1.76758E+00  1.72828E+00  1.68537E+00  1.65502E+00  1.64448E+00
   1.64921E+00  1.66720E+00  1.70404E+00  1.75823E+00  1.81259E+00  1.84882E+00  1.86228E+00  1.85340E+00  1.82063E+00  1.76928E+00
   1.71485E+00  1.67210E+00  1.64569E+00  1.63984E+00  1.66187E+00  1.70566E+00  1.75144E+00  1.78846E+00  1.82170E+00  1.85161E+00
   1.86909E+00  1.87425E+00  1.87793E+00  1.88682E+00  1.89975E+00  1.91439E+00  1.93069E+00  1.94657E+00  1.95495E+00  1.95008E+00
   1.93500E+00  1.91886E+00  1.90748E+00  1.90024E+00  1.89827E+00  1.91046E+00  1.94282E+00  1.98484E+00  2.01643E+00  2.03153E+00
   2.03923E+00  2.03944E+00  2.02151E+00  1.98940E+00  1.96372E+00  1.95460E+00  1.95654E+00  1.96921E+00  1.99860E+00  2.03917E+00
   2.07548E+00  2.09918E+00  2.11400E+00  2.12705E+00  2.14058E+00  2.15537E+00  2.19217E+00  2.31452E+00  2.59147E+00  3.01255E+00
   3.47641E+00  3.88157E+00  4.23392E+00  4.53160E+00  4.56375E+00  4.12290E+00  3.37318E+00  2.74162E+00  2.43901E+00  2.34531E+00
   2.31404E+00  2.30371E+00  2.30557E+00  2.31717E+00  2.33844E+00  2.36900E+00  2.40707E+00  2.45065E+00  2.49884E+00  2.55138E+00
   2.60785E+00  2.66786E+00  2.73191E+00  2.80119E+00  2.87625E+00  2.95639E+00  3.04049E+00  3.12755E+00  3.21642E+00  3.30548E+00
   3.39277E+00  3.47659E+00  3.55607E+00  3.63060E+00  3.69942E+00  3.76188E+00  3.81777E+00  3.86709E+00  3.90999E+00  3.94697E+00
   3.97884E+00  4.00657E+00  4.03138E+00  4.05479E+00  4.07847E+00  4.10427E+00  4.13406E+00  4.16971E+00  4.21295E+00  4.26533E+00
   4.32820E+00  4.40260E+00  4.48928E+00  4.58856E+00  4.70036E+00  4.82418E+00  4.95916E+00  5.10408E+00  5.25739E+00  5.41730E+00
   5.58188E+00  5.74926E+00  5.91838E+00  6.08982E+00  6.26417E+00  6.43611E+00  6.59315E+00  6.72327E+00  6.82411E+00  6.89986E+00
   6.94280E+00  6.94146E+00  6.91747E+00  6.92402E+00  6.99306E+00  7.10664E+00  7.23367E+00  7.37228E+00  7.53369E+00  7.70397E+00
   7.85154E+00  7.97125E+00  8.09800E+00  8.26974E+00  8.50095E+00  8.78818E+00  9.11341E+00  9.45134E+00  9.78720E+00  1.01231E+01
   1.04477E+01  1.07211E+01  1.09398E+01  1.11751E+01  1.14940E+01  1.18677E+01  1.22090E+01  1.24790E+01  1.26827E+01  1.27880E+01
   1.27342E+01  1.25131E+01  1.21935E+01  1.18469E+01  1.14956E+01  1.11400E+01  1.07841E+01  1.04335E+01  1.00927E+01  9.76503E+00
   9.45294E+00  9.15820E+00  8.88236E+00  8.62700E+00  8.39383E+00  8.18465E+00  8.00128E+00  7.84548E+00  7.71879E+00  7.62241E+00
   7.55710E+00  7.52306E+00  7.51988E+00  7.54642E+00  7.60087E+00  7.68069E+00  7.78270E+00  7.90305E+00  8.03739E+00  8.18096E+00
   8.32875E+00  8.47567E+00  8.61673E+00  8.74722E+00  8.86286E+00  8.96000E+00  9.03571E+00  9.08790E+00  9.11530E+00  9.11749E+00
   9.09484E+00  9.04844E+00  8.97991E+00  8.89134E+00  8.78507E+00  8.66353E+00  8.52919E+00  8.38430E+00  8.23096E+00  8.07090E+00
   7.90556E+00  7.73605E+00  7.56318E+00  7.38749E+00  7.20934E+00  7.02893E+00  6.84637E+00  6.66177E+00  6.47525E+00  6.28699E+00
   6.09725E+00  5.90638E+00  5.71483E+00  5.52313E+00  5.33188E+00  5.14173E+00  4.95335E+00  4.76740E+00  4.58454E+00  4.40537E+00
   4.23044E+00  4.06024E+00  3.89515E+00  3.73550E+00  3.58153E+00  3.43340E+00  3.29119E+00  3.15493E+00  3.02455E+00  2.89998E+00
   2.78106E+00  2.66764E+00  2.55951E+00  2.45645E+00  2.35823E+00  2.26461E+00  2.17536E+00  2.09022E+00  2.00897E+00  1.93137E+00
   1.85720E+00  1.78624E+00  1.71830E+00  1.65319E+00  1.59073E+00  1.53074E+00  1.47306E+00  1.41755E+00  1.36408E+00  1.31252E+00
   1.26273E+00  1.21462E+00  1.16807E+00  1.12300E+00  1.07931E+00  1.03693E+00  9.95772E-01  9.55763E-01  9.16840E-01  8.78944E-01
   8.42018E-01  8.06005E-01  7.70853E-01  7.36518E-01  7.02958E-01  6.70134E-01  6.38008E-01  6.06542E-01  5.75701E-01  5.45457E-01
   5.15784E-01  4.86655E-01  4.58041E-01  4.29917E-01  4.02262E-01  3.75057E-01  3.48285E-01  3.21924E-01  2.95956E-01  2.70362E-01
   2.45129E-01  2.20246E-01  1.95698E-01  1.71471E-01  1.47549E-01  1.23922E-01  1.00580E-01  7.75168E-02
 NY background values follow
     6.674E-01    6.727E-01    6.779E-01    6.832E-01    6.884E-01    6.937E-01    6.990E-01    7.042E-01    7.095E-01    7.148E-01
     7.200E-01    7.253E-01    7.306E-01    7.359E-01    7.411E-01    7.464E-01    7.517E-01    7.570E-01    7.622E-01    7.675E-01
     7.728E-01    7.781E-01    7.834E-01    7.887E-01    7.940E-01    7.992E-01    8.045E-01    8.098E-01    8.151E-01    8.204E-01
     8.257E-01    8.310E-01    8.363E-01    8.416E-01    8.469E-01    8.523E-01    8.576E-01    8.629E-01    8.682E-01    8.735E-01
     8.788E-01    8.842E-01    8.895E-01    8.948E-01    9.001E-01    9.055E-01    9.108E-01    9.161E-01    9.215E-01    9.268E-01
     9.322E-01    9.375E-01    9.428E-01    9.482E-01    9.535E-01    9.589E-01    9.642E-01    9.696E-01    9.749E-01    9.803E-01
     9.856E-01    9.910E-01    9.963E-01    1.002E+00    1.007E+00    1.012E+00    1.018E+00    1.023E+00    1.028E+00    1.034E+00
     1.039E+00    1.044E+00    1.050E+00    1.055E+00    1.061E+00    1.066E+00    1.071E+00    1.077E+00    1.082E+00    1.087E+00
     1.092E+00    1.098E+00    1.103E+00    1.108E+00    1.114E+00    1.119E+00    1.124E+00    1.130E+00    1.135E+00    1.140E+00
     1.146E+00    1.151E+00    1.156E+00    1.161E+00    1.167E+00    1.172E+00    1.177E+00    1.182E+00    1.188E+00    1.193E+00
     1.198E+00    1.203E+00    1.209E+00    1.214E+00    1.219E+00    1.224E+00    1.229E+00    1.234E+00    1.239E+00    1.245E+00
     1.250E+00    1.255E+00    1.260E+00    1.265E+00    1.270E+00    1.275E+00    1.280E+00    1.285E+00    1.290E+00    1.295E+00
     1.300E+00    1.304E+00    1.309E+00    1.314E+00    1.319E+00    1.324E+00    1.328E+00    1.333E+00    1.338E+00    1.342E+00
     1.347E+00    1.352E+00    1.356E+00    1.361E+00    1.365E+00    1.370E+00    1.374E+00    1.379E+00    1.383E+00    1.387E+00
     1.392E+00    1.396E+00    1.400E+00    1.404E+00    1.409E+00    1.413E+00    1.417E+00    1.421E+00    1.425E+00    1.429E+00
     1.433E+00    1.437E+00    1.440E+00    1.444E+00    1.448E+00    1.452E+00    1.455E+00    1.459E+00    1.462E+00    1.466E+00
     1.469E+00    1.473E+00    1.476E+00    1.479E+00    1.483E+00    1.486E+00    1.489E+00    1.492E+00    1.495E+00    1.498E+00
     1.501E+00    1.503E+00    1.506E+00    1.509E+00    1.512E+00    1.514E+00    1.517E+00    1.519E+00    1.521E+00    1.524E+00
     1.526E+00    1.528E+00    1.530E+00    1.532E+00    1.534E+00    1.536E+00    1.538E+00    1.540E+00    1.541E+00    1.543E+00
     1.544E+00    1.546E+00    1.547E+00    1.549E+00    1.550E+00    1.551E+00    1.552E+00    1.553E+00    1.554E+00    1.555E+00
     1.556E+00    1.557E+00    1.558E+00    1.558E+00    1.559E+00    1.559E+00    1.560E+00    1.560E+00    1.561E+00    1.561E+00
     1.561E+00    1.561E+00    1.561E+00    1.561E+00    1.561E+00    1.561E+00    1.561E+00    1.561E+00    1.561E+00    1.560E+00
     1.560E+00    1.559E+00    1.559E+00    1.558E+00    1.558E+00    1.557E+00    1.556E+00    1.555E+00    1.555E+00    1.554E+00
     1.553E+00    1.552E+00    1.550E+00    1.549E+00    1.548E+00    1.547E+00    1.545E+00    1.544E+00    1.542E+00    1.541E+00
     1.539E+00    1.538E+00    1.536E+00    1.534E+00    1.532E+00    1.530E+00    1.528E+00    1.526E+00    1.524E+00    1.522E+00
     1.520E+00    1.517E+00    1.515E+00    1.513E+00    1.510E+00    1.508E+00    1.505E+00    1.502E+00    1.500E+00    1.497E+00
     1.494E+00    1.491E+00    1.488E+00    1.485E+00    1.482E+00    1.479E+00    1.476E+00    1.472E+00    1.469E+00    1.466E+00
     1.462E+00    1.459E+00    1.455E+00    1.451E+00    1.448E+00    1.444E+00    1.440E+00    1.436E+00    1.432E+00    1.428E+00
     1.424E+00    1.420E+00    1.416E+00    1.412E+00    1.407E+00    1.403E+00    1.398E+00    1.394E+00    1.389E+00    1.385E+00
     1.380E+00    1.375E+00    1.370E+00    1.365E+00    1.360E+00    1.355E+00    1.350E+00    1.345E+00    1.340E+00    1.335E+00
     1.329E+00    1.324E+00    1.319E+00    1.313E+00    1.308E+00    1.302E+00    1.296E+00    1.291E+00    1.285E+00    1.279E+00
     1.273E+00    1.267E+00    1.261E+00    1.255E+00    1.249E+00    1.243E+00    1.236E+00    1.230E+00    1.224E+00    1.217E+00
     1.211E+00    1.204E+00    1.198E+00    1.191E+00    1.184E+00    1.177E+00    1.171E+00    1.164E+00    1.157E+00    1.150E+00
     1.143E+00    1.136E+00    1.128E+00    1.121E+00    1.114E+00    1.107E+00    1.099E+00    1.092E+00    1.084E+00    1.077E+00
     1.069E+00    1.061E+00    1.054E+00    1.046E+00    1.038E+00    1.030E+00    1.022E+00    1.014E+00    1.006E+00    9.981E-01
     9.900E-01    9.818E-01    9.736E-01    9.653E-01    9.569E-01    9.485E-01    9.401E-01    9.316E-01    9.230E-01    9.144E-01
     9.057E-01    8.970E-01    8.883E-01    8.795E-01    8.706E-01    8.617E-01    8.528E-01    8.438E-01    8.347E-01    8.256E-01
     8.165E-01    8.073E-01    7.980E-01    7.887E-01    7.794E-01    7.700E-01    7.606E-01    7.511E-01    7.416E-01    7.320E-01
     7.223E-01    7.127E-01    7.030E-01    6.932E-01    6.834E-01    6.735E-01    6.636E-01    6.536E-01    6.436E-01    6.336E-01
     6.235E-01    6.134E-01    6.032E-01    5.930E-01    5.827E-01    5.724E-01    5.620E-01    5.516E-01    5.411E-01    5.306E-01
     5.201E-01    5.095E-01    4.989E-01    4.882E-01    4.775E-01    4.667E-01    4.559E-01    4.451E-01    4.342E-01    4.232E-01
     4.123E-01    4.012E-01    3.902E-01    3.791E-01    3.679E-01    3.567E-01    3.455E-01    3.342E-01    3.229E-01    3.116E-01
     3.002E-01    2.888E-01    2.773E-01    2.658E-01    2.542E-01    2.426E-01    2.310E-01    2.194E-01    2.077E-01    1.959E-01
     1.841E-01    1.723E-01    1.605E-01    1.486E-01    1.367E-01    1.247E-01    1.127E-01    1.007E-01    8.860E-02    7.649E-02
     6.436E-02    5.218E-02    3.998E-02    2.774E-02    1.546E-02    3.152E-03   -9.190E-03   -2.156E-02   -3.397E-02   -4.641E-02
    -5.888E-02   -7.139E-02   -8.393E-02   -9.649E-02   -1.091E-01   -1.217E-01   -1.344E-01   -1.471E-01   -1.598E-01   -1.725E-01
    -1.853E-01   -1.981E-01   -2.109E-01   -2.237E-01   -2.365E-01   -2.494E-01   -2.623E-01   -2.752E-01   -2.882E-01   -3.011E-01
    -3.141E-01   -3.270E-01   -3.400E-01   -3.530E-01   -3.661E-01   -3.791E-01   -3.921E-01   -4.052E-01   -4.182E-01   -4.313E-01
    -4.444E-01   -4.575E-01   -4.706E-01   -4.836E-01   -4.967E-01   -5.098E-01   -5.229E-01   -5.360E-01   -5.491E-01   -5.622E-01
    -5.753E-01   -5.884E-01   -6.015E-01   -6.146E-01   -6.277E-01   -6.407E-01   -6.538E-01   -6.669E-01
 Ala      Conc. = 1.19E+01
