 LCModel (Version 6.3-1L) Copyright: S.W. Provencher.          Ref.: Magn. Reson. Med. 30:672-679 (1993).                
 Slice#1 Row#12 Col#5  PD_05_press_1_raw_act
 36 lines in following concentration table = NCONC+1
    Conc.  %SD /Cr+PCr  Metabolite                                         
  102.228  73%   0.198 Ala                                                 
    0.000 999%   0.000 Asp                                                 
    0.000 999%   0.000 Cr                                                  
  516.813   6%   1.000 PCr                                                 
   13.581 515% 2.6E-02 GABA                                                
   21.265 316% 4.1E-02 Glc                                                 
  339.004  48%   0.656 Gln                                                 
  309.891  59%   0.600 Glu                                                 
  147.820   8%   0.286 GPC                                                 
    0.000 999%   0.000 PCh                                                 
  131.464  35%   0.254 GSH                                                 
  245.522  62%   0.475 Ins                                                 
   23.185 370% 4.5E-02 Lac                                                 
 1.12E+03   7%   2.176 NAA                                                 
   30.049 301% 5.8E-02 NAAG                                                
   63.395  23%   0.123 Scyllo                                              
  267.076  37%   0.517 Tau                                                 
  449.905  13%   0.871 -CrCH2                                              
  147.820   8%   0.286 GPC+PCh                                             
 1.15E+03   4%   2.234 NAA+NAAG                                            
  516.813   6%   1.000 Cr+PCr                                              
  648.894  43%   1.256 Glu+Gln                                             
 1.20E+03  26%   2.322 Lip13a                                              
    0.000 999%   0.000 Lip13b                                              
  257.496  57%   0.498 Lip09                                               
  612.563  26%   1.185 MM09                                                
  260.977  40%   0.505 Lip20                                               
 1.43E+03  15%   2.775 MM20                                                
  207.955  51%   0.402 MM12                                                
  110.921 156%   0.215 MM14                                                
    0.000 999%   0.000 MM17                                                
 1.20E+03  26%   2.322 Lip13a+Lip13b                                       
 1.52E+03  16%   2.939 MM14+Lip13a+Lip13b+MM12                             
  870.058  11%   1.684 MM09+Lip09                                          
 1.70E+03  12%   3.280 MM20+Lip20                                          
   6 lines in following misc. output table
  FWHM = 0.069 ppm    S/N =  10                                            
  Data shift = 0.000 ppm                                                   
  Ph: -60 deg     -14.6 deg/ppm                                            
  alphaB,S = 1.6E+00,   1.9E+02                                            
   14 spline knots.   Ns = 8(1)                                            
  (13) 2 infls.   (15) 1 extrs.                                            
  498 points on ppm-axis = NY
      4.000000     3.992357     3.984714     3.977070     3.969427     3.961784     3.954141     3.946497     3.938854     3.931211
      3.923568     3.915925     3.908281     3.900638     3.892995     3.885352     3.877708     3.870065     3.862422     3.854779
      3.847136     3.839492     3.831849     3.824206     3.816563     3.808919     3.801276     3.793633     3.785990     3.778347
      3.770703     3.763060     3.755417     3.747774     3.740130     3.732487     3.724844     3.717201     3.709558     3.701914
      3.694271     3.686628     3.678985     3.671341     3.663698     3.656055     3.648412     3.640769     3.633125     3.625482
      3.617839     3.610196     3.602552     3.594909     3.587266     3.579623     3.571980     3.564336     3.556693     3.549050
      3.541407     3.533763     3.526120     3.518477     3.510834     3.503191     3.495547     3.487904     3.480261     3.472618
      3.464974     3.457331     3.449688     3.442045     3.434402     3.426758     3.419115     3.411472     3.403829     3.396185
      3.388542     3.380899     3.373256     3.365613     3.357969     3.350326     3.342683     3.335040     3.327396     3.319753
      3.312110     3.304467     3.296824     3.289180     3.281537     3.273894     3.266251     3.258607     3.250964     3.243321
      3.235678     3.228034     3.220391     3.212748     3.205105     3.197462     3.189818     3.182175     3.174532     3.166889
      3.159245     3.151602     3.143959     3.136316     3.128673     3.121029     3.113386     3.105743     3.098100     3.090456
      3.082813     3.075170     3.067527     3.059884     3.052240     3.044597     3.036954     3.029311     3.021667     3.014024
      3.006381     2.998738     2.991095     2.983451     2.975808     2.968165     2.960522     2.952878     2.945235     2.937592
      2.929949     2.922306     2.914662     2.907019     2.899376     2.891733     2.884089     2.876446     2.868803     2.861160
      2.853517     2.845873     2.838230     2.830587     2.822944     2.815300     2.807657     2.800014     2.792371     2.784728
      2.777084     2.769441     2.761798     2.754155     2.746511     2.738868     2.731225     2.723582     2.715939     2.708295
      2.700652     2.693009     2.685366     2.677722     2.670079     2.662436     2.654793     2.647150     2.639506     2.631863
      2.624220     2.616577     2.608933     2.601290     2.593647     2.586004     2.578361     2.570717     2.563074     2.555431
      2.547788     2.540144     2.532501     2.524858     2.517215     2.509572     2.501928     2.494285     2.486642     2.478999
      2.471355     2.463712     2.456069     2.448426     2.440783     2.433139     2.425496     2.417853     2.410210     2.402566
      2.394923     2.387280     2.379637     2.371994     2.364350     2.356707     2.349064     2.341421     2.333777     2.326134
      2.318491     2.310848     2.303205     2.295561     2.287918     2.280275     2.272632     2.264988     2.257345     2.249702
      2.242059     2.234416     2.226772     2.219129     2.211486     2.203843     2.196199     2.188556     2.180913     2.173270
      2.165627     2.157983     2.150340     2.142697     2.135054     2.127410     2.119767     2.112124     2.104481     2.096838
      2.089194     2.081551     2.073908     2.066265     2.058621     2.050978     2.043335     2.035692     2.028049     2.020405
      2.012762     2.005119     1.997476     1.989833     1.982190     1.974546     1.966903     1.959260     1.951617     1.943974
      1.936331     1.928688     1.921045     1.913402     1.905759     1.898115     1.890472     1.882829     1.875186     1.867543
      1.859900     1.852257     1.844614     1.836971     1.829327     1.821684     1.814041     1.806398     1.798755     1.791112
      1.783469     1.775826     1.768183     1.760540     1.752896     1.745253     1.737610     1.729967     1.722324     1.714681
      1.707038     1.699395     1.691752     1.684108     1.676465     1.668822     1.661179     1.653536     1.645893     1.638250
      1.630607     1.622964     1.615321     1.607677     1.600034     1.592391     1.584748     1.577105     1.569462     1.561819
      1.554176     1.546533     1.538890     1.531246     1.523603     1.515960     1.508317     1.500674     1.493031     1.485388
      1.477745     1.470102     1.462458     1.454815     1.447172     1.439529     1.431886     1.424243     1.416600     1.408957
      1.401314     1.393671     1.386027     1.378384     1.370741     1.363098     1.355455     1.347812     1.340169     1.332526
      1.324883     1.317240     1.309596     1.301953     1.294310     1.286667     1.279024     1.271381     1.263738     1.256095
      1.248452     1.240808     1.233165     1.225522     1.217879     1.210236     1.202593     1.194950     1.187307     1.179664
      1.172021     1.164377     1.156734     1.149091     1.141448     1.133805     1.126162     1.118519     1.110876     1.103233
      1.095590     1.087946     1.080303     1.072660     1.065017     1.057374     1.049731     1.042088     1.034445     1.026802
      1.019158     1.011515     1.003872     0.996229     0.988586     0.980943     0.973300     0.965657     0.958014     0.950371
      0.942727     0.935084     0.927441     0.919798     0.912155     0.904512     0.896869     0.889226     0.881583     0.873940
      0.866296     0.858653     0.851010     0.843367     0.835724     0.828081     0.820438     0.812795     0.805152     0.797508
      0.789865     0.782222     0.774579     0.766936     0.759293     0.751650     0.744007     0.736364     0.728721     0.721077
      0.713434     0.705791     0.698148     0.690505     0.682862     0.675219     0.667576     0.659933     0.652290     0.644646
      0.637003     0.629360     0.621717     0.614074     0.606431     0.598788     0.591145     0.583502     0.575858     0.568215
      0.560572     0.552929     0.545286     0.537643     0.530000     0.522357     0.514714     0.507071     0.499427     0.491784
      0.484141     0.476498     0.468855     0.461212     0.453569     0.445925     0.438282     0.430639     0.422996     0.415353
      0.407710     0.400067     0.392424     0.384780     0.377137     0.369494     0.361851     0.354208     0.346565     0.338922
      0.331278     0.323635     0.315992     0.308349     0.300706     0.293063     0.285420     0.277777     0.270133     0.262490
      0.254847     0.247204     0.239561     0.231918     0.224275     0.216631     0.208988     0.201345
 NY phased data points follow
  -2.15697E+01 -1.70784E+01 -1.92308E+01 -1.70289E+01 -1.75263E+01 -1.70446E+01 -1.61001E+01 -1.44842E+01 -1.24457E+01 -1.20081E+01
  -1.44332E+01 -1.54826E+01 -1.44608E+01 -1.35792E+01 -1.69231E+01 -1.48976E+01 -1.74806E+01 -1.76174E+01 -1.70746E+01 -1.68232E+01
  -1.49876E+01 -1.35361E+01 -1.84703E+01 -1.51408E+01 -1.68665E+01 -1.43673E+01 -1.53976E+01 -1.32558E+01 -1.32271E+01 -1.11999E+01
  -1.29493E+01 -1.18542E+01 -1.25147E+01 -1.11448E+01 -1.34034E+01 -1.45317E+01 -1.46562E+01 -1.35897E+01 -1.22513E+01 -1.26179E+01
  -1.20115E+01 -1.07820E+01 -1.44517E+01 -1.10866E+01 -8.84044E+00 -1.04545E+01 -1.15816E+01 -1.08958E+01 -8.67336E+00 -1.15300E+01
  -1.01033E+01 -1.18593E+01 -8.87228E+00 -9.72212E+00 -9.94313E+00 -8.89792E+00 -1.07694E+01 -1.01147E+01 -1.17431E+01 -1.19958E+01
  -1.30251E+01 -1.19001E+01 -1.25856E+01 -1.27750E+01 -1.43335E+01 -1.33954E+01 -1.23851E+01 -8.87883E+00 -1.31351E+01 -1.20559E+01
  -1.30161E+01 -9.04885E+00 -1.21346E+01 -1.21396E+01 -1.14772E+01 -9.35637E+00 -1.06498E+01 -1.19325E+01 -1.22800E+01 -1.11190E+01
  -1.17563E+01 -1.00928E+01 -1.11942E+01 -7.97968E+00 -7.88772E+00 -7.59734E+00 -8.68452E+00 -7.22720E+00 -8.89500E+00 -6.91919E+00
  -7.48105E+00 -9.70532E+00 -6.78848E+00 -8.12376E+00 -9.00510E+00 -5.24852E+00 -5.93897E+00 -7.96805E+00 -3.96103E+00 -3.67751E+00
  -2.09744E+00 -6.05660E-02  1.54124E+00  2.28265E+00  1.15098E+00  1.61690E+00 -2.13422E+00 -5.27044E+00 -1.78196E+00 -3.11463E+00
  -5.04154E+00 -4.77004E+00 -8.58184E+00 -3.64404E+00 -5.40186E+00 -8.65361E+00 -3.61812E+00 -5.27813E+00 -6.96181E+00 -5.84409E+00
  -5.17446E+00 -3.36654E+00 -1.60369E+00 -2.03572E+00  1.86360E+00  7.17203E+00  6.26848E+00  5.71773E+00  9.68054E+00  4.43282E+00
   2.29197E+00 -9.26856E-01 -3.25879E+00 -4.93354E+00 -5.05123E+00 -4.85747E+00 -6.25329E+00 -6.13513E+00 -7.97122E+00 -6.89506E+00
  -5.67733E+00 -8.97473E+00 -4.74808E+00 -5.12530E+00 -9.54473E+00 -4.12308E+00 -5.82979E+00 -8.78028E+00 -7.26094E+00 -7.66317E+00
  -6.89927E+00 -6.06684E+00 -7.38197E+00 -5.83904E+00 -4.66157E+00 -5.22538E+00 -6.96924E+00 -5.97640E+00 -7.38124E+00 -6.49174E+00
  -1.00321E+01 -5.67432E+00 -6.93761E+00 -6.01759E+00 -7.05445E+00 -8.23077E+00 -5.44892E+00 -5.44675E+00 -6.88014E+00 -8.42785E+00
  -1.03354E+01 -9.69399E+00 -7.44551E+00 -1.17758E+01 -8.19181E+00 -8.12221E+00 -1.00531E+01 -9.64046E+00 -1.12486E+01 -9.55608E+00
  -1.01910E+01 -1.21823E+01 -1.04640E+01 -6.79440E+00 -5.71276E+00 -9.29106E+00 -9.29834E+00 -4.81872E+00 -9.02246E+00 -6.66512E+00
  -6.23712E+00 -6.61207E+00 -5.52992E+00 -6.85089E+00 -6.53005E+00 -9.48373E+00 -7.70517E+00 -8.52154E+00 -8.24166E+00 -9.41296E+00
  -6.67265E+00 -7.60098E+00 -5.16476E+00 -6.98712E+00 -2.72335E+00 -6.07866E+00 -4.70582E+00 -5.42894E+00 -4.66472E+00 -3.89326E+00
  -3.94404E+00 -5.59516E+00 -6.19886E+00 -3.79971E+00 -1.92285E-01 -2.35403E+00 -8.67394E-01 -4.96212E-01 -2.13253E+00 -5.08098E-01
  -5.05210E+00 -3.16707E+00 -2.86758E+00 -6.10044E+00 -3.68904E+00 -2.66446E+00 -2.42731E+00  4.84915E-02  2.28630E-01 -3.05715E+00
  -1.75060E+00 -4.80605E+00 -1.02996E+00 -9.36642E-01 -1.31142E+00  8.45986E-01 -1.41548E+00 -2.23603E+00 -2.13456E+00  6.02761E-01
  -2.53537E-01 -1.71573E-01 -2.98437E+00 -1.51162E+00 -1.15359E+00 -4.55802E+00 -2.58319E-01  6.81962E-01  9.27149E-01  5.44525E+00
   2.65969E+00  6.38548E+00  3.64208E+00  9.46170E+00  8.27095E+00  1.27432E+01  1.62177E+01  1.94306E+01  2.61804E+01  3.16971E+01
   3.09211E+01  3.30460E+01  3.29193E+01  2.53912E+01  2.13990E+01  1.39942E+01  1.16424E+01  8.84481E+00  7.53515E+00  1.85115E+00
   2.27041E+00  2.65046E-01 -7.60005E-01 -1.09157E+00  2.40757E+00 -1.97419E+00 -9.33030E-01 -8.10781E-01 -1.68367E+00 -3.03892E+00
  -2.34814E+00 -4.60097E-01 -2.69333E+00 -3.69649E+00 -5.17895E+00 -2.87484E+00 -4.48486E+00 -3.55584E+00 -4.75676E+00 -3.81252E+00
  -5.27061E+00 -4.32103E+00 -1.49680E+00 -2.62473E+00 -4.89607E+00 -4.26510E+00 -6.19146E+00 -5.14896E+00 -5.20215E+00 -1.68699E+00
  -2.68875E+00 -4.21588E+00 -1.41067E+00 -1.67814E+00 -1.22963E+00 -3.26032E+00  1.16978E-01 -3.76317E+00 -1.85188E+00 -4.05563E+00
  -1.39580E-01  4.97200E-01 -1.35534E+00 -1.10921E+00 -3.03921E+00 -1.65015E+00 -4.98612E+00  7.42075E-01 -4.96159E+00  2.74878E-01
   4.42540E-01 -9.32277E-01 -1.24339E+00  1.20387E+00 -1.42981E-01 -1.64192E+00 -3.23355E+00 -1.49503E+00 -2.07237E+00 -5.83365E-01
   7.97414E-01 -1.69881E+00 -8.27985E-01 -7.05472E-02 -3.47057E+00  2.53393E-01 -1.66427E+00 -1.46769E+00  1.92567E+00  1.67348E+00
   2.69722E+00  1.93079E+00  3.04196E+00  2.65821E+00  3.83710E+00  2.77600E+00  4.82169E+00  9.19315E-01  3.61302E+00  1.66385E+00
   4.24885E+00  7.59878E-01  1.79354E+00  4.07062E+00  5.55249E+00  4.32140E+00  2.19588E+00  4.01938E+00  4.31683E+00  3.39986E+00
   4.36806E-01  1.59229E+00  3.96496E-01  3.66842E+00  3.91890E+00  2.04109E+00  3.82689E+00  1.33081E-01  6.50932E+00  1.30742E+00
   1.91075E+00  1.88980E+00  2.70837E+00  3.05100E+00  5.16935E+00  2.69688E+00  1.01705E+00  5.25542E+00  1.56957E+00  1.69233E+00
   5.79341E+00  2.39014E+00  3.16950E+00  1.95537E+00  1.73191E+00  1.85602E+00 -2.24934E-01  2.65323E+00  1.39209E+00  9.79139E-02
   2.95408E+00  1.83196E+00  2.55653E+00  1.67342E+00  2.68618E+00  3.01608E+00  3.30977E+00  5.15465E+00  3.47735E+00  5.60272E+00
   2.83326E+00  5.62500E+00  2.98714E+00  4.65978E+00  4.96762E+00  4.15678E+00  5.03906E+00  4.16171E+00  5.64529E+00  3.72109E+00
   6.69462E+00  6.01914E+00  3.83228E+00  3.45130E+00  6.17910E+00  5.36988E+00  4.70863E+00  3.57443E+00  3.51499E+00  2.84683E+00
   2.30496E+00 -1.69964E+00  3.41295E+00  1.85702E-01  1.14448E+00  9.09315E-01  1.78036E+00  1.61441E+00 -1.88780E+00  2.79998E+00
  -3.96636E-01  4.30637E+00 -4.73766E-01 -3.71669E-01  4.46955E-01  1.85586E+00 -1.35960E+00 -1.29964E+00 -2.84596E-01  1.07986E+00
   1.36901E+00 -2.24644E+00  1.03965E+00  4.88127E-01 -1.94504E+00 -2.40789E+00  4.76339E-01 -1.85798E+00  2.26961E+00  1.27485E+00
   1.06648E+00  7.24877E-01  2.13226E+00 -1.24887E+00 -1.06357E-01  9.59138E-01  5.25522E-01  3.22828E-01 -2.81690E-01 -5.79894E-01
  -2.14045E+00 -2.27710E-01  9.98181E-01  2.92740E+00 -1.79600E-01 -1.60513E+00 -2.51251E+00  5.73059E-01  1.27554E+00  3.62118E-01
   2.01979E+00 -1.15653E+00  1.55563E+00  5.71925E-01 -1.00314E+00  1.25403E-01  5.40732E-01 -2.88571E-01  3.54858E-01  1.41499E+00
  -1.05151E+00 -8.01524E-02  2.34683E+00  1.78010E+00 -6.04590E-01 -4.30951E-01  1.13050E+00  1.17648E-02  2.88519E+00  1.24053E+00
   8.98345E-01  1.10126E+00  1.32179E+00  1.55541E+00  1.90354E+00  3.21044E-02  8.91582E-01  1.87274E+00
 NY points of the fit to the data follow
  -1.64013E+01 -1.62639E+01 -1.60698E+01 -1.58117E+01 -1.54879E+01 -1.51106E+01 -1.47220E+01 -1.43974E+01 -1.41897E+01 -1.41142E+01
  -1.41720E+01 -1.43243E+01 -1.44909E+01 -1.46056E+01 -1.46619E+01 -1.46932E+01 -1.47328E+01 -1.47529E+01 -1.47137E+01 -1.46351E+01
  -1.46065E+01 -1.46088E+01 -1.45650E+01 -1.44714E+01 -1.43434E+01 -1.41634E+01 -1.38801E+01 -1.34568E+01 -1.29192E+01 -1.23365E+01
  -1.17968E+01 -1.14072E+01 -1.12611E+01 -1.13916E+01 -1.17217E+01 -1.21121E+01 -1.24840E+01 -1.28097E+01 -1.30699E+01 -1.32138E+01
  -1.31816E+01 -1.30230E+01 -1.27903E+01 -1.25048E+01 -1.21788E+01 -1.18570E+01 -1.16034E+01 -1.14554E+01 -1.14258E+01 -1.15145E+01
  -1.17014E+01 -1.19348E+01 -1.21412E+01 -1.22798E+01 -1.23628E+01 -1.24096E+01 -1.24071E+01 -1.23414E+01 -1.22247E+01 -1.20872E+01
  -1.19630E+01 -1.18625E+01 -1.17938E+01 -1.17566E+01 -1.17226E+01 -1.16732E+01 -1.16150E+01 -1.15415E+01 -1.14377E+01 -1.13167E+01
  -1.11856E+01 -1.10426E+01 -1.08909E+01 -1.07469E+01 -1.06327E+01 -1.05808E+01 -1.06077E+01 -1.07003E+01 -1.07846E+01 -1.07348E+01
  -1.05543E+01 -1.02512E+01 -9.81643E+00 -9.28463E+00 -8.72996E+00 -8.23509E+00 -7.88643E+00 -7.76108E+00 -7.87875E+00 -8.21534E+00
  -8.67983E+00 -9.13150E+00 -9.49318E+00 -9.74955E+00 -9.78233E+00 -9.30751E+00 -8.34646E+00 -7.00131E+00 -5.37557E+00 -3.52338E+00
  -1.54901E+00  2.76875E-01  1.62982E+00  2.27084E+00  2.06394E+00  1.03289E+00 -5.53985E-01 -2.28595E+00 -3.82509E+00 -5.09215E+00
  -6.22767E+00 -7.30369E+00 -8.14148E+00 -8.52369E+00 -8.66429E+00 -8.72681E+00 -8.73946E+00 -8.66596E+00 -8.22531E+00 -7.20017E+00
  -5.82638E+00 -4.18780E+00 -2.22445E+00  7.10791E-02  2.50681E+00  4.67465E+00  6.15158E+00  6.64723E+00  6.03960E+00  4.47491E+00
   2.39760E+00  3.27495E-01 -1.45230E+00 -2.99413E+00 -4.45020E+00 -5.79931E+00 -6.70617E+00 -7.03647E+00 -7.12218E+00 -7.09104E+00
  -7.00030E+00 -6.90159E+00 -6.82858E+00 -6.78681E+00 -6.77044E+00 -6.78354E+00 -6.82033E+00 -6.87158E+00 -6.93337E+00 -6.99733E+00
  -7.05329E+00 -7.09505E+00 -7.11656E+00 -7.14465E+00 -7.19147E+00 -7.24451E+00 -7.29788E+00 -7.34436E+00 -7.39768E+00 -7.47383E+00
  -7.55093E+00 -7.59848E+00 -7.60109E+00 -7.56706E+00 -7.52962E+00 -7.53197E+00 -7.60541E+00 -7.75741E+00 -7.96655E+00 -8.18885E+00
  -8.37008E+00 -8.52681E+00 -8.68940E+00 -8.86512E+00 -9.02730E+00 -9.10927E+00 -9.10161E+00 -9.04304E+00 -8.96154E+00 -8.89104E+00
  -8.84429E+00 -8.79570E+00 -8.72230E+00 -8.59274E+00 -8.38475E+00 -8.10893E+00 -7.79482E+00 -7.44111E+00 -7.02164E+00 -6.55406E+00
  -6.12694E+00 -5.83618E+00 -5.70447E+00 -5.67720E+00 -5.69189E+00 -5.70114E+00 -5.65541E+00 -5.53689E+00 -5.33850E+00 -5.05399E+00
  -4.71527E+00 -4.38254E+00 -4.15286E+00 -4.07180E+00 -4.17505E+00 -4.49264E+00 -4.99036E+00 -5.55037E+00 -6.03662E+00 -6.33966E+00
  -6.40758E+00 -6.22038E+00 -5.80800E+00 -5.26001E+00 -4.69213E+00 -4.21437E+00 -3.87638E+00 -3.69218E+00 -3.68083E+00 -3.82688E+00
  -4.04751E+00 -4.17780E+00 -4.14377E+00 -3.98323E+00 -3.72743E+00 -3.37956E+00 -2.97608E+00 -2.61793E+00 -2.37836E+00 -2.21611E+00
  -2.07172E+00 -1.92886E+00 -1.79093E+00 -1.63037E+00 -1.41375E+00 -1.14839E+00 -8.64370E-01 -5.87594E-01 -3.43446E-01 -1.69606E-01
  -8.85890E-02 -8.87399E-02 -1.07947E-01 -6.34058E-02  8.49302E-02  3.29274E-01  6.44817E-01  1.03138E+00  1.47761E+00  1.95339E+00
   2.46219E+00  3.10163E+00  4.34513E+00  6.70427E+00  9.70756E+00  1.30998E+01  1.69773E+01  2.13658E+01  2.59102E+01  2.97992E+01
   3.21621E+01  3.24415E+01  3.04160E+01  2.63767E+01  2.12577E+01  1.62109E+01  1.19356E+01  8.38110E+00  5.18076E+00  2.28797E+00
   2.85803E-01 -5.16103E-01 -8.72067E-01 -1.11172E+00 -1.29750E+00 -1.45717E+00 -1.60889E+00 -1.75532E+00 -1.89653E+00 -2.03023E+00
  -2.15364E+00 -2.26529E+00 -2.36551E+00 -2.45272E+00 -2.52490E+00 -2.58344E+00 -2.63114E+00 -2.67002E+00 -2.70105E+00 -2.72476E+00
  -2.74209E+00 -2.75455E+00 -2.76212E+00 -2.76494E+00 -2.76371E+00 -2.75892E+00 -2.75037E+00 -2.73804E+00 -2.72198E+00 -2.70227E+00
  -2.67898E+00 -2.65233E+00 -2.62220E+00 -2.58874E+00 -2.55234E+00 -2.51321E+00 -2.47132E+00 -2.42651E+00 -2.37857E+00 -2.32735E+00
  -2.27244E+00 -2.21345E+00 -2.14981E+00 -2.08077E+00 -2.00533E+00 -1.92214E+00 -1.82912E+00 -1.72261E+00 -1.59443E+00 -1.42926E+00
  -1.24307E+00 -1.07086E+00 -9.16167E-01 -7.81013E-01 -6.82666E-01 -6.53360E-01 -7.23809E-01 -8.76088E-01 -1.05102E+00 -1.21462E+00
  -1.32065E+00 -1.31001E+00 -1.14500E+00 -8.34020E-01 -4.26545E-01  2.29884E-02  4.80564E-01  9.17729E-01  1.27947E+00  1.53972E+00
   1.73343E+00  1.89668E+00  2.04623E+00  2.17370E+00  2.26708E+00  2.34589E+00  2.43563E+00  2.52781E+00  2.61857E+00  2.70800E+00
   2.80397E+00  2.91738E+00  3.05292E+00  3.20307E+00  3.35176E+00  3.48450E+00  3.59280E+00  3.67032E+00  3.70626E+00  3.69797E+00
   3.65627E+00  3.58999E+00  3.50177E+00  3.39099E+00  3.26092E+00  3.12311E+00  2.98195E+00  2.83614E+00  2.68670E+00  2.53561E+00
   2.38518E+00  2.23771E+00  2.09551E+00  1.96072E+00  1.83541E+00  1.72147E+00  1.62061E+00  1.53433E+00  1.46401E+00  1.41088E+00
   1.37609E+00  1.36063E+00  1.36544E+00  1.39130E+00  1.43895E+00  1.50898E+00  1.60188E+00  1.71793E+00  1.85712E+00  2.01912E+00
   2.20320E+00  2.40814E+00  2.63218E+00  2.87285E+00  3.12702E+00  3.39083E+00  3.65975E+00  3.92862E+00  4.19179E+00  4.44318E+00
   4.67657E+00  4.88581E+00  5.06507E+00  5.20910E+00  5.31349E+00  5.37481E+00  5.39091E+00  5.36092E+00  5.28540E+00  5.16625E+00
   5.00660E+00  4.81065E+00  4.58351E+00  4.33091E+00  4.05899E+00  3.77392E+00  3.48175E+00  3.18814E+00  2.89820E+00  2.61640E+00
   2.34642E+00  2.09114E+00  1.85266E+00  1.63233E+00  1.43089E+00  1.24845E+00  1.08469E+00  9.38892E-01  8.10056E-01  6.97011E-01
   5.98502E-01  5.13220E-01  4.39865E-01  3.77159E-01  3.23916E-01  2.79039E-01  2.41552E-01  2.10559E-01  1.85264E-01  1.64945E-01
   1.48990E-01  1.36868E-01  1.28129E-01  1.22363E-01  1.19214E-01  1.18367E-01  1.19565E-01  1.22589E-01  1.27252E-01  1.33375E-01
   1.40799E-01  1.49386E-01  1.59032E-01  1.69645E-01  1.81142E-01  1.93429E-01  2.06431E-01  2.20083E-01  2.34342E-01  2.49165E-01
   2.64506E-01  2.80312E-01  2.96543E-01  3.13170E-01  3.30178E-01  3.47541E-01  3.65229E-01  3.83208E-01  4.01460E-01  4.19973E-01
   4.38742E-01  4.57749E-01  4.76972E-01  4.96390E-01  5.15998E-01  5.35795E-01  5.55777E-01  5.75928E-01  5.96232E-01  6.16678E-01
   6.37270E-01  6.58009E-01  6.78894E-01  6.99909E-01  7.21044E-01  7.42297E-01  7.63679E-01  7.85193E-01  8.06834E-01  8.28591E-01
   8.50463E-01  8.72456E-01  8.94585E-01  9.16856E-01  9.39264E-01  9.61808E-01  9.84499E-01  1.00736E+00
 NY background values follow
    -1.689E+01   -1.683E+01   -1.677E+01   -1.670E+01   -1.664E+01   -1.657E+01   -1.651E+01   -1.645E+01   -1.638E+01   -1.632E+01
    -1.625E+01   -1.619E+01   -1.613E+01   -1.606E+01   -1.600E+01   -1.593E+01   -1.587E+01   -1.581E+01   -1.574E+01   -1.568E+01
    -1.561E+01   -1.555E+01   -1.549E+01   -1.542E+01   -1.536E+01   -1.529E+01   -1.523E+01   -1.517E+01   -1.510E+01   -1.504E+01
    -1.497E+01   -1.491E+01   -1.485E+01   -1.478E+01   -1.472E+01   -1.466E+01   -1.459E+01   -1.453E+01   -1.447E+01   -1.440E+01
    -1.434E+01   -1.428E+01   -1.422E+01   -1.415E+01   -1.409E+01   -1.403E+01   -1.396E+01   -1.390E+01   -1.384E+01   -1.378E+01
    -1.372E+01   -1.365E+01   -1.359E+01   -1.353E+01   -1.347E+01   -1.341E+01   -1.335E+01   -1.328E+01   -1.322E+01   -1.316E+01
    -1.310E+01   -1.304E+01   -1.298E+01   -1.292E+01   -1.286E+01   -1.280E+01   -1.274E+01   -1.268E+01   -1.262E+01   -1.256E+01
    -1.250E+01   -1.244E+01   -1.238E+01   -1.232E+01   -1.226E+01   -1.220E+01   -1.215E+01   -1.209E+01   -1.203E+01   -1.197E+01
    -1.191E+01   -1.185E+01   -1.180E+01   -1.174E+01   -1.168E+01   -1.163E+01   -1.157E+01   -1.151E+01   -1.146E+01   -1.140E+01
    -1.134E+01   -1.129E+01   -1.123E+01   -1.118E+01   -1.112E+01   -1.107E+01   -1.101E+01   -1.096E+01   -1.091E+01   -1.085E+01
    -1.080E+01   -1.074E+01   -1.069E+01   -1.064E+01   -1.058E+01   -1.053E+01   -1.048E+01   -1.043E+01   -1.037E+01   -1.032E+01
    -1.027E+01   -1.022E+01   -1.017E+01   -1.012E+01   -1.007E+01   -1.002E+01   -9.966E+00   -9.916E+00   -9.867E+00   -9.817E+00
    -9.768E+00   -9.718E+00   -9.669E+00   -9.621E+00   -9.572E+00   -9.524E+00   -9.476E+00   -9.428E+00   -9.381E+00   -9.333E+00
    -9.286E+00   -9.239E+00   -9.193E+00   -9.146E+00   -9.100E+00   -9.054E+00   -9.009E+00   -8.963E+00   -8.918E+00   -8.873E+00
    -8.828E+00   -8.783E+00   -8.739E+00   -8.695E+00   -8.651E+00   -8.607E+00   -8.564E+00   -8.521E+00   -8.478E+00   -8.435E+00
    -8.392E+00   -8.350E+00   -8.307E+00   -8.265E+00   -8.224E+00   -8.182E+00   -8.140E+00   -8.099E+00   -8.058E+00   -8.017E+00
    -7.976E+00   -7.936E+00   -7.896E+00   -7.855E+00   -7.815E+00   -7.776E+00   -7.736E+00   -7.696E+00   -7.657E+00   -7.618E+00
    -7.579E+00   -7.540E+00   -7.501E+00   -7.463E+00   -7.424E+00   -7.386E+00   -7.348E+00   -7.310E+00   -7.272E+00   -7.235E+00
    -7.197E+00   -7.160E+00   -7.123E+00   -7.086E+00   -7.049E+00   -7.012E+00   -6.975E+00   -6.939E+00   -6.902E+00   -6.866E+00
    -6.830E+00   -6.794E+00   -6.758E+00   -6.722E+00   -6.686E+00   -6.651E+00   -6.615E+00   -6.580E+00   -6.545E+00   -6.510E+00
    -6.475E+00   -6.440E+00   -6.406E+00   -6.371E+00   -6.337E+00   -6.303E+00   -6.269E+00   -6.235E+00   -6.201E+00   -6.167E+00
    -6.133E+00   -6.100E+00   -6.067E+00   -6.033E+00   -6.000E+00   -5.967E+00   -5.934E+00   -5.902E+00   -5.869E+00   -5.836E+00
    -5.804E+00   -5.772E+00   -5.740E+00   -5.708E+00   -5.676E+00   -5.644E+00   -5.612E+00   -5.581E+00   -5.549E+00   -5.518E+00
    -5.487E+00   -5.456E+00   -5.425E+00   -5.394E+00   -5.363E+00   -5.332E+00   -5.302E+00   -5.271E+00   -5.241E+00   -5.210E+00
    -5.180E+00   -5.150E+00   -5.120E+00   -5.090E+00   -5.061E+00   -5.031E+00   -5.001E+00   -4.972E+00   -4.942E+00   -4.913E+00
    -4.884E+00   -4.855E+00   -4.825E+00   -4.796E+00   -4.768E+00   -4.739E+00   -4.710E+00   -4.681E+00   -4.653E+00   -4.624E+00
    -4.596E+00   -4.567E+00   -4.539E+00   -4.511E+00   -4.482E+00   -4.454E+00   -4.426E+00   -4.398E+00   -4.370E+00   -4.342E+00
    -4.314E+00   -4.287E+00   -4.259E+00   -4.231E+00   -4.204E+00   -4.176E+00   -4.149E+00   -4.121E+00   -4.094E+00   -4.066E+00
    -4.039E+00   -4.012E+00   -3.985E+00   -3.957E+00   -3.930E+00   -3.903E+00   -3.876E+00   -3.849E+00   -3.822E+00   -3.795E+00
    -3.769E+00   -3.742E+00   -3.715E+00   -3.688E+00   -3.662E+00   -3.635E+00   -3.608E+00   -3.582E+00   -3.555E+00   -3.529E+00
    -3.502E+00   -3.476E+00   -3.450E+00   -3.423E+00   -3.397E+00   -3.371E+00   -3.345E+00   -3.318E+00   -3.292E+00   -3.266E+00
    -3.240E+00   -3.214E+00   -3.188E+00   -3.162E+00   -3.136E+00   -3.110E+00   -3.084E+00   -3.058E+00   -3.032E+00   -3.007E+00
    -2.981E+00   -2.955E+00   -2.929E+00   -2.904E+00   -2.878E+00   -2.852E+00   -2.827E+00   -2.801E+00   -2.775E+00   -2.750E+00
    -2.724E+00   -2.699E+00   -2.673E+00   -2.648E+00   -2.623E+00   -2.597E+00   -2.572E+00   -2.547E+00   -2.521E+00   -2.496E+00
    -2.471E+00   -2.446E+00   -2.421E+00   -2.395E+00   -2.370E+00   -2.345E+00   -2.320E+00   -2.295E+00   -2.270E+00   -2.246E+00
    -2.221E+00   -2.196E+00   -2.171E+00   -2.146E+00   -2.122E+00   -2.097E+00   -2.072E+00   -2.048E+00   -2.023E+00   -1.999E+00
    -1.974E+00   -1.950E+00   -1.925E+00   -1.901E+00   -1.876E+00   -1.852E+00   -1.828E+00   -1.804E+00   -1.779E+00   -1.755E+00
    -1.731E+00   -1.707E+00   -1.683E+00   -1.659E+00   -1.635E+00   -1.611E+00   -1.587E+00   -1.563E+00   -1.539E+00   -1.516E+00
    -1.492E+00   -1.468E+00   -1.444E+00   -1.421E+00   -1.397E+00   -1.373E+00   -1.350E+00   -1.326E+00   -1.302E+00   -1.279E+00
    -1.255E+00   -1.232E+00   -1.208E+00   -1.185E+00   -1.162E+00   -1.138E+00   -1.115E+00   -1.092E+00   -1.068E+00   -1.045E+00
    -1.022E+00   -9.985E-01   -9.752E-01   -9.520E-01   -9.289E-01   -9.057E-01   -8.826E-01   -8.595E-01   -8.364E-01   -8.133E-01
    -7.903E-01   -7.672E-01   -7.442E-01   -7.212E-01   -6.983E-01   -6.753E-01   -6.524E-01   -6.294E-01   -6.065E-01   -5.836E-01
    -5.607E-01   -5.378E-01   -5.150E-01   -4.921E-01   -4.693E-01   -4.465E-01   -4.237E-01   -4.009E-01   -3.781E-01   -3.553E-01
    -3.325E-01   -3.098E-01   -2.870E-01   -2.643E-01   -2.415E-01   -2.188E-01   -1.961E-01   -1.734E-01   -1.507E-01   -1.280E-01
    -1.053E-01   -8.257E-02   -5.987E-02   -3.719E-02   -1.450E-02    8.184E-03    3.086E-02    5.354E-02    7.622E-02    9.890E-02
     1.216E-01    1.443E-01    1.669E-01    1.896E-01    2.123E-01    2.350E-01    2.577E-01    2.803E-01    3.030E-01    3.257E-01
     3.484E-01    3.711E-01    3.938E-01    4.165E-01    4.391E-01    4.618E-01    4.845E-01    5.072E-01    5.299E-01    5.526E-01
     5.753E-01    5.979E-01    6.206E-01    6.433E-01    6.660E-01    6.887E-01    7.113E-01    7.340E-01    7.567E-01    7.794E-01
     8.020E-01    8.247E-01    8.474E-01    8.700E-01    8.927E-01    9.154E-01    9.380E-01    9.607E-01    9.833E-01    1.006E+00
     1.029E+00    1.051E+00    1.074E+00    1.097E+00    1.119E+00    1.142E+00    1.164E+00    1.187E+00
 Ala      Conc. = 1.02E+02
