 LCModel (Version 6.3-1L) Copyright: S.W. Provencher.          Ref.: Magn. Reson. Med. 30:672-679 (1993).                
 Slice#2 Row#13 Col#8  PD_05_press_1_raw_act
 36 lines in following concentration table = NCONC+1
    Conc.  %SD /Cr+PCr  Metabolite                                         
   28.899 263% 6.5E-02 Ala                                                 
   33.886 230% 7.6E-02 Asp                                                 
  144.308  91%   0.325 Cr                                                  
  299.398  45%   0.675 PCr                                                 
   39.469 127% 8.9E-02 GABA                                                
   59.395  82%   0.134 Glc                                                 
    0.870 999% 2.0E-03 Gln                                                 
  617.363  30%   1.391 Glu                                                 
    0.000 999%   0.000 GPC                                                 
  123.211   9%   0.278 PCh                                                 
   27.914 157% 6.3E-02 GSH                                                 
  155.938  95%   0.351 Ins                                                 
  116.185  74%   0.262 Lac                                                 
  721.170   5%   1.625 NAA                                                 
    0.000 999%   0.000 NAAG                                                
   46.173  26%   0.104 Scyllo                                              
  225.456  33%   0.508 Tau                                                 
  276.797  21%   0.624 -CrCH2                                              
  123.211   9%   0.278 GPC+PCh                                             
  721.170   5%   1.625 NAA+NAAG                                            
  443.706   7%   1.000 Cr+PCr                                              
  618.233  45%   1.393 Glu+Gln                                             
  236.174  53%   0.532 Lip13a                                              
    0.000 999%   0.000 Lip13b                                              
    0.000 999%   0.000 Lip09                                               
  287.379  25%   0.648 MM09                                                
   63.216 106%   0.142 Lip20                                               
  676.967  21%   1.526 MM20                                                
   95.181  46%   0.215 MM12                                                
  107.157 103%   0.242 MM14                                                
  387.045  18%   0.872 MM17                                                
  236.174  53%   0.532 Lip13a+Lip13b                                       
  438.512  35%   0.988 MM14+Lip13a+Lip13b+MM12                             
  287.379  25%   0.648 MM09+Lip09                                          
  740.183  20%   1.668 MM20+Lip20                                          
   6 lines in following misc. output table
  FWHM = 0.069 ppm    S/N =   6                                            
  Data shift = 0.054 ppm                                                   
  Ph: -65 deg     -22.6 deg/ppm                                            
  alphaB,S = 1.4E+00,   8.4E+01                                            
   14 spline knots.   Ns = 8(1)                                            
  (13) 8 infls.   ( 9) 1 extrs.                                            
  498 points on ppm-axis = NY
      4.000000     3.992357     3.984714     3.977070     3.969427     3.961784     3.954141     3.946497     3.938854     3.931211
      3.923568     3.915925     3.908281     3.900638     3.892995     3.885352     3.877708     3.870065     3.862422     3.854779
      3.847136     3.839492     3.831849     3.824206     3.816563     3.808919     3.801276     3.793633     3.785990     3.778347
      3.770703     3.763060     3.755417     3.747774     3.740130     3.732487     3.724844     3.717201     3.709558     3.701914
      3.694271     3.686628     3.678985     3.671341     3.663698     3.656055     3.648412     3.640769     3.633125     3.625482
      3.617839     3.610196     3.602552     3.594909     3.587266     3.579623     3.571980     3.564336     3.556693     3.549050
      3.541407     3.533763     3.526120     3.518477     3.510834     3.503191     3.495547     3.487904     3.480261     3.472618
      3.464974     3.457331     3.449688     3.442045     3.434402     3.426758     3.419115     3.411472     3.403829     3.396185
      3.388542     3.380899     3.373256     3.365613     3.357969     3.350326     3.342683     3.335040     3.327396     3.319753
      3.312110     3.304467     3.296824     3.289180     3.281537     3.273894     3.266251     3.258607     3.250964     3.243321
      3.235678     3.228034     3.220391     3.212748     3.205105     3.197462     3.189818     3.182175     3.174532     3.166889
      3.159245     3.151602     3.143959     3.136316     3.128673     3.121029     3.113386     3.105743     3.098100     3.090456
      3.082813     3.075170     3.067527     3.059884     3.052240     3.044597     3.036954     3.029311     3.021667     3.014024
      3.006381     2.998738     2.991095     2.983451     2.975808     2.968165     2.960522     2.952878     2.945235     2.937592
      2.929949     2.922306     2.914662     2.907019     2.899376     2.891733     2.884089     2.876446     2.868803     2.861160
      2.853517     2.845873     2.838230     2.830587     2.822944     2.815300     2.807657     2.800014     2.792371     2.784728
      2.777084     2.769441     2.761798     2.754155     2.746511     2.738868     2.731225     2.723582     2.715939     2.708295
      2.700652     2.693009     2.685366     2.677722     2.670079     2.662436     2.654793     2.647150     2.639506     2.631863
      2.624220     2.616577     2.608933     2.601290     2.593647     2.586004     2.578361     2.570717     2.563074     2.555431
      2.547788     2.540144     2.532501     2.524858     2.517215     2.509572     2.501928     2.494285     2.486642     2.478999
      2.471355     2.463712     2.456069     2.448426     2.440783     2.433139     2.425496     2.417853     2.410210     2.402566
      2.394923     2.387280     2.379637     2.371994     2.364350     2.356707     2.349064     2.341421     2.333777     2.326134
      2.318491     2.310848     2.303205     2.295561     2.287918     2.280275     2.272632     2.264988     2.257345     2.249702
      2.242059     2.234416     2.226772     2.219129     2.211486     2.203843     2.196199     2.188556     2.180913     2.173270
      2.165627     2.157983     2.150340     2.142697     2.135054     2.127410     2.119767     2.112124     2.104481     2.096838
      2.089194     2.081551     2.073908     2.066265     2.058621     2.050978     2.043335     2.035692     2.028049     2.020405
      2.012762     2.005119     1.997476     1.989833     1.982190     1.974546     1.966903     1.959260     1.951617     1.943974
      1.936331     1.928688     1.921045     1.913402     1.905759     1.898115     1.890472     1.882829     1.875186     1.867543
      1.859900     1.852257     1.844614     1.836971     1.829327     1.821684     1.814041     1.806398     1.798755     1.791112
      1.783469     1.775826     1.768183     1.760540     1.752896     1.745253     1.737610     1.729967     1.722324     1.714681
      1.707038     1.699395     1.691752     1.684108     1.676465     1.668822     1.661179     1.653536     1.645893     1.638250
      1.630607     1.622964     1.615321     1.607677     1.600034     1.592391     1.584748     1.577105     1.569462     1.561819
      1.554176     1.546533     1.538890     1.531246     1.523603     1.515960     1.508317     1.500674     1.493031     1.485388
      1.477745     1.470102     1.462458     1.454815     1.447172     1.439529     1.431886     1.424243     1.416600     1.408957
      1.401314     1.393671     1.386027     1.378384     1.370741     1.363098     1.355455     1.347812     1.340169     1.332526
      1.324883     1.317240     1.309596     1.301953     1.294310     1.286667     1.279024     1.271381     1.263738     1.256095
      1.248452     1.240808     1.233165     1.225522     1.217879     1.210236     1.202593     1.194950     1.187307     1.179664
      1.172021     1.164377     1.156734     1.149091     1.141448     1.133805     1.126162     1.118519     1.110876     1.103233
      1.095590     1.087946     1.080303     1.072660     1.065017     1.057374     1.049731     1.042088     1.034445     1.026802
      1.019158     1.011515     1.003872     0.996229     0.988586     0.980943     0.973300     0.965657     0.958014     0.950371
      0.942727     0.935084     0.927441     0.919798     0.912155     0.904512     0.896869     0.889226     0.881583     0.873940
      0.866296     0.858653     0.851010     0.843367     0.835724     0.828081     0.820438     0.812795     0.805152     0.797508
      0.789865     0.782222     0.774579     0.766936     0.759293     0.751650     0.744007     0.736364     0.728721     0.721077
      0.713434     0.705791     0.698148     0.690505     0.682862     0.675219     0.667576     0.659933     0.652290     0.644646
      0.637003     0.629360     0.621717     0.614074     0.606431     0.598788     0.591145     0.583502     0.575858     0.568215
      0.560572     0.552929     0.545286     0.537643     0.530000     0.522357     0.514714     0.507071     0.499427     0.491784
      0.484141     0.476498     0.468855     0.461212     0.453569     0.445925     0.438282     0.430639     0.422996     0.415353
      0.407710     0.400067     0.392424     0.384780     0.377137     0.369494     0.361851     0.354208     0.346565     0.338922
      0.331278     0.323635     0.315992     0.308349     0.300706     0.293063     0.285420     0.277777     0.270133     0.262490
      0.254847     0.247204     0.239561     0.231918     0.224275     0.216631     0.208988     0.201345
 NY phased data points follow
  -1.96291E+01 -1.93311E+01 -2.10511E+01 -1.90282E+01 -1.62637E+01 -1.47309E+01 -1.23226E+01 -1.38790E+01 -1.21762E+01 -1.37256E+01
  -9.97101E+00 -1.28338E+01 -1.13951E+01 -1.29927E+01 -1.40601E+01 -1.63866E+01 -1.73306E+01 -1.58041E+01 -1.77279E+01 -1.44458E+01
  -1.79272E+01 -1.46982E+01 -1.58801E+01 -1.54648E+01 -1.30725E+01 -1.23691E+01 -1.24978E+01 -1.28747E+01 -1.30460E+01 -1.27567E+01
  -1.12128E+01 -1.33152E+01 -1.39431E+01 -1.06080E+01 -1.20366E+01 -1.13243E+01 -9.77901E+00 -1.15104E+01 -1.59088E+01 -1.14773E+01
  -1.14354E+01 -1.14952E+01 -1.19379E+01 -9.10206E+00 -8.23160E+00 -1.00168E+01 -1.15913E+01 -1.03188E+01 -1.27916E+01 -1.07725E+01
  -1.23437E+01 -1.26025E+01 -9.59328E+00 -1.14710E+01 -1.05544E+01 -1.17742E+01 -9.88729E+00 -1.14440E+01 -9.77223E+00 -1.10850E+01
  -8.26726E+00 -8.52449E+00 -7.17542E+00 -1.00731E+01 -9.50138E+00 -1.06539E+01 -7.80118E+00 -8.12513E+00 -9.06124E+00 -1.08829E+01
  -8.80787E+00 -1.00568E+01 -7.22032E+00 -8.34759E+00 -7.37600E+00 -6.67972E+00 -8.83330E+00 -8.77598E+00 -5.85046E+00 -5.84614E+00
  -6.84882E+00 -7.57558E+00 -6.73731E+00 -5.34297E+00 -7.70281E+00 -4.41254E+00 -6.61792E+00 -6.46234E+00 -3.21702E+00 -6.62623E+00
  -4.22114E+00 -3.18567E+00 -4.67089E+00 -6.00154E+00 -3.60902E+00 -4.12171E+00 -5.62075E+00 -9.69675E-01 -3.11220E+00  1.03456E+00
   9.55638E-01  2.52064E+00  5.46038E+00  1.71466E+00 -2.01381E-02  5.09009E-01 -2.45455E-01 -3.61412E+00 -1.79143E+00 -2.34980E+00
  -3.70602E-01 -8.60345E-01 -6.21667E+00 -3.02210E+00 -8.26128E+00 -3.92696E+00 -5.98066E+00 -5.06290E+00 -2.86430E+00 -6.27508E-01
   3.38923E-01 -2.59904E+00  2.43696E+00  4.17892E+00  4.14435E+00  6.79903E+00  5.94965E+00  5.91535E+00  6.83722E+00  2.92279E+00
   2.92370E+00  2.87415E+00 -3.45235E-01 -2.08855E+00 -2.89402E+00  7.00849E-02 -1.84188E+00 -4.53964E+00 -4.50587E+00 -1.73718E+00
  -4.71338E+00 -4.30906E+00 -4.37069E+00 -5.34964E+00 -4.65348E+00 -5.89549E+00 -2.51368E+00 -4.88152E+00 -2.97138E+00 -4.54802E+00
  -2.35763E+00 -2.34274E+00 -4.02241E+00 -2.93365E+00 -3.30754E+00 -2.91279E+00 -3.34199E+00 -2.47444E+00 -1.82159E+00 -5.26256E+00
  -5.74583E+00 -1.57788E+00 -4.18303E+00 -1.40497E+00  6.84931E-01 -5.30968E+00 -4.06854E+00 -2.58045E+00 -3.14180E+00 -3.66251E+00
  -3.77468E+00 -6.90315E+00 -4.93688E+00 -4.62195E+00 -6.03258E+00 -5.34743E+00 -6.15297E+00 -4.55956E+00 -9.74197E-01 -3.13653E+00
  -1.79013E+00 -4.99923E+00 -6.98727E+00 -3.24248E+00 -1.40638E+00 -4.72144E+00 -3.58559E+00 -2.32535E+00 -2.31150E+00 -3.90313E+00
  -2.73330E+00  1.45170E+00 -1.90857E+00  1.01416E-01 -1.92561E+00  1.94688E-01 -1.33968E+00  8.81370E-01  7.17550E-01  8.33601E-01
   7.69933E-01  1.71825E-01 -2.40021E-01 -1.16110E+00 -1.59598E+00 -6.02393E-01 -1.13411E+00  7.75439E-01 -7.17696E-02  8.81322E-02
   3.17654E-01 -4.08968E-02  7.48975E-01  1.50001E+00  1.77679E+00  3.38867E+00  4.42911E-01  4.36901E+00  1.90149E+00 -1.58065E-01
  -1.26795E+00 -3.46963E-01  4.37348E-01 -8.64725E-01  3.70459E-01  6.08984E-01  8.91611E-01 -7.78206E-01  3.32006E+00  2.24527E+00
   1.83067E+00  2.58299E+00  3.33278E+00  5.10985E+00  3.21761E+00  5.35217E+00  3.30028E+00  3.50439E+00  2.83585E+00  3.19195E+00
   3.15846E+00  1.54848E+00  4.26715E+00  4.58539E+00  4.64199E+00  4.56690E+00  5.52170E+00  4.37898E+00  6.35251E+00  4.84394E+00
   3.59718E+00  4.71033E+00  7.66512E+00  8.01584E+00  1.03942E+01  1.20066E+01  1.52359E+01  1.87493E+01  1.78984E+01  2.15774E+01
   2.47616E+01  2.40319E+01  2.49480E+01  1.92225E+01  1.29016E+01  1.22686E+01  7.58638E+00  7.76260E+00  8.76943E+00  6.97024E+00
   6.66543E+00  7.79578E+00  2.02021E+00  6.47051E+00  6.63530E+00  5.08051E+00  2.71159E+00  3.28902E+00  3.20233E+00  3.86538E+00
   6.36253E+00  5.22069E+00  3.44096E+00  4.20439E+00  1.28514E+00  4.94453E+00  5.07377E+00  4.21654E+00  3.29348E+00  5.41391E-01
   4.34500E+00  4.87816E+00  4.66051E+00  5.35360E+00  3.17268E+00  3.41199E+00  3.36996E+00  3.90708E+00  5.59490E+00  3.88910E+00
   2.93708E+00  3.07614E+00  4.90548E+00  5.94395E+00  8.04639E+00  5.29095E+00  4.42381E+00  6.29424E+00  7.47574E+00  8.99833E+00
   7.75561E+00  5.21401E+00  6.57403E+00  8.09409E+00  5.86390E+00  7.68832E+00  6.17569E+00  6.41260E+00  4.33339E+00  7.98855E+00
   7.22433E+00  6.59689E+00  4.99814E+00  7.77116E+00  9.34671E+00  1.85954E+00  2.17859E+00  3.86765E+00  4.52112E+00  4.05194E+00
   3.44063E+00  5.52110E+00  4.85578E+00  5.64973E+00  4.17228E+00  4.37848E+00  4.13929E+00  3.30427E+00  2.00829E+00  5.49495E+00
   4.64537E+00  6.45411E+00  7.50588E+00  2.65070E+00  6.29391E+00  4.47790E+00  4.24213E+00  5.23942E+00  4.58904E+00  5.84377E+00
   4.82427E+00  2.47628E+00  6.06365E+00  2.26940E+00  5.86017E+00  5.16600E+00  7.08514E+00  6.16098E+00  4.09967E+00  6.65775E+00
   6.36921E+00  4.38145E+00  6.61382E+00  7.53252E+00  4.83969E+00  7.21046E+00  5.71907E+00  3.95151E+00  5.18284E+00  4.79351E+00
   7.27971E+00  4.85234E+00  5.02109E+00  5.15175E+00  5.28895E+00  5.63565E+00  3.18958E+00  3.19058E+00  4.52304E+00  8.65611E+00
   2.38357E+00  5.27838E+00  3.88808E+00  5.17705E+00  6.80985E+00  5.64821E+00  5.48866E+00  5.47827E+00  3.36968E+00  6.43246E+00
   7.21480E+00  6.98572E+00  5.15345E+00  5.36410E+00  4.88538E+00  6.70957E+00  2.98128E+00  2.64416E+00  5.73003E+00  5.02245E+00
   7.82872E+00  4.02112E+00  2.62107E+00  5.44336E+00  3.76079E+00  3.79056E+00  4.66523E+00  5.44448E+00  6.06472E+00  7.01494E+00
   3.71685E+00  3.91993E+00  7.20796E+00  5.51853E+00  5.37354E+00  4.27126E+00  5.77284E+00  5.29238E+00  2.95556E+00  1.97430E+00
   3.24585E+00  3.53014E+00  3.57989E+00  3.90300E+00  3.03389E+00  4.23984E+00  2.62485E+00  1.55772E+00  6.31555E+00  6.82540E-01
   4.28762E+00  3.84945E+00  3.28195E+00  4.83048E+00  3.80941E+00  4.63843E+00  4.89186E+00  1.82093E+00  4.01059E+00  3.33691E+00
   2.68631E+00  2.93410E+00  3.20536E+00  1.02094E+00  5.52436E+00  5.48165E+00  3.23446E+00  4.58831E+00  7.00712E+00  1.48254E+00
   6.00692E+00  6.95921E+00  6.10719E+00  1.53047E+00  2.98517E+00  1.76308E+00  4.79488E+00  5.19751E+00  1.76466E+00  4.12321E+00
   2.20995E+00  2.22696E+00  4.87485E-01  3.60444E+00  5.51388E+00  9.08374E-01  2.43368E+00  3.49377E+00  5.03446E+00  4.41642E+00
   4.55787E+00  2.63349E+00  4.82189E+00  6.22729E+00  4.19426E+00  3.55061E+00  1.63641E+00  4.59497E+00  5.22066E+00  2.72273E+00
   3.66217E+00  3.11650E+00  7.14281E-01  3.52822E+00  4.25833E+00  3.86018E+00  1.67626E+00  2.90857E+00  6.56040E+00  3.64989E+00
   2.36067E+00  2.50998E+00  3.78911E+00  4.28172E+00  3.07155E+00  3.33218E+00  3.51179E+00  4.48190E+00
 NY points of the fit to the data follow
  -1.64685E+01 -1.65076E+01 -1.63090E+01 -1.59150E+01 -1.54701E+01 -1.50152E+01 -1.45435E+01 -1.40354E+01 -1.34515E+01 -1.28311E+01
  -1.23241E+01 -1.21228E+01 -1.23185E+01 -1.28088E+01 -1.33883E+01 -1.38021E+01 -1.38960E+01 -1.37566E+01 -1.37782E+01 -1.39096E+01
  -1.39756E+01 -1.39274E+01 -1.37947E+01 -1.36652E+01 -1.35557E+01 -1.34226E+01 -1.32474E+01 -1.30555E+01 -1.28733E+01 -1.26890E+01
  -1.24762E+01 -1.22576E+01 -1.20348E+01 -1.18408E+01 -1.17904E+01 -1.19350E+01 -1.21805E+01 -1.23926E+01 -1.25122E+01 -1.24797E+01
  -1.22445E+01 -1.19283E+01 -1.16835E+01 -1.15341E+01 -1.14132E+01 -1.12622E+01 -1.11009E+01 -1.09393E+01 -1.08231E+01 -1.08474E+01
  -1.09643E+01 -1.10420E+01 -1.10360E+01 -1.09428E+01 -1.07970E+01 -1.06714E+01 -1.05865E+01 -1.04986E+01 -1.03608E+01 -1.01760E+01
  -1.00067E+01 -9.86823E+00 -9.75890E+00 -9.68047E+00 -9.59789E+00 -9.49186E+00 -9.37229E+00 -9.22209E+00 -9.03414E+00 -8.86340E+00
  -8.71308E+00 -8.56153E+00 -8.41221E+00 -8.27193E+00 -8.13158E+00 -8.02778E+00 -7.99455E+00 -8.02067E+00 -8.01008E+00 -7.84480E+00
  -7.58846E+00 -7.25149E+00 -6.82027E+00 -6.38430E+00 -6.04584E+00 -5.80650E+00 -5.67361E+00 -5.72243E+00 -5.94584E+00 -6.27331E+00
  -6.58651E+00 -6.76967E+00 -6.80089E+00 -6.69268E+00 -6.31953E+00 -5.41871E+00 -4.21649E+00 -2.82262E+00 -1.35390E+00  3.35615E-02
   1.27023E+00  2.34930E+00  3.10342E+00  3.23348E+00  2.56321E+00  1.20159E+00 -4.31751E-01 -1.89579E+00 -2.87224E+00 -3.29242E+00
  -3.59258E+00 -4.27663E+00 -5.13307E+00 -5.47942E+00 -5.52626E+00 -5.49486E+00 -5.41717E+00 -5.26993E+00 -4.75906E+00 -3.48031E+00
  -1.90171E+00 -3.26275E-01  1.28397E+00  2.89183E+00  4.44233E+00  5.90817E+00  6.97800E+00  7.19055E+00  6.32761E+00  4.54572E+00
   2.40701E+00  5.48483E-01 -6.48353E-01 -1.19587E+00 -1.59477E+00 -2.45252E+00 -3.53785E+00 -3.98032E+00 -4.02797E+00 -3.98953E+00
  -3.92679E+00 -3.86432E+00 -3.81566E+00 -3.77731E+00 -3.73951E+00 -3.70273E+00 -3.66223E+00 -3.62418E+00 -3.59469E+00 -3.56814E+00
  -3.53658E+00 -3.49714E+00 -3.45245E+00 -3.43131E+00 -3.44285E+00 -3.46018E+00 -3.46721E+00 -3.44987E+00 -3.41889E+00 -3.40657E+00
  -3.40667E+00 -3.39526E+00 -3.35105E+00 -3.26522E+00 -3.15807E+00 -3.08140E+00 -3.07447E+00 -3.14651E+00 -3.27513E+00 -3.40366E+00
  -3.44720E+00 -3.42933E+00 -3.41619E+00 -3.44073E+00 -3.50291E+00 -3.52512E+00 -3.47056E+00 -3.36461E+00 -3.22966E+00 -3.11360E+00
  -3.04261E+00 -2.97369E+00 -2.88152E+00 -2.74473E+00 -2.54033E+00 -2.28472E+00 -2.03459E+00 -1.82170E+00 -1.58113E+00 -1.27076E+00
  -9.32561E-01 -6.65260E-01 -5.13708E-01 -4.38907E-01 -3.90791E-01 -3.12513E-01 -1.74556E-01 -5.01172E-02  1.84144E-02  7.99222E-02
   1.40102E-01  2.33512E-01  3.40556E-01  4.20481E-01  4.39234E-01  3.39953E-01  1.36303E-01 -4.69098E-02 -1.03076E-01  1.28354E-02
   2.16313E-01  4.83546E-01  7.89601E-01  1.08849E+00  1.32838E+00  1.40235E+00  1.25485E+00  8.83429E-01  2.77852E-01 -4.10358E-01
  -9.82547E-01 -1.28285E+00 -1.21184E+00 -8.14522E-01 -2.42388E-01  3.79386E-01  1.01016E+00  1.60683E+00  1.99410E+00  2.19466E+00
   2.34714E+00  2.58871E+00  2.88341E+00  3.05705E+00  3.11740E+00  3.15594E+00  3.17119E+00  3.16860E+00  3.17645E+00  3.19280E+00
   3.25020E+00  3.37027E+00  3.53336E+00  3.73776E+00  3.97584E+00  4.22187E+00  4.43938E+00  4.59755E+00  4.69834E+00  4.77480E+00
   4.87362E+00  5.10445E+00  6.02771E+00  8.20325E+00  1.07435E+01  1.32281E+01  1.57154E+01  1.80984E+01  2.03146E+01  2.23961E+01
   2.38341E+01  2.38593E+01  2.21114E+01  1.89095E+01  1.52170E+01  1.20346E+01  9.96356E+00  8.96577E+00  8.15855E+00  6.57223E+00
   4.73915E+00  3.99957E+00  3.80921E+00  3.72938E+00  3.70207E+00  3.70618E+00  3.68199E+00  3.62730E+00  3.56060E+00  3.49056E+00
   3.42923E+00  3.38834E+00  3.35982E+00  3.33517E+00  3.32107E+00  3.32081E+00  3.33122E+00  3.34920E+00  3.37330E+00  3.40692E+00
   3.45437E+00  3.51228E+00  3.58218E+00  3.66624E+00  3.76438E+00  3.87794E+00  4.01008E+00  4.16077E+00  4.32846E+00  4.51070E+00
   4.70593E+00  4.91078E+00  5.12156E+00  5.33376E+00  5.54175E+00  5.73941E+00  5.92124E+00  6.08170E+00  6.21638E+00  6.32118E+00
   6.39344E+00  6.43114E+00  6.43401E+00  6.40312E+00  6.34180E+00  6.25395E+00  6.14517E+00  6.02217E+00  5.89501E+00  5.77487E+00
   5.65046E+00  5.51311E+00  5.37215E+00  5.23151E+00  5.09124E+00  4.95049E+00  4.80322E+00  4.65871E+00  4.53413E+00  4.43428E+00
   4.37565E+00  4.37208E+00  4.42140E+00  4.51300E+00  4.62951E+00  4.74767E+00  4.86288E+00  4.98900E+00  5.12355E+00  5.28685E+00
   5.45315E+00  5.56203E+00  5.63413E+00  5.66355E+00  5.61579E+00  5.49270E+00  5.29627E+00  5.05920E+00  4.81491E+00  4.57622E+00
   4.41738E+00  4.41236E+00  4.57091E+00  4.86423E+00  5.21855E+00  5.51657E+00  5.70504E+00  5.83318E+00  5.89232E+00  5.83846E+00
   5.73985E+00  5.67031E+00  5.65180E+00  5.61757E+00  5.49129E+00  5.34441E+00  5.24255E+00  5.16222E+00  5.09206E+00  5.02813E+00
   4.96925E+00  4.91478E+00  4.86498E+00  4.81999E+00  4.78043E+00  4.74657E+00  4.71907E+00  4.69819E+00  4.68456E+00  4.67843E+00
   4.68039E+00  4.69056E+00  4.70935E+00  4.73671E+00  4.77289E+00  4.81762E+00  4.87086E+00  4.93195E+00  5.00038E+00  5.07507E+00
   5.15504E+00  5.23870E+00  5.32458E+00  5.41057E+00  5.49476E+00  5.57479E+00  5.64860E+00  5.71384E+00  5.76860E+00  5.81083E+00
   5.83916E+00  5.85227E+00  5.84965E+00  5.83089E+00  5.79643E+00  5.74682E+00  5.68339E+00  5.60753E+00  5.52129E+00  5.42651E+00
   5.32552E+00  5.22028E+00  5.11306E+00  5.00565E+00  4.89995E+00  4.79726E+00  4.69895E+00  4.60577E+00  4.51856E+00  4.43755E+00
   4.36311E+00  4.29503E+00  4.23331E+00  4.17749E+00  4.12738E+00  4.08242E+00  4.04231E+00  4.00642E+00  3.97445E+00  3.94582E+00
   3.92032E+00  3.89742E+00  3.87695E+00  3.85844E+00  3.84179E+00  3.82664E+00  3.81294E+00  3.80038E+00  3.78894E+00  3.77833E+00
   3.76862E+00  3.75955E+00  3.75122E+00  3.74338E+00  3.73612E+00  3.72923E+00  3.72281E+00  3.71671E+00  3.71102E+00  3.70555E+00
   3.70042E+00  3.69546E+00  3.69081E+00  3.68631E+00  3.68208E+00  3.67795E+00  3.67404E+00  3.67021E+00  3.66661E+00  3.66307E+00
   3.65972E+00  3.65639E+00  3.65324E+00  3.65012E+00  3.64716E+00  3.64423E+00  3.64145E+00  3.63865E+00  3.63600E+00  3.63334E+00
   3.63084E+00  3.62832E+00  3.62593E+00  3.62351E+00  3.62121E+00  3.61891E+00  3.61673E+00  3.61453E+00  3.61243E+00  3.61030E+00
   3.60829E+00  3.60627E+00  3.60436E+00  3.60241E+00  3.60056E+00  3.59868E+00  3.59693E+00  3.59515E+00  3.59348E+00  3.59178E+00
   3.59019E+00  3.58858E+00  3.58710E+00  3.58560E+00  3.58422E+00  3.58283E+00  3.58157E+00  3.58032E+00
 NY background values follow
    -1.676E+01   -1.666E+01   -1.656E+01   -1.647E+01   -1.637E+01   -1.627E+01   -1.618E+01   -1.608E+01   -1.598E+01   -1.588E+01
    -1.579E+01   -1.569E+01   -1.559E+01   -1.550E+01   -1.540E+01   -1.530E+01   -1.521E+01   -1.511E+01   -1.501E+01   -1.492E+01
    -1.482E+01   -1.472E+01   -1.463E+01   -1.453E+01   -1.444E+01   -1.434E+01   -1.424E+01   -1.415E+01   -1.405E+01   -1.396E+01
    -1.386E+01   -1.376E+01   -1.367E+01   -1.357E+01   -1.348E+01   -1.338E+01   -1.329E+01   -1.319E+01   -1.310E+01   -1.300E+01
    -1.291E+01   -1.281E+01   -1.272E+01   -1.262E+01   -1.253E+01   -1.244E+01   -1.234E+01   -1.225E+01   -1.215E+01   -1.206E+01
    -1.197E+01   -1.187E+01   -1.178E+01   -1.169E+01   -1.160E+01   -1.150E+01   -1.141E+01   -1.132E+01   -1.123E+01   -1.114E+01
    -1.104E+01   -1.095E+01   -1.086E+01   -1.077E+01   -1.068E+01   -1.059E+01   -1.050E+01   -1.041E+01   -1.032E+01   -1.023E+01
    -1.014E+01   -1.005E+01   -9.963E+00   -9.875E+00   -9.786E+00   -9.698E+00   -9.611E+00   -9.523E+00   -9.436E+00   -9.349E+00
    -9.262E+00   -9.176E+00   -9.089E+00   -9.004E+00   -8.918E+00   -8.833E+00   -8.748E+00   -8.663E+00   -8.578E+00   -8.494E+00
    -8.411E+00   -8.327E+00   -8.244E+00   -8.161E+00   -8.078E+00   -7.996E+00   -7.914E+00   -7.832E+00   -7.751E+00   -7.670E+00
    -7.589E+00   -7.509E+00   -7.429E+00   -7.349E+00   -7.270E+00   -7.190E+00   -7.112E+00   -7.033E+00   -6.955E+00   -6.877E+00
    -6.799E+00   -6.722E+00   -6.645E+00   -6.568E+00   -6.491E+00   -6.415E+00   -6.339E+00   -6.264E+00   -6.188E+00   -6.114E+00
    -6.039E+00   -5.964E+00   -5.890E+00   -5.817E+00   -5.743E+00   -5.670E+00   -5.597E+00   -5.524E+00   -5.452E+00   -5.380E+00
    -5.308E+00   -5.237E+00   -5.166E+00   -5.095E+00   -5.025E+00   -4.954E+00   -4.884E+00   -4.815E+00   -4.745E+00   -4.676E+00
    -4.607E+00   -4.539E+00   -4.471E+00   -4.403E+00   -4.335E+00   -4.267E+00   -4.200E+00   -4.133E+00   -4.067E+00   -4.000E+00
    -3.934E+00   -3.869E+00   -3.803E+00   -3.738E+00   -3.673E+00   -3.608E+00   -3.544E+00   -3.479E+00   -3.415E+00   -3.352E+00
    -3.288E+00   -3.225E+00   -3.162E+00   -3.099E+00   -3.037E+00   -2.974E+00   -2.912E+00   -2.851E+00   -2.789E+00   -2.728E+00
    -2.667E+00   -2.606E+00   -2.545E+00   -2.485E+00   -2.425E+00   -2.365E+00   -2.305E+00   -2.246E+00   -2.187E+00   -2.128E+00
    -2.069E+00   -2.010E+00   -1.952E+00   -1.894E+00   -1.836E+00   -1.778E+00   -1.721E+00   -1.663E+00   -1.606E+00   -1.550E+00
    -1.493E+00   -1.437E+00   -1.381E+00   -1.325E+00   -1.269E+00   -1.214E+00   -1.159E+00   -1.104E+00   -1.049E+00   -9.951E-01
    -9.411E-01   -8.873E-01   -8.337E-01   -7.805E-01   -7.275E-01   -6.747E-01   -6.223E-01   -5.701E-01   -5.182E-01   -4.666E-01
    -4.153E-01   -3.642E-01   -3.135E-01   -2.630E-01   -2.128E-01   -1.629E-01   -1.134E-01   -6.407E-02   -1.509E-02    3.359E-02
     8.196E-02    1.300E-01    1.778E-01    2.252E-01    2.723E-01    3.191E-01    3.656E-01    4.117E-01    4.576E-01    5.031E-01
     5.483E-01    5.931E-01    6.376E-01    6.818E-01    7.257E-01    7.692E-01    8.124E-01    8.553E-01    8.978E-01    9.400E-01
     9.818E-01    1.023E+00    1.065E+00    1.105E+00    1.146E+00    1.186E+00    1.226E+00    1.265E+00    1.304E+00    1.343E+00
     1.382E+00    1.420E+00    1.458E+00    1.495E+00    1.532E+00    1.569E+00    1.605E+00    1.641E+00    1.677E+00    1.712E+00
     1.747E+00    1.781E+00    1.816E+00    1.849E+00    1.883E+00    1.916E+00    1.949E+00    1.981E+00    2.013E+00    2.045E+00
     2.076E+00    2.107E+00    2.138E+00    2.168E+00    2.198E+00    2.227E+00    2.257E+00    2.285E+00    2.314E+00    2.342E+00
     2.370E+00    2.397E+00    2.424E+00    2.451E+00    2.477E+00    2.503E+00    2.528E+00    2.554E+00    2.579E+00    2.603E+00
     2.627E+00    2.651E+00    2.675E+00    2.698E+00    2.721E+00    2.744E+00    2.766E+00    2.788E+00    2.809E+00    2.831E+00
     2.851E+00    2.872E+00    2.892E+00    2.912E+00    2.932E+00    2.951E+00    2.970E+00    2.989E+00    3.007E+00    3.026E+00
     3.043E+00    3.061E+00    3.078E+00    3.095E+00    3.111E+00    3.128E+00    3.144E+00    3.159E+00    3.175E+00    3.190E+00
     3.205E+00    3.219E+00    3.233E+00    3.247E+00    3.261E+00    3.274E+00    3.287E+00    3.300E+00    3.313E+00    3.325E+00
     3.337E+00    3.349E+00    3.360E+00    3.372E+00    3.383E+00    3.394E+00    3.404E+00    3.414E+00    3.424E+00    3.434E+00
     3.444E+00    3.453E+00    3.462E+00    3.471E+00    3.480E+00    3.488E+00    3.496E+00    3.504E+00    3.512E+00    3.519E+00
     3.527E+00    3.534E+00    3.541E+00    3.547E+00    3.554E+00    3.560E+00    3.566E+00    3.572E+00    3.578E+00    3.584E+00
     3.589E+00    3.594E+00    3.599E+00    3.604E+00    3.609E+00    3.613E+00    3.617E+00    3.621E+00    3.625E+00    3.629E+00
     3.633E+00    3.636E+00    3.640E+00    3.643E+00    3.646E+00    3.649E+00    3.652E+00    3.654E+00    3.657E+00    3.659E+00
     3.661E+00    3.664E+00    3.666E+00    3.668E+00    3.669E+00    3.671E+00    3.672E+00    3.674E+00    3.675E+00    3.677E+00
     3.678E+00    3.679E+00    3.680E+00    3.681E+00    3.681E+00    3.682E+00    3.683E+00    3.683E+00    3.684E+00    3.684E+00
     3.684E+00    3.685E+00    3.685E+00    3.685E+00    3.685E+00    3.685E+00    3.685E+00    3.685E+00    3.685E+00    3.685E+00
     3.685E+00    3.684E+00    3.684E+00    3.684E+00    3.684E+00    3.683E+00    3.683E+00    3.682E+00    3.682E+00    3.681E+00
     3.681E+00    3.680E+00    3.679E+00    3.679E+00    3.678E+00    3.677E+00    3.677E+00    3.676E+00    3.675E+00    3.674E+00
     3.673E+00    3.672E+00    3.671E+00    3.670E+00    3.670E+00    3.669E+00    3.668E+00    3.667E+00    3.666E+00    3.664E+00
     3.663E+00    3.662E+00    3.661E+00    3.660E+00    3.659E+00    3.658E+00    3.657E+00    3.656E+00    3.654E+00    3.653E+00
     3.652E+00    3.651E+00    3.650E+00    3.648E+00    3.647E+00    3.646E+00    3.645E+00    3.644E+00    3.642E+00    3.641E+00
     3.640E+00    3.639E+00    3.637E+00    3.636E+00    3.635E+00    3.634E+00    3.633E+00    3.631E+00    3.630E+00    3.629E+00
     3.628E+00    3.626E+00    3.625E+00    3.624E+00    3.622E+00    3.621E+00    3.620E+00    3.619E+00    3.617E+00    3.616E+00
     3.615E+00    3.614E+00    3.612E+00    3.611E+00    3.610E+00    3.608E+00    3.607E+00    3.606E+00    3.605E+00    3.603E+00
     3.602E+00    3.601E+00    3.599E+00    3.598E+00    3.597E+00    3.596E+00    3.594E+00    3.593E+00
 Ala      Conc. = 2.89E+01
