 LCModel (Version 6.3-1L) Copyright: S.W. Provencher.          Ref.: Magn. Reson. Med. 30:672-679 (1993).                
 Slice#3 Row#4 Col#5  PD_05_press_1_raw_act
 36 lines in following concentration table = NCONC+1
    Conc.  %SD /Cr+PCr  Metabolite                                         
    0.000 999%   0.000 Ala                                                 
   38.698 479% 2.4E-02 Asp                                                 
 1.10E+03  18%   0.693 Cr                                                  
  486.321  42%   0.307 PCr                                                 
   82.231 180% 5.2E-02 GABA                                                
    0.000 999%   0.000 Glc                                                 
 1.14E+03  21%   0.716 Gln                                                 
 1.62E+03  17%   1.023 Glu                                                 
  491.641   4%   0.310 GPC                                                 
    0.000 999%   0.000 PCh                                                 
  491.207  13%   0.310 GSH                                                 
 1.00E+03  23%   0.633 Ins                                                 
   45.879 256% 2.9E-02 Lac                                                 
 2.22E+03   3%   1.397 NAA                                                 
    0.000 999%   0.000 NAAG                                                
   78.678  29% 5.0E-02 Scyllo                                              
    0.000 999%   0.000 Tau                                                 
   27.632 349% 1.7E-02 -CrCH2                                              
  491.641   4%   0.310 GPC+PCh                                             
 2.22E+03   3%   1.397 NAA+NAAG                                            
 1.59E+03   3%   1.000 Cr+PCr                                              
 2.76E+03  16%   1.739 Glu+Gln                                             
  984.080  28%   0.620 Lip13a                                              
    0.000 999%   0.000 Lip13b                                              
    0.000 999%   0.000 Lip09                                               
  730.868  18%   0.461 MM09                                                
  106.121 127% 6.7E-02 Lip20                                               
 1.71E+03  15%   1.079 MM20                                                
  276.478  31%   0.174 MM12                                                
  534.130  40%   0.337 MM14                                                
  737.612  21%   0.465 MM17                                                
  984.080  28%   0.620 Lip13a+Lip13b                                       
 1.79E+03  18%   1.131 MM14+Lip13a+Lip13b+MM12                             
  730.868  18%   0.461 MM09+Lip09                                          
 1.82E+03  14%   1.146 MM20+Lip20                                          
   6 lines in following misc. output table
  FWHM = 0.061 ppm    S/N =  15                                            
  Data shift =-0.023 ppm                                                   
  Ph:  -4 deg      -8.2 deg/ppm                                            
  alphaB,S = 9.3E-01,   5.9E+01                                            
   14 spline knots.   Ns = 9(1)                                            
  (13) 7 infls.   ( 7) 3 extrs.                                            
  498 points on ppm-axis = NY
      4.000000     3.992357     3.984714     3.977070     3.969427     3.961784     3.954141     3.946497     3.938854     3.931211
      3.923568     3.915925     3.908281     3.900638     3.892995     3.885352     3.877708     3.870065     3.862422     3.854779
      3.847136     3.839492     3.831849     3.824206     3.816563     3.808919     3.801276     3.793633     3.785990     3.778347
      3.770703     3.763060     3.755417     3.747774     3.740130     3.732487     3.724844     3.717201     3.709558     3.701914
      3.694271     3.686628     3.678985     3.671341     3.663698     3.656055     3.648412     3.640769     3.633125     3.625482
      3.617839     3.610196     3.602552     3.594909     3.587266     3.579623     3.571980     3.564336     3.556693     3.549050
      3.541407     3.533763     3.526120     3.518477     3.510834     3.503191     3.495547     3.487904     3.480261     3.472618
      3.464974     3.457331     3.449688     3.442045     3.434402     3.426758     3.419115     3.411472     3.403829     3.396185
      3.388542     3.380899     3.373256     3.365613     3.357969     3.350326     3.342683     3.335040     3.327396     3.319753
      3.312110     3.304467     3.296824     3.289180     3.281537     3.273894     3.266251     3.258607     3.250964     3.243321
      3.235678     3.228034     3.220391     3.212748     3.205105     3.197462     3.189818     3.182175     3.174532     3.166889
      3.159245     3.151602     3.143959     3.136316     3.128673     3.121029     3.113386     3.105743     3.098100     3.090456
      3.082813     3.075170     3.067527     3.059884     3.052240     3.044597     3.036954     3.029311     3.021667     3.014024
      3.006381     2.998738     2.991095     2.983451     2.975808     2.968165     2.960522     2.952878     2.945235     2.937592
      2.929949     2.922306     2.914662     2.907019     2.899376     2.891733     2.884089     2.876446     2.868803     2.861160
      2.853517     2.845873     2.838230     2.830587     2.822944     2.815300     2.807657     2.800014     2.792371     2.784728
      2.777084     2.769441     2.761798     2.754155     2.746511     2.738868     2.731225     2.723582     2.715939     2.708295
      2.700652     2.693009     2.685366     2.677722     2.670079     2.662436     2.654793     2.647150     2.639506     2.631863
      2.624220     2.616577     2.608933     2.601290     2.593647     2.586004     2.578361     2.570717     2.563074     2.555431
      2.547788     2.540144     2.532501     2.524858     2.517215     2.509572     2.501928     2.494285     2.486642     2.478999
      2.471355     2.463712     2.456069     2.448426     2.440783     2.433139     2.425496     2.417853     2.410210     2.402566
      2.394923     2.387280     2.379637     2.371994     2.364350     2.356707     2.349064     2.341421     2.333777     2.326134
      2.318491     2.310848     2.303205     2.295561     2.287918     2.280275     2.272632     2.264988     2.257345     2.249702
      2.242059     2.234416     2.226772     2.219129     2.211486     2.203843     2.196199     2.188556     2.180913     2.173270
      2.165627     2.157983     2.150340     2.142697     2.135054     2.127410     2.119767     2.112124     2.104481     2.096838
      2.089194     2.081551     2.073908     2.066265     2.058621     2.050978     2.043335     2.035692     2.028049     2.020405
      2.012762     2.005119     1.997476     1.989833     1.982190     1.974546     1.966903     1.959260     1.951617     1.943974
      1.936331     1.928688     1.921045     1.913402     1.905759     1.898115     1.890472     1.882829     1.875186     1.867543
      1.859900     1.852257     1.844614     1.836971     1.829327     1.821684     1.814041     1.806398     1.798755     1.791112
      1.783469     1.775826     1.768183     1.760540     1.752896     1.745253     1.737610     1.729967     1.722324     1.714681
      1.707038     1.699395     1.691752     1.684108     1.676465     1.668822     1.661179     1.653536     1.645893     1.638250
      1.630607     1.622964     1.615321     1.607677     1.600034     1.592391     1.584748     1.577105     1.569462     1.561819
      1.554176     1.546533     1.538890     1.531246     1.523603     1.515960     1.508317     1.500674     1.493031     1.485388
      1.477745     1.470102     1.462458     1.454815     1.447172     1.439529     1.431886     1.424243     1.416600     1.408957
      1.401314     1.393671     1.386027     1.378384     1.370741     1.363098     1.355455     1.347812     1.340169     1.332526
      1.324883     1.317240     1.309596     1.301953     1.294310     1.286667     1.279024     1.271381     1.263738     1.256095
      1.248452     1.240808     1.233165     1.225522     1.217879     1.210236     1.202593     1.194950     1.187307     1.179664
      1.172021     1.164377     1.156734     1.149091     1.141448     1.133805     1.126162     1.118519     1.110876     1.103233
      1.095590     1.087946     1.080303     1.072660     1.065017     1.057374     1.049731     1.042088     1.034445     1.026802
      1.019158     1.011515     1.003872     0.996229     0.988586     0.980943     0.973300     0.965657     0.958014     0.950371
      0.942727     0.935084     0.927441     0.919798     0.912155     0.904512     0.896869     0.889226     0.881583     0.873940
      0.866296     0.858653     0.851010     0.843367     0.835724     0.828081     0.820438     0.812795     0.805152     0.797508
      0.789865     0.782222     0.774579     0.766936     0.759293     0.751650     0.744007     0.736364     0.728721     0.721077
      0.713434     0.705791     0.698148     0.690505     0.682862     0.675219     0.667576     0.659933     0.652290     0.644646
      0.637003     0.629360     0.621717     0.614074     0.606431     0.598788     0.591145     0.583502     0.575858     0.568215
      0.560572     0.552929     0.545286     0.537643     0.530000     0.522357     0.514714     0.507071     0.499427     0.491784
      0.484141     0.476498     0.468855     0.461212     0.453569     0.445925     0.438282     0.430639     0.422996     0.415353
      0.407710     0.400067     0.392424     0.384780     0.377137     0.369494     0.361851     0.354208     0.346565     0.338922
      0.331278     0.323635     0.315992     0.308349     0.300706     0.293063     0.285420     0.277777     0.270133     0.262490
      0.254847     0.247204     0.239561     0.231918     0.224275     0.216631     0.208988     0.201345
 NY phased data points follow
   1.66493E+01  2.10338E+01  2.10121E+01  2.23424E+01  2.60164E+01  2.95633E+01  3.05886E+01  3.42577E+01  3.46230E+01  4.20775E+01
   4.14237E+01  4.34262E+01  3.99392E+01  3.55295E+01  3.33057E+01  3.38475E+01  2.63025E+01  2.73539E+01  2.20631E+01  2.22531E+01
   1.89082E+01  2.44953E+01  1.86579E+01  2.24642E+01  2.00849E+01  2.03923E+01  1.98648E+01  2.16047E+01  2.29546E+01  2.19288E+01
   2.21985E+01  2.36814E+01  2.11409E+01  2.24311E+01  2.03451E+01  1.98779E+01  1.72672E+01  2.00666E+01  1.97941E+01  1.87105E+01
   2.07182E+01  2.05223E+01  1.87584E+01  1.90917E+01  2.08504E+01  2.08341E+01  2.18704E+01  2.13693E+01  2.20098E+01  1.90868E+01
   1.94296E+01  1.77676E+01  1.63247E+01  1.42136E+01  1.63185E+01  1.59656E+01  1.38392E+01  1.55326E+01  1.51350E+01  1.09985E+01
   1.35682E+01  1.03454E+01  1.05527E+01  9.61370E+00  6.65236E+00  8.90799E+00  6.70382E+00  8.48742E+00  4.69023E+00  6.16897E+00
   8.70885E+00  8.68982E+00  6.69432E+00  8.64153E+00  6.85399E+00  8.96192E+00  6.22031E+00  6.14625E+00  8.97083E+00  8.00720E+00
   8.91926E+00  6.29904E+00  8.33959E+00  7.80857E+00  1.05283E+01  1.08319E+01  1.03891E+01  1.06728E+01  7.65745E+00  7.43161E+00
   8.67350E+00  9.93930E+00  1.04914E+01  1.07944E+01  1.35886E+01  1.47564E+01  1.59951E+01  1.90230E+01  2.13943E+01  2.75085E+01
   3.02772E+01  3.26651E+01  3.85638E+01  3.93418E+01  3.92606E+01  3.36937E+01  3.01081E+01  2.76838E+01  1.95471E+01  2.08035E+01
   1.62728E+01  1.40555E+01  1.46496E+01  1.23372E+01  1.23185E+01  1.17910E+01  1.32167E+01  1.36304E+01  1.32516E+01  1.74872E+01
   1.74721E+01  2.41650E+01  2.60993E+01  2.95187E+01  3.33702E+01  3.87445E+01  4.27532E+01  4.83583E+01  4.39503E+01  4.03035E+01
   3.34130E+01  2.74859E+01  2.26824E+01  1.99260E+01  1.38436E+01  1.35873E+01  1.24749E+01  8.97693E+00  6.32840E+00  8.31792E+00
   6.16646E+00  7.07926E+00  7.15063E+00  8.13520E+00  5.92867E+00  6.07135E+00  4.03641E+00  5.52993E+00  4.61250E+00  6.54359E+00
   2.59437E+00  3.15182E+00  4.23054E+00  2.69440E+00  3.19525E+00  3.30026E+00  3.96697E+00  2.70337E+00  4.49815E-01  1.60019E+00
   8.23647E-01  1.01251E+00  1.11229E-01  2.97672E+00  3.22013E-01  3.29593E+00 -1.56826E-01 -6.92146E-01  8.21577E-02 -4.26677E-01
  -2.07075E+00  2.30328E-01 -3.55780E+00 -3.16342E+00 -4.46226E+00 -2.00291E+00 -5.98815E+00 -4.17693E+00 -2.66412E+00 -3.53913E+00
  -2.86266E+00 -3.12498E+00 -5.38040E+00 -3.20342E+00 -3.19885E+00 -8.41275E-01 -4.30860E+00 -2.24531E-01  2.28859E+00  1.90655E+00
   2.48646E+00  5.39099E+00  6.33700E+00  7.37004E+00  5.22942E+00  4.84532E+00  6.11939E+00  4.18280E+00  2.24384E+00  8.87003E-02
   4.47395E+00  3.64399E+00  5.59684E+00  7.44065E+00  6.44828E+00  5.12316E+00  5.70599E+00  3.37783E+00  2.40289E+00  7.75350E-01
   3.21111E+00  6.10776E+00  7.23304E+00  8.54092E+00  8.40675E+00  9.49076E+00  1.07254E+01  1.05901E+01  8.68686E+00  5.84313E+00
   4.68110E+00  5.50219E+00  3.29956E+00  2.50223E+00  6.41077E+00  6.65466E+00  1.07811E+01  1.07567E+01  8.68653E+00  9.84497E+00
   1.05462E+01  6.74267E+00  6.22433E+00  6.77460E+00  8.26404E+00  8.49603E+00  9.67267E+00  1.02633E+01  1.09658E+01  1.03114E+01
   9.81421E+00  7.84091E+00  9.58468E+00  9.72906E+00  1.03890E+01  1.11933E+01  1.30038E+01  1.12108E+01  1.24269E+01  1.23401E+01
   1.37848E+01  1.65088E+01  2.32790E+01  2.65338E+01  3.43371E+01  3.80752E+01  4.02267E+01  4.87803E+01  5.55649E+01  6.42536E+01
   6.76916E+01  6.69695E+01  6.29595E+01  5.11696E+01  4.06974E+01  3.60680E+01  2.68382E+01  2.46979E+01  1.87100E+01  1.69941E+01
   1.40023E+01  1.57521E+01  1.33851E+01  1.35889E+01  1.09196E+01  1.09928E+01  7.95339E+00  1.00030E+01  7.24059E+00  3.88948E+00
   8.19054E+00  7.47318E+00  8.37178E+00  8.12372E+00  8.68496E+00  8.22298E+00  9.12786E+00  7.55902E+00  8.58912E+00  8.14701E+00
   6.25288E+00  9.94459E+00  7.27065E+00  6.93703E+00  7.81227E+00  7.15024E+00  7.91218E+00  9.73505E+00  8.72555E+00  8.18515E+00
   7.28384E+00  7.57136E+00  7.28944E+00  1.05065E+01  9.72817E+00  9.93033E+00  9.75178E+00  1.27997E+01  1.10948E+01  1.13314E+01
   1.16646E+01  1.41429E+01  1.21807E+01  1.29869E+01  1.11742E+01  1.45596E+01  1.38955E+01  1.01366E+01  1.24906E+01  1.21389E+01
   1.11727E+01  9.36940E+00  1.05869E+01  9.11761E+00  1.08146E+01  8.98662E+00  1.32532E+01  1.05864E+01  1.24430E+01  9.80203E+00
   1.14360E+01  9.49119E+00  9.01646E+00  1.04952E+01  8.57024E+00  1.07796E+01  9.42348E+00  9.50275E+00  8.80089E+00  9.93932E+00
   7.17349E+00  1.05770E+01  1.20078E+01  8.41653E+00  8.58402E+00  1.07075E+01  1.00581E+01  1.14883E+01  9.55825E+00  1.33760E+01
   8.22669E+00  7.67112E+00  1.18908E+01  1.00772E+01  1.03742E+01  1.13775E+01  1.10016E+01  1.08993E+01  8.41257E+00  1.37174E+01
   1.18930E+01  9.95268E+00  1.09696E+01  1.24375E+01  1.03219E+01  1.00057E+01  9.66799E+00  1.08169E+01  1.02976E+01  8.74978E+00
   9.67631E+00  9.35312E+00  1.03246E+01  1.09822E+01  7.57223E+00  1.13343E+01  9.49607E+00  1.09043E+01  7.89883E+00  8.25342E+00
   8.18231E+00  8.44871E+00  8.47625E+00  7.45798E+00  5.86274E+00  1.02366E+01  9.73320E+00  5.18075E+00  3.84846E+00  8.25506E+00
   7.80904E+00  8.29726E+00  5.24776E+00  5.20758E+00  1.01174E+01  5.37422E+00  8.44723E+00  8.74598E+00  8.18351E+00  8.69948E+00
   9.08411E+00  9.63560E+00  7.96820E+00  8.74510E+00  6.88673E+00  8.11871E+00  7.63786E+00  7.72547E+00  9.67857E+00  8.39009E+00
   9.66974E+00  5.47125E+00  6.76697E+00  7.82957E+00  9.31861E+00  8.16399E+00  8.56936E+00  8.18523E+00  6.07305E+00  3.61455E+00
   5.93043E+00  4.72013E+00  6.51032E+00  5.59256E+00  6.34580E+00  4.70236E+00  5.87695E+00  3.14300E+00  3.60899E+00  2.15844E+00
   5.31581E+00  7.25989E+00  2.33404E+00  4.78650E+00  1.80407E+00  4.56261E+00  1.69175E+00  1.72724E+00  4.93035E+00  4.84920E+00
   3.96086E+00  2.68089E+00  3.70350E+00  5.65525E+00  3.55054E+00  1.88581E+00  3.63441E+00  3.94234E+00  2.44966E+00  2.88379E+00
   2.81531E+00  3.06941E+00  9.91207E-01  3.67263E+00  3.76545E+00  3.85591E+00  2.55840E+00  5.63286E-01  2.25511E+00  6.78601E+00
   3.94144E+00  2.62465E+00  2.45717E+00  7.05798E+00  5.06749E+00  4.74828E+00  5.55498E+00  5.19287E+00  1.89101E+00  2.11581E+00
   5.58070E+00  4.63892E+00  2.55457E+00  3.85561E+00  2.55283E+00  4.55023E+00  4.49231E+00  5.45057E+00  2.77866E+00  2.87140E+00
   3.10948E+00 -1.87901E-01  4.55570E+00  2.98699E+00  4.68209E+00  4.95357E+00  3.39664E+00  3.69706E+00  1.79653E+00  3.34809E+00
   4.18422E+00  5.67861E+00  2.48565E+00  2.20999E+00  2.13845E+00  4.06018E+00  5.28249E+00  2.80194E+00
 NY points of the fit to the data follow
   1.85370E+01  1.95247E+01  2.14553E+01  2.38451E+01  2.59117E+01  2.82136E+01  3.07965E+01  3.37449E+01  3.69715E+01  3.99072E+01
   4.18081E+01  4.20876E+01  4.05347E+01  3.74981E+01  3.39201E+01  3.06521E+01  2.80381E+01  2.59540E+01  2.39935E+01  2.19896E+01
   2.09875E+01  2.02175E+01  1.92127E+01  1.91706E+01  1.94861E+01  1.98058E+01  2.02943E+01  2.09505E+01  2.20758E+01  2.34941E+01
   2.46935E+01  2.52329E+01  2.46881E+01  2.33065E+01  2.15829E+01  1.97040E+01  1.79185E+01  1.67200E+01  1.68775E+01  1.74130E+01
   1.73835E+01  1.75865E+01  1.78298E+01  1.81125E+01  1.84778E+01  1.88840E+01  1.93394E+01  1.94025E+01  1.88575E+01  1.78287E+01
   1.65881E+01  1.55608E+01  1.48654E+01  1.42330E+01  1.36868E+01  1.35045E+01  1.34011E+01  1.30296E+01  1.27149E+01  1.26386E+01
   1.25383E+01  1.21836E+01  1.17173E+01  1.12716E+01  1.09033E+01  1.06552E+01  1.05106E+01  1.05295E+01  1.06259E+01  1.06499E+01
   1.06328E+01  1.05516E+01  1.04125E+01  1.02228E+01  9.98419E+00  9.76780E+00  9.60817E+00  9.58236E+00  9.70092E+00  9.60354E+00
   9.52779E+00  9.46989E+00  9.39015E+00  9.42965E+00  9.56887E+00  9.71695E+00  9.71403E+00  9.49627E+00  9.00443E+00  8.43554E+00
   8.03952E+00  7.88217E+00  7.97325E+00  8.69076E+00  1.14774E+01  1.51001E+01  1.73794E+01  1.95123E+01  2.20982E+01  2.52094E+01
   2.92718E+01  3.40345E+01  3.85126E+01  4.10997E+01  4.04138E+01  3.64289E+01  3.08416E+01  2.56426E+01  2.14957E+01  1.81168E+01
   1.52235E+01  1.34427E+01  1.26363E+01  1.04559E+01  7.84461E+00  7.00085E+00  7.05802E+00  8.41196E+00  1.23887E+01  1.60562E+01
   1.87870E+01  2.18979E+01  2.52630E+01  2.93668E+01  3.45878E+01  4.03055E+01  4.49341E+01  4.67489E+01  4.45428E+01  3.90424E+01
   3.27518E+01  2.73589E+01  2.30216E+01  1.92488E+01  1.58323E+01  1.38147E+01  1.22200E+01  8.87724E+00  6.62721E+00  6.28810E+00
   6.44374E+00  6.61687E+00  6.65574E+00  6.40175E+00  5.97761E+00  5.67072E+00  5.40834E+00  5.18838E+00  5.02778E+00  4.81826E+00
   4.59331E+00  4.31794E+00  3.89514E+00  3.53999E+00  3.32169E+00  3.18148E+00  3.15998E+00  3.07614E+00  2.82845E+00  2.51209E+00
   2.18046E+00  1.93540E+00  1.86951E+00  1.95569E+00  2.05288E+00  1.98545E+00  1.65107E+00  1.10207E+00  5.48696E-01  2.05227E-01
  -9.16465E-02 -2.92039E-01 -5.50908E-01 -8.86296E-01 -1.15592E+00 -1.47620E+00 -1.65708E+00 -1.59584E+00 -1.52649E+00 -1.46515E+00
  -1.33805E+00 -1.17728E+00 -8.62324E-01 -4.13708E-01 -3.13354E-02  2.52175E-01  7.42598E-01  1.43568E+00  2.18788E+00  2.86003E+00
   3.39592E+00  3.76603E+00  3.91868E+00  3.80133E+00  3.59505E+00  3.62397E+00  3.90931E+00  4.50049E+00  5.26848E+00  5.99928E+00
   6.60713E+00  6.73408E+00  6.88841E+00  6.85920E+00  6.27388E+00  5.35113E+00  4.23207E+00  3.23262E+00  2.46189E+00  1.93602E+00
   2.18551E+00  3.10380E+00  4.45327E+00  5.78812E+00  6.78608E+00  7.62340E+00  8.05641E+00  7.54615E+00  6.17426E+00  4.66345E+00
   3.70031E+00  2.80879E+00  2.28386E+00  2.75657E+00  4.25336E+00  6.01366E+00  7.00623E+00  7.47179E+00  8.11979E+00  8.57120E+00
   8.65356E+00  8.63905E+00  8.95906E+00  9.51623E+00  9.74152E+00  9.82805E+00  1.01491E+01  1.05582E+01  1.07592E+01  1.05767E+01
   9.98246E+00  9.34921E+00  8.91173E+00  8.62759E+00  8.75466E+00  9.48731E+00  1.05395E+01  1.12507E+01  1.17978E+01  1.24620E+01
   1.36656E+01  1.77794E+01  2.46391E+01  2.92691E+01  3.35592E+01  3.80429E+01  4.26015E+01  4.84628E+01  5.56070E+01  6.27811E+01
   6.74760E+01  6.71580E+01  6.10891E+01  5.17243E+01  4.26402E+01  3.53744E+01  2.95028E+01  2.43444E+01  2.08298E+01  1.96543E+01
   1.66737E+01  1.15421E+01  9.64972E+00  9.19471E+00  8.95481E+00  8.77578E+00  8.66490E+00  8.47951E+00  8.25953E+00  8.04340E+00
   7.84046E+00  7.65998E+00  7.54293E+00  7.46130E+00  7.37967E+00  7.31340E+00  7.27022E+00  7.24293E+00  7.23441E+00  7.23933E+00
   7.26332E+00  7.31990E+00  7.39166E+00  7.48123E+00  7.59862E+00  7.74278E+00  7.91073E+00  8.10597E+00  8.33172E+00  8.58432E+00
   8.85800E+00  9.15295E+00  9.46490E+00  9.78514E+00  1.01087E+01  1.04271E+01  1.07321E+01  1.10163E+01  1.12725E+01  1.14937E+01
   1.16740E+01  1.18096E+01  1.18980E+01  1.19378E+01  1.19301E+01  1.18783E+01  1.17869E+01  1.16621E+01  1.15107E+01  1.13403E+01
   1.11583E+01  1.09721E+01  1.07887E+01  1.06138E+01  1.04522E+01  1.03075E+01  1.01819E+01  1.00766E+01  9.99182E+00  9.92702E+00
   9.88099E+00  9.85209E+00  9.83865E+00  9.83914E+00  9.85250E+00  9.87833E+00  9.91783E+00  9.97661E+00  1.00644E+01  1.01382E+01
   1.01822E+01  1.02353E+01  1.02903E+01  1.03455E+01  1.03993E+01  1.04402E+01  1.04926E+01  1.05192E+01  1.04947E+01  1.04631E+01
   1.04624E+01  1.05124E+01  1.06110E+01  1.07464E+01  1.09049E+01  1.10678E+01  1.11809E+01  1.11879E+01  1.11439E+01  1.10953E+01
   1.10169E+01  1.09076E+01  1.07670E+01  1.06193E+01  1.04727E+01  1.02764E+01  1.00510E+01  9.83131E+00  9.61148E+00  9.39010E+00
   9.16869E+00  8.94956E+00  8.73530E+00  8.52850E+00  8.33162E+00  8.14688E+00  7.97630E+00  7.82167E+00  7.68458E+00  7.56633E+00
   7.46800E+00  7.39043E+00  7.33425E+00  7.29992E+00  7.28773E+00  7.29768E+00  7.32955E+00  7.38279E+00  7.45661E+00  7.54981E+00
   7.66085E+00  7.78766E+00  7.92771E+00  8.07795E+00  8.23491E+00  8.39466E+00  8.55293E+00  8.70509E+00  8.84643E+00  8.97219E+00
   9.07792E+00  9.15944E+00  9.21318E+00  9.23619E+00  9.22642E+00  9.18272E+00  9.10502E+00  8.99417E+00  8.85198E+00  8.68106E+00
   8.48480E+00  8.26713E+00  8.03239E+00  7.78506E+00  7.52964E+00  7.27042E+00  7.01143E+00  6.75627E+00  6.50808E+00  6.26935E+00
   6.04206E+00  5.82761E+00  5.62694E+00  5.44052E+00  5.26842E+00  5.11035E+00  4.96579E+00  4.83402E+00  4.71425E+00  4.60558E+00
   4.50708E+00  4.41779E+00  4.33683E+00  4.26333E+00  4.19656E+00  4.13577E+00  4.08033E+00  4.02960E+00  3.98310E+00  3.94035E+00
   3.90099E+00  3.86465E+00  3.83102E+00  3.79979E+00  3.77077E+00  3.74373E+00  3.71853E+00  3.69497E+00  3.67294E+00  3.65227E+00
   3.63288E+00  3.61470E+00  3.59764E+00  3.58161E+00  3.56653E+00  3.55232E+00  3.53897E+00  3.52639E+00  3.51457E+00  3.50341E+00
   3.49288E+00  3.48294E+00  3.47359E+00  3.46478E+00  3.45648E+00  3.44865E+00  3.44126E+00  3.43428E+00  3.42773E+00  3.42155E+00
   3.41575E+00  3.41025E+00  3.40509E+00  3.40023E+00  3.39569E+00  3.39142E+00  3.38742E+00  3.38364E+00  3.38010E+00  3.37679E+00
   3.37371E+00  3.37082E+00  3.36813E+00  3.36560E+00  3.36326E+00  3.36110E+00  3.35913E+00  3.35729E+00  3.35561E+00  3.35407E+00
   3.35271E+00  3.35150E+00  3.35047E+00  3.34958E+00  3.34887E+00  3.34833E+00  3.34801E+00  3.34793E+00
 NY background values follow
     1.426E+01    1.417E+01    1.407E+01    1.398E+01    1.388E+01    1.379E+01    1.370E+01    1.360E+01    1.351E+01    1.341E+01
     1.332E+01    1.322E+01    1.313E+01    1.303E+01    1.294E+01    1.284E+01    1.275E+01    1.265E+01    1.256E+01    1.246E+01
     1.237E+01    1.227E+01    1.218E+01    1.208E+01    1.199E+01    1.189E+01    1.180E+01    1.170E+01    1.161E+01    1.152E+01
     1.142E+01    1.133E+01    1.123E+01    1.114E+01    1.104E+01    1.095E+01    1.086E+01    1.076E+01    1.067E+01    1.057E+01
     1.048E+01    1.039E+01    1.029E+01    1.020E+01    1.011E+01    1.001E+01    9.921E+00    9.829E+00    9.736E+00    9.644E+00
     9.552E+00    9.460E+00    9.369E+00    9.277E+00    9.186E+00    9.095E+00    9.005E+00    8.915E+00    8.825E+00    8.735E+00
     8.646E+00    8.556E+00    8.468E+00    8.379E+00    8.291E+00    8.204E+00    8.117E+00    8.030E+00    7.943E+00    7.857E+00
     7.772E+00    7.687E+00    7.602E+00    7.518E+00    7.434E+00    7.351E+00    7.268E+00    7.186E+00    7.104E+00    7.023E+00
     6.942E+00    6.862E+00    6.782E+00    6.703E+00    6.625E+00    6.547E+00    6.470E+00    6.393E+00    6.317E+00    6.242E+00
     6.168E+00    6.094E+00    6.020E+00    5.948E+00    5.876E+00    5.804E+00    5.734E+00    5.664E+00    5.595E+00    5.526E+00
     5.458E+00    5.391E+00    5.324E+00    5.259E+00    5.193E+00    5.129E+00    5.065E+00    5.002E+00    4.939E+00    4.877E+00
     4.816E+00    4.756E+00    4.696E+00    4.637E+00    4.578E+00    4.520E+00    4.463E+00    4.407E+00    4.351E+00    4.296E+00
     4.242E+00    4.188E+00    4.135E+00    4.082E+00    4.031E+00    3.979E+00    3.929E+00    3.879E+00    3.830E+00    3.782E+00
     3.734E+00    3.687E+00    3.641E+00    3.595E+00    3.550E+00    3.506E+00    3.462E+00    3.419E+00    3.377E+00    3.335E+00
     3.294E+00    3.254E+00    3.215E+00    3.176E+00    3.139E+00    3.102E+00    3.066E+00    3.030E+00    2.996E+00    2.963E+00
     2.930E+00    2.898E+00    2.868E+00    2.838E+00    2.809E+00    2.781E+00    2.755E+00    2.729E+00    2.704E+00    2.681E+00
     2.658E+00    2.637E+00    2.616E+00    2.597E+00    2.579E+00    2.562E+00    2.546E+00    2.532E+00    2.519E+00    2.507E+00
     2.496E+00    2.486E+00    2.478E+00    2.471E+00    2.465E+00    2.461E+00    2.458E+00    2.457E+00    2.457E+00    2.458E+00
     2.460E+00    2.465E+00    2.470E+00    2.477E+00    2.485E+00    2.495E+00    2.506E+00    2.518E+00    2.532E+00    2.546E+00
     2.562E+00    2.579E+00    2.597E+00    2.616E+00    2.636E+00    2.657E+00    2.679E+00    2.702E+00    2.726E+00    2.751E+00
     2.776E+00    2.803E+00    2.830E+00    2.857E+00    2.886E+00    2.915E+00    2.944E+00    2.974E+00    3.005E+00    3.036E+00
     3.068E+00    3.100E+00    3.132E+00    3.165E+00    3.198E+00    3.231E+00    3.264E+00    3.298E+00    3.332E+00    3.366E+00
     3.400E+00    3.434E+00    3.468E+00    3.503E+00    3.537E+00    3.571E+00    3.605E+00    3.638E+00    3.672E+00    3.705E+00
     3.739E+00    3.772E+00    3.805E+00    3.837E+00    3.870E+00    3.902E+00    3.934E+00    3.966E+00    3.998E+00    4.029E+00
     4.060E+00    4.091E+00    4.122E+00    4.152E+00    4.183E+00    4.212E+00    4.242E+00    4.271E+00    4.300E+00    4.329E+00
     4.358E+00    4.386E+00    4.413E+00    4.441E+00    4.468E+00    4.495E+00    4.521E+00    4.547E+00    4.573E+00    4.599E+00
     4.624E+00    4.648E+00    4.673E+00    4.697E+00    4.720E+00    4.743E+00    4.766E+00    4.788E+00    4.810E+00    4.831E+00
     4.852E+00    4.873E+00    4.893E+00    4.913E+00    4.932E+00    4.951E+00    4.969E+00    4.987E+00    5.004E+00    5.021E+00
     5.037E+00    5.054E+00    5.069E+00    5.084E+00    5.099E+00    5.113E+00    5.127E+00    5.140E+00    5.153E+00    5.165E+00
     5.177E+00    5.189E+00    5.200E+00    5.210E+00    5.220E+00    5.230E+00    5.239E+00    5.248E+00    5.256E+00    5.264E+00
     5.271E+00    5.278E+00    5.284E+00    5.290E+00    5.295E+00    5.300E+00    5.304E+00    5.308E+00    5.312E+00    5.315E+00
     5.317E+00    5.319E+00    5.321E+00    5.322E+00    5.323E+00    5.323E+00    5.323E+00    5.322E+00    5.320E+00    5.319E+00
     5.316E+00    5.314E+00    5.311E+00    5.307E+00    5.303E+00    5.298E+00    5.294E+00    5.288E+00    5.282E+00    5.276E+00
     5.270E+00    5.262E+00    5.255E+00    5.247E+00    5.239E+00    5.230E+00    5.221E+00    5.212E+00    5.202E+00    5.192E+00
     5.181E+00    5.170E+00    5.159E+00    5.147E+00    5.135E+00    5.123E+00    5.110E+00    5.097E+00    5.084E+00    5.070E+00
     5.057E+00    5.042E+00    5.028E+00    5.013E+00    4.998E+00    4.982E+00    4.966E+00    4.950E+00    4.934E+00    4.917E+00
     4.900E+00    4.883E+00    4.866E+00    4.848E+00    4.830E+00    4.812E+00    4.794E+00    4.775E+00    4.756E+00    4.737E+00
     4.718E+00    4.699E+00    4.680E+00    4.660E+00    4.640E+00    4.621E+00    4.601E+00    4.581E+00    4.561E+00    4.541E+00
     4.520E+00    4.500E+00    4.480E+00    4.460E+00    4.440E+00    4.419E+00    4.399E+00    4.379E+00    4.359E+00    4.339E+00
     4.319E+00    4.299E+00    4.279E+00    4.260E+00    4.240E+00    4.220E+00    4.201E+00    4.182E+00    4.163E+00    4.144E+00
     4.126E+00    4.107E+00    4.089E+00    4.071E+00    4.053E+00    4.036E+00    4.018E+00    4.001E+00    3.985E+00    3.968E+00
     3.952E+00    3.936E+00    3.921E+00    3.905E+00    3.890E+00    3.876E+00    3.861E+00    3.847E+00    3.833E+00    3.819E+00
     3.806E+00    3.793E+00    3.780E+00    3.767E+00    3.755E+00    3.743E+00    3.731E+00    3.720E+00    3.708E+00    3.698E+00
     3.687E+00    3.676E+00    3.666E+00    3.656E+00    3.647E+00    3.637E+00    3.628E+00    3.619E+00    3.611E+00    3.603E+00
     3.594E+00    3.587E+00    3.579E+00    3.572E+00    3.565E+00    3.558E+00    3.552E+00    3.545E+00    3.539E+00    3.534E+00
     3.528E+00    3.523E+00    3.518E+00    3.513E+00    3.509E+00    3.505E+00    3.501E+00    3.497E+00    3.493E+00    3.490E+00
     3.487E+00    3.484E+00    3.481E+00    3.479E+00    3.476E+00    3.474E+00    3.472E+00    3.470E+00    3.468E+00    3.467E+00
     3.465E+00    3.464E+00    3.462E+00    3.461E+00    3.460E+00    3.459E+00    3.458E+00    3.457E+00    3.456E+00    3.456E+00
     3.455E+00    3.454E+00    3.454E+00    3.453E+00    3.453E+00    3.452E+00    3.452E+00    3.451E+00    3.450E+00    3.450E+00
     3.449E+00    3.449E+00    3.448E+00    3.447E+00    3.447E+00    3.446E+00    3.445E+00    3.444E+00
 Asp      Conc. = 3.87E+01
