 LCModel (Version 6.3-1L) Copyright: S.W. Provencher.          Ref.: Magn. Reson. Med. 30:672-679 (1993).                
 Slice#2 Row#5 Col#2  PD_05_press_1_raw_act
 36 lines in following concentration table = NCONC+1
    Conc.  %SD /Cr+PCr  Metabolite                                         
   24.404 114%   0.439 Ala                                                 
    9.908  32%   0.178 Asp                                                 
    3.645 999% 6.6E-02 Cr                                                  
   51.881  72%   0.934 PCr                                                 
    6.010  31%   0.108 GABA                                                
    5.999  31%   0.108 Glc                                                 
   58.304  94%   1.050 Gln                                                 
   52.753 113%   0.950 Glu                                                 
    8.814 337%   0.159 GPC                                                 
   11.481 261%   0.207 PCh                                                 
    0.000 999%   0.000 GSH                                                 
    0.000 999%   0.000 Ins                                                 
   22.585 132%   0.407 Lac                                                 
   84.126  23%   1.515 NAA                                                 
    0.000 999%   0.000 NAAG                                                
    1.998  32% 3.6E-02 Scyllo                                              
   10.080  31%   0.182 Tau                                                 
    5.313  64% 9.6E-02 -CrCH2                                              
   20.295  31%   0.366 GPC+PCh                                             
   84.126  23%   1.515 NAA+NAAG                                            
   55.526  31%   1.000 Cr+PCr                                              
  111.057  69%   2.000 Glu+Gln                                             
    0.000 999%   0.000 Lip13a                                              
    0.000 999%   0.000 Lip13b                                              
 4.27E-04 999% 7.7E-06 Lip09                                               
   65.688 106%   1.183 MM09                                                
 5.88E-06 999% 1.1E-07 Lip20                                               
   40.505 275%   0.729 MM20                                                
   11.201 255%   0.202 MM12                                                
  101.145  80%   1.822 MM14                                                
   72.771  79%   1.311 MM17                                                
    0.000 999%   0.000 Lip13a+Lip13b                                       
  112.346  86%   2.023 MM14+Lip13a+Lip13b+MM12                             
   65.688 106%   1.183 MM09+Lip09                                          
   40.505 275%   0.729 MM20+Lip20                                          
   6 lines in following misc. output table
  FWHM = 0.038 ppm    S/N =   1                                            
  Data shift =-0.038 ppm                                                   
  Ph:  85 deg      -7.6 deg/ppm                                            
  alphaB,S = 3.9E-01,   2.0E+01                                            
   14 spline knots.   Ns = 5(1)                                            
   2 inflections.     1 extrema                                            
  498 points on ppm-axis = NY
      4.000000     3.992357     3.984714     3.977070     3.969427     3.961784     3.954141     3.946497     3.938854     3.931211
      3.923568     3.915925     3.908281     3.900638     3.892995     3.885352     3.877708     3.870065     3.862422     3.854779
      3.847136     3.839492     3.831849     3.824206     3.816563     3.808919     3.801276     3.793633     3.785990     3.778347
      3.770703     3.763060     3.755417     3.747774     3.740130     3.732487     3.724844     3.717201     3.709558     3.701914
      3.694271     3.686628     3.678985     3.671341     3.663698     3.656055     3.648412     3.640769     3.633125     3.625482
      3.617839     3.610196     3.602552     3.594909     3.587266     3.579623     3.571980     3.564336     3.556693     3.549050
      3.541407     3.533763     3.526120     3.518477     3.510834     3.503191     3.495547     3.487904     3.480261     3.472618
      3.464974     3.457331     3.449688     3.442045     3.434402     3.426758     3.419115     3.411472     3.403829     3.396185
      3.388542     3.380899     3.373256     3.365613     3.357969     3.350326     3.342683     3.335040     3.327396     3.319753
      3.312110     3.304467     3.296824     3.289180     3.281537     3.273894     3.266251     3.258607     3.250964     3.243321
      3.235678     3.228034     3.220391     3.212748     3.205105     3.197462     3.189818     3.182175     3.174532     3.166889
      3.159245     3.151602     3.143959     3.136316     3.128673     3.121029     3.113386     3.105743     3.098100     3.090456
      3.082813     3.075170     3.067527     3.059884     3.052240     3.044597     3.036954     3.029311     3.021667     3.014024
      3.006381     2.998738     2.991095     2.983451     2.975808     2.968165     2.960522     2.952878     2.945235     2.937592
      2.929949     2.922306     2.914662     2.907019     2.899376     2.891733     2.884089     2.876446     2.868803     2.861160
      2.853517     2.845873     2.838230     2.830587     2.822944     2.815300     2.807657     2.800014     2.792371     2.784728
      2.777084     2.769441     2.761798     2.754155     2.746511     2.738868     2.731225     2.723582     2.715939     2.708295
      2.700652     2.693009     2.685366     2.677722     2.670079     2.662436     2.654793     2.647150     2.639506     2.631863
      2.624220     2.616577     2.608933     2.601290     2.593647     2.586004     2.578361     2.570717     2.563074     2.555431
      2.547788     2.540144     2.532501     2.524858     2.517215     2.509572     2.501928     2.494285     2.486642     2.478999
      2.471355     2.463712     2.456069     2.448426     2.440783     2.433139     2.425496     2.417853     2.410210     2.402566
      2.394923     2.387280     2.379637     2.371994     2.364350     2.356707     2.349064     2.341421     2.333777     2.326134
      2.318491     2.310848     2.303205     2.295561     2.287918     2.280275     2.272632     2.264988     2.257345     2.249702
      2.242059     2.234416     2.226772     2.219129     2.211486     2.203843     2.196199     2.188556     2.180913     2.173270
      2.165627     2.157983     2.150340     2.142697     2.135054     2.127410     2.119767     2.112124     2.104481     2.096838
      2.089194     2.081551     2.073908     2.066265     2.058621     2.050978     2.043335     2.035692     2.028049     2.020405
      2.012762     2.005119     1.997476     1.989833     1.982190     1.974546     1.966903     1.959260     1.951617     1.943974
      1.936331     1.928688     1.921045     1.913402     1.905759     1.898115     1.890472     1.882829     1.875186     1.867543
      1.859900     1.852257     1.844614     1.836971     1.829327     1.821684     1.814041     1.806398     1.798755     1.791112
      1.783469     1.775826     1.768183     1.760540     1.752896     1.745253     1.737610     1.729967     1.722324     1.714681
      1.707038     1.699395     1.691752     1.684108     1.676465     1.668822     1.661179     1.653536     1.645893     1.638250
      1.630607     1.622964     1.615321     1.607677     1.600034     1.592391     1.584748     1.577105     1.569462     1.561819
      1.554176     1.546533     1.538890     1.531246     1.523603     1.515960     1.508317     1.500674     1.493031     1.485388
      1.477745     1.470102     1.462458     1.454815     1.447172     1.439529     1.431886     1.424243     1.416600     1.408957
      1.401314     1.393671     1.386027     1.378384     1.370741     1.363098     1.355455     1.347812     1.340169     1.332526
      1.324883     1.317240     1.309596     1.301953     1.294310     1.286667     1.279024     1.271381     1.263738     1.256095
      1.248452     1.240808     1.233165     1.225522     1.217879     1.210236     1.202593     1.194950     1.187307     1.179664
      1.172021     1.164377     1.156734     1.149091     1.141448     1.133805     1.126162     1.118519     1.110876     1.103233
      1.095590     1.087946     1.080303     1.072660     1.065017     1.057374     1.049731     1.042088     1.034445     1.026802
      1.019158     1.011515     1.003872     0.996229     0.988586     0.980943     0.973300     0.965657     0.958014     0.950371
      0.942727     0.935084     0.927441     0.919798     0.912155     0.904512     0.896869     0.889226     0.881583     0.873940
      0.866296     0.858653     0.851010     0.843367     0.835724     0.828081     0.820438     0.812795     0.805152     0.797508
      0.789865     0.782222     0.774579     0.766936     0.759293     0.751650     0.744007     0.736364     0.728721     0.721077
      0.713434     0.705791     0.698148     0.690505     0.682862     0.675219     0.667576     0.659933     0.652290     0.644646
      0.637003     0.629360     0.621717     0.614074     0.606431     0.598788     0.591145     0.583502     0.575858     0.568215
      0.560572     0.552929     0.545286     0.537643     0.530000     0.522357     0.514714     0.507071     0.499427     0.491784
      0.484141     0.476498     0.468855     0.461212     0.453569     0.445925     0.438282     0.430639     0.422996     0.415353
      0.407710     0.400067     0.392424     0.384780     0.377137     0.369494     0.361851     0.354208     0.346565     0.338922
      0.331278     0.323635     0.315992     0.308349     0.300706     0.293063     0.285420     0.277777     0.270133     0.262490
      0.254847     0.247204     0.239561     0.231918     0.224275     0.216631     0.208988     0.201345
 NY phased data points follow
   8.74614E+01  8.63949E+01  8.21029E+01  8.37849E+01  8.04563E+01  8.03495E+01  8.08304E+01  7.68017E+01  7.77044E+01  7.75338E+01
   7.57522E+01  7.73472E+01  7.53260E+01  7.28123E+01  7.42791E+01  7.23303E+01  7.13684E+01  6.99498E+01  6.89201E+01  6.70383E+01
   6.62279E+01  6.70486E+01  6.65057E+01  6.71599E+01  6.60140E+01  6.38772E+01  6.28584E+01  6.13720E+01  6.10986E+01  6.27170E+01
   6.07389E+01  6.16002E+01  6.04724E+01  6.11718E+01  5.99292E+01  5.65254E+01  5.81145E+01  5.73989E+01  5.75324E+01  5.57510E+01
   5.67103E+01  5.57811E+01  5.73323E+01  5.36391E+01  5.45696E+01  5.64997E+01  5.22976E+01  5.40097E+01  5.23860E+01  5.35458E+01
   5.18692E+01  5.20618E+01  5.14720E+01  5.27119E+01  5.20300E+01  5.11276E+01  5.05662E+01  4.91534E+01  4.88210E+01  5.25488E+01
   5.02445E+01  4.65783E+01  4.92031E+01  4.71435E+01  4.63658E+01  4.90543E+01  4.75623E+01  4.62325E+01  4.64725E+01  4.62751E+01
   4.60169E+01  4.50035E+01  4.37584E+01  4.59618E+01  4.21498E+01  4.43010E+01  4.18729E+01  4.41798E+01  4.12152E+01  4.34134E+01
   4.20519E+01  4.14764E+01  4.10228E+01  4.21692E+01  3.90131E+01  4.05472E+01  3.80999E+01  3.93561E+01  4.10780E+01  3.94885E+01
   4.07251E+01  3.91452E+01  4.02741E+01  3.83612E+01  3.86788E+01  3.88049E+01  3.75946E+01  3.50632E+01  3.79719E+01  3.69442E+01
   3.70380E+01  3.75730E+01  3.92446E+01  3.83358E+01  3.82178E+01  3.83555E+01  3.94606E+01  3.49985E+01  3.55570E+01  3.49469E+01
   3.42637E+01  3.53594E+01  3.46553E+01  3.46446E+01  3.42720E+01  3.28006E+01  3.23849E+01  3.24831E+01  3.53375E+01  2.99600E+01
   3.13869E+01  3.27134E+01  3.05485E+01  3.15206E+01  3.20010E+01  3.12583E+01  3.22196E+01  3.44886E+01  3.24411E+01  3.57830E+01
   3.39444E+01  3.11079E+01  3.07268E+01  3.01867E+01  2.75237E+01  3.20948E+01  3.09481E+01  2.91911E+01  2.98634E+01  3.12809E+01
   3.21901E+01  3.22183E+01  2.72747E+01  2.84797E+01  2.74725E+01  3.08787E+01  2.90705E+01  2.97507E+01  3.00985E+01  2.95038E+01
   2.85328E+01  2.87769E+01  2.99695E+01  2.86707E+01  2.98503E+01  2.93466E+01  2.96797E+01  2.54147E+01  2.76042E+01  2.87038E+01
   2.79166E+01  2.69593E+01  2.64344E+01  2.90590E+01  2.96778E+01  2.62690E+01  2.69487E+01  2.86371E+01  2.63437E+01  2.72135E+01
   2.72626E+01  2.94588E+01  2.75053E+01  2.62963E+01  2.64225E+01  2.65547E+01  2.64387E+01  2.66031E+01  2.36053E+01  2.62454E+01
   2.60556E+01  2.51132E+01  2.28393E+01  2.50735E+01  2.25506E+01  2.25636E+01  2.33415E+01  2.17501E+01  2.18825E+01  2.08198E+01
   2.46390E+01  2.52226E+01  2.43712E+01  2.66004E+01  2.55698E+01  2.47268E+01  2.43899E+01  2.61310E+01  2.55884E+01  2.05808E+01
   2.21343E+01  2.50623E+01  2.39311E+01  2.43308E+01  2.30917E+01  2.45999E+01  2.20386E+01  2.16074E+01  2.20490E+01  2.31715E+01
   2.05968E+01  1.96519E+01  2.06706E+01  2.23855E+01  2.28601E+01  2.10209E+01  2.37270E+01  2.25412E+01  2.22964E+01  2.27736E+01
   2.44739E+01  2.24062E+01  2.21244E+01  1.90629E+01  2.02768E+01  2.20839E+01  2.39281E+01  2.43422E+01  2.16309E+01  2.14653E+01
   2.11944E+01  2.27088E+01  2.08945E+01  2.23814E+01  1.83441E+01  2.05176E+01  2.24496E+01  2.11820E+01  2.28608E+01  2.16830E+01
   2.20379E+01  2.29833E+01  2.12346E+01  1.91979E+01  2.10992E+01  2.02523E+01  2.17827E+01  2.28843E+01  1.99817E+01  2.37420E+01
   1.78650E+01  2.08373E+01  2.09229E+01  1.76268E+01  1.89027E+01  1.83867E+01  1.88150E+01  2.10043E+01  1.98787E+01  2.19678E+01
   2.30097E+01  2.52197E+01  2.28581E+01  2.46867E+01  2.47765E+01  2.17953E+01  1.80150E+01  1.77892E+01  1.74561E+01  1.75540E+01
   2.02902E+01  2.22246E+01  2.11963E+01  2.13416E+01  2.30412E+01  1.99719E+01  2.04479E+01  2.12088E+01  2.04657E+01  2.04716E+01
   2.28464E+01  2.09058E+01  2.05652E+01  1.96021E+01  2.06638E+01  1.88795E+01  2.25167E+01  2.09288E+01  1.96107E+01  1.96030E+01
   2.05185E+01  1.91155E+01  1.82762E+01  1.89459E+01  1.78876E+01  2.00679E+01  1.99563E+01  1.88098E+01  1.99976E+01  2.17008E+01
   2.09228E+01  1.82266E+01  1.96243E+01  1.98521E+01  2.08094E+01  2.02571E+01  1.87251E+01  1.99269E+01  2.12325E+01  1.99235E+01
   1.85113E+01  2.00998E+01  1.69250E+01  1.76532E+01  1.71777E+01  1.80342E+01  1.70188E+01  1.58903E+01  1.70705E+01  1.75568E+01
   1.79441E+01  1.67041E+01  1.64173E+01  1.73853E+01  1.91059E+01  1.66287E+01  1.63461E+01  1.94599E+01  1.62583E+01  1.81733E+01
   1.95028E+01  1.62213E+01  1.56978E+01  1.69183E+01  1.56632E+01  1.81242E+01  1.74298E+01  1.65211E+01  1.75632E+01  1.66706E+01
   1.75566E+01  1.72291E+01  1.75522E+01  1.60472E+01  1.56310E+01  1.78954E+01  1.67299E+01  1.74552E+01  1.52040E+01  1.44491E+01
   1.57767E+01  1.56002E+01  1.59168E+01  1.46474E+01  1.12629E+01  1.23371E+01  1.38758E+01  1.21513E+01  1.50254E+01  1.34248E+01
   1.47279E+01  1.29188E+01  1.25778E+01  1.25238E+01  1.49849E+01  1.40397E+01  1.56307E+01  1.27847E+01  1.31849E+01  1.29739E+01
   1.12612E+01  1.30836E+01  1.23488E+01  1.23972E+01  1.18640E+01  1.10292E+01  1.00288E+01  1.11779E+01  1.32056E+01  1.45415E+01
   1.25812E+01  1.46903E+01  1.41823E+01  1.45982E+01  1.36969E+01  1.21417E+01  1.20361E+01  1.25179E+01  1.48725E+01  1.40437E+01
   1.32696E+01  1.35555E+01  1.43762E+01  1.35076E+01  1.40396E+01  1.22406E+01  1.25633E+01  1.62711E+01  1.33122E+01  1.12820E+01
   1.36444E+01  1.49743E+01  1.22357E+01  1.04615E+01  1.42765E+01  1.21348E+01  1.20967E+01  1.23470E+01  1.28650E+01  1.30770E+01
   1.19971E+01  1.27452E+01  1.36437E+01  1.08161E+01  1.42036E+01  1.21610E+01  1.24635E+01  1.34276E+01  1.10492E+01  1.27302E+01
   1.10873E+01  1.33253E+01  1.08022E+01  1.27947E+01  1.17627E+01  1.32438E+01  1.13144E+01  1.27799E+01  1.10225E+01  1.23481E+01
   1.24882E+01  1.11992E+01  1.26730E+01  1.26718E+01  1.22095E+01  1.12369E+01  1.09113E+01  9.47535E+00  9.71843E+00  1.25541E+01
   1.25847E+01  1.30359E+01  1.09720E+01  1.17839E+01  1.08664E+01  1.01368E+01  1.01906E+01  9.62159E+00  9.53007E+00  9.70944E+00
   9.85826E+00  1.08798E+01  1.01291E+01  9.79535E+00  1.07906E+01  9.24922E+00  9.30977E+00  9.02882E+00  1.04182E+01  1.10600E+01
   1.08563E+01  1.11896E+01  9.52926E+00  1.04886E+01  9.76792E+00  1.08383E+01  9.40332E+00  9.91906E+00  9.69403E+00  9.02657E+00
   1.14458E+01  1.15695E+01  1.01609E+01  7.66846E+00  7.09092E+00  1.13782E+01  8.29603E+00  9.07321E+00  9.96477E+00  9.42749E+00
   8.39778E+00  1.20542E+01  1.09402E+01  1.23855E+01  8.88115E+00  1.02006E+01  1.09637E+01  8.54561E+00  9.83845E+00  9.93230E+00
   1.19541E+01  8.29748E+00  8.96315E+00  9.64861E+00  8.75314E+00  6.87788E+00  1.06630E+01  6.96381E+00
 NY points of the fit to the data follow
   8.12519E+01  8.06097E+01  7.99783E+01  7.93428E+01  7.86764E+01  7.80727E+01  7.76191E+01  7.73088E+01  7.70860E+01  7.68314E+01
   7.64165E+01  7.57677E+01  7.48682E+01  7.38108E+01  7.27893E+01  7.19420E+01  7.12217E+01  7.05512E+01  6.99085E+01  6.92830E+01
   6.86783E+01  6.81175E+01  6.75982E+01  6.70881E+01  6.65391E+01  6.59187E+01  6.52192E+01  6.44621E+01  6.37192E+01  6.30707E+01
   6.25754E+01  6.22238E+01  6.19272E+01  6.15811E+01  6.11051E+01  6.04794E+01  5.97564E+01  5.90302E+01  5.83883E+01  5.78569E+01
   5.74142E+01  5.70073E+01  5.65839E+01  5.61175E+01  5.56175E+01  5.51121E+01  5.46179E+01  5.41343E+01  5.36647E+01  5.32099E+01
   5.27650E+01  5.23294E+01  5.19046E+01  5.14837E+01  5.10603E+01  5.06364E+01  5.02150E+01  4.97959E+01  4.93822E+01  4.89770E+01
   4.85812E+01  4.81951E+01  4.78177E+01  4.74492E+01  4.70867E+01  4.67309E+01  4.63806E+01  4.60315E+01  4.56816E+01  4.53314E+01
   4.49806E+01  4.46360E+01  4.43094E+01  4.40036E+01  4.37144E+01  4.34331E+01  4.31442E+01  4.28377E+01  4.25141E+01  4.21804E+01
   4.18510E+01  4.15398E+01  4.12585E+01  4.10100E+01  4.07852E+01  4.05700E+01  4.03473E+01  4.01043E+01  3.98389E+01  3.95512E+01
   3.92463E+01  3.89431E+01  3.86590E+01  3.83880E+01  3.81202E+01  3.78636E+01  3.76245E+01  3.73869E+01  3.71134E+01  3.69416E+01
   3.70496E+01  3.74416E+01  3.80020E+01  3.85095E+01  3.87257E+01  3.85009E+01  3.77936E+01  3.67661E+01  3.57926E+01  3.51649E+01
   3.48201E+01  3.45730E+01  3.43527E+01  3.41447E+01  3.39466E+01  3.37556E+01  3.35688E+01  3.33846E+01  3.32034E+01  3.30242E+01
   3.28439E+01  3.26389E+01  3.23825E+01  3.22718E+01  3.24549E+01  3.29097E+01  3.35077E+01  3.40186E+01  3.42158E+01  3.39759E+01
   3.32842E+01  3.23387E+01  3.15142E+01  3.10363E+01  3.07758E+01  3.05821E+01  3.04135E+01  3.02620E+01  3.01214E+01  2.99848E+01
   2.98479E+01  2.97100E+01  2.95742E+01  2.94423E+01  2.93152E+01  2.91939E+01  2.90759E+01  2.89559E+01  2.88302E+01  2.87000E+01
   2.85698E+01  2.84445E+01  2.83258E+01  2.82112E+01  2.80985E+01  2.79881E+01  2.78818E+01  2.77729E+01  2.76512E+01  2.75141E+01
   2.73646E+01  2.72205E+01  2.70999E+01  2.70080E+01  2.69422E+01  2.68871E+01  2.68179E+01  2.67177E+01  2.65899E+01  2.64521E+01
   2.63229E+01  2.62120E+01  2.61078E+01  2.59909E+01  2.58641E+01  2.57382E+01  2.56266E+01  2.55343E+01  2.54534E+01  2.53765E+01
   2.52974E+01  2.52092E+01  2.51106E+01  2.50076E+01  2.49113E+01  2.48256E+01  2.47420E+01  2.46569E+01  2.45812E+01  2.45241E+01
   2.44776E+01  2.44269E+01  2.43445E+01  2.42268E+01  2.40971E+01  2.39736E+01  2.38580E+01  2.37556E+01  2.36743E+01  2.36184E+01
   2.35931E+01  2.36056E+01  2.36487E+01  2.36971E+01  2.37104E+01  2.36505E+01  2.34636E+01  2.31550E+01  2.27812E+01  2.24105E+01
   2.21271E+01  2.19887E+01  2.20240E+01  2.22156E+01  2.24790E+01  2.26946E+01  2.27920E+01  2.27830E+01  2.26595E+01  2.24023E+01
   2.20673E+01  2.17613E+01  2.15571E+01  2.14678E+01  2.14842E+01  2.15847E+01  2.17233E+01  2.18279E+01  2.18423E+01  2.17779E+01
   2.16864E+01  2.15987E+01  2.15011E+01  2.13927E+01  2.12840E+01  2.11901E+01  2.11283E+01  2.11238E+01  2.11902E+01  2.12966E+01
   2.13849E+01  2.13905E+01  2.12899E+01  2.11215E+01  2.09371E+01  2.07811E+01  2.06888E+01  2.06616E+01  2.06621E+01  2.06682E+01
   2.06889E+01  2.07218E+01  2.07555E+01  2.07829E+01  2.07815E+01  2.06633E+01  2.04867E+01  2.06222E+01  2.12095E+01  2.21844E+01
   2.33070E+01  2.41978E+01  2.45441E+01  2.41892E+01  2.31818E+01  2.19555E+01  2.10796E+01  2.06979E+01  2.05268E+01  2.04150E+01
   2.03293E+01  2.02593E+01  2.02038E+01  2.01661E+01  2.01426E+01  2.01253E+01  2.01059E+01  2.00772E+01  2.00367E+01  1.99881E+01
   1.99359E+01  1.98834E+01  1.98346E+01  1.97917E+01  1.97548E+01  1.97229E+01  1.96943E+01  1.96672E+01  1.96407E+01  1.96140E+01
   1.95863E+01  1.95583E+01  1.95304E+01  1.95022E+01  1.94735E+01  1.94443E+01  1.94145E+01  1.93835E+01  1.93510E+01  1.93162E+01
   1.92783E+01  1.92369E+01  1.91916E+01  1.91420E+01  1.90881E+01  1.90298E+01  1.89670E+01  1.88999E+01  1.88289E+01  1.87544E+01
   1.86770E+01  1.85973E+01  1.85158E+01  1.84332E+01  1.83500E+01  1.82670E+01  1.81847E+01  1.81036E+01  1.80243E+01  1.79473E+01
   1.78729E+01  1.78004E+01  1.77296E+01  1.76897E+01  1.77003E+01  1.77298E+01  1.77352E+01  1.76726E+01  1.75163E+01  1.72750E+01
   1.69635E+01  1.66303E+01  1.63874E+01  1.62942E+01  1.63228E+01  1.64231E+01  1.65562E+01  1.66758E+01  1.67296E+01  1.66728E+01
   1.65179E+01  1.63374E+01  1.61836E+01  1.60705E+01  1.60172E+01  1.59973E+01  1.59693E+01  1.58897E+01  1.57256E+01  1.54754E+01
   1.51464E+01  1.47869E+01  1.45078E+01  1.43803E+01  1.43880E+01  1.44690E+01  1.45763E+01  1.46675E+01  1.46955E+01  1.46261E+01
   1.44803E+01  1.43270E+01  1.42061E+01  1.41082E+01  1.40227E+01  1.39451E+01  1.38731E+01  1.38055E+01  1.37416E+01  1.36808E+01
   1.36229E+01  1.35675E+01  1.35145E+01  1.34638E+01  1.34153E+01  1.33689E+01  1.33246E+01  1.32825E+01  1.32425E+01  1.32047E+01
   1.31691E+01  1.31358E+01  1.31050E+01  1.30766E+01  1.30508E+01  1.30276E+01  1.30072E+01  1.29895E+01  1.29746E+01  1.29624E+01
   1.29529E+01  1.29458E+01  1.29409E+01  1.29379E+01  1.29363E+01  1.29356E+01  1.29352E+01  1.29344E+01  1.29326E+01  1.29289E+01
   1.29227E+01  1.29133E+01  1.29001E+01  1.28825E+01  1.28602E+01  1.28329E+01  1.28006E+01  1.27633E+01  1.27212E+01  1.26747E+01
   1.26244E+01  1.25707E+01  1.25144E+01  1.24561E+01  1.23964E+01  1.23359E+01  1.22751E+01  1.22145E+01  1.21545E+01  1.20953E+01
   1.20373E+01  1.19806E+01  1.19251E+01  1.18711E+01  1.18184E+01  1.17670E+01  1.17169E+01  1.16679E+01  1.16199E+01  1.15729E+01
   1.15266E+01  1.14812E+01  1.14364E+01  1.13922E+01  1.13485E+01  1.13053E+01  1.12625E+01  1.12201E+01  1.11780E+01  1.11363E+01
   1.10949E+01  1.10538E+01  1.10130E+01  1.09725E+01  1.09322E+01  1.08923E+01  1.08526E+01  1.08132E+01  1.07742E+01  1.07354E+01
   1.06969E+01  1.06588E+01  1.06210E+01  1.05836E+01  1.05464E+01  1.05096E+01  1.04731E+01  1.04369E+01  1.04010E+01  1.03653E+01
   1.03298E+01  1.02946E+01  1.02597E+01  1.02249E+01  1.01904E+01  1.01560E+01  1.01218E+01  1.00878E+01  1.00540E+01  1.00203E+01
   9.98670E+00  9.95327E+00  9.91994E+00  9.88673E+00  9.85361E+00  9.82058E+00  9.78762E+00  9.75473E+00  9.72189E+00  9.68911E+00
   9.65635E+00  9.62362E+00  9.59090E+00  9.55820E+00  9.52549E+00  9.49276E+00  9.46001E+00  9.42722E+00  9.39439E+00  9.36152E+00
   9.32857E+00  9.29556E+00  9.26245E+00  9.22926E+00  9.19596E+00  9.16256E+00  9.12903E+00  9.09536E+00
 NY background values follow
     8.125E+01    8.060E+01    7.994E+01    7.929E+01    7.865E+01    7.800E+01    7.736E+01    7.671E+01    7.607E+01    7.543E+01
     7.480E+01    7.417E+01    7.354E+01    7.291E+01    7.228E+01    7.166E+01    7.104E+01    7.043E+01    6.982E+01    6.921E+01
     6.860E+01    6.800E+01    6.741E+01    6.681E+01    6.622E+01    6.564E+01    6.506E+01    6.448E+01    6.391E+01    6.334E+01
     6.278E+01    6.222E+01    6.166E+01    6.112E+01    6.057E+01    6.004E+01    5.950E+01    5.898E+01    5.846E+01    5.794E+01
     5.743E+01    5.693E+01    5.643E+01    5.594E+01    5.545E+01    5.497E+01    5.450E+01    5.404E+01    5.358E+01    5.312E+01
     5.268E+01    5.224E+01    5.180E+01    5.137E+01    5.095E+01    5.053E+01    5.012E+01    4.972E+01    4.932E+01    4.893E+01
     4.854E+01    4.816E+01    4.778E+01    4.741E+01    4.704E+01    4.668E+01    4.632E+01    4.597E+01    4.562E+01    4.528E+01
     4.495E+01    4.461E+01    4.429E+01    4.396E+01    4.365E+01    4.333E+01    4.302E+01    4.272E+01    4.242E+01    4.212E+01
     4.183E+01    4.154E+01    4.125E+01    4.097E+01    4.070E+01    4.042E+01    4.015E+01    3.989E+01    3.962E+01    3.937E+01
     3.911E+01    3.886E+01    3.861E+01    3.836E+01    3.812E+01    3.788E+01    3.764E+01    3.741E+01    3.718E+01    3.695E+01
     3.672E+01    3.650E+01    3.628E+01    3.607E+01    3.585E+01    3.564E+01    3.544E+01    3.523E+01    3.503E+01    3.483E+01
     3.463E+01    3.444E+01    3.425E+01    3.406E+01    3.387E+01    3.369E+01    3.351E+01    3.333E+01    3.315E+01    3.297E+01
     3.280E+01    3.263E+01    3.246E+01    3.230E+01    3.214E+01    3.197E+01    3.182E+01    3.166E+01    3.150E+01    3.135E+01
     3.120E+01    3.105E+01    3.090E+01    3.076E+01    3.062E+01    3.047E+01    3.033E+01    3.020E+01    3.006E+01    2.993E+01
     2.979E+01    2.966E+01    2.953E+01    2.940E+01    2.928E+01    2.915E+01    2.903E+01    2.891E+01    2.879E+01    2.867E+01
     2.855E+01    2.843E+01    2.832E+01    2.820E+01    2.809E+01    2.798E+01    2.786E+01    2.775E+01    2.765E+01    2.754E+01
     2.743E+01    2.732E+01    2.722E+01    2.711E+01    2.701E+01    2.691E+01    2.680E+01    2.670E+01    2.660E+01    2.650E+01
     2.640E+01    2.630E+01    2.620E+01    2.610E+01    2.601E+01    2.591E+01    2.581E+01    2.572E+01    2.562E+01    2.552E+01
     2.543E+01    2.533E+01    2.524E+01    2.514E+01    2.504E+01    2.495E+01    2.485E+01    2.476E+01    2.467E+01    2.457E+01
     2.448E+01    2.439E+01    2.429E+01    2.420E+01    2.411E+01    2.402E+01    2.393E+01    2.384E+01    2.375E+01    2.367E+01
     2.358E+01    2.349E+01    2.341E+01    2.332E+01    2.324E+01    2.315E+01    2.307E+01    2.299E+01    2.291E+01    2.283E+01
     2.275E+01    2.268E+01    2.260E+01    2.253E+01    2.245E+01    2.238E+01    2.231E+01    2.224E+01    2.217E+01    2.210E+01
     2.204E+01    2.197E+01    2.191E+01    2.185E+01    2.179E+01    2.173E+01    2.168E+01    2.162E+01    2.157E+01    2.151E+01
     2.146E+01    2.141E+01    2.137E+01    2.132E+01    2.127E+01    2.123E+01    2.119E+01    2.115E+01    2.110E+01    2.107E+01
     2.103E+01    2.099E+01    2.095E+01    2.092E+01    2.088E+01    2.085E+01    2.081E+01    2.078E+01    2.075E+01    2.071E+01
     2.068E+01    2.065E+01    2.062E+01    2.059E+01    2.056E+01    2.053E+01    2.050E+01    2.047E+01    2.044E+01    2.041E+01
     2.038E+01    2.036E+01    2.033E+01    2.030E+01    2.027E+01    2.024E+01    2.021E+01    2.018E+01    2.015E+01    2.012E+01
     2.009E+01    2.006E+01    2.002E+01    1.999E+01    1.996E+01    1.992E+01    1.989E+01    1.985E+01    1.982E+01    1.978E+01
     1.975E+01    1.971E+01    1.967E+01    1.963E+01    1.959E+01    1.955E+01    1.951E+01    1.946E+01    1.942E+01    1.938E+01
     1.933E+01    1.929E+01    1.924E+01    1.919E+01    1.914E+01    1.909E+01    1.904E+01    1.899E+01    1.893E+01    1.888E+01
     1.882E+01    1.877E+01    1.871E+01    1.865E+01    1.859E+01    1.853E+01    1.847E+01    1.840E+01    1.834E+01    1.827E+01
     1.820E+01    1.813E+01    1.806E+01    1.799E+01    1.792E+01    1.784E+01    1.776E+01    1.769E+01    1.761E+01    1.753E+01
     1.744E+01    1.736E+01    1.728E+01    1.719E+01    1.710E+01    1.702E+01    1.693E+01    1.684E+01    1.675E+01    1.666E+01
     1.657E+01    1.648E+01    1.638E+01    1.629E+01    1.620E+01    1.611E+01    1.602E+01    1.592E+01    1.583E+01    1.574E+01
     1.565E+01    1.556E+01    1.547E+01    1.538E+01    1.529E+01    1.520E+01    1.511E+01    1.503E+01    1.494E+01    1.485E+01
     1.477E+01    1.469E+01    1.461E+01    1.452E+01    1.445E+01    1.437E+01    1.429E+01    1.422E+01    1.415E+01    1.408E+01
     1.401E+01    1.394E+01    1.387E+01    1.381E+01    1.375E+01    1.369E+01    1.363E+01    1.358E+01    1.353E+01    1.347E+01
     1.342E+01    1.338E+01    1.333E+01    1.328E+01    1.324E+01    1.320E+01    1.315E+01    1.311E+01    1.307E+01    1.304E+01
     1.300E+01    1.296E+01    1.293E+01    1.289E+01    1.286E+01    1.283E+01    1.280E+01    1.276E+01    1.273E+01    1.270E+01
     1.267E+01    1.264E+01    1.262E+01    1.259E+01    1.256E+01    1.253E+01    1.250E+01    1.247E+01    1.245E+01    1.242E+01
     1.239E+01    1.236E+01    1.233E+01    1.231E+01    1.228E+01    1.225E+01    1.222E+01    1.219E+01    1.216E+01    1.212E+01
     1.209E+01    1.206E+01    1.203E+01    1.199E+01    1.196E+01    1.193E+01    1.189E+01    1.186E+01    1.182E+01    1.179E+01
     1.175E+01    1.171E+01    1.168E+01    1.164E+01    1.160E+01    1.157E+01    1.153E+01    1.149E+01    1.145E+01    1.142E+01
     1.138E+01    1.134E+01    1.130E+01    1.126E+01    1.123E+01    1.119E+01    1.115E+01    1.111E+01    1.107E+01    1.103E+01
     1.100E+01    1.096E+01    1.092E+01    1.088E+01    1.084E+01    1.081E+01    1.077E+01    1.073E+01    1.069E+01    1.066E+01
     1.062E+01    1.058E+01    1.055E+01    1.051E+01    1.047E+01    1.044E+01    1.040E+01    1.037E+01    1.033E+01    1.030E+01
     1.026E+01    1.023E+01    1.020E+01    1.016E+01    1.013E+01    1.010E+01    1.006E+01    1.003E+01    9.996E+00    9.963E+00
     9.930E+00    9.897E+00    9.865E+00    9.832E+00    9.800E+00    9.767E+00    9.735E+00    9.703E+00    9.670E+00    9.638E+00
     9.606E+00    9.574E+00    9.542E+00    9.510E+00    9.477E+00    9.445E+00    9.413E+00    9.381E+00    9.348E+00    9.316E+00
     9.283E+00    9.251E+00    9.218E+00    9.186E+00    9.153E+00    9.120E+00    9.087E+00    9.054E+00
 Ala      Conc. = 2.44E+01
