 LCModel (Version 6.3-1L) Copyright: S.W. Provencher.          Ref.: Magn. Reson. Med. 30:672-679 (1993).                
 Slice#2 Row#2 Col#11  PD_05_press_1_raw_act
 36 lines in following concentration table = NCONC+1
    Conc.  %SD /Cr+PCr  Metabolite                                         
  106.850  41%   2.399 Ala                                                 
   10.228 100%   0.230 Asp                                                 
   44.532  43%   1.000 Cr                                                  
    0.000 999%   0.000 PCr                                                 
    5.687 108%   0.128 GABA                                                
    5.479 113%   0.123 Glc                                                 
   38.638 212%   0.868 Gln                                                 
    0.000 999%   0.000 Glu                                                 
   10.599  69%   0.238 GPC                                                 
    0.000 999%   0.000 PCh                                                 
   20.289 138%   0.456 GSH                                                 
    0.000 999%   0.000 Ins                                                 
   83.616  74%   1.878 Lac                                                 
  107.181  24%   2.407 NAA                                                 
    0.000 999%   0.000 NAAG                                                
    2.425  84% 5.4E-02 Scyllo                                              
   10.284  99%   0.231 Tau                                                 
    5.036 180%   0.113 -CrCH2                                              
   10.599  69%   0.238 GPC+PCh                                             
  107.181  24%   2.407 NAA+NAAG                                            
   44.532  43%   1.000 Cr+PCr                                              
   38.638 212%   0.868 Glu+Gln                                             
 1.39E+04   7% 313.069 Lip13a                                              
  868.002  50%  19.492 Lip13b                                              
 1.57E+03  31%  35.230 Lip09                                               
    3.691 999% 8.3E-02 MM09                                                
    0.000 999%   0.000 Lip20                                               
 1.72E+03  13%  38.652 MM20                                                
    0.000 999%   0.000 MM12                                                
    0.000 999%   0.000 MM14                                                
 1.81E+03  17%  40.684 MM17                                                
 1.48E+04   7% 332.561 Lip13a+Lip13b                                       
 1.48E+04   7% 332.561 MM14+Lip13a+Lip13b+MM12                             
 1.57E+03  22%  35.313 MM09+Lip09                                          
 1.72E+03  13%  38.652 MM20+Lip20                                          
   6 lines in following misc. output table
  FWHM = 0.054 ppm    S/N =  14                                            
  Data shift = 0.099 ppm                                                   
  Ph: -15 deg     -18.7 deg/ppm                                            
  alphaB,S = 7.8E-01,   2.2E+01                                            
   14 spline knots.   Ns = 5(1)                                            
  ( 4) 2 infls.   ( 7) 1 extrs.                                            
  498 points on ppm-axis = NY
      4.000000     3.992357     3.984714     3.977070     3.969427     3.961784     3.954141     3.946497     3.938854     3.931211
      3.923568     3.915925     3.908281     3.900638     3.892995     3.885352     3.877708     3.870065     3.862422     3.854779
      3.847136     3.839492     3.831849     3.824206     3.816563     3.808919     3.801276     3.793633     3.785990     3.778347
      3.770703     3.763060     3.755417     3.747774     3.740130     3.732487     3.724844     3.717201     3.709558     3.701914
      3.694271     3.686628     3.678985     3.671341     3.663698     3.656055     3.648412     3.640769     3.633125     3.625482
      3.617839     3.610196     3.602552     3.594909     3.587266     3.579623     3.571980     3.564336     3.556693     3.549050
      3.541407     3.533763     3.526120     3.518477     3.510834     3.503191     3.495547     3.487904     3.480261     3.472618
      3.464974     3.457331     3.449688     3.442045     3.434402     3.426758     3.419115     3.411472     3.403829     3.396185
      3.388542     3.380899     3.373256     3.365613     3.357969     3.350326     3.342683     3.335040     3.327396     3.319753
      3.312110     3.304467     3.296824     3.289180     3.281537     3.273894     3.266251     3.258607     3.250964     3.243321
      3.235678     3.228034     3.220391     3.212748     3.205105     3.197462     3.189818     3.182175     3.174532     3.166889
      3.159245     3.151602     3.143959     3.136316     3.128673     3.121029     3.113386     3.105743     3.098100     3.090456
      3.082813     3.075170     3.067527     3.059884     3.052240     3.044597     3.036954     3.029311     3.021667     3.014024
      3.006381     2.998738     2.991095     2.983451     2.975808     2.968165     2.960522     2.952878     2.945235     2.937592
      2.929949     2.922306     2.914662     2.907019     2.899376     2.891733     2.884089     2.876446     2.868803     2.861160
      2.853517     2.845873     2.838230     2.830587     2.822944     2.815300     2.807657     2.800014     2.792371     2.784728
      2.777084     2.769441     2.761798     2.754155     2.746511     2.738868     2.731225     2.723582     2.715939     2.708295
      2.700652     2.693009     2.685366     2.677722     2.670079     2.662436     2.654793     2.647150     2.639506     2.631863
      2.624220     2.616577     2.608933     2.601290     2.593647     2.586004     2.578361     2.570717     2.563074     2.555431
      2.547788     2.540144     2.532501     2.524858     2.517215     2.509572     2.501928     2.494285     2.486642     2.478999
      2.471355     2.463712     2.456069     2.448426     2.440783     2.433139     2.425496     2.417853     2.410210     2.402566
      2.394923     2.387280     2.379637     2.371994     2.364350     2.356707     2.349064     2.341421     2.333777     2.326134
      2.318491     2.310848     2.303205     2.295561     2.287918     2.280275     2.272632     2.264988     2.257345     2.249702
      2.242059     2.234416     2.226772     2.219129     2.211486     2.203843     2.196199     2.188556     2.180913     2.173270
      2.165627     2.157983     2.150340     2.142697     2.135054     2.127410     2.119767     2.112124     2.104481     2.096838
      2.089194     2.081551     2.073908     2.066265     2.058621     2.050978     2.043335     2.035692     2.028049     2.020405
      2.012762     2.005119     1.997476     1.989833     1.982190     1.974546     1.966903     1.959260     1.951617     1.943974
      1.936331     1.928688     1.921045     1.913402     1.905759     1.898115     1.890472     1.882829     1.875186     1.867543
      1.859900     1.852257     1.844614     1.836971     1.829327     1.821684     1.814041     1.806398     1.798755     1.791112
      1.783469     1.775826     1.768183     1.760540     1.752896     1.745253     1.737610     1.729967     1.722324     1.714681
      1.707038     1.699395     1.691752     1.684108     1.676465     1.668822     1.661179     1.653536     1.645893     1.638250
      1.630607     1.622964     1.615321     1.607677     1.600034     1.592391     1.584748     1.577105     1.569462     1.561819
      1.554176     1.546533     1.538890     1.531246     1.523603     1.515960     1.508317     1.500674     1.493031     1.485388
      1.477745     1.470102     1.462458     1.454815     1.447172     1.439529     1.431886     1.424243     1.416600     1.408957
      1.401314     1.393671     1.386027     1.378384     1.370741     1.363098     1.355455     1.347812     1.340169     1.332526
      1.324883     1.317240     1.309596     1.301953     1.294310     1.286667     1.279024     1.271381     1.263738     1.256095
      1.248452     1.240808     1.233165     1.225522     1.217879     1.210236     1.202593     1.194950     1.187307     1.179664
      1.172021     1.164377     1.156734     1.149091     1.141448     1.133805     1.126162     1.118519     1.110876     1.103233
      1.095590     1.087946     1.080303     1.072660     1.065017     1.057374     1.049731     1.042088     1.034445     1.026802
      1.019158     1.011515     1.003872     0.996229     0.988586     0.980943     0.973300     0.965657     0.958014     0.950371
      0.942727     0.935084     0.927441     0.919798     0.912155     0.904512     0.896869     0.889226     0.881583     0.873940
      0.866296     0.858653     0.851010     0.843367     0.835724     0.828081     0.820438     0.812795     0.805152     0.797508
      0.789865     0.782222     0.774579     0.766936     0.759293     0.751650     0.744007     0.736364     0.728721     0.721077
      0.713434     0.705791     0.698148     0.690505     0.682862     0.675219     0.667576     0.659933     0.652290     0.644646
      0.637003     0.629360     0.621717     0.614074     0.606431     0.598788     0.591145     0.583502     0.575858     0.568215
      0.560572     0.552929     0.545286     0.537643     0.530000     0.522357     0.514714     0.507071     0.499427     0.491784
      0.484141     0.476498     0.468855     0.461212     0.453569     0.445925     0.438282     0.430639     0.422996     0.415353
      0.407710     0.400067     0.392424     0.384780     0.377137     0.369494     0.361851     0.354208     0.346565     0.338922
      0.331278     0.323635     0.315992     0.308349     0.300706     0.293063     0.285420     0.277777     0.270133     0.262490
      0.254847     0.247204     0.239561     0.231918     0.224275     0.216631     0.208988     0.201345
 NY phased data points follow
   5.79200E+00  6.56145E+00  2.68041E+00  4.67883E+00  8.03341E+00  5.07118E+00  5.92877E+00  4.19630E+00  5.50679E+00  5.51745E+00
   6.70902E+00  5.44869E+00  4.38837E+00  6.76466E+00  6.22352E+00  1.00586E+01  4.02636E+00  6.44450E+00  4.19746E+00  5.04005E+00
   3.86585E+00  5.27974E+00  7.15599E+00  4.80515E+00  7.23255E+00  6.44828E+00  5.11433E+00  5.54669E+00  5.05153E+00  3.58189E+00
   5.42917E+00  5.79105E+00  5.65743E+00  6.70878E+00  6.35706E+00  6.27449E+00  3.45526E+00  5.46203E+00  4.26593E+00  7.21972E+00
   3.66249E+00  5.83795E+00  6.10666E+00  5.33893E+00  5.69641E+00  2.80728E+00  4.60904E+00  6.02198E+00  4.21748E+00  4.17384E+00
   4.34814E+00  7.36564E+00  4.90120E+00  5.66552E+00  4.27508E+00  4.68136E+00  4.72781E+00  3.93442E+00  4.22165E+00  3.13726E+00
   7.14108E+00  5.83125E+00  5.59371E+00  4.02617E+00  5.31293E+00  3.43954E+00  4.39924E+00  3.61503E+00  5.84518E+00  6.97703E+00
   6.55979E+00  4.02740E+00  3.98937E+00  4.51476E+00  5.65049E+00  3.56429E+00  3.05076E+00  5.33365E+00  3.74576E+00  6.03190E+00
   4.58826E+00  6.48149E+00  5.77529E+00  4.91921E+00  6.67307E+00  4.90763E+00  4.20007E+00  6.12869E+00  6.95409E+00  6.82475E+00
   6.37025E+00  4.65684E+00  3.55579E+00  4.09332E+00  4.85999E+00  4.81978E+00  6.31444E+00  7.01429E+00  5.49154E+00  5.55579E+00
   6.80993E+00  7.89015E+00  6.84683E+00  5.34139E+00  4.32837E+00  5.17751E+00  6.94216E+00  3.99916E+00  8.35393E+00  5.41503E+00
   6.74377E+00  2.95395E+00  6.64641E+00  4.37946E+00  1.15244E+01  4.56079E+00  3.86725E+00  3.03303E+00  2.27625E+00  3.65545E+00
   7.21833E+00  6.46829E+00  5.80400E+00  6.20929E+00  8.07958E+00  6.13115E+00  7.20019E+00  8.44970E+00  9.03507E+00  6.66431E+00
   5.25605E+00  8.93537E+00  7.01930E+00  6.57933E+00  4.44675E+00  6.55374E+00  5.02710E+00  5.20807E+00  5.09005E+00  4.48607E+00
   6.36974E+00  7.74183E+00  4.15999E+00  6.81071E+00  6.19879E+00  5.17580E+00  6.63919E+00  5.59843E+00  5.06674E+00  7.38239E+00
   6.90237E+00  7.39131E+00  4.24093E+00  5.73006E+00  8.00398E+00  6.02357E+00  5.22592E+00  5.00363E+00  4.56455E+00  5.39733E+00
   4.53706E+00  5.17193E+00  5.71743E+00  3.14868E+00  6.01700E+00  4.34109E+00  2.92624E+00  4.99972E+00  7.59871E+00  5.92390E+00
   4.16146E+00  5.13023E+00  6.48181E+00  5.77866E+00  4.85623E+00  3.40616E+00  7.19687E+00  6.02675E+00  5.83419E+00  5.98790E+00
   5.13572E+00  3.49543E+00  2.68167E+00  5.26042E+00  3.60043E+00  7.01153E+00  5.32223E+00  8.25247E+00  4.07705E+00  7.46362E+00
   8.08110E+00  6.54118E+00  7.96747E+00  8.01392E+00  4.83471E+00  4.43873E+00  7.90662E+00  6.90600E+00  6.60246E+00  8.99499E+00
   6.58977E+00  8.75986E+00  5.86743E+00  9.88733E+00  7.69307E+00  6.61999E+00  9.29284E+00  7.64184E+00  7.44762E+00  9.10680E+00
   9.65725E+00  9.81092E+00  9.00049E+00  7.72521E+00  8.09500E+00  1.11309E+01  1.14609E+01  8.33753E+00  7.67872E+00  9.60319E+00
   1.01361E+01  1.00671E+01  1.40018E+01  8.43108E+00  9.75577E+00  1.33560E+01  1.31576E+01  9.55003E+00  1.16827E+01  1.14227E+01
   1.09867E+01  1.10287E+01  1.24764E+01  1.28385E+01  1.35225E+01  1.14930E+01  1.32730E+01  1.26974E+01  1.28700E+01  1.33795E+01
   1.40827E+01  1.55089E+01  1.68107E+01  1.62257E+01  1.64724E+01  1.67953E+01  1.69655E+01  1.73214E+01  1.89383E+01  1.64648E+01
   1.57418E+01  1.43357E+01  1.52485E+01  1.90810E+01  1.65385E+01  1.80868E+01  1.72624E+01  1.82587E+01  1.70215E+01  1.73784E+01
   2.17848E+01  2.24145E+01  2.00222E+01  2.11326E+01  2.00308E+01  1.95380E+01  2.28664E+01  2.10735E+01  1.90044E+01  1.68865E+01
   1.94247E+01  2.01052E+01  1.96844E+01  1.98739E+01  1.89035E+01  1.91576E+01  1.84806E+01  2.05212E+01  1.75303E+01  2.09880E+01
   1.90142E+01  2.10729E+01  2.18163E+01  2.05872E+01  2.13030E+01  1.86413E+01  2.09366E+01  2.19798E+01  1.95370E+01  2.08595E+01
   2.14097E+01  2.17682E+01  2.16333E+01  2.11401E+01  2.07877E+01  2.08860E+01  2.10169E+01  2.12314E+01  2.14011E+01  2.02280E+01
   2.05514E+01  2.10913E+01  2.02967E+01  2.41998E+01  2.33427E+01  2.35499E+01  2.15337E+01  2.17734E+01  2.17085E+01  2.19611E+01
   1.88076E+01  2.01077E+01  2.06423E+01  2.43688E+01  2.31731E+01  1.87236E+01  2.26270E+01  2.17757E+01  2.42205E+01  2.26798E+01
   2.41331E+01  2.39692E+01  2.52922E+01  2.69144E+01  2.56708E+01  2.51188E+01  2.52683E+01  2.57598E+01  2.58114E+01  2.94571E+01
   2.82418E+01  2.64518E+01  2.76165E+01  2.79751E+01  2.98589E+01  3.03350E+01  3.21633E+01  3.40872E+01  3.47226E+01  3.42200E+01
   3.66630E+01  3.96840E+01  4.11868E+01  4.03962E+01  4.07341E+01  4.22252E+01  4.56862E+01  4.52232E+01  4.70185E+01  5.03841E+01
   4.95610E+01  4.90381E+01  4.98098E+01  5.35385E+01  5.57117E+01  5.46508E+01  5.64510E+01  5.40591E+01  5.54593E+01  5.53619E+01
   5.36329E+01  5.03690E+01  5.26992E+01  4.85877E+01  4.71119E+01  4.55803E+01  4.47454E+01  4.28854E+01  4.00384E+01  3.89086E+01
   3.80427E+01  3.53416E+01  3.58508E+01  3.57446E+01  3.43483E+01  3.41122E+01  3.66842E+01  3.21996E+01  3.01688E+01  3.05241E+01
   3.11049E+01  2.99477E+01  2.99570E+01  2.83025E+01  2.83394E+01  2.87268E+01  2.43427E+01  2.36463E+01  2.38182E+01  2.55986E+01
   2.34603E+01  2.48731E+01  2.23782E+01  2.34036E+01  2.14800E+01  2.36727E+01  2.31035E+01  2.45345E+01  2.27426E+01  2.20972E+01
   2.28389E+01  2.27286E+01  2.01144E+01  2.27475E+01  2.04261E+01  2.29625E+01  2.20693E+01  2.08487E+01  2.24545E+01  1.89975E+01
   2.22393E+01  2.29816E+01  2.37535E+01  1.85083E+01  1.95555E+01  1.89925E+01  1.86337E+01  1.81472E+01  2.00944E+01  1.94442E+01
   1.87715E+01  1.55751E+01  1.76507E+01  1.98921E+01  1.29256E+01  1.45290E+01  1.60887E+01  1.37844E+01  1.46068E+01  1.33996E+01
   1.34419E+01  1.57028E+01  1.06725E+01  1.14202E+01  1.14856E+01  1.37675E+01  1.27760E+01  1.48148E+01  1.20344E+01  1.32904E+01
   1.03766E+01  1.00055E+01  1.05140E+01  1.21342E+01  1.09624E+01  1.24280E+01  1.05548E+01  9.95844E+00  1.12084E+01  7.87964E+00
   1.15302E+01  9.36097E+00  9.33350E+00  4.58128E+00  8.22261E+00  8.88326E+00  6.26746E+00  7.13587E+00  6.92560E+00  6.81373E+00
   8.50144E+00  6.09213E+00  7.39052E+00  6.04822E+00  4.71371E+00  7.54529E+00  7.00184E+00  8.06041E+00  5.05542E+00  6.68009E+00
   7.17898E+00  4.20052E+00  9.50417E+00  7.26165E+00  6.39139E+00  4.87174E+00  6.00068E+00  6.88546E+00  2.58576E+00  4.07000E+00
   1.51866E+00  6.06380E+00  5.46116E+00  5.85590E+00  4.04230E+00  4.55406E+00  7.01987E+00  4.48998E+00  4.53197E+00  4.77571E+00
   4.01112E+00  3.34355E+00  4.21245E+00  4.54266E+00  2.87740E+00  1.96769E+00  3.41282E+00  3.10967E+00
 NY points of the fit to the data follow
   5.29391E+00  5.27245E+00  5.27363E+00  5.29903E+00  5.33160E+00  5.34613E+00  5.36907E+00  5.43064E+00  5.54371E+00  5.71190E+00
   5.90741E+00  6.07606E+00  6.19067E+00  6.26085E+00  6.27955E+00  6.19639E+00  5.95683E+00  5.61689E+00  5.38790E+00  5.32442E+00
   5.32561E+00  5.35678E+00  5.40482E+00  5.46095E+00  5.49937E+00  5.48464E+00  5.43063E+00  5.37260E+00  5.32625E+00  5.29226E+00
   5.26789E+00  5.28521E+00  5.40099E+00  5.54690E+00  5.61294E+00  5.58388E+00  5.49833E+00  5.44635E+00  5.39900E+00  5.30351E+00
   5.19783E+00  5.14046E+00  5.11170E+00  5.08480E+00  5.05617E+00  5.03689E+00  5.04802E+00  5.07459E+00  5.07931E+00  5.07377E+00
   5.07122E+00  5.06805E+00  5.06160E+00  5.05867E+00  5.05573E+00  5.04362E+00  5.02388E+00  5.00598E+00  4.99129E+00  4.97863E+00
   4.96669E+00  4.95594E+00  4.94858E+00  4.94466E+00  4.94285E+00  4.94066E+00  4.93683E+00  4.93150E+00  4.92526E+00  4.91730E+00
   4.90879E+00  4.90230E+00  4.89918E+00  4.90186E+00  4.91022E+00  4.91732E+00  4.92194E+00  4.92102E+00  4.91323E+00  4.90050E+00
   4.88352E+00  4.86532E+00  4.86028E+00  4.87858E+00  4.91309E+00  4.95349E+00  4.98765E+00  5.00709E+00  5.01260E+00  5.00753E+00
   4.98765E+00  4.94625E+00  4.88993E+00  4.85049E+00  4.83751E+00  4.83582E+00  4.84281E+00  4.86768E+00  4.93907E+00  5.07395E+00
   5.27296E+00  5.51806E+00  5.76153E+00  5.94731E+00  6.06134E+00  6.11857E+00  6.10783E+00  5.98248E+00  5.72564E+00  5.43981E+00
   5.32066E+00  5.31460E+00  5.33691E+00  5.36984E+00  5.40830E+00  5.45352E+00  5.50276E+00  5.55388E+00  5.60587E+00  5.65888E+00
   5.71503E+00  5.78437E+00  5.90399E+00  6.10168E+00  6.38464E+00  6.74244E+00  7.11948E+00  7.43108E+00  7.64552E+00  7.77343E+00
   7.78884E+00  7.63283E+00  7.27111E+00  6.80237E+00  6.51166E+00  6.39661E+00  6.31717E+00  6.24665E+00  6.18290E+00  6.13018E+00
   6.10333E+00  6.10907E+00  6.12384E+00  6.13148E+00  6.12313E+00  6.08931E+00  6.03641E+00  5.97771E+00  5.92164E+00  5.87635E+00
   5.83468E+00  5.79564E+00  5.76097E+00  5.73391E+00  5.71372E+00  5.69800E+00  5.68592E+00  5.67350E+00  5.65853E+00  5.64121E+00
   5.62559E+00  5.61708E+00  5.61757E+00  5.62768E+00  5.64647E+00  5.67305E+00  5.70945E+00  5.75340E+00  5.78640E+00  5.79582E+00
   5.79123E+00  5.78241E+00  5.78539E+00  5.80072E+00  5.81619E+00  5.83434E+00  5.85951E+00  5.89231E+00  5.92897E+00  5.96804E+00
   6.01487E+00  6.07489E+00  6.14216E+00  6.19485E+00  6.22299E+00  6.25913E+00  6.32458E+00  6.42162E+00  6.53156E+00  6.63649E+00
   6.74413E+00  6.85834E+00  6.97122E+00  7.06609E+00  7.12211E+00  7.13851E+00  7.14719E+00  7.16971E+00  7.22363E+00  7.31730E+00
   7.44378E+00  7.59130E+00  7.75479E+00  7.92204E+00  8.07519E+00  8.18592E+00  8.24988E+00  8.27766E+00  8.28183E+00  8.28153E+00
   8.29722E+00  8.35019E+00  8.44911E+00  8.59320E+00  8.78090E+00  9.00250E+00  9.22814E+00  9.41588E+00  9.58437E+00  9.76724E+00
   9.94721E+00  1.01138E+01  1.02815E+01  1.04532E+01  1.06269E+01  1.08006E+01  1.09732E+01  1.11423E+01  1.13075E+01  1.14719E+01
   1.16441E+01  1.18328E+01  1.20427E+01  1.22742E+01  1.25281E+01  1.28109E+01  1.31283E+01  1.34686E+01  1.38052E+01  1.41270E+01
   1.44448E+01  1.47601E+01  1.50592E+01  1.53258E+01  1.55833E+01  1.58522E+01  1.61188E+01  1.63831E+01  1.66601E+01  1.69405E+01
   1.71883E+01  1.73940E+01  1.75604E+01  1.76950E+01  1.78070E+01  1.79448E+01  1.82026E+01  1.86220E+01  1.92166E+01  1.99259E+01
   2.05818E+01  2.10254E+01  2.12462E+01  2.12573E+01  2.09700E+01  2.02679E+01  1.91818E+01  1.81867E+01  1.78271E+01  1.77635E+01
   1.77781E+01  1.78347E+01  1.79244E+01  1.80432E+01  1.81888E+01  1.83596E+01  1.85516E+01  1.87601E+01  1.89831E+01  1.92182E+01
   1.94622E+01  1.97120E+01  1.99645E+01  2.02178E+01  2.04689E+01  2.07128E+01  2.09441E+01  2.11589E+01  2.13531E+01  2.15226E+01
   2.16642E+01  2.17753E+01  2.18554E+01  2.19053E+01  2.19259E+01  2.19187E+01  2.18866E+01  2.18330E+01  2.17614E+01  2.16760E+01
   2.15814E+01  2.14819E+01  2.13820E+01  2.12862E+01  2.11986E+01  2.11232E+01  2.10636E+01  2.10230E+01  2.10041E+01  2.10093E+01
   2.10406E+01  2.10997E+01  2.11881E+01  2.13069E+01  2.14574E+01  2.16406E+01  2.18577E+01  2.21104E+01  2.24008E+01  2.27319E+01
   2.31097E+01  2.35463E+01  2.40660E+01  2.46651E+01  2.53048E+01  2.59357E+01  2.64859E+01  2.68962E+01  2.71799E+01  2.73839E+01
   2.75366E+01  2.76850E+01  2.79323E+01  2.84945E+01  2.96006E+01  3.10448E+01  3.24863E+01  3.39055E+01  3.53155E+01  3.66606E+01
   3.78155E+01  3.86826E+01  3.94878E+01  4.05347E+01  4.17482E+01  4.30477E+01  4.43659E+01  4.56494E+01  4.68979E+01  4.81291E+01
   4.93370E+01  5.04939E+01  5.16024E+01  5.27444E+01  5.40007E+01  5.51127E+01  5.57724E+01  5.59574E+01  5.56811E+01  5.49290E+01
   5.36698E+01  5.19679E+01  5.01634E+01  4.84427E+01  4.68007E+01  4.52486E+01  4.37963E+01  4.24440E+01  4.11831E+01  4.00006E+01
   3.88827E+01  3.78165E+01  3.67922E+01  3.58029E+01  3.48449E+01  3.39165E+01  3.30181E+01  3.21506E+01  3.13160E+01  3.05161E+01
   2.97527E+01  2.90276E+01  2.83421E+01  2.76974E+01  2.70942E+01  2.65328E+01  2.60135E+01  2.55361E+01  2.51002E+01  2.47050E+01
   2.43494E+01  2.40322E+01  2.37516E+01  2.35058E+01  2.32924E+01  2.31088E+01  2.29520E+01  2.28186E+01  2.27048E+01  2.26068E+01
   2.25202E+01  2.24406E+01  2.23633E+01  2.22838E+01  2.21974E+01  2.20998E+01  2.19870E+01  2.18551E+01  2.17010E+01  2.15221E+01
   2.13166E+01  2.10833E+01  2.08217E+01  2.05321E+01  2.02156E+01  1.98738E+01  1.95091E+01  1.91240E+01  1.87219E+01  1.83059E+01
   1.78796E+01  1.74466E+01  1.70102E+01  1.65738E+01  1.61403E+01  1.57125E+01  1.52927E+01  1.48830E+01  1.44849E+01  1.40996E+01
   1.37282E+01  1.33711E+01  1.30287E+01  1.27010E+01  1.23879E+01  1.20890E+01  1.18038E+01  1.15319E+01  1.12725E+01  1.10249E+01
   1.07885E+01  1.05626E+01  1.03464E+01  1.01392E+01  9.94051E+00  9.74957E+00  9.56582E+00  9.38870E+00  9.21772E+00  9.05239E+00
   8.89229E+00  8.73701E+00  8.58617E+00  8.43943E+00  8.29648E+00  8.15706E+00  8.02091E+00  7.88779E+00  7.75749E+00  7.62980E+00
   7.50456E+00  7.38161E+00  7.26080E+00  7.14197E+00  7.02502E+00  6.90981E+00  6.79626E+00  6.68427E+00  6.57375E+00  6.46460E+00
   6.35675E+00  6.25014E+00  6.14471E+00  6.04040E+00  5.93714E+00  5.83489E+00  5.73360E+00  5.63322E+00  5.53374E+00  5.43510E+00
   5.33727E+00  5.24021E+00  5.14390E+00  5.04832E+00  4.95345E+00  4.85925E+00  4.76571E+00  4.67280E+00  4.58052E+00  4.48884E+00
   4.39776E+00  4.30725E+00  4.21731E+00  4.12792E+00  4.03908E+00  3.95078E+00  3.86302E+00  3.77577E+00
 NY background values follow
     5.948E+00    5.938E+00    5.928E+00    5.918E+00    5.908E+00    5.898E+00    5.888E+00    5.878E+00    5.868E+00    5.858E+00
     5.848E+00    5.838E+00    5.828E+00    5.818E+00    5.808E+00    5.798E+00    5.788E+00    5.778E+00    5.768E+00    5.758E+00
     5.748E+00    5.738E+00    5.728E+00    5.718E+00    5.708E+00    5.698E+00    5.688E+00    5.678E+00    5.668E+00    5.658E+00
     5.649E+00    5.639E+00    5.629E+00    5.620E+00    5.610E+00    5.600E+00    5.591E+00    5.581E+00    5.572E+00    5.562E+00
     5.553E+00    5.543E+00    5.534E+00    5.525E+00    5.516E+00    5.507E+00    5.497E+00    5.488E+00    5.479E+00    5.471E+00
     5.462E+00    5.453E+00    5.444E+00    5.435E+00    5.427E+00    5.418E+00    5.409E+00    5.401E+00    5.393E+00    5.384E+00
     5.376E+00    5.367E+00    5.359E+00    5.351E+00    5.343E+00    5.334E+00    5.326E+00    5.318E+00    5.310E+00    5.302E+00
     5.294E+00    5.286E+00    5.279E+00    5.271E+00    5.263E+00    5.255E+00    5.247E+00    5.240E+00    5.232E+00    5.224E+00
     5.217E+00    5.209E+00    5.202E+00    5.194E+00    5.187E+00    5.179E+00    5.172E+00    5.164E+00    5.157E+00    5.150E+00
     5.142E+00    5.135E+00    5.128E+00    5.120E+00    5.113E+00    5.106E+00    5.099E+00    5.092E+00    5.085E+00    5.079E+00
     5.072E+00    5.066E+00    5.059E+00    5.053E+00    5.047E+00    5.042E+00    5.036E+00    5.031E+00    5.026E+00    5.021E+00
     5.016E+00    5.012E+00    5.008E+00    5.004E+00    5.001E+00    4.998E+00    4.995E+00    4.992E+00    4.990E+00    4.988E+00
     4.987E+00    4.986E+00    4.986E+00    4.986E+00    4.986E+00    4.987E+00    4.988E+00    4.989E+00    4.992E+00    4.994E+00
     4.997E+00    5.001E+00    5.005E+00    5.010E+00    5.015E+00    5.021E+00    5.028E+00    5.035E+00    5.042E+00    5.051E+00
     5.060E+00    5.069E+00    5.079E+00    5.090E+00    5.101E+00    5.113E+00    5.125E+00    5.138E+00    5.152E+00    5.166E+00
     5.181E+00    5.197E+00    5.213E+00    5.230E+00    5.247E+00    5.265E+00    5.284E+00    5.304E+00    5.324E+00    5.344E+00
     5.365E+00    5.387E+00    5.410E+00    5.433E+00    5.457E+00    5.482E+00    5.507E+00    5.533E+00    5.559E+00    5.587E+00
     5.614E+00    5.643E+00    5.672E+00    5.702E+00    5.733E+00    5.764E+00    5.796E+00    5.829E+00    5.862E+00    5.896E+00
     5.931E+00    5.966E+00    6.002E+00    6.039E+00    6.076E+00    6.114E+00    6.153E+00    6.192E+00    6.232E+00    6.273E+00
     6.314E+00    6.355E+00    6.398E+00    6.440E+00    6.483E+00    6.527E+00    6.571E+00    6.615E+00    6.660E+00    6.705E+00
     6.751E+00    6.797E+00    6.843E+00    6.890E+00    6.937E+00    6.984E+00    7.031E+00    7.079E+00    7.127E+00    7.175E+00
     7.224E+00    7.273E+00    7.321E+00    7.370E+00    7.419E+00    7.469E+00    7.518E+00    7.567E+00    7.617E+00    7.666E+00
     7.716E+00    7.765E+00    7.815E+00    7.864E+00    7.914E+00    7.963E+00    8.013E+00    8.062E+00    8.111E+00    8.160E+00
     8.209E+00    8.258E+00    8.306E+00    8.355E+00    8.403E+00    8.451E+00    8.499E+00    8.547E+00    8.594E+00    8.642E+00
     8.689E+00    8.736E+00    8.782E+00    8.828E+00    8.874E+00    8.920E+00    8.965E+00    9.010E+00    9.055E+00    9.099E+00
     9.143E+00    9.187E+00    9.230E+00    9.273E+00    9.315E+00    9.357E+00    9.399E+00    9.440E+00    9.481E+00    9.521E+00
     9.561E+00    9.600E+00    9.639E+00    9.677E+00    9.715E+00    9.752E+00    9.789E+00    9.825E+00    9.860E+00    9.895E+00
     9.930E+00    9.964E+00    9.997E+00    1.003E+01    1.006E+01    1.009E+01    1.012E+01    1.015E+01    1.018E+01    1.021E+01
     1.024E+01    1.027E+01    1.029E+01    1.032E+01    1.035E+01    1.037E+01    1.040E+01    1.042E+01    1.044E+01    1.047E+01
     1.049E+01    1.051E+01    1.053E+01    1.055E+01    1.057E+01    1.059E+01    1.061E+01    1.062E+01    1.064E+01    1.066E+01
     1.067E+01    1.069E+01    1.070E+01    1.072E+01    1.073E+01    1.074E+01    1.075E+01    1.076E+01    1.077E+01    1.078E+01
     1.079E+01    1.080E+01    1.081E+01    1.081E+01    1.082E+01    1.083E+01    1.083E+01    1.084E+01    1.084E+01    1.084E+01
     1.084E+01    1.085E+01    1.085E+01    1.085E+01    1.085E+01    1.085E+01    1.084E+01    1.084E+01    1.084E+01    1.084E+01
     1.083E+01    1.083E+01    1.082E+01    1.082E+01    1.081E+01    1.080E+01    1.079E+01    1.079E+01    1.078E+01    1.077E+01
     1.076E+01    1.075E+01    1.073E+01    1.072E+01    1.071E+01    1.070E+01    1.068E+01    1.067E+01    1.065E+01    1.064E+01
     1.062E+01    1.060E+01    1.059E+01    1.057E+01    1.055E+01    1.053E+01    1.051E+01    1.049E+01    1.047E+01    1.045E+01
     1.043E+01    1.041E+01    1.038E+01    1.036E+01    1.034E+01    1.031E+01    1.029E+01    1.026E+01    1.024E+01    1.021E+01
     1.018E+01    1.016E+01    1.013E+01    1.010E+01    1.007E+01    1.004E+01    1.001E+01    9.980E+00    9.949E+00    9.917E+00
     9.885E+00    9.853E+00    9.819E+00    9.786E+00    9.752E+00    9.717E+00    9.682E+00    9.646E+00    9.610E+00    9.573E+00
     9.536E+00    9.498E+00    9.460E+00    9.422E+00    9.383E+00    9.343E+00    9.303E+00    9.262E+00    9.221E+00    9.179E+00
     9.137E+00    9.095E+00    9.052E+00    9.008E+00    8.964E+00    8.920E+00    8.875E+00    8.829E+00    8.783E+00    8.737E+00
     8.690E+00    8.643E+00    8.595E+00    8.546E+00    8.498E+00    8.448E+00    8.399E+00    8.349E+00    8.298E+00    8.247E+00
     8.196E+00    8.144E+00    8.091E+00    8.039E+00    7.985E+00    7.932E+00    7.878E+00    7.823E+00    7.768E+00    7.713E+00
     7.657E+00    7.601E+00    7.544E+00    7.487E+00    7.429E+00    7.372E+00    7.313E+00    7.255E+00    7.196E+00    7.136E+00
     7.076E+00    7.016E+00    6.955E+00    6.894E+00    6.833E+00    6.771E+00    6.709E+00    6.646E+00    6.583E+00    6.520E+00
     6.456E+00    6.392E+00    6.328E+00    6.263E+00    6.198E+00    6.133E+00    6.067E+00    6.001E+00    5.934E+00    5.868E+00
     5.801E+00    5.733E+00    5.666E+00    5.598E+00    5.530E+00    5.462E+00    5.393E+00    5.324E+00    5.255E+00    5.186E+00
     5.117E+00    5.047E+00    4.977E+00    4.907E+00    4.837E+00    4.767E+00    4.696E+00    4.626E+00    4.555E+00    4.485E+00
     4.414E+00    4.343E+00    4.272E+00    4.201E+00    4.130E+00    4.058E+00    3.987E+00    3.916E+00    3.845E+00    3.773E+00
     3.702E+00    3.631E+00    3.559E+00    3.488E+00    3.417E+00    3.346E+00    3.275E+00    3.203E+00
 Ala      Conc. = 1.07E+02
