 LCModel (Version 6.3-1L) Copyright: S.W. Provencher.          Ref.: Magn. Reson. Med. 30:672-679 (1993).                
 Slice#1 Row#5 Col#10  PD_05_press_1_raw_act
 36 lines in following concentration table = NCONC+1
    Conc.  %SD /Cr+PCr  Metabolite                                         
  289.212  39%   0.351 Ala                                                 
    0.000 999%   0.000 Asp                                                 
  198.124 111%   0.241 Cr                                                  
  624.872  36%   0.759 PCr                                                 
   11.502 999% 1.4E-02 GABA                                                
   34.236 353% 4.2E-02 Glc                                                 
  565.390  42%   0.687 Gln                                                 
 1.03E+03  27%   1.247 Glu                                                 
  400.554   5%   0.487 GPC                                                 
    0.000 999%   0.000 PCh                                                 
  306.340  23%   0.372 GSH                                                 
  891.320  27%   1.083 Ins                                                 
    0.000 999%   0.000 Lac                                                 
 1.66E+03   7%   2.016 NAA                                                 
  165.629  77%   0.201 NAAG                                                
   58.405  41% 7.1E-02 Scyllo                                              
   71.952 232% 8.7E-02 Tau                                                 
  383.849  25%   0.466 -CrCH2                                              
  400.554   5%   0.487 GPC+PCh                                             
 1.82E+03   4%   2.217 NAA+NAAG                                            
  822.997   6%   1.000 Cr+PCr                                              
 1.59E+03  26%   1.934 Glu+Gln                                             
    0.000 999%   0.000 Lip13a                                              
  275.988  38%   0.335 Lip13b                                              
   71.472  42% 8.7E-02 Lip09                                               
  989.700  15%   1.203 MM09                                                
   41.883  42% 5.1E-02 Lip20                                               
 2.24E+03  13%   2.718 MM20                                                
  187.556  48%   0.228 MM12                                                
 1.69E+03  15%   2.056 MM14                                                
  990.989  18%   1.204 MM17                                                
  275.988  38%   0.335 Lip13a+Lip13b                                       
 2.16E+03  12%   2.619 MM14+Lip13a+Lip13b+MM12                             
 1.06E+03  14%   1.289 MM09+Lip09                                          
 2.28E+03  12%   2.769 MM20+Lip20                                          
   6 lines in following misc. output table
  FWHM = 0.061 ppm    S/N =  10                                            
  Data shift = 0.015 ppm                                                   
  Ph: -26 deg      -7.6 deg/ppm                                            
  alphaB,S = 6.3E-01,   1.8E+02                                            
   14 spline knots.   Ns = 8(1)                                            
  (14) 4 infls.   (15) 1 extrs.                                            
  498 points on ppm-axis = NY
      4.000000     3.992357     3.984714     3.977070     3.969427     3.961784     3.954141     3.946497     3.938854     3.931211
      3.923568     3.915925     3.908281     3.900638     3.892995     3.885352     3.877708     3.870065     3.862422     3.854779
      3.847136     3.839492     3.831849     3.824206     3.816563     3.808919     3.801276     3.793633     3.785990     3.778347
      3.770703     3.763060     3.755417     3.747774     3.740130     3.732487     3.724844     3.717201     3.709558     3.701914
      3.694271     3.686628     3.678985     3.671341     3.663698     3.656055     3.648412     3.640769     3.633125     3.625482
      3.617839     3.610196     3.602552     3.594909     3.587266     3.579623     3.571980     3.564336     3.556693     3.549050
      3.541407     3.533763     3.526120     3.518477     3.510834     3.503191     3.495547     3.487904     3.480261     3.472618
      3.464974     3.457331     3.449688     3.442045     3.434402     3.426758     3.419115     3.411472     3.403829     3.396185
      3.388542     3.380899     3.373256     3.365613     3.357969     3.350326     3.342683     3.335040     3.327396     3.319753
      3.312110     3.304467     3.296824     3.289180     3.281537     3.273894     3.266251     3.258607     3.250964     3.243321
      3.235678     3.228034     3.220391     3.212748     3.205105     3.197462     3.189818     3.182175     3.174532     3.166889
      3.159245     3.151602     3.143959     3.136316     3.128673     3.121029     3.113386     3.105743     3.098100     3.090456
      3.082813     3.075170     3.067527     3.059884     3.052240     3.044597     3.036954     3.029311     3.021667     3.014024
      3.006381     2.998738     2.991095     2.983451     2.975808     2.968165     2.960522     2.952878     2.945235     2.937592
      2.929949     2.922306     2.914662     2.907019     2.899376     2.891733     2.884089     2.876446     2.868803     2.861160
      2.853517     2.845873     2.838230     2.830587     2.822944     2.815300     2.807657     2.800014     2.792371     2.784728
      2.777084     2.769441     2.761798     2.754155     2.746511     2.738868     2.731225     2.723582     2.715939     2.708295
      2.700652     2.693009     2.685366     2.677722     2.670079     2.662436     2.654793     2.647150     2.639506     2.631863
      2.624220     2.616577     2.608933     2.601290     2.593647     2.586004     2.578361     2.570717     2.563074     2.555431
      2.547788     2.540144     2.532501     2.524858     2.517215     2.509572     2.501928     2.494285     2.486642     2.478999
      2.471355     2.463712     2.456069     2.448426     2.440783     2.433139     2.425496     2.417853     2.410210     2.402566
      2.394923     2.387280     2.379637     2.371994     2.364350     2.356707     2.349064     2.341421     2.333777     2.326134
      2.318491     2.310848     2.303205     2.295561     2.287918     2.280275     2.272632     2.264988     2.257345     2.249702
      2.242059     2.234416     2.226772     2.219129     2.211486     2.203843     2.196199     2.188556     2.180913     2.173270
      2.165627     2.157983     2.150340     2.142697     2.135054     2.127410     2.119767     2.112124     2.104481     2.096838
      2.089194     2.081551     2.073908     2.066265     2.058621     2.050978     2.043335     2.035692     2.028049     2.020405
      2.012762     2.005119     1.997476     1.989833     1.982190     1.974546     1.966903     1.959260     1.951617     1.943974
      1.936331     1.928688     1.921045     1.913402     1.905759     1.898115     1.890472     1.882829     1.875186     1.867543
      1.859900     1.852257     1.844614     1.836971     1.829327     1.821684     1.814041     1.806398     1.798755     1.791112
      1.783469     1.775826     1.768183     1.760540     1.752896     1.745253     1.737610     1.729967     1.722324     1.714681
      1.707038     1.699395     1.691752     1.684108     1.676465     1.668822     1.661179     1.653536     1.645893     1.638250
      1.630607     1.622964     1.615321     1.607677     1.600034     1.592391     1.584748     1.577105     1.569462     1.561819
      1.554176     1.546533     1.538890     1.531246     1.523603     1.515960     1.508317     1.500674     1.493031     1.485388
      1.477745     1.470102     1.462458     1.454815     1.447172     1.439529     1.431886     1.424243     1.416600     1.408957
      1.401314     1.393671     1.386027     1.378384     1.370741     1.363098     1.355455     1.347812     1.340169     1.332526
      1.324883     1.317240     1.309596     1.301953     1.294310     1.286667     1.279024     1.271381     1.263738     1.256095
      1.248452     1.240808     1.233165     1.225522     1.217879     1.210236     1.202593     1.194950     1.187307     1.179664
      1.172021     1.164377     1.156734     1.149091     1.141448     1.133805     1.126162     1.118519     1.110876     1.103233
      1.095590     1.087946     1.080303     1.072660     1.065017     1.057374     1.049731     1.042088     1.034445     1.026802
      1.019158     1.011515     1.003872     0.996229     0.988586     0.980943     0.973300     0.965657     0.958014     0.950371
      0.942727     0.935084     0.927441     0.919798     0.912155     0.904512     0.896869     0.889226     0.881583     0.873940
      0.866296     0.858653     0.851010     0.843367     0.835724     0.828081     0.820438     0.812795     0.805152     0.797508
      0.789865     0.782222     0.774579     0.766936     0.759293     0.751650     0.744007     0.736364     0.728721     0.721077
      0.713434     0.705791     0.698148     0.690505     0.682862     0.675219     0.667576     0.659933     0.652290     0.644646
      0.637003     0.629360     0.621717     0.614074     0.606431     0.598788     0.591145     0.583502     0.575858     0.568215
      0.560572     0.552929     0.545286     0.537643     0.530000     0.522357     0.514714     0.507071     0.499427     0.491784
      0.484141     0.476498     0.468855     0.461212     0.453569     0.445925     0.438282     0.430639     0.422996     0.415353
      0.407710     0.400067     0.392424     0.384780     0.377137     0.369494     0.361851     0.354208     0.346565     0.338922
      0.331278     0.323635     0.315992     0.308349     0.300706     0.293063     0.285420     0.277777     0.270133     0.262490
      0.254847     0.247204     0.239561     0.231918     0.224275     0.216631     0.208988     0.201345
 NY phased data points follow
   1.68306E+00  4.38835E-01  9.44038E-01  4.46614E+00  4.42489E+00  9.38643E+00  7.12279E+00  7.23164E+00  8.20117E+00  9.47313E+00
   1.11544E+01  1.10986E+01  1.34396E+01  8.54113E+00  8.13780E+00  7.32132E+00  4.12100E+00  1.68093E+00  4.37691E+00  1.95988E+00
   4.49369E+00  5.23889E+00  5.87016E+00  3.30458E+00  5.83333E+00  5.41056E+00  8.66956E+00  8.03388E+00 -5.80771E-01  8.55801E+00
   7.13152E+00  7.51278E+00  7.99789E+00  7.94968E+00  2.43635E+00  1.71325E+00  3.77060E+00  9.83893E+00  6.28212E+00  5.54715E+00
   1.01373E+01  6.57316E+00  5.96504E+00  6.71993E+00  8.02208E+00  8.55116E+00  1.23732E+01  1.09588E+01  8.84511E+00  5.31582E+00
   7.11284E+00  4.70107E+00  6.89986E+00  4.64537E+00  3.52870E-01  3.30630E+00  1.52390E+00  4.27941E+00  2.38917E+00  3.12229E+00
   2.67200E+00  1.94776E+00 -1.00226E+00  2.93758E+00  1.44694E-01 -4.35152E-01 -3.99017E+00  3.90018E+00 -2.17230E+00  2.54111E-01
   4.56176E-01  2.91187E+00 -3.09753E+00  4.50387E+00  2.55219E+00  1.01217E+00 -7.92446E-02  1.47440E+00  4.04732E+00  4.06006E+00
   1.15695E+00  6.28745E-01  2.17994E+00 -1.32949E+00  1.72995E+00  7.58618E-01  3.10050E-01 -3.31628E-01  1.97096E+00  8.43350E-01
   1.90984E+00 -3.34308E-02  6.94457E+00  3.77974E+00  8.44356E+00  8.55595E+00  1.15731E+01  1.03105E+01  1.39451E+01  1.86914E+01
   2.21664E+01  3.14604E+01  3.18747E+01  3.65093E+01  2.97747E+01  2.26266E+01  1.76229E+01  1.16087E+01  5.87154E+00  4.72983E+00
   6.34597E+00  5.07464E-02  3.58846E+00  1.09240E+00  5.08264E+00  1.68511E+00  5.98188E+00  4.46550E+00  6.80049E+00  4.59460E+00
   8.58939E+00  9.04235E+00  9.68510E+00  1.42686E+01  1.41434E+01  1.98598E+01  2.16206E+01  2.66274E+01  2.38781E+01  2.61759E+01
   1.74308E+01  1.23769E+01  9.58141E+00  5.97756E+00  1.57592E+00  2.21727E+00  3.49375E+00  1.01985E+00  2.98375E+00  7.34046E+00
   2.53091E+00  4.85094E+00  7.55040E-01  2.42791E+00 -1.49940E-01  1.42332E+00 -3.10669E+00  1.93103E+00  2.96531E+00  1.41602E+00
  -2.44283E+00  1.53950E+00  1.30772E-01 -1.21036E-01  1.51996E+00 -3.58973E-02  3.26963E+00  3.47618E+00 -3.25008E+00 -9.86281E-01
  -3.40178E-01 -9.30939E-01 -1.57205E+00 -2.59050E+00  3.19775E-01  3.53301E+00 -3.55880E+00 -1.59447E+00 -3.49455E+00 -6.49193E+00
  -1.12738E+01 -9.80094E+00 -9.31601E+00 -5.22852E+00 -7.82442E+00 -1.02308E+01 -8.00226E+00 -1.01618E+01 -1.24910E+01 -8.50328E+00
  -1.13199E+01 -7.20450E+00 -7.26549E+00 -6.02748E+00 -1.03699E+01 -6.52100E+00 -3.98825E+00 -3.89094E+00 -4.23819E+00 -5.53828E+00
  -5.45623E+00 -2.33292E+00 -5.16859E+00 -7.00298E+00 -3.16356E+00 -5.86223E+00 -4.95139E+00 -6.15648E+00 -5.75630E+00 -7.15916E+00
  -4.15564E+00 -5.94027E+00 -1.49621E+00 -1.14886E+00 -1.79777E-01 -3.17190E+00  8.80653E-01 -9.12983E-01  1.30754E-02 -2.75199E+00
  -2.20098E-01  9.30506E-01  4.58802E-01  2.84331E+00  3.48405E+00  3.73687E+00  2.15472E+00  5.90602E+00  3.45533E+00  3.39166E+00
  -1.54176E+00  1.72474E+00 -4.90901E+00 -2.93419E+00 -2.70654E-01 -2.19790E+00  1.41797E+00  4.72375E+00  7.43565E+00  3.62235E+00
   4.88720E+00  2.05190E-01  5.02209E+00  3.00500E+00  1.53911E+00  4.53447E+00  5.51459E+00  3.09649E+00  1.67656E+00  3.73714E+00
   2.94390E+00  7.51922E-01  2.67872E-02  1.26052E+00  5.00538E+00  5.37040E+00  1.54211E+00  4.03913E+00  6.93194E+00  8.62806E+00
   1.29870E+01  1.29256E+01  1.44777E+01  1.93451E+01  2.46862E+01  2.82324E+01  3.47891E+01  3.74774E+01  4.32173E+01  4.80331E+01
   5.50275E+01  5.34615E+01  5.35013E+01  4.44628E+01  2.95463E+01  1.95982E+01  1.59333E+01  1.00439E+01  6.09858E+00  5.27126E+00
   5.47375E-02  1.73273E+00  3.31285E+00  5.00144E+00  3.47679E+00  2.35897E+00  2.46307E+00  2.15861E+00  2.60245E+00  9.67470E-01
   1.13311E+00 -2.39594E-02 -3.03426E-01  3.32553E+00  1.65502E+00  9.33981E-01  2.15323E+00  8.76103E-01  1.57415E+00  2.03645E+00
   2.40924E+00  3.61802E+00  2.13585E+00  4.79330E-01  1.55578E+00 -1.72465E-01 -9.06872E-01  1.17139E+00  1.26471E+00  3.32328E+00
   6.53521E+00  3.18236E+00  3.71318E+00  1.51886E+00  2.87135E+00  2.98963E+00  3.02512E-01  1.81093E+00 -1.60900E+00  5.94241E+00
   4.45275E+00  2.08308E+00  5.87318E+00  1.92801E+00  3.91719E+00  5.89422E+00  3.28079E+00  2.26471E+00  5.89220E+00  4.73024E+00
   4.23773E+00  3.94904E+00  4.66718E+00  8.95862E+00  1.76770E+00  3.53017E+00  3.19623E+00  3.06437E+00  6.20732E+00  5.24640E+00
   2.38829E+00  5.80465E+00  6.03289E+00  3.91351E+00  7.20013E+00  3.63052E+00  3.97630E+00  6.69719E+00  7.94460E+00  7.54272E+00
   5.72328E+00  5.51339E+00  7.11467E+00  8.11296E+00  6.01269E+00  8.57330E+00  7.34684E+00  6.26644E+00  2.79298E+00  5.66011E+00
   2.66198E+00  5.72948E+00  5.94255E+00  2.27309E+00  1.94082E+00  8.43057E-01  1.90342E+00  2.38233E-01 -1.62904E+00 -5.74882E+00
  -6.06542E+00 -1.08932E+00  5.77824E-01 -9.41659E-01 -5.59355E+00  3.64090E-01 -2.85929E+00 -2.61661E+00 -4.58410E+00 -6.49244E+00
  -5.40758E+00 -4.73269E+00 -1.08732E+01 -7.93600E+00 -6.46154E+00 -5.41751E+00 -3.69357E+00 -2.08742E+00 -7.23668E+00 -5.69014E+00
  -4.37212E+00 -8.91750E+00 -6.15752E+00 -6.04647E+00 -5.36750E+00 -4.68530E+00 -6.48014E+00 -6.59075E+00 -4.46040E+00 -5.00814E+00
  -3.31667E+00  3.33733E+00 -1.99618E+00 -4.01621E+00 -3.31604E-01  5.73961E-01  1.88151E+00  9.49709E-01  9.84473E-01  3.20550E+00
  -9.98025E-01  3.45751E+00  2.83545E+00  1.19898E+00  2.30848E+00  2.41783E+00  6.43523E+00  4.20626E+00  4.25422E+00  6.24416E+00
   6.87775E+00  3.75677E+00  6.57387E+00  2.25088E+00 -1.24672E-01  1.39779E+00  3.45074E+00 -8.00681E-02  9.41832E-01 -4.86826E-01
  -1.33262E+00 -3.07746E+00  9.90972E-02  1.61275E-02 -1.36643E+00 -2.02122E+00 -5.40957E+00 -8.87106E-01 -1.18627E+00 -5.07186E+00
  -3.46028E+00  4.65219E-01 -4.23706E+00 -1.30086E+00 -4.12143E+00 -3.13839E+00 -5.22027E+00 -2.68213E+00 -5.56977E-01 -6.66291E-01
  -3.59793E-02 -6.26315E+00 -5.48299E+00 -3.87677E+00 -2.29504E+00 -2.94132E+00 -2.67329E+00 -2.60875E+00 -1.40347E+00 -3.98899E+00
  -2.30095E+00 -5.58225E+00 -2.55010E+00 -3.15894E+00 -4.03687E-01 -1.91566E+00 -4.73650E+00 -2.31792E+00 -1.37635E+00  9.65475E-02
  -2.42112E+00 -2.45654E+00  6.64439E-01 -1.68749E+00 -2.74163E+00 -2.66600E+00 -4.34653E-01 -3.02507E+00 -3.23885E+00  3.01002E-01
   1.36211E-02 -3.56428E+00  2.56520E-01  2.11173E+00 -3.24948E+00  1.40375E+00 -1.75555E+00 -2.23608E-01 -2.98962E+00 -2.71060E+00
   5.66969E-01 -1.53312E-02 -8.90288E-01 -2.39701E+00 -2.22901E+00 -3.48533E+00 -1.87631E+00  5.84230E-01 -2.27151E+00  2.36023E+00
  -1.34736E-01 -2.00648E+00  2.83720E-02 -2.59387E+00 -5.69427E+00  5.72163E-01 -4.20943E+00 -3.00028E+00
 NY points of the fit to the data follow
   2.60627E+00  2.73036E+00  3.19930E+00  3.98992E+00  4.99134E+00  6.06250E+00  7.19126E+00  8.38548E+00  9.59069E+00  1.06214E+01
   1.12372E+01  1.12605E+01  1.06709E+01  9.61389E+00  8.33644E+00  7.06879E+00  5.96920E+00  5.12521E+00  4.48531E+00  3.98759E+00
   3.54875E+00  3.37681E+00  3.61201E+00  3.96117E+00  4.32291E+00  4.70503E+00  5.19346E+00  5.83465E+00  6.60829E+00  7.48945E+00
   8.34835E+00  8.93504E+00  9.04931E+00  8.66828E+00  7.93705E+00  6.96987E+00  5.84284E+00  4.74604E+00  3.93219E+00  3.66098E+00
   3.92789E+00  4.48929E+00  5.15877E+00  5.86742E+00  6.60670E+00  7.33704E+00  7.95569E+00  8.29353E+00  8.15926E+00  7.43940E+00
   6.26472E+00  4.98496E+00  3.90866E+00  3.18211E+00  2.77397E+00  2.59420E+00  2.57838E+00  2.68853E+00  2.87400E+00  3.06270E+00
   3.14531E+00  3.04994E+00  2.74482E+00  2.32428E+00  1.93015E+00  1.65765E+00  1.54893E+00  1.59776E+00  1.77146E+00  2.00023E+00
   2.20958E+00  2.35440E+00  2.40581E+00  2.35792E+00  2.22954E+00  2.04682E+00  1.83976E+00  1.64118E+00  1.51283E+00  1.49796E+00
   1.47086E+00  1.41197E+00  1.37454E+00  1.39504E+00  1.47200E+00  1.56268E+00  1.58342E+00  1.45689E+00  1.18292E+00  7.91860E-01
   3.89676E-01  1.21038E-01  1.03336E-01  7.84966E-01  3.29137E+00  6.83992E+00  1.01798E+01  1.31991E+01  1.63875E+01  2.02338E+01
   2.47569E+01  2.92077E+01  3.22523E+01  3.26463E+01  2.98841E+01  2.45800E+01  1.82896E+01  1.25851E+01  8.24804E+00  5.24025E+00
   3.15929E+00  1.75814E+00  1.07655E+00  7.96219E-01  6.39373E-01  5.48657E-01  5.25319E-01  6.38369E-01  1.36019E+00  3.40313E+00
   5.99831E+00  8.42961E+00  1.07332E+01  1.32785E+01  1.63449E+01  1.98324E+01  2.30402E+01  2.49255E+01  2.47122E+01  2.22530E+01
   1.81877E+01  1.37119E+01  9.80658E+00  6.83649E+00  4.63231E+00  2.90639E+00  1.63831E+00  9.83293E-01  7.75856E-01  8.55450E-01
   1.08811E+00  1.32121E+00  1.43525E+00  1.38906E+00  1.19556E+00  9.05334E-01  5.81683E-01  2.67222E-01 -1.03750E-02 -2.44442E-01
  -4.45601E-01 -6.13035E-01 -7.71672E-01 -9.85812E-01 -1.23423E+00 -1.44352E+00 -1.57570E+00 -1.62206E+00 -1.68526E+00 -1.86401E+00
  -2.13984E+00 -2.42404E+00 -2.62668E+00 -2.69882E+00 -2.67296E+00 -2.66117E+00 -2.78119E+00 -3.09142E+00 -3.57170E+00 -4.09286E+00
  -4.47311E+00 -4.70580E+00 -4.88073E+00 -5.11198E+00 -5.40308E+00 -5.64063E+00 -5.75400E+00 -5.74081E+00 -5.64287E+00 -5.56462E+00
  -5.52274E+00 -5.44045E+00 -5.26921E+00 -4.98268E+00 -4.58639E+00 -4.13937E+00 -3.68181E+00 -3.16392E+00 -2.54901E+00 -1.87482E+00
  -1.27676E+00 -9.00509E-01 -8.26187E-01 -1.00123E+00 -1.30422E+00 -1.58297E+00 -1.66020E+00 -1.47527E+00 -1.05432E+00 -4.78412E-01
   1.37693E-01  6.50554E-01  8.69318E-01  8.43138E-01  5.78727E-01 -4.57275E-02 -1.00265E+00 -2.09110E+00 -2.97575E+00 -3.48823E+00
  -3.60050E+00 -3.23079E+00 -2.36552E+00 -1.15521E+00  5.91186E-02  9.45411E-01  1.38324E+00  1.32104E+00  6.61581E-01 -5.14663E-01
  -1.91149E+00 -3.08753E+00 -3.71150E+00 -3.67731E+00 -2.98089E+00 -1.73229E+00 -2.19531E-01  1.12475E+00  2.00651E+00  2.49207E+00
   2.69829E+00  2.73663E+00  2.72947E+00  2.78839E+00  2.93545E+00  3.10145E+00  3.29148E+00  3.52684E+00  3.74006E+00  3.82146E+00
   3.73960E+00  3.53664E+00  3.34009E+00  3.30282E+00  3.52906E+00  4.05169E+00  4.80208E+00  5.70508E+00  6.76343E+00  7.82566E+00
   8.79872E+00  1.00639E+01  1.32349E+01  1.88444E+01  2.47470E+01  2.99111E+01  3.45822E+01  3.93562E+01  4.45079E+01  4.95788E+01
   5.32120E+01  5.37299E+01  5.00607E+01  4.24580E+01  3.26829E+01  2.31699E+01  1.55988E+01  1.02506E+01  6.56860E+00  3.98658E+00
   2.44871E+00  1.78773E+00  1.43034E+00  1.19035E+00  1.01874E+00  8.74882E-01  7.21216E-01  5.45414E-01  3.52830E-01  1.62456E-01
  -5.19350E-03 -1.36436E-01 -2.26797E-01 -2.74715E-01 -2.79235E-01 -2.47253E-01 -1.88808E-01 -1.09097E-01 -6.70324E-03  1.21965E-01
   2.78272E-01  4.59857E-01  6.65094E-01  8.89505E-01  1.12492E+00  1.36240E+00  1.59517E+00  1.81803E+00  2.02704E+00  2.21878E+00
   2.38977E+00  2.53630E+00  2.65505E+00  2.74213E+00  2.79446E+00  2.81110E+00  2.79374E+00  2.74649E+00  2.67533E+00  2.58742E+00
   2.49145E+00  2.39675E+00  2.31313E+00  2.25100E+00  2.22130E+00  2.23555E+00  2.30693E+00  2.45298E+00  2.70555E+00  3.12511E+00
   3.63648E+00  4.03525E+00  4.32538E+00  4.58511E+00  4.84017E+00  5.03027E+00  5.02677E+00  4.79217E+00  4.46749E+00  4.06796E+00
   3.65219E+00  3.39472E+00  3.47407E+00  3.95678E+00  4.78343E+00  5.80018E+00  6.80055E+00  7.57929E+00  7.95013E+00  7.83490E+00
   7.35729E+00  6.71235E+00  6.05178E+00  5.44804E+00  4.91804E+00  4.48668E+00  4.19159E+00  4.00636E+00  3.89595E+00  3.82482E+00
   3.75237E+00  3.63591E+00  3.43705E+00  3.12839E+00  2.69889E+00  2.15608E+00  1.52462E+00  8.41439E-01  1.48763E-01 -5.13188E-01
  -1.11216E+00 -1.62736E+00 -2.05013E+00 -2.38240E+00 -2.63365E+00 -2.81756E+00 -2.94896E+00 -3.04164E+00 -3.10697E+00 -3.15357E+00
  -3.18737E+00 -3.21216E+00 -3.23006E+00 -3.24204E+00 -3.24823E+00 -3.24824E+00 -3.24137E+00 -3.22673E+00 -3.20330E+00 -3.16989E+00
  -3.12518E+00 -3.06768E+00 -2.99579E+00 -2.90778E+00 -2.80179E+00 -2.67577E+00 -2.52752E+00 -2.35481E+00 -2.15544E+00 -1.92737E+00
  -1.66878E+00 -1.37830E+00 -1.05516E+00 -6.99477E-01 -3.12452E-01  1.03405E-01  5.44178E-01  1.00439E+00  1.47699E+00  1.95334E+00
   2.42341E+00  2.87611E+00  3.29970E+00  3.68228E+00  4.01230E+00  4.27917E+00  4.47385E+00  4.58940E+00  4.62141E+00  4.56828E+00
   4.43130E+00  4.21458E+00  3.92490E+00  3.57132E+00  3.16467E+00  2.71692E+00  2.24058E+00  1.74808E+00  1.25128E+00  7.60952E-01
   2.86462E-01 -1.64508E-01 -5.86063E-01 -9.74072E-01 -1.32603E+00 -1.64091E+00 -1.91893E+00 -2.16136E+00 -2.37024E+00 -2.54811E+00
  -2.69779E+00 -2.82224E+00 -2.92437E+00 -3.00704E+00 -3.07289E+00 -3.12430E+00 -3.16338E+00 -3.19196E+00 -3.21166E+00 -3.22386E+00
  -3.22974E+00 -3.23027E+00 -3.22623E+00 -3.21829E+00 -3.20704E+00 -3.19297E+00 -3.17647E+00 -3.15785E+00 -3.13738E+00 -3.11529E+00
  -3.09178E+00 -3.06706E+00 -3.04125E+00 -3.01445E+00 -2.98676E+00 -2.95827E+00 -2.92908E+00 -2.89927E+00 -2.86887E+00 -2.83793E+00
  -2.80649E+00 -2.77461E+00 -2.74233E+00 -2.70969E+00 -2.67670E+00 -2.64336E+00 -2.60972E+00 -2.57581E+00 -2.54167E+00 -2.50728E+00
  -2.47267E+00 -2.43782E+00 -2.40278E+00 -2.36756E+00 -2.33218E+00 -2.29663E+00 -2.26091E+00 -2.22502E+00 -2.18900E+00 -2.15286E+00
  -2.11660E+00 -2.08020E+00 -2.04365E+00 -2.00698E+00 -1.97021E+00 -1.93332E+00 -1.89632E+00 -1.85918E+00 -1.82190E+00 -1.78450E+00
  -1.74698E+00 -1.70933E+00 -1.67152E+00 -1.63353E+00 -1.59536E+00 -1.55700E+00 -1.51845E+00 -1.47965E+00
 NY background values follow
     6.836E-01    6.713E-01    6.590E-01    6.467E-01    6.344E-01    6.220E-01    6.097E-01    5.974E-01    5.850E-01    5.726E-01
     5.603E-01    5.479E-01    5.354E-01    5.230E-01    5.106E-01    4.981E-01    4.856E-01    4.731E-01    4.606E-01    4.480E-01
     4.354E-01    4.228E-01    4.102E-01    3.975E-01    3.848E-01    3.721E-01    3.593E-01    3.466E-01    3.337E-01    3.209E-01
     3.080E-01    2.951E-01    2.821E-01    2.691E-01    2.560E-01    2.429E-01    2.298E-01    2.166E-01    2.034E-01    1.901E-01
     1.768E-01    1.634E-01    1.500E-01    1.365E-01    1.230E-01    1.095E-01    9.582E-02    8.214E-02    6.840E-02    5.460E-02
     4.074E-02    2.681E-02    1.283E-02   -1.219E-03   -1.533E-02   -2.952E-02   -4.377E-02   -5.809E-02   -7.248E-02   -8.694E-02
    -1.015E-01   -1.161E-01   -1.308E-01   -1.456E-01   -1.604E-01   -1.753E-01   -1.904E-01   -2.055E-01   -2.206E-01   -2.359E-01
    -2.513E-01   -2.667E-01   -2.823E-01   -2.979E-01   -3.136E-01   -3.294E-01   -3.454E-01   -3.614E-01   -3.775E-01   -3.937E-01
    -4.100E-01   -4.265E-01   -4.430E-01   -4.596E-01   -4.764E-01   -4.933E-01   -5.102E-01   -5.273E-01   -5.445E-01   -5.618E-01
    -5.792E-01   -5.968E-01   -6.145E-01   -6.322E-01   -6.501E-01   -6.682E-01   -6.863E-01   -7.046E-01   -7.230E-01   -7.415E-01
    -7.601E-01   -7.788E-01   -7.977E-01   -8.167E-01   -8.358E-01   -8.550E-01   -8.744E-01   -8.939E-01   -9.135E-01   -9.332E-01
    -9.530E-01   -9.730E-01   -9.931E-01   -1.013E+00   -1.034E+00   -1.054E+00   -1.075E+00   -1.095E+00   -1.116E+00   -1.137E+00
    -1.158E+00   -1.179E+00   -1.201E+00   -1.222E+00   -1.244E+00   -1.265E+00   -1.287E+00   -1.309E+00   -1.331E+00   -1.353E+00
    -1.376E+00   -1.398E+00   -1.421E+00   -1.443E+00   -1.466E+00   -1.489E+00   -1.512E+00   -1.535E+00   -1.559E+00   -1.582E+00
    -1.606E+00   -1.629E+00   -1.653E+00   -1.677E+00   -1.700E+00   -1.724E+00   -1.748E+00   -1.772E+00   -1.796E+00   -1.819E+00
    -1.843E+00   -1.867E+00   -1.891E+00   -1.914E+00   -1.938E+00   -1.961E+00   -1.985E+00   -2.008E+00   -2.032E+00   -2.055E+00
    -2.078E+00   -2.100E+00   -2.123E+00   -2.146E+00   -2.168E+00   -2.190E+00   -2.212E+00   -2.234E+00   -2.256E+00   -2.277E+00
    -2.298E+00   -2.319E+00   -2.340E+00   -2.360E+00   -2.380E+00   -2.400E+00   -2.419E+00   -2.438E+00   -2.457E+00   -2.476E+00
    -2.494E+00   -2.512E+00   -2.529E+00   -2.546E+00   -2.563E+00   -2.579E+00   -2.595E+00   -2.611E+00   -2.627E+00   -2.642E+00
    -2.657E+00   -2.671E+00   -2.685E+00   -2.699E+00   -2.713E+00   -2.726E+00   -2.739E+00   -2.752E+00   -2.765E+00   -2.777E+00
    -2.790E+00   -2.802E+00   -2.813E+00   -2.825E+00   -2.836E+00   -2.847E+00   -2.858E+00   -2.869E+00   -2.880E+00   -2.890E+00
    -2.901E+00   -2.911E+00   -2.921E+00   -2.931E+00   -2.941E+00   -2.950E+00   -2.960E+00   -2.969E+00   -2.979E+00   -2.988E+00
    -2.997E+00   -3.006E+00   -3.015E+00   -3.024E+00   -3.033E+00   -3.042E+00   -3.051E+00   -3.060E+00   -3.069E+00   -3.078E+00
    -3.087E+00   -3.095E+00   -3.104E+00   -3.113E+00   -3.122E+00   -3.131E+00   -3.139E+00   -3.148E+00   -3.157E+00   -3.166E+00
    -3.175E+00   -3.183E+00   -3.192E+00   -3.201E+00   -3.210E+00   -3.219E+00   -3.228E+00   -3.237E+00   -3.246E+00   -3.255E+00
    -3.264E+00   -3.274E+00   -3.283E+00   -3.292E+00   -3.301E+00   -3.311E+00   -3.320E+00   -3.330E+00   -3.339E+00   -3.349E+00
    -3.359E+00   -3.369E+00   -3.379E+00   -3.389E+00   -3.399E+00   -3.409E+00   -3.419E+00   -3.429E+00   -3.440E+00   -3.450E+00
    -3.461E+00   -3.472E+00   -3.483E+00   -3.494E+00   -3.505E+00   -3.516E+00   -3.527E+00   -3.538E+00   -3.550E+00   -3.561E+00
    -3.573E+00   -3.585E+00   -3.597E+00   -3.608E+00   -3.620E+00   -3.633E+00   -3.645E+00   -3.657E+00   -3.669E+00   -3.681E+00
    -3.694E+00   -3.706E+00   -3.719E+00   -3.731E+00   -3.744E+00   -3.756E+00   -3.769E+00   -3.782E+00   -3.795E+00   -3.807E+00
    -3.820E+00   -3.833E+00   -3.846E+00   -3.859E+00   -3.872E+00   -3.885E+00   -3.898E+00   -3.911E+00   -3.924E+00   -3.937E+00
    -3.950E+00   -3.963E+00   -3.976E+00   -3.989E+00   -4.002E+00   -4.015E+00   -4.028E+00   -4.041E+00   -4.054E+00   -4.067E+00
    -4.080E+00   -4.093E+00   -4.106E+00   -4.118E+00   -4.131E+00   -4.143E+00   -4.156E+00   -4.168E+00   -4.180E+00   -4.192E+00
    -4.204E+00   -4.216E+00   -4.228E+00   -4.239E+00   -4.250E+00   -4.261E+00   -4.272E+00   -4.282E+00   -4.293E+00   -4.303E+00
    -4.313E+00   -4.322E+00   -4.331E+00   -4.340E+00   -4.349E+00   -4.357E+00   -4.365E+00   -4.373E+00   -4.380E+00   -4.388E+00
    -4.394E+00   -4.400E+00   -4.406E+00   -4.412E+00   -4.417E+00   -4.422E+00   -4.426E+00   -4.430E+00   -4.433E+00   -4.436E+00
    -4.438E+00   -4.440E+00   -4.442E+00   -4.443E+00   -4.443E+00   -4.443E+00   -4.443E+00   -4.442E+00   -4.440E+00   -4.438E+00
    -4.435E+00   -4.432E+00   -4.429E+00   -4.425E+00   -4.420E+00   -4.415E+00   -4.410E+00   -4.404E+00   -4.397E+00   -4.390E+00
    -4.383E+00   -4.375E+00   -4.366E+00   -4.357E+00   -4.348E+00   -4.338E+00   -4.327E+00   -4.316E+00   -4.304E+00   -4.292E+00
    -4.280E+00   -4.267E+00   -4.253E+00   -4.239E+00   -4.224E+00   -4.209E+00   -4.194E+00   -4.178E+00   -4.161E+00   -4.144E+00
    -4.126E+00   -4.108E+00   -4.089E+00   -4.070E+00   -4.050E+00   -4.030E+00   -4.010E+00   -3.988E+00   -3.967E+00   -3.944E+00
    -3.922E+00   -3.899E+00   -3.875E+00   -3.851E+00   -3.826E+00   -3.801E+00   -3.776E+00   -3.750E+00   -3.724E+00   -3.697E+00
    -3.670E+00   -3.642E+00   -3.614E+00   -3.586E+00   -3.558E+00   -3.529E+00   -3.500E+00   -3.470E+00   -3.440E+00   -3.410E+00
    -3.379E+00   -3.349E+00   -3.318E+00   -3.286E+00   -3.255E+00   -3.223E+00   -3.191E+00   -3.158E+00   -3.126E+00   -3.093E+00
    -3.060E+00   -3.027E+00   -2.993E+00   -2.960E+00   -2.926E+00   -2.892E+00   -2.858E+00   -2.824E+00   -2.790E+00   -2.755E+00
    -2.721E+00   -2.686E+00   -2.651E+00   -2.616E+00   -2.581E+00   -2.547E+00   -2.511E+00   -2.476E+00   -2.441E+00   -2.406E+00
    -2.370E+00   -2.335E+00   -2.300E+00   -2.264E+00   -2.228E+00   -2.193E+00   -2.157E+00   -2.121E+00   -2.086E+00   -2.050E+00
    -2.014E+00   -1.978E+00   -1.942E+00   -1.906E+00   -1.870E+00   -1.834E+00   -1.798E+00   -1.762E+00   -1.726E+00   -1.690E+00
    -1.654E+00   -1.618E+00   -1.582E+00   -1.546E+00   -1.510E+00   -1.474E+00   -1.438E+00   -1.402E+00   -1.366E+00   -1.331E+00
    -1.295E+00   -1.259E+00   -1.223E+00   -1.187E+00   -1.151E+00   -1.116E+00   -1.080E+00   -1.044E+00
 Ala      Conc. = 2.89E+02
