 LCModel (Version 6.3-1L) Copyright: S.W. Provencher.          Ref.: Magn. Reson. Med. 30:672-679 (1993).                
 Slice#1 Row#4 Col#1  PD_05_press_1_raw_act
 36 lines in following concentration table = NCONC+1
    Conc.  %SD /Cr+PCr  Metabolite                                         
   18.351 175%   0.213 Ala                                                 
   13.428  78%   0.156 Asp                                                 
   66.742  67%   0.773 Cr                                                  
   19.580 229%   0.227 PCr                                                 
    7.194  87% 8.3E-02 GABA                                                
    7.943  79% 9.2E-02 Glc                                                 
   52.877 121%   0.613 Gln                                                 
   84.067  84%   0.974 Glu                                                 
   19.383  32%   0.225 GPC                                                 
    0.000 999%   0.000 PCh                                                 
   23.328  97%   0.270 GSH                                                 
   70.893 101%   0.821 Ins                                                 
   19.091 183%   0.221 Lac                                                 
  124.664  16%   1.444 NAA                                                 
    0.000 999%   0.000 NAAG                                                
    2.814  73% 3.3E-02 Scyllo                                              
   12.038  86%   0.139 Tau                                                 
    0.000 999%   0.000 -CrCH2                                              
   19.383  32%   0.225 GPC+PCh                                             
  124.664  16%   1.444 NAA+NAAG                                            
   86.322  19%   1.000 Cr+PCr                                              
  136.944  68%   1.586 Glu+Gln                                             
    0.000 999%   0.000 Lip13a                                              
    0.000 999%   0.000 Lip13b                                              
 5.85E-04 999% 6.8E-06 Lip09                                               
  259.746  17%   3.009 MM09                                                
    0.000 999%   0.000 Lip20                                               
  184.850  54%   2.141 MM20                                                
    0.000 999%   0.000 MM12                                                
  213.124  34%   2.469 MM14                                                
  138.922  46%   1.609 MM17                                                
    0.000 999%   0.000 Lip13a+Lip13b                                       
  213.124  34%   2.469 MM14+Lip13a+Lip13b+MM12                             
  259.746  17%   3.009 MM09+Lip09                                          
  184.850  54%   2.141 MM20+Lip20                                          
   6 lines in following misc. output table
  FWHM = 0.046 ppm    S/N =   2                                            
  Data shift = 0.000 ppm                                                   
  Ph: 110 deg       1.6 deg/ppm                                            
  alphaB,S = 1.3E+00,   2.5E+01                                            
   14 spline knots.   Ns = 5(1)                                            
  ( 8) 2 infls.   ( 7) 1 extrs.                                            
  498 points on ppm-axis = NY
      4.000000     3.992357     3.984714     3.977070     3.969427     3.961784     3.954141     3.946497     3.938854     3.931211
      3.923568     3.915925     3.908281     3.900638     3.892995     3.885352     3.877708     3.870065     3.862422     3.854779
      3.847136     3.839492     3.831849     3.824206     3.816563     3.808919     3.801276     3.793633     3.785990     3.778347
      3.770703     3.763060     3.755417     3.747774     3.740130     3.732487     3.724844     3.717201     3.709558     3.701914
      3.694271     3.686628     3.678985     3.671341     3.663698     3.656055     3.648412     3.640769     3.633125     3.625482
      3.617839     3.610196     3.602552     3.594909     3.587266     3.579623     3.571980     3.564336     3.556693     3.549050
      3.541407     3.533763     3.526120     3.518477     3.510834     3.503191     3.495547     3.487904     3.480261     3.472618
      3.464974     3.457331     3.449688     3.442045     3.434402     3.426758     3.419115     3.411472     3.403829     3.396185
      3.388542     3.380899     3.373256     3.365613     3.357969     3.350326     3.342683     3.335040     3.327396     3.319753
      3.312110     3.304467     3.296824     3.289180     3.281537     3.273894     3.266251     3.258607     3.250964     3.243321
      3.235678     3.228034     3.220391     3.212748     3.205105     3.197462     3.189818     3.182175     3.174532     3.166889
      3.159245     3.151602     3.143959     3.136316     3.128673     3.121029     3.113386     3.105743     3.098100     3.090456
      3.082813     3.075170     3.067527     3.059884     3.052240     3.044597     3.036954     3.029311     3.021667     3.014024
      3.006381     2.998738     2.991095     2.983451     2.975808     2.968165     2.960522     2.952878     2.945235     2.937592
      2.929949     2.922306     2.914662     2.907019     2.899376     2.891733     2.884089     2.876446     2.868803     2.861160
      2.853517     2.845873     2.838230     2.830587     2.822944     2.815300     2.807657     2.800014     2.792371     2.784728
      2.777084     2.769441     2.761798     2.754155     2.746511     2.738868     2.731225     2.723582     2.715939     2.708295
      2.700652     2.693009     2.685366     2.677722     2.670079     2.662436     2.654793     2.647150     2.639506     2.631863
      2.624220     2.616577     2.608933     2.601290     2.593647     2.586004     2.578361     2.570717     2.563074     2.555431
      2.547788     2.540144     2.532501     2.524858     2.517215     2.509572     2.501928     2.494285     2.486642     2.478999
      2.471355     2.463712     2.456069     2.448426     2.440783     2.433139     2.425496     2.417853     2.410210     2.402566
      2.394923     2.387280     2.379637     2.371994     2.364350     2.356707     2.349064     2.341421     2.333777     2.326134
      2.318491     2.310848     2.303205     2.295561     2.287918     2.280275     2.272632     2.264988     2.257345     2.249702
      2.242059     2.234416     2.226772     2.219129     2.211486     2.203843     2.196199     2.188556     2.180913     2.173270
      2.165627     2.157983     2.150340     2.142697     2.135054     2.127410     2.119767     2.112124     2.104481     2.096838
      2.089194     2.081551     2.073908     2.066265     2.058621     2.050978     2.043335     2.035692     2.028049     2.020405
      2.012762     2.005119     1.997476     1.989833     1.982190     1.974546     1.966903     1.959260     1.951617     1.943974
      1.936331     1.928688     1.921045     1.913402     1.905759     1.898115     1.890472     1.882829     1.875186     1.867543
      1.859900     1.852257     1.844614     1.836971     1.829327     1.821684     1.814041     1.806398     1.798755     1.791112
      1.783469     1.775826     1.768183     1.760540     1.752896     1.745253     1.737610     1.729967     1.722324     1.714681
      1.707038     1.699395     1.691752     1.684108     1.676465     1.668822     1.661179     1.653536     1.645893     1.638250
      1.630607     1.622964     1.615321     1.607677     1.600034     1.592391     1.584748     1.577105     1.569462     1.561819
      1.554176     1.546533     1.538890     1.531246     1.523603     1.515960     1.508317     1.500674     1.493031     1.485388
      1.477745     1.470102     1.462458     1.454815     1.447172     1.439529     1.431886     1.424243     1.416600     1.408957
      1.401314     1.393671     1.386027     1.378384     1.370741     1.363098     1.355455     1.347812     1.340169     1.332526
      1.324883     1.317240     1.309596     1.301953     1.294310     1.286667     1.279024     1.271381     1.263738     1.256095
      1.248452     1.240808     1.233165     1.225522     1.217879     1.210236     1.202593     1.194950     1.187307     1.179664
      1.172021     1.164377     1.156734     1.149091     1.141448     1.133805     1.126162     1.118519     1.110876     1.103233
      1.095590     1.087946     1.080303     1.072660     1.065017     1.057374     1.049731     1.042088     1.034445     1.026802
      1.019158     1.011515     1.003872     0.996229     0.988586     0.980943     0.973300     0.965657     0.958014     0.950371
      0.942727     0.935084     0.927441     0.919798     0.912155     0.904512     0.896869     0.889226     0.881583     0.873940
      0.866296     0.858653     0.851010     0.843367     0.835724     0.828081     0.820438     0.812795     0.805152     0.797508
      0.789865     0.782222     0.774579     0.766936     0.759293     0.751650     0.744007     0.736364     0.728721     0.721077
      0.713434     0.705791     0.698148     0.690505     0.682862     0.675219     0.667576     0.659933     0.652290     0.644646
      0.637003     0.629360     0.621717     0.614074     0.606431     0.598788     0.591145     0.583502     0.575858     0.568215
      0.560572     0.552929     0.545286     0.537643     0.530000     0.522357     0.514714     0.507071     0.499427     0.491784
      0.484141     0.476498     0.468855     0.461212     0.453569     0.445925     0.438282     0.430639     0.422996     0.415353
      0.407710     0.400067     0.392424     0.384780     0.377137     0.369494     0.361851     0.354208     0.346565     0.338922
      0.331278     0.323635     0.315992     0.308349     0.300706     0.293063     0.285420     0.277777     0.270133     0.262490
      0.254847     0.247204     0.239561     0.231918     0.224275     0.216631     0.208988     0.201345
 NY phased data points follow
   1.10319E+01  1.10885E+01  1.52664E+01  1.47160E+01  1.13946E+01  1.05058E+01  1.16899E+01  1.53237E+01  9.84719E+00  1.03497E+01
   1.32235E+01  1.47576E+01  1.10611E+01  1.20170E+01  1.23890E+01  9.82486E+00  1.25182E+01  1.17544E+01  8.27550E+00  1.32712E+01
   1.09796E+01  8.81802E+00  8.55994E+00  8.49842E+00  1.13996E+01  7.80052E+00  8.79535E+00  9.20758E+00  7.53390E+00  9.99873E+00
   8.91325E+00  9.13148E+00  1.07915E+01  9.27399E+00  1.13816E+01  8.12799E+00  7.46299E+00  1.08350E+01  8.86020E+00  8.16194E+00
   9.24928E+00  9.74832E+00  8.68898E+00  7.44131E+00  5.70458E+00  1.14510E+01  7.36046E+00  5.98417E+00  7.23838E+00  9.46031E+00
   8.71567E+00  8.98146E+00  6.11171E+00  7.03118E+00  8.59718E+00  7.25528E+00  5.99564E+00  7.95293E+00  8.42669E+00  7.87574E+00
   8.36136E+00  7.17461E+00  9.20799E+00  8.76928E+00  5.62886E+00  6.87314E+00  7.60054E+00  7.03191E+00  7.79185E+00  6.27156E+00
   5.30491E+00  7.08872E+00  7.90064E+00  7.86556E+00  4.70150E+00  6.10481E+00  9.63330E+00  5.86805E+00  4.93525E+00  4.90167E+00
   6.95090E+00  6.55068E+00  7.89959E+00  6.97506E+00  7.37999E+00  7.54285E+00  5.96517E+00  6.56944E+00  4.96082E+00  7.19536E+00
   7.33135E+00  5.51310E+00  4.24291E+00  5.19752E+00  4.99071E+00  6.57307E+00  6.86651E+00  5.93237E+00  7.19080E+00  6.85680E+00
   6.87050E+00  6.99289E+00  8.98724E+00  8.51964E+00  5.54137E+00  6.26937E+00  8.15847E+00  6.98164E+00  4.19809E+00  4.07151E+00
   5.65175E+00  6.44522E+00  6.99455E+00  4.97702E+00  2.91382E+00  4.86002E+00  5.97331E+00  4.20211E+00  4.52115E+00  3.50170E+00
   3.30209E+00  5.87623E+00  5.37752E+00  5.14536E+00  7.11732E+00  8.03262E+00  7.80090E+00  6.23388E+00  9.08479E+00  6.74627E+00
   6.32115E+00  3.43825E+00  5.24398E+00  4.07682E+00  3.74585E+00  3.95951E+00  6.16480E+00  5.22400E+00  4.74588E+00  3.47144E+00
   5.34510E+00  4.53813E+00  7.22693E+00  5.57096E+00  2.95906E+00  5.17681E+00  3.32545E+00  2.10837E+00  4.12181E+00  4.62959E+00
   3.59850E+00  3.72886E+00  3.64503E+00  4.99394E+00  5.85571E+00  3.42918E+00  4.16977E+00  2.60370E+00  5.11445E+00  4.33913E+00
   3.81735E+00  3.21914E+00  2.54973E+00  4.74084E+00  2.73273E+00  2.38362E+00  4.89804E+00  2.89245E+00  5.03027E+00  4.49774E+00
   5.01483E+00  2.69922E+00  1.56304E+00  3.30768E+00  3.01519E+00  3.93526E+00  2.93270E+00  5.03233E+00  3.52730E+00  3.56273E+00
   2.03885E+00  2.83684E+00  1.98211E+00  9.67899E-01  2.37950E+00  9.21838E-01  3.94358E+00  4.41692E+00  3.70589E+00  1.74522E+00
   3.68153E+00  4.91191E+00  2.57334E+00  4.74100E+00  3.91915E+00  3.78989E+00  3.03340E+00  3.01528E+00  2.80705E+00  4.70152E+00
   3.06509E+00  4.56415E+00  4.31165E+00  2.21314E+00  3.67874E+00  3.38102E-02  3.42205E+00  2.29097E+00  2.35053E+00  3.14366E+00
   5.08065E+00  4.34966E+00  3.16952E+00  1.18176E+00  4.98755E+00  6.70549E+00  1.90468E+00  2.64096E+00  3.69996E+00  3.42478E+00
   6.28293E+00  1.57773E+00  4.02810E+00  3.49459E+00  1.36525E+00  2.76614E+00  3.94289E+00  3.22897E+00  4.16812E+00  2.85923E+00
   4.88664E+00  4.51725E+00  5.41123E+00  4.27595E+00  3.42913E+00  2.72441E+00  3.57594E+00  4.05451E+00  2.28204E+00  4.86075E+00
   1.16743E+00  3.52309E+00  2.84296E+00  2.79260E+00  4.67813E+00  2.10813E+00  4.54300E+00  3.36369E+00  2.76505E+00  2.96309E+00
   3.22186E+00  3.09768E+00  3.03011E+00  3.15283E+00  4.38146E+00  4.09691E+00  4.27072E+00  5.09204E+00  7.43475E+00  7.56849E+00
   6.53598E+00  9.47512E+00  7.58448E+00  3.03850E+00  2.79562E+00  3.46857E+00  1.65413E+00  3.85243E+00  1.46277E+00  3.52096E+00
   3.52735E+00  2.98325E+00  1.48366E+00  1.75273E+00  1.45184E+00  1.43504E-01  2.86696E+00  3.25026E+00  3.20167E+00  1.64870E+00
   2.13926E+00  3.48229E+00  2.59808E+00  2.41615E+00  2.95699E+00  2.12371E+00  3.22399E+00  2.14114E+00  4.04248E-01  3.21595E+00
   2.67193E+00  2.80227E+00  2.61164E+00  2.79919E+00  1.93550E+00  1.92227E+00  2.57218E+00  2.07888E+00  3.58906E+00  3.23195E+00
   2.38447E+00  2.37750E+00  1.85342E+00  4.31321E+00  2.12691E+00  1.51144E+00  1.93774E+00  1.37538E+00  3.27785E+00  5.23440E+00
   2.20349E+00  2.38692E+00  3.69532E+00  2.31990E+00  1.86250E+00  3.22346E+00  2.87895E+00  2.38109E+00  3.89094E+00  3.08539E+00
   2.98975E+00  1.71829E+00  3.29519E+00  1.66435E+00  2.06291E+00  1.22738E+00  4.51159E+00  2.17801E+00  1.79457E+00  2.30512E+00
   1.61609E+00  3.13186E+00  2.78538E+00  3.90929E+00  3.80099E+00  3.72320E+00  4.28760E+00  3.97436E+00  1.92808E+00  2.89274E+00
   3.92405E+00  1.54020E+00  1.64652E+00  2.21221E+00  1.48734E+00  1.84178E+00  3.17902E+00  2.51336E+00  3.08708E+00  2.26945E+00
   1.53950E+00 -2.01971E+00 -3.13084E-01  1.03464E+00 -1.08483E+00  4.67463E-01  2.20276E+00 -8.48901E-01 -4.92969E-01  2.42350E-01
   1.89152E+00  3.56474E+00  1.14009E+00  6.98242E-01  6.84091E-01  1.28195E-01  1.39270E+00 -1.46981E+00 -2.32038E+00 -1.53497E-01
   1.44223E+00  1.83404E+00  7.43008E-01  5.80496E-01  3.03072E+00  2.07790E-01  2.39837E+00  3.64355E+00  1.71326E+00  1.85401E+00
  -5.14552E-01  1.63592E+00  2.91765E+00  2.97824E+00  1.89963E+00  2.06353E+00  2.28284E+00  1.00221E+00 -3.58707E-01 -7.38505E-01
   2.82891E+00  2.02166E+00  3.71130E-01  2.66121E+00  3.46834E+00  5.52617E+00  3.66617E+00  2.74661E+00  2.61440E+00  6.66613E+00
   4.19943E+00  4.40605E+00  3.38335E+00  4.62569E+00  4.43089E+00  2.38237E+00  3.66926E+00  4.70020E+00  2.04574E+00  2.36310E+00
   1.33033E+00  4.34036E+00  3.58237E+00  3.70953E+00  3.72643E-01  6.90841E-01  3.59148E+00 -5.26288E-01  1.06255E+00  1.43792E+00
   1.09508E+00  4.15868E+00  2.43298E+00  2.83012E+00  1.66223E+00  2.68342E+00  3.55801E+00  1.93468E+00  3.35064E+00  1.16586E+00
   1.10357E+00  3.15705E+00  6.15932E-01  4.77826E-01  2.92466E+00  4.47541E-01  2.24367E+00  1.77367E+00  1.96138E+00 -4.41454E-01
  -6.99462E-01  1.25917E+00 -4.65039E-02  1.57986E+00  1.58207E+00  2.13261E+00  8.79135E-01  5.43541E-01  1.13699E+00  9.70448E-01
   1.22769E+00  1.91733E-01  1.64587E+00  2.19375E+00  1.60947E+00  1.38052E+00  2.98046E+00  1.82253E+00  1.75889E+00 -5.74347E-01
   1.42797E+00  2.81118E+00  3.56934E-01  2.12732E+00  6.63256E-01  3.03612E+00  6.09222E-01  1.41187E+00  1.59687E+00  1.46629E+00
   1.49780E+00  5.54626E-01  1.77567E+00  1.16272E+00  1.19926E+00  1.10350E+00  1.90350E+00  1.98905E+00  8.61704E-01  1.31634E+00
   8.08295E-01 -7.68668E-01  2.35776E+00  9.43615E-01  9.34124E-01  2.23494E+00  1.95147E+00  1.43966E+00  6.24988E-02  3.68308E-01
   1.08530E+00  6.76028E-02  6.23442E-01  2.03483E+00  3.58616E+00  5.58908E-01  2.87669E+00  8.17010E-01
 NY points of the fit to the data follow
   9.83875E+00  9.80880E+00  9.80409E+00  9.82855E+00  9.90669E+00  1.00419E+01  1.02985E+01  1.06759E+01  1.10578E+01  1.13697E+01
   1.15271E+01  1.14659E+01  1.11824E+01  1.07191E+01  1.01834E+01  9.71602E+00  9.39658E+00  9.22276E+00  9.14794E+00  9.11841E+00
   9.11140E+00  9.10759E+00  9.08648E+00  9.02830E+00  8.94615E+00  8.89476E+00  8.89115E+00  8.95313E+00  9.08762E+00  9.26072E+00
   9.41349E+00  9.47438E+00  9.40008E+00  9.20301E+00  8.93985E+00  8.67643E+00  8.45936E+00  8.31717E+00  8.25419E+00  8.24585E+00
   8.26197E+00  8.28947E+00  8.33593E+00  8.41182E+00  8.50383E+00  8.58697E+00  8.63463E+00  8.62129E+00  8.52824E+00  8.35796E+00
   8.14307E+00  7.93667E+00  7.78178E+00  7.69055E+00  7.65700E+00  7.66317E+00  7.68815E+00  7.71874E+00  7.73940E+00  7.73877E+00
   7.70864E+00  7.64497E+00  7.55553E+00  7.45656E+00  7.37071E+00  7.31084E+00  7.27956E+00  7.27473E+00  7.28092E+00  7.28455E+00
   7.28339E+00  7.27666E+00  7.26032E+00  7.23207E+00  7.18863E+00  7.12988E+00  7.06129E+00  6.98972E+00  6.92155E+00  6.86394E+00
   6.82388E+00  6.80917E+00  6.80489E+00  6.79053E+00  6.75462E+00  6.69376E+00  6.61283E+00  6.52326E+00  6.43815E+00  6.37444E+00
   6.34301E+00  6.34092E+00  6.35220E+00  6.36023E+00  6.36035E+00  6.35394E+00  6.35777E+00  6.43726E+00  6.71100E+00  7.10294E+00
   7.52651E+00  7.90120E+00  8.11310E+00  8.08500E+00  7.78606E+00  7.26821E+00  6.69474E+00  6.23350E+00  5.94760E+00  5.81252E+00
   5.75814E+00  5.72872E+00  5.70593E+00  5.68609E+00  5.66749E+00  5.64791E+00  5.62849E+00  5.61151E+00  5.59924E+00  5.59863E+00
   5.62647E+00  5.74818E+00  6.14363E+00  6.77522E+00  7.47878E+00  8.13487E+00  8.57345E+00  8.65522E+00  8.32494E+00  7.63063E+00
   6.77359E+00  6.01817E+00  5.49867E+00  5.20029E+00  5.03630E+00  4.92580E+00  4.84469E+00  4.80478E+00  4.80523E+00  4.83309E+00
   4.86744E+00  4.88739E+00  4.88025E+00  4.84615E+00  4.79497E+00  4.73763E+00  4.68167E+00  4.62924E+00  4.57987E+00  4.53315E+00
   4.48931E+00  4.44942E+00  4.41408E+00  4.38297E+00  4.35485E+00  4.32486E+00  4.28280E+00  4.22972E+00  4.17130E+00  4.11581E+00
   4.07814E+00  4.05843E+00  4.05561E+00  4.06459E+00  4.06949E+00  4.05559E+00  4.01773E+00  3.96187E+00  3.90293E+00  3.85232E+00
   3.80914E+00  3.76307E+00  3.71161E+00  3.66597E+00  3.62981E+00  3.60580E+00  3.58892E+00  3.57864E+00  3.57474E+00  3.56987E+00
   3.55547E+00  3.52979E+00  3.49717E+00  3.47377E+00  3.46952E+00  3.48278E+00  3.51603E+00  3.57036E+00  3.63790E+00  3.70086E+00
   3.73753E+00  3.72850E+00  3.67403E+00  3.58210E+00  3.48103E+00  3.39794E+00  3.35153E+00  3.35158E+00  3.39872E+00  3.48836E+00
   3.60480E+00  3.71903E+00  3.79208E+00  3.79825E+00  3.72043E+00  3.54351E+00  3.31021E+00  3.07364E+00  2.87246E+00  2.76119E+00
   2.77439E+00  2.92811E+00  3.17382E+00  3.43274E+00  3.63371E+00  3.72663E+00  3.68508E+00  3.50302E+00  3.22215E+00  2.93356E+00
   2.72258E+00  2.62900E+00  2.66403E+00  2.80397E+00  3.00407E+00  3.20615E+00  3.34504E+00  3.38947E+00  3.35867E+00  3.28931E+00
   3.21340E+00  3.14838E+00  3.11833E+00  3.13448E+00  3.18309E+00  3.24418E+00  3.30374E+00  3.34558E+00  3.34559E+00  3.30517E+00
   3.23201E+00  3.14778E+00  3.07972E+00  3.05073E+00  3.06588E+00  3.11474E+00  3.17631E+00  3.22823E+00  3.26481E+00  3.29077E+00
   3.31712E+00  3.35214E+00  3.39944E+00  3.45998E+00  3.58456E+00  4.01836E+00  4.83910E+00  5.80635E+00  6.77208E+00  7.51347E+00
   7.79601E+00  7.48908E+00  6.59656E+00  5.35898E+00  4.18433E+00  3.34594E+00  2.87991E+00  2.67502E+00  2.58354E+00  2.52816E+00
   2.49135E+00  2.46996E+00  2.46132E+00  2.46038E+00  2.46059E+00  2.45502E+00  2.43902E+00  2.41371E+00  2.38312E+00  2.35197E+00
   2.32500E+00  2.30522E+00  2.29359E+00  2.28965E+00  2.29199E+00  2.29894E+00  2.30901E+00  2.32126E+00  2.33546E+00  2.35167E+00
   2.37028E+00  2.39153E+00  2.41533E+00  2.44149E+00  2.46966E+00  2.49928E+00  2.52963E+00  2.55984E+00  2.58894E+00  2.61600E+00
   2.64011E+00  2.66049E+00  2.67647E+00  2.68758E+00  2.69349E+00  2.69412E+00  2.68964E+00  2.68047E+00  2.66724E+00  2.65081E+00
   2.63213E+00  2.61230E+00  2.59247E+00  2.57382E+00  2.55754E+00  2.54476E+00  2.53656E+00  2.53396E+00  2.53799E+00  2.54995E+00
   2.57206E+00  2.60978E+00  2.66861E+00  2.72498E+00  2.75966E+00  2.76393E+00  2.72904E+00  2.65660E+00  2.55687E+00  2.44996E+00
   2.38436E+00  2.38970E+00  2.45484E+00  2.55919E+00  2.67425E+00  2.77316E+00  2.83561E+00  2.84512E+00  2.80161E+00  2.72646E+00
   2.64574E+00  2.57939E+00  2.54100E+00  2.51703E+00  2.47566E+00  2.40615E+00  2.29843E+00  2.14946E+00  1.96816E+00  1.77357E+00
   1.61584E+00  1.53732E+00  1.53668E+00  1.59488E+00  1.68094E+00  1.76259E+00  1.81638E+00  1.82532E+00  1.78823E+00  1.72508E+00
   1.65989E+00  1.60758E+00  1.57145E+00  1.54664E+00  1.52837E+00  1.51447E+00  1.50389E+00  1.49602E+00  1.49052E+00  1.48713E+00
   1.48574E+00  1.48630E+00  1.48884E+00  1.49343E+00  1.50022E+00  1.50942E+00  1.52127E+00  1.53613E+00  1.55438E+00  1.57650E+00
   1.60301E+00  1.63450E+00  1.67160E+00  1.71498E+00  1.76530E+00  1.82318E+00  1.88914E+00  1.96359E+00  2.04672E+00  2.13848E+00
   2.23845E+00  2.34588E+00  2.45955E+00  2.57782E+00  2.69859E+00  2.81935E+00  2.93725E+00  3.04917E+00  3.15187E+00  3.24215E+00
   3.31697E+00  3.37366E+00  3.41008E+00  3.42468E+00  3.41669E+00  3.38611E+00  3.33373E+00  3.26110E+00  3.17040E+00  3.06435E+00
   2.94607E+00  2.81885E+00  2.68605E+00  2.55087E+00  2.41628E+00  2.28490E+00  2.15890E+00  2.03999E+00  1.92939E+00  1.82789E+00
   1.73585E+00  1.65329E+00  1.57993E+00  1.51529E+00  1.45873E+00  1.40952E+00  1.36690E+00  1.33007E+00  1.29832E+00  1.27094E+00
   1.24730E+00  1.22685E+00  1.20908E+00  1.19359E+00  1.18001E+00  1.16803E+00  1.15741E+00  1.14794E+00  1.13942E+00  1.13174E+00
   1.12475E+00  1.11838E+00  1.11251E+00  1.10710E+00  1.10209E+00  1.09742E+00  1.09306E+00  1.08896E+00  1.08510E+00  1.08145E+00
   1.07800E+00  1.07471E+00  1.07158E+00  1.06859E+00  1.06573E+00  1.06297E+00  1.06033E+00  1.05778E+00  1.05532E+00  1.05294E+00
   1.05063E+00  1.04839E+00  1.04622E+00  1.04411E+00  1.04205E+00  1.04004E+00  1.03807E+00  1.03615E+00  1.03428E+00  1.03244E+00
   1.03063E+00  1.02886E+00  1.02711E+00  1.02540E+00  1.02372E+00  1.02207E+00  1.02043E+00  1.01882E+00  1.01723E+00  1.01567E+00
   1.01412E+00  1.01259E+00  1.01108E+00  1.00958E+00  1.00810E+00  1.00664E+00  1.00519E+00  1.00375E+00  1.00233E+00  1.00092E+00
   9.99523E-01  9.98140E-01  9.96768E-01  9.95406E-01  9.94058E-01  9.92724E-01  9.91405E-01  9.90099E-01
 NY background values follow
     9.560E+00    9.523E+00    9.485E+00    9.447E+00    9.409E+00    9.371E+00    9.333E+00    9.296E+00    9.258E+00    9.220E+00
     9.182E+00    9.144E+00    9.106E+00    9.069E+00    9.031E+00    8.993E+00    8.955E+00    8.917E+00    8.880E+00    8.842E+00
     8.804E+00    8.766E+00    8.729E+00    8.691E+00    8.653E+00    8.616E+00    8.578E+00    8.540E+00    8.503E+00    8.465E+00
     8.428E+00    8.390E+00    8.353E+00    8.315E+00    8.278E+00    8.240E+00    8.203E+00    8.165E+00    8.128E+00    8.091E+00
     8.054E+00    8.016E+00    7.979E+00    7.942E+00    7.905E+00    7.868E+00    7.831E+00    7.794E+00    7.757E+00    7.720E+00
     7.683E+00    7.647E+00    7.610E+00    7.573E+00    7.536E+00    7.500E+00    7.463E+00    7.427E+00    7.391E+00    7.354E+00
     7.318E+00    7.282E+00    7.245E+00    7.209E+00    7.173E+00    7.137E+00    7.101E+00    7.066E+00    7.030E+00    6.994E+00
     6.959E+00    6.923E+00    6.888E+00    6.852E+00    6.817E+00    6.782E+00    6.746E+00    6.711E+00    6.676E+00    6.642E+00
     6.607E+00    6.572E+00    6.537E+00    6.503E+00    6.468E+00    6.434E+00    6.400E+00    6.366E+00    6.331E+00    6.297E+00
     6.264E+00    6.230E+00    6.196E+00    6.162E+00    6.129E+00    6.096E+00    6.062E+00    6.029E+00    5.996E+00    5.963E+00
     5.930E+00    5.898E+00    5.865E+00    5.832E+00    5.800E+00    5.768E+00    5.735E+00    5.703E+00    5.671E+00    5.640E+00
     5.608E+00    5.576E+00    5.545E+00    5.513E+00    5.482E+00    5.451E+00    5.420E+00    5.389E+00    5.358E+00    5.327E+00
     5.297E+00    5.266E+00    5.236E+00    5.206E+00    5.176E+00    5.146E+00    5.116E+00    5.086E+00    5.057E+00    5.027E+00
     4.998E+00    4.969E+00    4.939E+00    4.910E+00    4.882E+00    4.853E+00    4.824E+00    4.796E+00    4.768E+00    4.740E+00
     4.712E+00    4.684E+00    4.656E+00    4.628E+00    4.601E+00    4.573E+00    4.546E+00    4.519E+00    4.492E+00    4.465E+00
     4.438E+00    4.412E+00    4.385E+00    4.359E+00    4.333E+00    4.307E+00    4.281E+00    4.255E+00    4.229E+00    4.204E+00
     4.179E+00    4.153E+00    4.128E+00    4.103E+00    4.078E+00    4.053E+00    4.029E+00    4.004E+00    3.980E+00    3.956E+00
     3.932E+00    3.908E+00    3.884E+00    3.860E+00    3.836E+00    3.813E+00    3.790E+00    3.766E+00    3.743E+00    3.720E+00
     3.698E+00    3.675E+00    3.652E+00    3.630E+00    3.608E+00    3.585E+00    3.563E+00    3.541E+00    3.520E+00    3.498E+00
     3.476E+00    3.455E+00    3.434E+00    3.412E+00    3.391E+00    3.370E+00    3.350E+00    3.329E+00    3.308E+00    3.288E+00
     3.267E+00    3.247E+00    3.227E+00    3.207E+00    3.187E+00    3.168E+00    3.148E+00    3.128E+00    3.109E+00    3.090E+00
     3.070E+00    3.051E+00    3.032E+00    3.014E+00    2.995E+00    2.976E+00    2.958E+00    2.939E+00    2.921E+00    2.903E+00
     2.885E+00    2.867E+00    2.849E+00    2.831E+00    2.814E+00    2.796E+00    2.779E+00    2.761E+00    2.744E+00    2.727E+00
     2.710E+00    2.693E+00    2.677E+00    2.660E+00    2.643E+00    2.627E+00    2.610E+00    2.594E+00    2.578E+00    2.562E+00
     2.546E+00    2.530E+00    2.514E+00    2.499E+00    2.483E+00    2.468E+00    2.452E+00    2.437E+00    2.422E+00    2.407E+00
     2.392E+00    2.377E+00    2.363E+00    2.348E+00    2.333E+00    2.319E+00    2.305E+00    2.290E+00    2.276E+00    2.262E+00
     2.248E+00    2.234E+00    2.221E+00    2.207E+00    2.194E+00    2.180E+00    2.167E+00    2.154E+00    2.140E+00    2.127E+00
     2.114E+00    2.101E+00    2.089E+00    2.076E+00    2.064E+00    2.051E+00    2.039E+00    2.026E+00    2.014E+00    2.002E+00
     1.990E+00    1.978E+00    1.966E+00    1.955E+00    1.943E+00    1.932E+00    1.920E+00    1.909E+00    1.898E+00    1.886E+00
     1.875E+00    1.864E+00    1.853E+00    1.843E+00    1.832E+00    1.821E+00    1.811E+00    1.800E+00    1.790E+00    1.780E+00
     1.770E+00    1.760E+00    1.750E+00    1.740E+00    1.730E+00    1.720E+00    1.711E+00    1.701E+00    1.692E+00    1.682E+00
     1.673E+00    1.664E+00    1.655E+00    1.646E+00    1.637E+00    1.628E+00    1.619E+00    1.610E+00    1.602E+00    1.593E+00
     1.585E+00    1.576E+00    1.568E+00    1.560E+00    1.552E+00    1.544E+00    1.536E+00    1.528E+00    1.520E+00    1.513E+00
     1.505E+00    1.497E+00    1.490E+00    1.483E+00    1.475E+00    1.468E+00    1.461E+00    1.454E+00    1.447E+00    1.440E+00
     1.433E+00    1.427E+00    1.420E+00    1.414E+00    1.407E+00    1.401E+00    1.394E+00    1.388E+00    1.382E+00    1.376E+00
     1.370E+00    1.364E+00    1.358E+00    1.352E+00    1.347E+00    1.341E+00    1.336E+00    1.330E+00    1.325E+00    1.319E+00
     1.314E+00    1.309E+00    1.304E+00    1.299E+00    1.294E+00    1.289E+00    1.285E+00    1.280E+00    1.275E+00    1.271E+00
     1.266E+00    1.262E+00    1.257E+00    1.253E+00    1.249E+00    1.245E+00    1.241E+00    1.237E+00    1.233E+00    1.229E+00
     1.225E+00    1.221E+00    1.218E+00    1.214E+00    1.210E+00    1.207E+00    1.203E+00    1.200E+00    1.197E+00    1.193E+00
     1.190E+00    1.187E+00    1.184E+00    1.180E+00    1.177E+00    1.174E+00    1.171E+00    1.168E+00    1.166E+00    1.163E+00
     1.160E+00    1.157E+00    1.155E+00    1.152E+00    1.149E+00    1.147E+00    1.144E+00    1.142E+00    1.139E+00    1.137E+00
     1.134E+00    1.132E+00    1.130E+00    1.127E+00    1.125E+00    1.123E+00    1.121E+00    1.118E+00    1.116E+00    1.114E+00
     1.112E+00    1.110E+00    1.108E+00    1.106E+00    1.104E+00    1.102E+00    1.100E+00    1.098E+00    1.096E+00    1.094E+00
     1.093E+00    1.091E+00    1.089E+00    1.087E+00    1.085E+00    1.084E+00    1.082E+00    1.080E+00    1.079E+00    1.077E+00
     1.075E+00    1.074E+00    1.072E+00    1.071E+00    1.069E+00    1.067E+00    1.066E+00    1.064E+00    1.063E+00    1.061E+00
     1.060E+00    1.058E+00    1.057E+00    1.055E+00    1.054E+00    1.052E+00    1.051E+00    1.049E+00    1.048E+00    1.046E+00
     1.045E+00    1.044E+00    1.042E+00    1.041E+00    1.039E+00    1.038E+00    1.037E+00    1.035E+00    1.034E+00    1.032E+00
     1.031E+00    1.030E+00    1.028E+00    1.027E+00    1.026E+00    1.024E+00    1.023E+00    1.022E+00    1.020E+00    1.019E+00
     1.017E+00    1.016E+00    1.015E+00    1.013E+00    1.012E+00    1.011E+00    1.009E+00    1.008E+00    1.007E+00    1.005E+00
     1.004E+00    1.003E+00    1.001E+00    1.000E+00    9.988E-01    9.975E-01    9.961E-01    9.948E-01
 Ala      Conc. = 1.84E+01
