 LCModel (Version 6.3-1L) Copyright: S.W. Provencher.          Ref.: Magn. Reson. Med. 30:672-679 (1993).                
 Slice#1 Row#11 Col#4  PD_05_press_1_raw_act
 36 lines in following concentration table = NCONC+1
    Conc.  %SD /Cr+PCr  Metabolite                                         
   71.906  84%   0.142 Ala                                                 
   30.798 321% 6.1E-02 Asp                                                 
   12.089 999% 2.4E-02 Cr                                                  
  494.614  28%   0.976 PCr                                                 
    1.178 999% 2.3E-03 GABA                                                
   15.034 420% 3.0E-02 Glc                                                 
  326.280  39%   0.644 Gln                                                 
  659.622  22%   1.302 Glu                                                 
  128.105   9%   0.253 GPC                                                 
    0.000 999%   0.000 PCh                                                 
  199.948  20%   0.395 GSH                                                 
  585.391  22%   1.155 Ins                                                 
    0.000 999%   0.000 Lac                                                 
 1.00E+03   6%   1.981 NAA                                                 
  183.598  34%   0.362 NAAG                                                
   35.146  37% 6.9E-02 Scyllo                                              
  169.307  53%   0.334 Tau                                                 
  216.052  26%   0.426 -CrCH2                                              
  128.105   9%   0.253 GPC+PCh                                             
 1.19E+03   4%   2.343 NAA+NAAG                                            
  506.703   6%   1.000 Cr+PCr                                              
  985.902  21%   1.946 Glu+Gln                                             
 2.30E+03  18%   4.542 Lip13a                                              
    0.000 999%   0.000 Lip13b                                              
  287.507  71%   0.567 Lip09                                               
  616.721  32%   1.217 MM09                                                
  240.354  67%   0.474 Lip20                                               
 1.13E+03  20%   2.236 MM20                                                
  253.364  43%   0.500 MM12                                                
  498.089  44%   0.983 MM14                                                
  342.308  31%   0.676 MM17                                                
 2.30E+03  18%   4.542 Lip13a+Lip13b                                       
 3.05E+03   9%   6.025 MM14+Lip13a+Lip13b+MM12                             
  904.228  12%   1.785 MM09+Lip09                                          
 1.37E+03  15%   2.710 MM20+Lip20                                          
   6 lines in following misc. output table
  FWHM = 0.054 ppm    S/N =  10                                            
  Data shift =-0.008 ppm                                                   
  Ph: -11 deg       4.3 deg/ppm                                            
  alphaB,S = 8.5E+01,   1.4E+02                                            
   14 spline knots.   Ns = 7(1)                                            
   3 inflections.     1 extrema                                            
  498 points on ppm-axis = NY
      4.000000     3.992357     3.984714     3.977070     3.969427     3.961784     3.954141     3.946497     3.938854     3.931211
      3.923568     3.915925     3.908281     3.900638     3.892995     3.885352     3.877708     3.870065     3.862422     3.854779
      3.847136     3.839492     3.831849     3.824206     3.816563     3.808919     3.801276     3.793633     3.785990     3.778347
      3.770703     3.763060     3.755417     3.747774     3.740130     3.732487     3.724844     3.717201     3.709558     3.701914
      3.694271     3.686628     3.678985     3.671341     3.663698     3.656055     3.648412     3.640769     3.633125     3.625482
      3.617839     3.610196     3.602552     3.594909     3.587266     3.579623     3.571980     3.564336     3.556693     3.549050
      3.541407     3.533763     3.526120     3.518477     3.510834     3.503191     3.495547     3.487904     3.480261     3.472618
      3.464974     3.457331     3.449688     3.442045     3.434402     3.426758     3.419115     3.411472     3.403829     3.396185
      3.388542     3.380899     3.373256     3.365613     3.357969     3.350326     3.342683     3.335040     3.327396     3.319753
      3.312110     3.304467     3.296824     3.289180     3.281537     3.273894     3.266251     3.258607     3.250964     3.243321
      3.235678     3.228034     3.220391     3.212748     3.205105     3.197462     3.189818     3.182175     3.174532     3.166889
      3.159245     3.151602     3.143959     3.136316     3.128673     3.121029     3.113386     3.105743     3.098100     3.090456
      3.082813     3.075170     3.067527     3.059884     3.052240     3.044597     3.036954     3.029311     3.021667     3.014024
      3.006381     2.998738     2.991095     2.983451     2.975808     2.968165     2.960522     2.952878     2.945235     2.937592
      2.929949     2.922306     2.914662     2.907019     2.899376     2.891733     2.884089     2.876446     2.868803     2.861160
      2.853517     2.845873     2.838230     2.830587     2.822944     2.815300     2.807657     2.800014     2.792371     2.784728
      2.777084     2.769441     2.761798     2.754155     2.746511     2.738868     2.731225     2.723582     2.715939     2.708295
      2.700652     2.693009     2.685366     2.677722     2.670079     2.662436     2.654793     2.647150     2.639506     2.631863
      2.624220     2.616577     2.608933     2.601290     2.593647     2.586004     2.578361     2.570717     2.563074     2.555431
      2.547788     2.540144     2.532501     2.524858     2.517215     2.509572     2.501928     2.494285     2.486642     2.478999
      2.471355     2.463712     2.456069     2.448426     2.440783     2.433139     2.425496     2.417853     2.410210     2.402566
      2.394923     2.387280     2.379637     2.371994     2.364350     2.356707     2.349064     2.341421     2.333777     2.326134
      2.318491     2.310848     2.303205     2.295561     2.287918     2.280275     2.272632     2.264988     2.257345     2.249702
      2.242059     2.234416     2.226772     2.219129     2.211486     2.203843     2.196199     2.188556     2.180913     2.173270
      2.165627     2.157983     2.150340     2.142697     2.135054     2.127410     2.119767     2.112124     2.104481     2.096838
      2.089194     2.081551     2.073908     2.066265     2.058621     2.050978     2.043335     2.035692     2.028049     2.020405
      2.012762     2.005119     1.997476     1.989833     1.982190     1.974546     1.966903     1.959260     1.951617     1.943974
      1.936331     1.928688     1.921045     1.913402     1.905759     1.898115     1.890472     1.882829     1.875186     1.867543
      1.859900     1.852257     1.844614     1.836971     1.829327     1.821684     1.814041     1.806398     1.798755     1.791112
      1.783469     1.775826     1.768183     1.760540     1.752896     1.745253     1.737610     1.729967     1.722324     1.714681
      1.707038     1.699395     1.691752     1.684108     1.676465     1.668822     1.661179     1.653536     1.645893     1.638250
      1.630607     1.622964     1.615321     1.607677     1.600034     1.592391     1.584748     1.577105     1.569462     1.561819
      1.554176     1.546533     1.538890     1.531246     1.523603     1.515960     1.508317     1.500674     1.493031     1.485388
      1.477745     1.470102     1.462458     1.454815     1.447172     1.439529     1.431886     1.424243     1.416600     1.408957
      1.401314     1.393671     1.386027     1.378384     1.370741     1.363098     1.355455     1.347812     1.340169     1.332526
      1.324883     1.317240     1.309596     1.301953     1.294310     1.286667     1.279024     1.271381     1.263738     1.256095
      1.248452     1.240808     1.233165     1.225522     1.217879     1.210236     1.202593     1.194950     1.187307     1.179664
      1.172021     1.164377     1.156734     1.149091     1.141448     1.133805     1.126162     1.118519     1.110876     1.103233
      1.095590     1.087946     1.080303     1.072660     1.065017     1.057374     1.049731     1.042088     1.034445     1.026802
      1.019158     1.011515     1.003872     0.996229     0.988586     0.980943     0.973300     0.965657     0.958014     0.950371
      0.942727     0.935084     0.927441     0.919798     0.912155     0.904512     0.896869     0.889226     0.881583     0.873940
      0.866296     0.858653     0.851010     0.843367     0.835724     0.828081     0.820438     0.812795     0.805152     0.797508
      0.789865     0.782222     0.774579     0.766936     0.759293     0.751650     0.744007     0.736364     0.728721     0.721077
      0.713434     0.705791     0.698148     0.690505     0.682862     0.675219     0.667576     0.659933     0.652290     0.644646
      0.637003     0.629360     0.621717     0.614074     0.606431     0.598788     0.591145     0.583502     0.575858     0.568215
      0.560572     0.552929     0.545286     0.537643     0.530000     0.522357     0.514714     0.507071     0.499427     0.491784
      0.484141     0.476498     0.468855     0.461212     0.453569     0.445925     0.438282     0.430639     0.422996     0.415353
      0.407710     0.400067     0.392424     0.384780     0.377137     0.369494     0.361851     0.354208     0.346565     0.338922
      0.331278     0.323635     0.315992     0.308349     0.300706     0.293063     0.285420     0.277777     0.270133     0.262490
      0.254847     0.247204     0.239561     0.231918     0.224275     0.216631     0.208988     0.201345
 NY phased data points follow
  -8.02789E+00 -6.68392E+00 -8.10187E+00 -4.34478E+00 -6.15629E+00 -5.40783E+00 -3.39642E+00 -1.75132E+00 -4.05191E-01  2.55017E-01
   9.21048E-01  1.97088E+00 -5.09944E+00 -5.52744E-02 -1.70760E+00 -3.32860E+00 -2.95437E+00 -6.14676E+00 -5.64898E+00 -6.40767E+00
  -3.71506E+00 -3.72699E+00 -4.25830E+00 -1.92411E+00 -6.51893E+00 -3.28762E+00 -4.86125E+00 -2.66614E+00 -2.70236E+00 -7.55861E-01
  -7.46106E-01 -1.19086E+00 -3.82682E+00  1.14304E+00 -3.31473E+00 -3.11310E+00 -3.43392E+00 -6.30378E+00 -6.18690E+00 -4.98967E+00
  -4.37095E+00 -4.76761E+00 -3.08305E+00 -1.89372E+00 -2.55914E+00  1.06138E+00 -2.23566E+00 -5.55825E-01 -2.80563E+00 -2.47636E+00
  -5.18269E+00 -3.48952E+00 -3.90906E+00 -5.27543E+00 -3.96515E+00 -3.43741E+00 -1.85699E+00 -1.10163E+00 -3.42979E+00 -4.32480E+00
  -5.20513E+00 -3.06791E+00 -4.67089E+00 -4.90815E+00 -8.04471E+00 -6.47392E+00 -9.18009E+00 -6.69287E+00 -4.94357E+00 -6.76704E+00
  -4.39980E+00 -2.89666E-01 -2.56791E+00 -6.09724E-01 -6.55928E+00 -6.26869E+00 -7.10275E+00 -6.22610E+00 -5.73910E+00 -6.13082E+00
  -4.95546E+00 -6.16660E+00 -3.57992E+00 -3.03445E+00 -5.80942E+00 -4.86856E+00 -4.49578E+00 -5.10470E+00 -5.90187E+00 -3.85932E+00
  -3.34392E+00 -3.45893E+00 -3.69048E+00 -2.66630E+00 -2.02517E+00 -2.63599E+00 -3.99494E+00 -2.34996E+00 -2.22973E+00  8.17240E-01
   2.03356E-01  3.79383E+00  4.28292E+00  6.23526E+00  7.41060E+00  3.83961E+00  2.68588E-01 -2.00555E+00  8.22525E-01 -1.03051E+00
  -2.80980E+00 -9.23866E-01 -4.00964E+00 -3.79109E+00 -2.73607E+00 -9.11893E-01 -2.19766E+00 -4.48576E+00 -1.10763E+00 -4.28109E+00
  -4.37780E+00 -4.11027E+00 -1.14471E+00  2.14116E+00  5.03968E+00  1.01276E+01  1.07434E+01  1.18974E+01  8.37302E+00  1.16804E+01
   7.56198E+00  3.74364E+00  2.09504E+00  5.83261E-02 -2.91552E+00  1.91616E+00 -1.75259E+00 -3.71232E+00 -4.14920E+00 -3.45958E+00
  -2.48319E+00 -2.47018E+00 -4.96859E+00 -6.10118E+00 -3.39959E+00 -1.76554E+00 -3.23916E+00 -8.50980E-01 -6.02923E+00 -2.29248E+00
  -4.25391E+00 -5.51272E+00 -5.61285E+00 -4.77640E+00 -5.95909E+00 -4.68889E+00 -3.00771E+00 -4.50122E+00 -5.49693E+00 -6.84483E+00
  -5.99423E+00 -3.50934E+00 -5.24850E+00 -4.52168E+00 -5.69570E+00 -4.95542E+00 -6.12735E+00 -4.28729E+00 -6.92291E+00 -7.38470E+00
  -9.10578E+00 -6.52439E+00 -8.69446E+00 -1.20402E+01 -1.10816E+01 -1.05763E+01 -7.53418E+00 -1.29812E+01 -8.42988E+00 -1.00768E+01
  -1.01014E+01 -9.04372E+00 -8.92339E+00 -1.16255E+01 -7.64380E+00 -3.25472E+00 -6.61247E+00 -6.49999E+00 -6.76114E+00 -8.02934E+00
  -6.85662E+00 -5.03634E+00 -7.60356E+00 -5.92930E+00 -6.94724E+00 -8.43997E+00 -8.53276E+00 -8.33552E+00 -9.05553E+00 -7.47658E+00
  -6.63947E+00 -4.24819E+00 -6.31757E+00 -5.16923E+00 -4.46198E+00 -3.05391E+00 -4.80926E+00 -6.45747E+00 -5.67280E+00 -5.14505E+00
  -4.05930E+00 -3.28476E+00 -4.76008E-01 -1.43338E+00  5.99031E-01 -1.07889E+00 -2.35919E-01 -6.56798E-01 -2.99070E+00 -2.44330E+00
  -6.01721E+00 -7.48817E+00 -6.50954E+00 -3.43607E+00 -4.78906E+00 -4.24986E+00 -3.86942E+00  1.19451E+00 -2.08591E-01  1.12595E+00
  -3.06784E+00 -2.92145E+00 -2.02905E+00 -1.93433E+00 -1.55714E+00  2.55893E-01  3.36000E-01  8.39325E-01 -4.54459E+00  1.33749E-02
  -2.23011E+00 -1.74720E+00 -1.94470E+00 -1.51698E+00 -3.26957E+00 -3.25414E-01 -2.31167E+00 -1.20136E+00  1.66580E+00  4.79586E-01
   2.28806E+00  6.18585E+00  6.82867E+00  9.67514E+00  9.80891E+00  1.36329E+01  1.61789E+01  2.38552E+01  3.16714E+01  3.44004E+01
   3.68462E+01  3.68001E+01  2.92725E+01  2.64175E+01  1.45398E+01  4.87335E+00  3.94513E+00  3.43918E+00  4.53403E+00  3.14865E+00
  -2.10904E+00  8.49613E-01 -3.94664E+00 -2.73476E+00 -1.95188E+00 -1.73011E+00 -1.52881E+00 -4.18781E+00 -3.35491E+00 -2.28358E+00
  -4.11689E+00 -2.00460E+00 -4.77392E+00 -3.39829E+00 -5.33664E+00 -2.87076E+00 -1.50488E-01 -2.53814E+00 -4.31558E+00 -2.45148E+00
  -4.31417E+00 -6.92226E+00 -4.02725E+00 -4.18136E+00 -5.12238E+00 -2.98309E+00 -4.76801E+00 -2.30186E+00 -4.17357E+00 -1.64359E+00
  -9.55411E-01 -1.63456E+00 -2.52787E+00 -2.44590E+00 -1.27306E+00 -2.69301E+00 -2.28529E+00  1.90524E+00  1.48355E+00 -6.86959E-01
   6.17119E-01  5.80997E-01  3.38801E+00  7.22344E-02 -3.04993E-01  1.36844E+00 -1.66440E+00 -2.37074E-01  6.86632E-01 -1.48297E+00
  -1.41240E+00  2.52692E+00  5.57771E-01 -4.37497E-01  1.46494E+00  4.77073E-01  2.06154E+00 -4.74644E-01 -3.35427E-01 -1.57389E+00
  -4.46533E-01  3.52262E+00  3.12915E+00 -1.13632E+00 -1.55580E+00  1.49748E-01  1.77600E+00  4.72428E+00  2.12362E+00  4.14854E+00
   2.39477E+00  4.30979E+00  2.70767E+00  5.16754E+00  4.38368E+00  3.70230E+00  5.41479E+00  4.67433E+00  4.54204E+00  5.88454E+00
   5.97473E+00  3.80254E+00  5.18152E+00  5.37041E+00  5.14772E+00  8.13285E+00  5.27772E+00  3.90371E+00  3.56327E+00  7.94026E+00
   5.17735E+00  3.40863E+00  4.94537E+00  5.63061E+00  6.94486E+00  2.43595E+00  2.42054E+00  7.19400E+00  6.51042E+00  6.15865E+00
   7.42116E+00  7.72756E+00  4.35421E+00  7.60398E+00  3.94158E+00  5.38266E+00  5.60099E+00  1.91265E+00  3.31701E+00  3.18080E+00
   1.53292E+00  2.71901E+00  3.10661E+00  1.84295E+00  1.19481E+00  4.22611E+00 -1.28543E-01  1.41477E+00  1.68082E+00  4.33234E+00
   2.84493E+00 -1.13080E+00  2.06228E+00  2.22990E+00  1.76191E+00  2.19806E+00  3.49544E+00  4.29456E+00  3.45384E+00  2.86296E+00
   2.55412E+00  3.91618E+00  1.65010E+00  6.37423E+00  3.41088E+00  4.69805E+00  3.57148E+00  3.46886E+00  1.99002E+00  5.14007E+00
   2.49338E+00  2.60954E+00  2.52915E+00  1.99748E+00  2.44451E+00  5.81258E-01  1.95993E+00  9.51001E-02  2.37408E-01  1.08013E+00
   9.57166E-01 -1.28951E+00  3.31677E-02 -8.75818E-01 -2.91766E+00 -1.36211E+00 -8.22773E-01 -1.42252E+00 -1.84451E+00 -3.87939E+00
  -4.74016E-01 -2.62257E+00 -3.16473E-01  2.87920E-01 -6.06812E-01  1.46112E-01 -1.68940E+00 -3.34771E+00 -2.16534E+00 -3.49404E+00
  -1.78792E+00 -1.21476E+00 -1.16624E+00 -2.62849E+00 -3.19070E+00 -2.63158E+00 -3.93725E+00 -1.73135E+00 -2.46236E+00 -4.25608E+00
   8.62955E-01 -3.84581E+00 -3.73274E+00 -2.51003E+00 -2.54100E+00 -1.83211E+00 -8.43878E-01 -3.61276E+00 -1.33517E+00 -2.37836E+00
  -2.40675E+00 -1.54976E+00 -3.66310E-01 -2.95682E+00 -6.24235E-01 -3.95195E-01 -3.43030E+00 -2.57923E+00 -3.82864E+00  1.18619E+00
   1.69005E+00 -3.44575E+00 -6.11848E-01 -1.81207E+00 -3.45168E+00 -2.23050E+00 -2.41766E+00  9.05926E-01 -4.23101E+00 -3.19930E+00
  -9.73304E-01 -1.77569E+00 -2.94097E+00 -2.87775E+00 -2.16187E+00 -2.62482E+00 -2.10854E+00 -1.11428E+00 -5.05136E+00 -5.83269E-02
  -3.26353E+00  3.81761E-02  1.15026E+00 -6.27381E-01 -3.69819E+00 -1.30324E+00 -2.07181E+00 -2.78555E+00
 NY points of the fit to the data follow
  -5.91466E+00 -6.07946E+00 -6.13157E+00 -5.88634E+00 -5.30149E+00 -4.36008E+00 -3.09393E+00 -1.68324E+00 -4.17448E-01  4.47857E-01
   7.49958E-01  4.27793E-01 -4.47250E-01 -1.66420E+00 -2.86124E+00 -3.70752E+00 -4.15564E+00 -4.45860E+00 -4.78089E+00 -4.90090E+00
  -4.91884E+00 -4.97644E+00 -5.09552E+00 -5.17245E+00 -5.12419E+00 -4.83971E+00 -4.20714E+00 -3.23046E+00 -2.06107E+00 -9.40212E-01
  -1.12408E-01  1.96918E-01 -1.46863E-01 -1.07173E+00 -2.30307E+00 -3.50362E+00 -4.44506E+00 -5.11372E+00 -5.52541E+00 -5.56147E+00
  -5.21739E+00 -4.58828E+00 -3.77328E+00 -2.86456E+00 -2.00306E+00 -1.37951E+00 -1.12539E+00 -1.31918E+00 -1.94990E+00 -2.86217E+00
  -3.86612E+00 -4.72381E+00 -5.22547E+00 -5.36154E+00 -5.28192E+00 -5.08761E+00 -4.77604E+00 -4.41355E+00 -4.13771E+00 -4.02790E+00
  -4.08554E+00 -4.28347E+00 -4.55233E+00 -4.81697E+00 -4.98298E+00 -4.99550E+00 -4.89344E+00 -4.73941E+00 -4.55082E+00 -4.35310E+00
  -4.16922E+00 -4.01271E+00 -3.90724E+00 -3.88914E+00 -3.98414E+00 -4.17716E+00 -4.42707E+00 -4.68906E+00 -4.90184E+00 -5.02038E+00
  -4.98245E+00 -4.80904E+00 -4.57965E+00 -4.39379E+00 -4.30702E+00 -4.33495E+00 -4.47568E+00 -4.69167E+00 -4.93754E+00 -5.17226E+00
  -5.36047E+00 -5.45259E+00 -5.45263E+00 -5.43435E+00 -5.43146E+00 -5.34752E+00 -4.88127E+00 -3.84587E+00 -2.26990E+00 -2.18162E-01
   2.07032E+00  4.17123E+00  5.63058E+00  6.14062E+00  5.59257E+00  4.09823E+00  1.98426E+00 -1.97003E-01 -1.90466E+00 -2.99050E+00
  -3.71438E+00 -4.37040E+00 -4.84956E+00 -5.03394E+00 -5.10921E+00 -5.15218E+00 -5.17855E+00 -5.17627E+00 -5.12702E+00 -4.96986E+00
  -4.41771E+00 -3.07155E+00 -9.27173E-01  1.94498E+00  5.25775E+00  8.42130E+00  1.07838E+01  1.18890E+01  1.15223E+01  9.76349E+00
   7.01481E+00  3.93255E+00  1.24452E+00 -6.79810E-01 -2.05183E+00 -3.25320E+00 -4.19896E+00 -4.54740E+00 -4.52073E+00 -4.30376E+00
  -4.03859E+00 -3.84497E+00 -3.76554E+00 -3.78359E+00 -3.88322E+00 -4.02881E+00 -4.17817E+00 -4.32365E+00 -4.47024E+00 -4.61542E+00
  -4.75676E+00 -4.86863E+00 -4.94362E+00 -4.98067E+00 -5.00338E+00 -5.04388E+00 -5.12269E+00 -5.25537E+00 -5.41617E+00 -5.56961E+00
  -5.68762E+00 -5.73600E+00 -5.71303E+00 -5.66091E+00 -5.63186E+00 -5.67313E+00 -5.81663E+00 -6.04287E+00 -6.28696E+00 -6.49762E+00
  -6.68772E+00 -6.87294E+00 -7.06590E+00 -7.26133E+00 -7.41182E+00 -7.49636E+00 -7.51899E+00 -7.47970E+00 -7.40354E+00 -7.32712E+00
  -7.28907E+00 -7.30738E+00 -7.32536E+00 -7.25730E+00 -7.03517E+00 -6.65508E+00 -6.17217E+00 -5.60681E+00 -4.99206E+00 -4.41276E+00
  -3.99707E+00 -3.87385E+00 -4.04389E+00 -4.39799E+00 -4.78067E+00 -5.04610E+00 -5.11772E+00 -4.95031E+00 -4.53044E+00 -3.93317E+00
  -3.26707E+00 -2.65758E+00 -2.27518E+00 -2.30440E+00 -2.76083E+00 -3.56869E+00 -4.59176E+00 -5.64166E+00 -6.45116E+00 -6.74057E+00
  -6.40530E+00 -5.51556E+00 -4.27573E+00 -2.97149E+00 -1.94286E+00 -1.48657E+00 -1.71831E+00 -2.54363E+00 -3.76709E+00 -5.14026E+00
  -6.21198E+00 -6.64495E+00 -6.41749E+00 -5.68909E+00 -4.66577E+00 -3.52752E+00 -2.54280E+00 -1.93849E+00 -1.73866E+00 -1.79149E+00
  -1.88310E+00 -1.92182E+00 -1.88365E+00 -1.70469E+00 -1.36468E+00 -9.87414E-01 -7.31898E-01 -6.79821E-01 -8.26862E-01 -1.10537E+00
  -1.44303E+00 -1.72714E+00 -1.81749E+00 -1.64504E+00 -1.26300E+00 -7.97599E-01 -3.21347E-01  1.12008E-01  5.32581E-01  1.13293E+00
   2.02458E+00  3.21631E+00  4.65512E+00  6.66322E+00  9.94293E+00  1.43271E+01  1.96466E+01  2.54865E+01  3.08351E+01  3.45140E+01
   3.57497E+01  3.41927E+01  2.99032E+01  2.35241E+01  1.64668E+01  1.05592E+01  6.66584E+00  4.23291E+00  2.17050E+00  3.69122E-01
  -4.18909E-01 -7.55751E-01 -9.76329E-01 -1.14290E+00 -1.29640E+00 -1.46737E+00 -1.65246E+00 -1.84569E+00 -2.03076E+00 -2.18857E+00
  -2.31196E+00 -2.41173E+00 -2.49780E+00 -2.57223E+00 -2.63704E+00 -2.69707E+00 -2.75527E+00 -2.80517E+00 -2.83659E+00 -2.84544E+00
  -2.83401E+00 -2.80395E+00 -2.75711E+00 -2.69692E+00 -2.62752E+00 -2.54944E+00 -2.45940E+00 -2.35242E+00 -2.22497E+00 -2.07727E+00
  -1.91126E+00 -1.72853E+00 -1.53353E+00 -1.33263E+00 -1.13209E+00 -9.36807E-01 -7.50294E-01 -5.76370E-01 -4.19469E-01 -2.82048E-01
  -1.65986E-01 -7.25521E-02 -1.46523E-03  4.88342E-02  8.11767E-02  9.95760E-02  1.09245E-01  1.16689E-01  1.30491E-01  1.63841E-01
   2.38097E-01  3.50791E-01  4.76772E-01  5.92735E-01  6.63342E-01  6.53874E-01  5.50338E-01  3.62585E-01  1.39116E-01 -3.87347E-02
  -1.01202E-01  1.24239E-02  3.21123E-01  7.74105E-01  1.28262E+00  1.77962E+00  2.23905E+00  2.62196E+00  2.89127E+00  3.06725E+00
   3.20409E+00  3.35339E+00  3.52686E+00  3.70062E+00  3.87361E+00  4.06995E+00  4.28191E+00  4.50162E+00  4.72453E+00  4.94686E+00
   5.16502E+00  5.37529E+00  5.57396E+00  5.75718E+00  5.92111E+00  6.06196E+00  6.17622E+00  6.26077E+00  6.31307E+00  6.33114E+00
   6.31368E+00  6.26009E+00  6.17062E+00  6.04632E+00  5.88907E+00  5.70137E+00  5.48638E+00  5.24772E+00  4.98953E+00  4.71624E+00
   4.43251E+00  4.14299E+00  3.85230E+00  3.56490E+00  3.28516E+00  3.01712E+00  2.76454E+00  2.53074E+00  2.31875E+00  2.13118E+00
   1.97038E+00  1.83826E+00  1.73640E+00  1.66589E+00  1.62749E+00  1.62149E+00  1.64780E+00  1.70572E+00  1.79397E+00  1.91057E+00
   2.05294E+00  2.21774E+00  2.40099E+00  2.59793E+00  2.80319E+00  3.01082E+00  3.21462E+00  3.40815E+00  3.58506E+00  3.73916E+00
   3.86484E+00  3.95717E+00  4.01229E+00  4.02737E+00  4.00088E+00  3.93245E+00  3.82306E+00  3.67483E+00  3.49105E+00  3.27582E+00
   3.03395E+00  2.77058E+00  2.49117E+00  2.20110E+00  1.90563E+00  1.60954E+00  1.31714E+00  1.03205E+00  7.57345E-01  4.95383E-01
   2.47965E-01  1.61899E-02 -1.99323E-01 -3.98473E-01 -5.81434E-01 -7.48727E-01 -9.01039E-01 -1.03931E+00 -1.16452E+00 -1.27772E+00
  -1.37990E+00 -1.47206E+00 -1.55513E+00 -1.63009E+00 -1.69773E+00 -1.75886E+00 -1.81410E+00 -1.86409E+00 -1.90936E+00 -1.95046E+00
  -1.98780E+00 -2.02179E+00 -2.05270E+00 -2.08087E+00 -2.10655E+00 -2.13003E+00 -2.15148E+00 -2.17109E+00 -2.18899E+00 -2.20535E+00
  -2.22029E+00 -2.23398E+00 -2.24647E+00 -2.25787E+00 -2.26821E+00 -2.27762E+00 -2.28616E+00 -2.29393E+00 -2.30093E+00 -2.30722E+00
  -2.31283E+00 -2.31784E+00 -2.32229E+00 -2.32622E+00 -2.32962E+00 -2.33254E+00 -2.33499E+00 -2.33705E+00 -2.33872E+00 -2.34003E+00
  -2.34095E+00 -2.34153E+00 -2.34178E+00 -2.34176E+00 -2.34145E+00 -2.34088E+00 -2.34001E+00 -2.33889E+00 -2.33754E+00 -2.33601E+00
  -2.33424E+00 -2.33228E+00 -2.33008E+00 -2.32771E+00 -2.32517E+00 -2.32249E+00 -2.31963E+00 -2.31660E+00 -2.31340E+00 -2.31007E+00
  -2.30662E+00 -2.30305E+00 -2.29933E+00 -2.29548E+00 -2.29149E+00 -2.28741E+00 -2.28323E+00 -2.27895E+00
 NY background values follow
    -7.088E+00   -7.079E+00   -7.070E+00   -7.061E+00   -7.052E+00   -7.043E+00   -7.034E+00   -7.025E+00   -7.016E+00   -7.007E+00
    -6.998E+00   -6.989E+00   -6.980E+00   -6.971E+00   -6.962E+00   -6.953E+00   -6.944E+00   -6.935E+00   -6.926E+00   -6.917E+00
    -6.908E+00   -6.899E+00   -6.890E+00   -6.881E+00   -6.872E+00   -6.863E+00   -6.854E+00   -6.845E+00   -6.836E+00   -6.827E+00
    -6.818E+00   -6.809E+00   -6.800E+00   -6.791E+00   -6.782E+00   -6.773E+00   -6.764E+00   -6.755E+00   -6.747E+00   -6.738E+00
    -6.729E+00   -6.720E+00   -6.711E+00   -6.702E+00   -6.693E+00   -6.684E+00   -6.675E+00   -6.666E+00   -6.657E+00   -6.648E+00
    -6.639E+00   -6.630E+00   -6.621E+00   -6.612E+00   -6.603E+00   -6.594E+00   -6.585E+00   -6.576E+00   -6.567E+00   -6.558E+00
    -6.549E+00   -6.540E+00   -6.531E+00   -6.522E+00   -6.513E+00   -6.504E+00   -6.495E+00   -6.486E+00   -6.477E+00   -6.468E+00
    -6.459E+00   -6.450E+00   -6.441E+00   -6.432E+00   -6.423E+00   -6.414E+00   -6.405E+00   -6.396E+00   -6.387E+00   -6.378E+00
    -6.369E+00   -6.360E+00   -6.351E+00   -6.342E+00   -6.333E+00   -6.324E+00   -6.315E+00   -6.306E+00   -6.297E+00   -6.288E+00
    -6.279E+00   -6.270E+00   -6.261E+00   -6.252E+00   -6.243E+00   -6.234E+00   -6.225E+00   -6.216E+00   -6.207E+00   -6.198E+00
    -6.189E+00   -6.180E+00   -6.171E+00   -6.162E+00   -6.153E+00   -6.144E+00   -6.135E+00   -6.127E+00   -6.118E+00   -6.109E+00
    -6.100E+00   -6.091E+00   -6.082E+00   -6.073E+00   -6.064E+00   -6.055E+00   -6.046E+00   -6.037E+00   -6.028E+00   -6.019E+00
    -6.010E+00   -6.001E+00   -5.992E+00   -5.983E+00   -5.974E+00   -5.965E+00   -5.956E+00   -5.947E+00   -5.938E+00   -5.929E+00
    -5.920E+00   -5.911E+00   -5.902E+00   -5.893E+00   -5.884E+00   -5.875E+00   -5.866E+00   -5.857E+00   -5.848E+00   -5.839E+00
    -5.830E+00   -5.821E+00   -5.812E+00   -5.803E+00   -5.794E+00   -5.785E+00   -5.776E+00   -5.767E+00   -5.758E+00   -5.749E+00
    -5.740E+00   -5.731E+00   -5.722E+00   -5.713E+00   -5.704E+00   -5.695E+00   -5.686E+00   -5.677E+00   -5.668E+00   -5.659E+00
    -5.650E+00   -5.641E+00   -5.632E+00   -5.623E+00   -5.614E+00   -5.605E+00   -5.596E+00   -5.587E+00   -5.578E+00   -5.569E+00
    -5.560E+00   -5.551E+00   -5.542E+00   -5.533E+00   -5.524E+00   -5.515E+00   -5.506E+00   -5.497E+00   -5.488E+00   -5.479E+00
    -5.470E+00   -5.461E+00   -5.452E+00   -5.444E+00   -5.435E+00   -5.426E+00   -5.417E+00   -5.408E+00   -5.399E+00   -5.390E+00
    -5.381E+00   -5.372E+00   -5.363E+00   -5.354E+00   -5.345E+00   -5.336E+00   -5.327E+00   -5.318E+00   -5.309E+00   -5.300E+00
    -5.291E+00   -5.282E+00   -5.273E+00   -5.264E+00   -5.255E+00   -5.246E+00   -5.237E+00   -5.228E+00   -5.219E+00   -5.210E+00
    -5.201E+00   -5.192E+00   -5.183E+00   -5.174E+00   -5.165E+00   -5.156E+00   -5.147E+00   -5.138E+00   -5.129E+00   -5.120E+00
    -5.111E+00   -5.102E+00   -5.093E+00   -5.084E+00   -5.075E+00   -5.066E+00   -5.057E+00   -5.048E+00   -5.039E+00   -5.030E+00
    -5.021E+00   -5.012E+00   -5.003E+00   -4.994E+00   -4.985E+00   -4.976E+00   -4.967E+00   -4.958E+00   -4.949E+00   -4.940E+00
    -4.931E+00   -4.922E+00   -4.913E+00   -4.904E+00   -4.895E+00   -4.886E+00   -4.877E+00   -4.868E+00   -4.859E+00   -4.850E+00
    -4.841E+00   -4.832E+00   -4.823E+00   -4.814E+00   -4.805E+00   -4.796E+00   -4.787E+00   -4.778E+00   -4.769E+00   -4.760E+00
    -4.751E+00   -4.742E+00   -4.733E+00   -4.724E+00   -4.715E+00   -4.706E+00   -4.697E+00   -4.688E+00   -4.679E+00   -4.670E+00
    -4.661E+00   -4.652E+00   -4.643E+00   -4.634E+00   -4.625E+00   -4.616E+00   -4.607E+00   -4.598E+00   -4.589E+00   -4.580E+00
    -4.571E+00   -4.562E+00   -4.553E+00   -4.544E+00   -4.535E+00   -4.526E+00   -4.517E+00   -4.508E+00   -4.499E+00   -4.490E+00
    -4.481E+00   -4.472E+00   -4.463E+00   -4.454E+00   -4.445E+00   -4.436E+00   -4.427E+00   -4.418E+00   -4.409E+00   -4.400E+00
    -4.391E+00   -4.382E+00   -4.373E+00   -4.364E+00   -4.355E+00   -4.346E+00   -4.337E+00   -4.328E+00   -4.319E+00   -4.310E+00
    -4.301E+00   -4.292E+00   -4.283E+00   -4.274E+00   -4.265E+00   -4.256E+00   -4.247E+00   -4.238E+00   -4.229E+00   -4.220E+00
    -4.211E+00   -4.202E+00   -4.193E+00   -4.184E+00   -4.175E+00   -4.166E+00   -4.157E+00   -4.148E+00   -4.139E+00   -4.130E+00
    -4.121E+00   -4.112E+00   -4.103E+00   -4.094E+00   -4.085E+00   -4.076E+00   -4.067E+00   -4.058E+00   -4.049E+00   -4.040E+00
    -4.031E+00   -4.022E+00   -4.013E+00   -4.004E+00   -3.995E+00   -3.986E+00   -3.977E+00   -3.968E+00   -3.959E+00   -3.950E+00
    -3.941E+00   -3.932E+00   -3.923E+00   -3.914E+00   -3.905E+00   -3.896E+00   -3.887E+00   -3.878E+00   -3.869E+00   -3.860E+00
    -3.851E+00   -3.842E+00   -3.833E+00   -3.824E+00   -3.815E+00   -3.806E+00   -3.797E+00   -3.788E+00   -3.779E+00   -3.770E+00
    -3.761E+00   -3.752E+00   -3.743E+00   -3.734E+00   -3.725E+00   -3.716E+00   -3.707E+00   -3.698E+00   -3.689E+00   -3.680E+00
    -3.671E+00   -3.662E+00   -3.653E+00   -3.644E+00   -3.635E+00   -3.626E+00   -3.617E+00   -3.608E+00   -3.599E+00   -3.590E+00
    -3.581E+00   -3.572E+00   -3.563E+00   -3.554E+00   -3.545E+00   -3.536E+00   -3.527E+00   -3.518E+00   -3.509E+00   -3.500E+00
    -3.491E+00   -3.482E+00   -3.473E+00   -3.464E+00   -3.455E+00   -3.446E+00   -3.437E+00   -3.428E+00   -3.419E+00   -3.410E+00
    -3.401E+00   -3.392E+00   -3.383E+00   -3.374E+00   -3.365E+00   -3.356E+00   -3.347E+00   -3.338E+00   -3.329E+00   -3.320E+00
    -3.311E+00   -3.302E+00   -3.293E+00   -3.284E+00   -3.275E+00   -3.266E+00   -3.257E+00   -3.248E+00   -3.239E+00   -3.230E+00
    -3.221E+00   -3.212E+00   -3.203E+00   -3.194E+00   -3.185E+00   -3.176E+00   -3.167E+00   -3.158E+00   -3.149E+00   -3.140E+00
    -3.131E+00   -3.122E+00   -3.113E+00   -3.104E+00   -3.095E+00   -3.086E+00   -3.077E+00   -3.068E+00   -3.059E+00   -3.050E+00
    -3.041E+00   -3.032E+00   -3.023E+00   -3.014E+00   -3.005E+00   -2.996E+00   -2.987E+00   -2.978E+00   -2.969E+00   -2.960E+00
    -2.951E+00   -2.942E+00   -2.933E+00   -2.924E+00   -2.915E+00   -2.906E+00   -2.897E+00   -2.888E+00   -2.879E+00   -2.870E+00
    -2.861E+00   -2.852E+00   -2.843E+00   -2.834E+00   -2.825E+00   -2.816E+00   -2.807E+00   -2.798E+00   -2.789E+00   -2.780E+00
    -2.771E+00   -2.762E+00   -2.753E+00   -2.744E+00   -2.735E+00   -2.726E+00   -2.717E+00   -2.708E+00   -2.699E+00   -2.690E+00
    -2.681E+00   -2.672E+00   -2.663E+00   -2.654E+00   -2.645E+00   -2.636E+00   -2.627E+00   -2.618E+00
 Ala      Conc. = 7.19E+01
