 LCModel (Version 6.3-1L) Copyright: S.W. Provencher.          Ref.: Magn. Reson. Med. 30:672-679 (1993).                
 Slice#2 Row#10 Col#9  PD_05_press_1_raw_act
 36 lines in following concentration table = NCONC+1
    Conc.  %SD /Cr+PCr  Metabolite                                         
    0.000 999%   0.000 Ala                                                 
    0.000 999%   0.000 Asp                                                 
  294.230  53%   0.220 Cr                                                  
 1.04E+03  16%   0.780 PCr                                                 
    0.000 999%   0.000 GABA                                                
  119.799 108% 9.0E-02 Glc                                                 
  890.479  18%   0.667 Gln                                                 
 1.36E+03  13%   1.017 Glu                                                 
  523.929   4%   0.392 GPC                                                 
    0.000 999%   0.000 PCh                                                 
  295.214  18%   0.221 GSH                                                 
 1.40E+03  14%   1.050 Ins                                                 
   49.862 180% 3.7E-02 Lac                                                 
 2.27E+03   4%   1.701 NAA                                                 
   44.120 222% 3.3E-02 NAAG                                                
  169.392  13%   0.127 Scyllo                                              
   35.872 458% 2.7E-02 Tau                                                 
   52.423 151% 3.9E-02 -CrCH2                                              
  523.929   4%   0.392 GPC+PCh                                             
 2.32E+03   3%   1.734 NAA+NAAG                                            
 1.34E+03   3%   1.000 Cr+PCr                                              
 2.25E+03  11%   1.684 Glu+Gln                                             
    0.000 999%   0.000 Lip13a                                              
  439.751  47%   0.329 Lip13b                                              
    0.000 999%   0.000 Lip09                                               
 1.25E+03  14%   0.936 MM09                                                
   55.696 195% 4.2E-02 Lip20                                               
 3.14E+03  10%   2.350 MM20                                                
  391.884  40%   0.293 MM12                                                
  563.266  42%   0.422 MM14                                                
  469.387  36%   0.351 MM17                                                
  439.751  47%   0.329 Lip13a+Lip13b                                       
 1.39E+03  21%   1.044 MM14+Lip13a+Lip13b+MM12                             
 1.25E+03  14%   0.936 MM09+Lip09                                          
 3.20E+03  10%   2.392 MM20+Lip20                                          
   6 lines in following misc. output table
  FWHM = 0.054 ppm    S/N =  17                                            
  Data shift = 0.023 ppm                                                   
  Ph: -41 deg     -15.4 deg/ppm                                            
  alphaB,S = 1.4E+00,   1.0E+02                                            
   14 spline knots.   Ns = 7(1)                                            
  (11) 4 infls.   ( 5) 1 extrs.                                            
  498 points on ppm-axis = NY
      4.000000     3.992357     3.984714     3.977070     3.969427     3.961784     3.954141     3.946497     3.938854     3.931211
      3.923568     3.915925     3.908281     3.900638     3.892995     3.885352     3.877708     3.870065     3.862422     3.854779
      3.847136     3.839492     3.831849     3.824206     3.816563     3.808919     3.801276     3.793633     3.785990     3.778347
      3.770703     3.763060     3.755417     3.747774     3.740130     3.732487     3.724844     3.717201     3.709558     3.701914
      3.694271     3.686628     3.678985     3.671341     3.663698     3.656055     3.648412     3.640769     3.633125     3.625482
      3.617839     3.610196     3.602552     3.594909     3.587266     3.579623     3.571980     3.564336     3.556693     3.549050
      3.541407     3.533763     3.526120     3.518477     3.510834     3.503191     3.495547     3.487904     3.480261     3.472618
      3.464974     3.457331     3.449688     3.442045     3.434402     3.426758     3.419115     3.411472     3.403829     3.396185
      3.388542     3.380899     3.373256     3.365613     3.357969     3.350326     3.342683     3.335040     3.327396     3.319753
      3.312110     3.304467     3.296824     3.289180     3.281537     3.273894     3.266251     3.258607     3.250964     3.243321
      3.235678     3.228034     3.220391     3.212748     3.205105     3.197462     3.189818     3.182175     3.174532     3.166889
      3.159245     3.151602     3.143959     3.136316     3.128673     3.121029     3.113386     3.105743     3.098100     3.090456
      3.082813     3.075170     3.067527     3.059884     3.052240     3.044597     3.036954     3.029311     3.021667     3.014024
      3.006381     2.998738     2.991095     2.983451     2.975808     2.968165     2.960522     2.952878     2.945235     2.937592
      2.929949     2.922306     2.914662     2.907019     2.899376     2.891733     2.884089     2.876446     2.868803     2.861160
      2.853517     2.845873     2.838230     2.830587     2.822944     2.815300     2.807657     2.800014     2.792371     2.784728
      2.777084     2.769441     2.761798     2.754155     2.746511     2.738868     2.731225     2.723582     2.715939     2.708295
      2.700652     2.693009     2.685366     2.677722     2.670079     2.662436     2.654793     2.647150     2.639506     2.631863
      2.624220     2.616577     2.608933     2.601290     2.593647     2.586004     2.578361     2.570717     2.563074     2.555431
      2.547788     2.540144     2.532501     2.524858     2.517215     2.509572     2.501928     2.494285     2.486642     2.478999
      2.471355     2.463712     2.456069     2.448426     2.440783     2.433139     2.425496     2.417853     2.410210     2.402566
      2.394923     2.387280     2.379637     2.371994     2.364350     2.356707     2.349064     2.341421     2.333777     2.326134
      2.318491     2.310848     2.303205     2.295561     2.287918     2.280275     2.272632     2.264988     2.257345     2.249702
      2.242059     2.234416     2.226772     2.219129     2.211486     2.203843     2.196199     2.188556     2.180913     2.173270
      2.165627     2.157983     2.150340     2.142697     2.135054     2.127410     2.119767     2.112124     2.104481     2.096838
      2.089194     2.081551     2.073908     2.066265     2.058621     2.050978     2.043335     2.035692     2.028049     2.020405
      2.012762     2.005119     1.997476     1.989833     1.982190     1.974546     1.966903     1.959260     1.951617     1.943974
      1.936331     1.928688     1.921045     1.913402     1.905759     1.898115     1.890472     1.882829     1.875186     1.867543
      1.859900     1.852257     1.844614     1.836971     1.829327     1.821684     1.814041     1.806398     1.798755     1.791112
      1.783469     1.775826     1.768183     1.760540     1.752896     1.745253     1.737610     1.729967     1.722324     1.714681
      1.707038     1.699395     1.691752     1.684108     1.676465     1.668822     1.661179     1.653536     1.645893     1.638250
      1.630607     1.622964     1.615321     1.607677     1.600034     1.592391     1.584748     1.577105     1.569462     1.561819
      1.554176     1.546533     1.538890     1.531246     1.523603     1.515960     1.508317     1.500674     1.493031     1.485388
      1.477745     1.470102     1.462458     1.454815     1.447172     1.439529     1.431886     1.424243     1.416600     1.408957
      1.401314     1.393671     1.386027     1.378384     1.370741     1.363098     1.355455     1.347812     1.340169     1.332526
      1.324883     1.317240     1.309596     1.301953     1.294310     1.286667     1.279024     1.271381     1.263738     1.256095
      1.248452     1.240808     1.233165     1.225522     1.217879     1.210236     1.202593     1.194950     1.187307     1.179664
      1.172021     1.164377     1.156734     1.149091     1.141448     1.133805     1.126162     1.118519     1.110876     1.103233
      1.095590     1.087946     1.080303     1.072660     1.065017     1.057374     1.049731     1.042088     1.034445     1.026802
      1.019158     1.011515     1.003872     0.996229     0.988586     0.980943     0.973300     0.965657     0.958014     0.950371
      0.942727     0.935084     0.927441     0.919798     0.912155     0.904512     0.896869     0.889226     0.881583     0.873940
      0.866296     0.858653     0.851010     0.843367     0.835724     0.828081     0.820438     0.812795     0.805152     0.797508
      0.789865     0.782222     0.774579     0.766936     0.759293     0.751650     0.744007     0.736364     0.728721     0.721077
      0.713434     0.705791     0.698148     0.690505     0.682862     0.675219     0.667576     0.659933     0.652290     0.644646
      0.637003     0.629360     0.621717     0.614074     0.606431     0.598788     0.591145     0.583502     0.575858     0.568215
      0.560572     0.552929     0.545286     0.537643     0.530000     0.522357     0.514714     0.507071     0.499427     0.491784
      0.484141     0.476498     0.468855     0.461212     0.453569     0.445925     0.438282     0.430639     0.422996     0.415353
      0.407710     0.400067     0.392424     0.384780     0.377137     0.369494     0.361851     0.354208     0.346565     0.338922
      0.331278     0.323635     0.315992     0.308349     0.300706     0.293063     0.285420     0.277777     0.270133     0.262490
      0.254847     0.247204     0.239561     0.231918     0.224275     0.216631     0.208988     0.201345
 NY phased data points follow
  -3.52107E+01 -3.39609E+01 -3.78327E+01 -3.42135E+01 -2.90073E+01 -2.35775E+01 -1.81050E+01 -1.29537E+01 -1.09434E+01 -1.76707E+00
   2.12140E+00 -2.26330E+00 -8.21340E+00 -8.20482E+00 -1.49059E+01 -2.08933E+01 -2.35908E+01 -2.74756E+01 -2.61854E+01 -2.84822E+01
  -3.01895E+01 -2.82407E+01 -3.14183E+01 -2.93348E+01 -2.89968E+01 -2.59580E+01 -2.35205E+01 -2.23853E+01 -2.12761E+01 -2.11458E+01
  -1.99792E+01 -2.03046E+01 -2.07140E+01 -1.92622E+01 -2.06962E+01 -2.20655E+01 -2.01821E+01 -2.20286E+01 -2.30663E+01 -2.22742E+01
  -1.90777E+01 -2.19732E+01 -2.23056E+01 -1.95461E+01 -1.79186E+01 -1.47921E+01 -1.37325E+01 -1.14235E+01 -1.17905E+01 -1.12590E+01
  -1.44858E+01 -1.60910E+01 -1.66937E+01 -1.97405E+01 -1.68479E+01 -1.63415E+01 -1.72146E+01 -1.70088E+01 -1.86808E+01 -1.83912E+01
  -1.46221E+01 -2.12075E+01 -1.98891E+01 -2.21818E+01 -2.38706E+01 -2.35592E+01 -2.26394E+01 -2.39934E+01 -2.52022E+01 -1.89347E+01
  -1.79400E+01 -2.12966E+01 -1.93734E+01 -1.88630E+01 -1.85251E+01 -1.83752E+01 -2.02467E+01 -2.04132E+01 -1.54052E+01 -1.76783E+01
  -1.55914E+01 -1.61826E+01 -1.57337E+01 -1.28999E+01 -1.43454E+01 -1.61985E+01 -1.49470E+01 -1.31328E+01 -1.24195E+01 -1.24426E+01
  -9.13411E+00 -7.57100E+00 -1.11289E+01 -7.31035E+00 -9.83205E+00 -1.13791E+01 -1.23761E+01 -1.10282E+01 -7.60812E+00  4.01453E+00
   1.52639E+01  2.25379E+01  2.84522E+01  2.76008E+01  2.65595E+01  1.96805E+01  1.49609E+01  1.14520E+01  4.53793E+00 -4.47524E+00
  -5.56999E+00 -9.28940E+00 -9.48818E+00 -9.75701E+00 -1.08442E+01 -9.53386E+00 -7.91630E+00 -1.04466E+01 -9.04265E+00 -1.03575E+01
  -1.21681E+01 -8.74533E+00 -8.67587E+00  2.25308E+00  1.05304E+01  2.23276E+01  3.17248E+01  3.34907E+01  2.99612E+01  2.43711E+01
   2.06367E+01  1.36240E+01  9.23107E+00  2.42927E+00 -4.37766E+00 -5.91666E+00 -7.72362E+00 -9.55665E+00 -1.13344E+01 -1.17996E+01
  -1.10441E+01 -8.41528E+00 -1.05952E+01 -1.11537E+01 -8.81758E+00 -8.94090E+00 -9.15349E+00 -1.00076E+01 -9.86196E+00 -7.02388E+00
  -9.30537E+00 -8.11486E+00 -9.61947E+00 -9.06844E+00 -1.05439E+01 -8.92819E+00 -7.64935E+00 -8.94586E+00 -8.09644E+00 -1.10725E+01
  -1.16396E+01 -1.60665E+01 -1.16175E+01 -1.26335E+01 -1.39745E+01 -1.16728E+01 -1.06854E+01 -1.13228E+01 -1.30203E+01 -8.99409E+00
  -1.16595E+01 -1.24374E+01 -1.40709E+01 -1.76966E+01 -1.78094E+01 -1.76976E+01 -1.52089E+01 -1.72885E+01 -1.53504E+01 -1.38384E+01
  -1.50235E+01 -1.54493E+01 -1.62922E+01 -1.37183E+01 -1.15790E+01 -1.46996E+01 -1.33713E+01 -1.08003E+01 -9.21868E+00 -4.47166E+00
  -2.44462E+00 -4.62019E+00  7.31953E-01 -1.83903E-01 -1.88800E-01 -2.56775E+00 -5.93232E+00 -4.65560E+00 -5.31010E+00 -4.81734E+00
  -1.75342E+00 -2.82095E+00 -1.59826E+00  3.97405E+00 -3.85211E-01 -1.35523E+00 -6.29012E+00 -3.36264E+00 -9.84400E+00 -9.48706E+00
  -1.07242E+01 -8.13646E+00 -4.46500E+00 -1.41539E+00  4.69018E+00  7.68997E+00  7.08800E+00  5.40007E+00  2.36496E+00  3.64732E+00
  -2.38701E+00 -7.04318E+00 -5.57318E+00 -2.57666E+00 -3.56299E-01  2.20451E+00 -1.13895E+00  3.82117E+00  8.79632E+00  6.59042E+00
   6.49794E+00  3.26109E+00  4.58874E+00  4.04476E+00  5.16915E+00  6.79649E+00  7.37598E+00  5.51903E+00  5.17006E+00  9.69691E+00
   5.22561E+00 -5.49117E-01 -2.61573E+00  3.30394E+00 -1.24285E-01  7.14417E+00  7.98518E+00  9.84517E+00  1.18484E+01  1.22282E+01
   1.30773E+01  1.36432E+01  1.68899E+01  1.57480E+01  1.55616E+01  1.66600E+01  3.09761E+01  4.68712E+01  6.43506E+01  8.26080E+01
   8.79472E+01  7.80556E+01  6.88895E+01  5.88041E+01  5.49725E+01  4.70714E+01  3.45153E+01  2.26744E+01  1.96119E+01  1.19680E+01
   1.19985E+01  9.04707E+00  8.08162E+00  5.97385E+00  5.69891E+00  5.83823E+00  5.95982E+00  4.31982E+00  8.25830E+00  7.44239E+00
   7.38750E+00  3.23390E+00  5.79250E+00  4.23290E+00  1.96484E+00  1.42244E+00  2.14808E+00  4.24386E+00  2.72605E+00  4.07053E+00
   2.59767E+00  4.08183E+00  5.33794E+00  3.20710E+00  2.10874E+00  4.65047E+00  4.98957E+00  6.83801E+00  4.43463E+00  2.93644E+00
   1.85880E+00  3.46542E+00  3.50427E+00  5.90119E+00  5.49602E+00  2.26427E+00  5.14648E+00  7.73687E+00  8.48206E+00  5.30733E+00
   9.07423E+00  6.20744E+00  7.17607E+00  7.06032E+00  7.14517E+00  8.70147E+00  7.16305E+00  7.07273E+00  7.52198E+00  6.99711E+00
   3.03421E+00  4.60114E+00  5.97532E+00  6.12930E+00  5.48803E+00  4.99550E+00  5.14984E+00  4.19964E+00  5.97405E+00  5.32035E+00
   9.89124E+00  4.41880E+00  9.00762E+00  7.15876E+00  6.90832E+00  7.31172E+00  6.12038E+00  8.56386E+00  6.59200E+00  7.15361E+00
   5.75211E+00  7.38168E+00  7.05843E+00  9.33409E+00  1.00548E+01  8.88832E+00  9.07433E+00  1.00332E+01  8.11047E+00  7.92787E+00
   1.07796E+01  1.04640E+01  1.05796E+01  1.07989E+01  1.04653E+01  1.17095E+01  1.15705E+01  1.12170E+01  1.06256E+01  1.02156E+01
   6.40283E+00  1.18717E+01  1.35764E+01  1.12529E+01  9.96258E+00  8.87791E+00  7.95015E+00  6.50954E+00  9.71326E+00  8.17192E+00
   8.62284E+00  7.78905E+00  5.51994E+00  7.37766E+00  9.74511E+00  6.78506E+00  6.02263E+00  6.30797E+00  7.63650E+00  8.50553E+00
   7.73532E+00  7.45490E+00  7.11450E+00  6.71681E+00  7.60691E+00  8.38898E+00  7.84505E+00  9.84925E+00  6.38917E+00  6.67273E+00
   8.62811E+00  1.14004E+01  1.04027E+01  8.97014E+00  9.11175E+00  8.69367E+00  1.13435E+01  1.08091E+01  1.02124E+01  1.37513E+01
   1.12226E+01  1.14980E+01  1.24118E+01  1.35027E+01  1.20294E+01  1.18971E+01  1.25900E+01  1.52282E+01  1.43363E+01  1.35898E+01
   1.34719E+01  1.70951E+01  1.65230E+01  1.39705E+01  1.46932E+01  1.57756E+01  1.35682E+01  1.49923E+01  1.29807E+01  1.20209E+01
   9.80604E+00  1.38548E+01  1.16916E+01  1.00329E+01  1.15831E+01  9.30322E+00  8.74311E+00  7.72822E+00  1.18028E+01  1.02038E+01
   1.14258E+01  8.79782E+00  8.51715E+00  1.32507E+01  6.73577E+00  8.20355E+00  8.19174E+00  9.47467E+00  9.47733E+00  5.25504E+00
   9.71210E+00  1.03994E+01  8.21912E+00  7.82119E+00  6.84587E+00  6.53450E+00  8.72578E+00  6.57797E+00  6.84558E+00  9.14433E+00
   9.80532E+00  8.64746E+00  6.06675E+00  7.48769E+00  9.47061E+00  5.56515E+00  7.25169E+00  9.33009E+00  7.15637E+00  7.74936E+00
   8.48436E+00  8.36294E+00  7.38537E+00  7.23205E+00  8.55557E+00  6.53991E+00  7.54547E+00  5.03255E+00  4.02978E+00  8.40311E+00
   6.16908E+00  3.30174E+00  7.54624E+00  6.71022E+00  7.82393E+00  7.46749E+00  6.90293E+00  6.05620E+00  8.24648E+00  5.15268E+00
   9.54692E+00  7.38893E+00  5.57376E+00  7.70913E+00  8.52510E+00  7.02125E+00  6.45270E+00  9.23585E+00  7.32844E+00  1.02350E+01
   7.61644E+00  8.98080E+00  9.10079E+00  9.77213E+00  7.47670E+00  7.44368E+00  6.22414E+00  7.78793E+00
 NY points of the fit to the data follow
  -3.17238E+01 -3.19678E+01 -3.17491E+01 -3.09481E+01 -2.89588E+01 -2.48988E+01 -1.88625E+01 -1.19306E+01 -5.88023E+00 -2.55683E+00
  -2.57052E+00 -4.84416E+00 -7.79147E+00 -1.07071E+01 -1.38385E+01 -1.72930E+01 -2.06479E+01 -2.35371E+01 -2.55529E+01 -2.63736E+01
  -2.66603E+01 -2.68428E+01 -2.71254E+01 -2.75117E+01 -2.77738E+01 -2.74345E+01 -2.62159E+01 -2.42349E+01 -2.18505E+01 -1.96406E+01
  -1.81706E+01 -1.76354E+01 -1.77872E+01 -1.83046E+01 -1.92278E+01 -2.05324E+01 -2.18229E+01 -2.29453E+01 -2.38249E+01 -2.42012E+01
  -2.40801E+01 -2.34811E+01 -2.22812E+01 -2.03190E+01 -1.76704E+01 -1.49679E+01 -1.30685E+01 -1.25560E+01 -1.34504E+01 -1.50517E+01
  -1.66647E+01 -1.81045E+01 -1.94317E+01 -2.06473E+01 -2.15540E+01 -2.19061E+01 -2.15560E+01 -2.06039E+01 -1.94920E+01 -1.87081E+01
  -1.85243E+01 -1.88864E+01 -1.94980E+01 -2.00667E+01 -2.04430E+01 -2.05903E+01 -2.05366E+01 -2.03060E+01 -1.98629E+01 -1.92388E+01
  -1.85449E+01 -1.79181E+01 -1.75019E+01 -1.72932E+01 -1.72094E+01 -1.72048E+01 -1.72706E+01 -1.74057E+01 -1.75363E+01 -1.76264E+01
  -1.76682E+01 -1.76098E+01 -1.73779E+01 -1.66604E+01 -1.53193E+01 -1.35967E+01 -1.19479E+01 -1.09456E+01 -1.09128E+01 -1.15373E+01
  -1.21992E+01 -1.25823E+01 -1.28892E+01 -1.33852E+01 -1.39773E+01 -1.44143E+01 -1.43307E+01 -1.24105E+01 -6.95659E+00  2.32100E+00
   1.36578E+01  2.39786E+01  2.99198E+01  2.99309E+01  2.56698E+01  2.02081E+01  1.50605E+01  9.65694E+00  3.51384E+00 -2.54545E+00
  -7.61472E+00 -1.13689E+01 -1.30524E+01 -1.34604E+01 -1.35140E+01 -1.34440E+01 -1.33223E+01 -1.31583E+01 -1.29339E+01 -1.25833E+01
  -1.19203E+01 -1.03504E+01 -6.28832E+00  1.50857E+00  1.20843E+01  2.28695E+01  3.05449E+01  3.26058E+01  2.96381E+01  2.46858E+01
   2.00106E+01  1.53904E+01  9.73048E+00  3.35029E+00 -2.46222E+00 -7.09831E+00 -9.67432E+00 -1.02051E+01 -1.00988E+01 -9.83218E+00
  -9.56229E+00 -9.37205E+00 -9.24702E+00 -9.15096E+00 -9.11222E+00 -9.14488E+00 -9.25109E+00 -9.42435E+00 -9.60971E+00 -9.78490E+00
  -9.92443E+00 -1.00045E+01 -1.00322E+01 -1.00067E+01 -9.93034E+00 -9.84230E+00 -9.86505E+00 -1.00977E+01 -1.05002E+01 -1.09114E+01
  -1.10746E+01 -1.08427E+01 -1.03559E+01 -9.93134E+00 -9.83304E+00 -1.00649E+01 -1.04046E+01 -1.06576E+01 -1.08092E+01 -1.09606E+01
  -1.12626E+01 -1.17409E+01 -1.23210E+01 -1.28583E+01 -1.31223E+01 -1.30277E+01 -1.26830E+01 -1.23078E+01 -1.21074E+01 -1.20867E+01
  -1.20475E+01 -1.18230E+01 -1.15422E+01 -1.14137E+01 -1.13425E+01 -1.10272E+01 -1.02233E+01 -8.87379E+00 -7.35682E+00 -6.11348E+00
  -5.40448E+00 -5.17978E+00 -5.18110E+00 -5.28664E+00 -5.44515E+00 -5.51285E+00 -5.39126E+00 -4.97631E+00 -4.15275E+00 -2.94037E+00
  -1.52469E+00 -1.89241E-01  7.71062E-01  1.01706E+00  1.70958E-01 -1.73275E+00 -4.08534E+00 -6.22249E+00 -7.70108E+00 -8.33078E+00
  -8.09925E+00 -6.99742E+00 -4.92794E+00 -1.93626E+00  1.26797E+00  3.63462E+00  4.43761E+00  3.63302E+00  1.63805E+00 -9.50608E-01
  -3.48173E+00 -5.39629E+00 -6.17730E+00 -5.56432E+00 -3.97700E+00 -2.05661E+00 -1.71530E-01  1.43229E+00  2.72246E+00  3.56377E+00
   3.88676E+00  3.87267E+00  3.78958E+00  3.94910E+00  4.63767E+00  5.82623E+00  7.11906E+00  7.96266E+00  8.03848E+00  7.46373E+00
   6.57239E+00  5.75972E+00  5.39068E+00  5.58238E+00  6.12419E+00  6.83591E+00  7.66114E+00  8.55592E+00  9.45751E+00  1.03483E+01
   1.11841E+01  1.20368E+01  1.30102E+01  1.41382E+01  1.59840E+01  2.08564E+01  3.16030E+01  4.77328E+01  6.56157E+01  7.98476E+01
   8.52500E+01  8.11172E+01  7.20408E+01  6.28152E+01  5.42501E+01  4.46552E+01  3.40266E+01  2.42011E+01  1.60477E+01  1.04209E+01
   8.25257E+00  7.36403E+00  6.87324E+00  6.57147E+00  6.35593E+00  6.11893E+00  5.86566E+00  5.61529E+00  5.36382E+00  5.10249E+00
   4.84586E+00  4.60959E+00  4.40163E+00  4.22772E+00  4.08743E+00  3.97757E+00  3.89653E+00  3.84048E+00  3.80695E+00  3.79698E+00
   3.80591E+00  3.83486E+00  3.88545E+00  3.95735E+00  4.04917E+00  4.15966E+00  4.28745E+00  4.43073E+00  4.58682E+00  4.75385E+00
   4.92939E+00  5.11006E+00  5.29150E+00  5.46889E+00  5.63720E+00  5.79219E+00  5.93102E+00  6.05155E+00  6.15145E+00  6.22922E+00
   6.28460E+00  6.31847E+00  6.33281E+00  6.33053E+00  6.31459E+00  6.28815E+00  6.25488E+00  6.21883E+00  6.18411E+00  6.15439E+00
   6.13267E+00  6.12131E+00  6.12220E+00  6.13675E+00  6.16568E+00  6.20878E+00  6.26506E+00  6.33305E+00  6.41109E+00  6.49736E+00
   6.58977E+00  6.68601E+00  6.78383E+00  6.88136E+00  6.97746E+00  7.07159E+00  7.16393E+00  7.25553E+00  7.34897E+00  7.44912E+00
   7.56474E+00  7.71073E+00  7.90762E+00  8.15237E+00  8.40414E+00  8.61733E+00  8.76295E+00  8.84839E+00  8.92811E+00  9.06456E+00
   9.29537E+00  9.62148E+00  1.00218E+01  1.04722E+01  1.09132E+01  1.12494E+01  1.14322E+01  1.14636E+01  1.13617E+01  1.11511E+01
   1.08413E+01  1.04570E+01  1.00388E+01  9.61470E+00  9.22455E+00  8.89005E+00  8.60520E+00  8.36540E+00  8.16600E+00  8.00151E+00
   7.86612E+00  7.75440E+00  7.66191E+00  7.58535E+00  7.52253E+00  7.47206E+00  7.43332E+00  7.40622E+00  7.39128E+00  7.38939E+00
   7.40161E+00  7.42906E+00  7.47290E+00  7.53441E+00  7.61508E+00  7.71645E+00  7.84003E+00  7.98719E+00  8.15928E+00  8.35759E+00
   8.58335E+00  8.83745E+00  9.12027E+00  9.43156E+00  9.77047E+00  1.01354E+01  1.05239E+01  1.09324E+01  1.13563E+01  1.17895E+01
   1.22254E+01  1.26564E+01  1.30743E+01  1.34701E+01  1.38350E+01  1.41602E+01  1.44377E+01  1.46605E+01  1.48229E+01  1.49209E+01
   1.49519E+01  1.49157E+01  1.48139E+01  1.46501E+01  1.44293E+01  1.41581E+01  1.38441E+01  1.34956E+01  1.31214E+01  1.27302E+01
   1.23303E+01  1.19292E+01  1.15339E+01  1.11500E+01  1.07825E+01  1.04350E+01  1.01100E+01  9.80907E+00  9.53298E+00  9.28179E+00
   9.05502E+00  8.85160E+00  8.67011E+00  8.50895E+00  8.36648E+00  8.24106E+00  8.13106E+00  8.03478E+00  7.95067E+00  7.87732E+00
   7.81355E+00  7.75827E+00  7.71048E+00  7.66922E+00  7.63364E+00  7.60310E+00  7.57709E+00  7.55510E+00  7.53665E+00  7.52126E+00
   7.50860E+00  7.49841E+00  7.49050E+00  7.48464E+00  7.48057E+00  7.47806E+00  7.47699E+00  7.47726E+00  7.47882E+00  7.48151E+00
   7.48518E+00  7.48971E+00  7.49508E+00  7.50128E+00  7.50827E+00  7.51591E+00  7.52413E+00  7.53285E+00  7.54213E+00  7.55196E+00
   7.56230E+00  7.57304E+00  7.58412E+00  7.59556E+00  7.60741E+00  7.61965E+00  7.63223E+00  7.64506E+00  7.65812E+00  7.67147E+00
   7.68513E+00  7.69909E+00  7.71327E+00  7.72761E+00  7.74215E+00  7.75694E+00  7.77200E+00  7.78728E+00  7.80271E+00  7.81828E+00
   7.83403E+00  7.85003E+00  7.86626E+00  7.88266E+00  7.89919E+00  7.91586E+00  7.93275E+00  7.94989E+00
 NY background values follow
    -3.647E+01   -3.627E+01   -3.607E+01   -3.587E+01   -3.567E+01   -3.547E+01   -3.527E+01   -3.507E+01   -3.487E+01   -3.467E+01
    -3.447E+01   -3.427E+01   -3.407E+01   -3.387E+01   -3.367E+01   -3.347E+01   -3.327E+01   -3.307E+01   -3.287E+01   -3.268E+01
    -3.248E+01   -3.228E+01   -3.208E+01   -3.188E+01   -3.168E+01   -3.148E+01   -3.129E+01   -3.109E+01   -3.089E+01   -3.070E+01
    -3.050E+01   -3.030E+01   -3.011E+01   -2.991E+01   -2.972E+01   -2.952E+01   -2.933E+01   -2.913E+01   -2.894E+01   -2.874E+01
    -2.855E+01   -2.836E+01   -2.817E+01   -2.797E+01   -2.778E+01   -2.759E+01   -2.740E+01   -2.721E+01   -2.702E+01   -2.683E+01
    -2.665E+01   -2.646E+01   -2.627E+01   -2.608E+01   -2.590E+01   -2.571E+01   -2.553E+01   -2.534E+01   -2.516E+01   -2.498E+01
    -2.479E+01   -2.461E+01   -2.443E+01   -2.425E+01   -2.407E+01   -2.389E+01   -2.371E+01   -2.353E+01   -2.336E+01   -2.318E+01
    -2.300E+01   -2.283E+01   -2.265E+01   -2.248E+01   -2.231E+01   -2.214E+01   -2.196E+01   -2.179E+01   -2.162E+01   -2.145E+01
    -2.129E+01   -2.112E+01   -2.095E+01   -2.079E+01   -2.062E+01   -2.046E+01   -2.029E+01   -2.013E+01   -1.997E+01   -1.981E+01
    -1.965E+01   -1.949E+01   -1.933E+01   -1.918E+01   -1.902E+01   -1.887E+01   -1.871E+01   -1.856E+01   -1.840E+01   -1.825E+01
    -1.810E+01   -1.795E+01   -1.780E+01   -1.765E+01   -1.751E+01   -1.736E+01   -1.721E+01   -1.707E+01   -1.693E+01   -1.678E+01
    -1.664E+01   -1.650E+01   -1.636E+01   -1.622E+01   -1.608E+01   -1.594E+01   -1.580E+01   -1.566E+01   -1.553E+01   -1.539E+01
    -1.526E+01   -1.512E+01   -1.499E+01   -1.486E+01   -1.472E+01   -1.459E+01   -1.446E+01   -1.433E+01   -1.420E+01   -1.407E+01
    -1.395E+01   -1.382E+01   -1.369E+01   -1.357E+01   -1.344E+01   -1.332E+01   -1.319E+01   -1.307E+01   -1.295E+01   -1.283E+01
    -1.271E+01   -1.259E+01   -1.247E+01   -1.235E+01   -1.223E+01   -1.211E+01   -1.199E+01   -1.187E+01   -1.176E+01   -1.164E+01
    -1.153E+01   -1.141E+01   -1.130E+01   -1.118E+01   -1.107E+01   -1.095E+01   -1.084E+01   -1.073E+01   -1.062E+01   -1.051E+01
    -1.039E+01   -1.028E+01   -1.017E+01   -1.006E+01   -9.953E+00   -9.844E+00   -9.735E+00   -9.626E+00   -9.518E+00   -9.410E+00
    -9.302E+00   -9.194E+00   -9.087E+00   -8.980E+00   -8.873E+00   -8.766E+00   -8.660E+00   -8.554E+00   -8.448E+00   -8.342E+00
    -8.237E+00   -8.131E+00   -8.026E+00   -7.921E+00   -7.816E+00   -7.712E+00   -7.607E+00   -7.503E+00   -7.399E+00   -7.295E+00
    -7.191E+00   -7.088E+00   -6.985E+00   -6.882E+00   -6.780E+00   -6.678E+00   -6.576E+00   -6.474E+00   -6.373E+00   -6.272E+00
    -6.171E+00   -6.071E+00   -5.971E+00   -5.872E+00   -5.773E+00   -5.674E+00   -5.575E+00   -5.478E+00   -5.380E+00   -5.283E+00
    -5.186E+00   -5.090E+00   -4.995E+00   -4.899E+00   -4.805E+00   -4.710E+00   -4.617E+00   -4.523E+00   -4.431E+00   -4.339E+00
    -4.247E+00   -4.156E+00   -4.065E+00   -3.975E+00   -3.886E+00   -3.797E+00   -3.709E+00   -3.622E+00   -3.535E+00   -3.448E+00
    -3.363E+00   -3.277E+00   -3.193E+00   -3.109E+00   -3.025E+00   -2.943E+00   -2.860E+00   -2.779E+00   -2.698E+00   -2.617E+00
    -2.537E+00   -2.458E+00   -2.379E+00   -2.300E+00   -2.223E+00   -2.145E+00   -2.069E+00   -1.992E+00   -1.917E+00   -1.842E+00
    -1.767E+00   -1.693E+00   -1.619E+00   -1.546E+00   -1.473E+00   -1.401E+00   -1.330E+00   -1.259E+00   -1.188E+00   -1.118E+00
    -1.048E+00   -9.786E-01   -9.098E-01   -8.415E-01   -7.736E-01   -7.062E-01   -6.392E-01   -5.727E-01   -5.066E-01   -4.409E-01
    -3.756E-01   -3.108E-01   -2.464E-01   -1.825E-01   -1.189E-01   -5.577E-02    6.957E-03    6.928E-02    1.312E-01    1.927E-01
     2.538E-01    3.145E-01    3.748E-01    4.348E-01    4.943E-01    5.534E-01    6.122E-01    6.706E-01    7.285E-01    7.862E-01
     8.434E-01    9.002E-01    9.567E-01    1.013E+00    1.069E+00    1.124E+00    1.179E+00    1.234E+00    1.288E+00    1.342E+00
     1.396E+00    1.449E+00    1.502E+00    1.554E+00    1.607E+00    1.658E+00    1.710E+00    1.761E+00    1.812E+00    1.863E+00
     1.913E+00    1.963E+00    2.012E+00    2.062E+00    2.111E+00    2.159E+00    2.208E+00    2.256E+00    2.303E+00    2.351E+00
     2.398E+00    2.445E+00    2.491E+00    2.537E+00    2.583E+00    2.629E+00    2.674E+00    2.719E+00    2.764E+00    2.809E+00
     2.853E+00    2.897E+00    2.940E+00    2.984E+00    3.027E+00    3.070E+00    3.112E+00    3.154E+00    3.196E+00    3.238E+00
     3.280E+00    3.321E+00    3.362E+00    3.402E+00    3.443E+00    3.483E+00    3.523E+00    3.563E+00    3.602E+00    3.641E+00
     3.680E+00    3.719E+00    3.757E+00    3.795E+00    3.833E+00    3.871E+00    3.908E+00    3.946E+00    3.983E+00    4.019E+00
     4.056E+00    4.092E+00    4.128E+00    4.164E+00    4.200E+00    4.235E+00    4.271E+00    4.306E+00    4.340E+00    4.375E+00
     4.409E+00    4.444E+00    4.478E+00    4.511E+00    4.545E+00    4.578E+00    4.611E+00    4.644E+00    4.677E+00    4.710E+00
     4.742E+00    4.774E+00    4.806E+00    4.838E+00    4.870E+00    4.901E+00    4.932E+00    4.963E+00    4.994E+00    5.025E+00
     5.056E+00    5.086E+00    5.116E+00    5.146E+00    5.176E+00    5.206E+00    5.235E+00    5.265E+00    5.294E+00    5.323E+00
     5.352E+00    5.381E+00    5.409E+00    5.438E+00    5.466E+00    5.494E+00    5.522E+00    5.550E+00    5.578E+00    5.605E+00
     5.633E+00    5.660E+00    5.687E+00    5.714E+00    5.741E+00    5.768E+00    5.795E+00    5.821E+00    5.847E+00    5.874E+00
     5.900E+00    5.926E+00    5.952E+00    5.977E+00    6.003E+00    6.028E+00    6.054E+00    6.079E+00    6.104E+00    6.129E+00
     6.154E+00    6.178E+00    6.203E+00    6.228E+00    6.252E+00    6.276E+00    6.300E+00    6.324E+00    6.348E+00    6.372E+00
     6.396E+00    6.419E+00    6.443E+00    6.466E+00    6.490E+00    6.513E+00    6.536E+00    6.559E+00    6.582E+00    6.604E+00
     6.627E+00    6.650E+00    6.672E+00    6.695E+00    6.717E+00    6.739E+00    6.761E+00    6.783E+00    6.805E+00    6.827E+00
     6.849E+00    6.871E+00    6.892E+00    6.914E+00    6.935E+00    6.957E+00    6.978E+00    7.000E+00    7.021E+00    7.042E+00
     7.063E+00    7.085E+00    7.106E+00    7.127E+00    7.148E+00    7.169E+00    7.190E+00    7.211E+00    7.232E+00    7.253E+00
     7.274E+00    7.295E+00    7.316E+00    7.337E+00    7.358E+00    7.379E+00    7.400E+00    7.421E+00    7.442E+00    7.463E+00
     7.484E+00    7.505E+00    7.526E+00    7.547E+00    7.568E+00    7.590E+00    7.611E+00    7.632E+00
 Cr       Conc. = 2.94E+02
