 LCModel (Version 6.3-1L) Copyright: S.W. Provencher.          Ref.: Magn. Reson. Med. 30:672-679 (1993).                
 Slice#2 Row#6 Col#2  PD_05_press_1_raw_act
 36 lines in following concentration table = NCONC+1
    Conc.  %SD /Cr+PCr  Metabolite                                         
   57.438  51%   1.280 Ala                                                 
    8.834  36%   0.197 Asp                                                 
   44.883  35%   1.000 Cr                                                  
    0.000 999%   0.000 PCr                                                 
    5.284  36%   0.118 GABA                                                
    5.313  36%   0.118 Glc                                                 
   43.121 132%   0.961 Gln                                                 
  232.914  29%   5.189 Glu                                                 
    0.000 999%   0.000 GPC                                                 
    9.473  64%   0.211 PCh                                                 
   80.030  28%   1.783 GSH                                                 
  259.942  30%   5.792 Ins                                                 
    7.669 395%   0.171 Lac                                                 
  101.694  19%   2.266 NAA                                                 
    0.000 999%   0.000 NAAG                                                
    1.758  37% 3.9E-02 Scyllo                                              
    8.770  37%   0.195 Tau                                                 
    6.669  77%   0.149 -CrCH2                                              
    9.473  64%   0.211 GPC+PCh                                             
  101.694  19%   2.266 NAA+NAAG                                            
   44.883  35%   1.000 Cr+PCr                                              
  276.035  32%   6.150 Glu+Gln                                             
  515.435  35%  11.484 Lip13a                                              
    0.000 999%   0.000 Lip13b                                              
   11.565 580%   0.258 Lip09                                               
    0.000 999%   0.000 MM09                                                
   82.928  65%   1.848 Lip20                                               
 4.02E-03 999% 9.0E-05 MM20                                                
 2.53E-04 999% 5.6E-06 MM12                                                
 3.69E-05 999% 8.2E-07 MM14                                                
    0.000 999%   0.000 MM17                                                
  515.435  35%  11.484 Lip13a+Lip13b                                       
  515.435  35%  11.484 MM14+Lip13a+Lip13b+MM12                             
   11.565 580%   0.258 MM09+Lip09                                          
   82.932  65%   1.848 MM20+Lip20                                          
   6 lines in following misc. output table
  FWHM = 0.038 ppm    S/N =   2                                            
  Data shift = 0.031 ppm                                                   
  Ph: -32 deg       0.6 deg/ppm                                            
  alphaB,S = 6.1E-01,   2.1E+01                                            
   14 spline knots.   Ns = 5(1)                                            
   2 inflections.     1 extrema                                            
  498 points on ppm-axis = NY
      4.000000     3.992357     3.984714     3.977070     3.969427     3.961784     3.954141     3.946497     3.938854     3.931211
      3.923568     3.915925     3.908281     3.900638     3.892995     3.885352     3.877708     3.870065     3.862422     3.854779
      3.847136     3.839492     3.831849     3.824206     3.816563     3.808919     3.801276     3.793633     3.785990     3.778347
      3.770703     3.763060     3.755417     3.747774     3.740130     3.732487     3.724844     3.717201     3.709558     3.701914
      3.694271     3.686628     3.678985     3.671341     3.663698     3.656055     3.648412     3.640769     3.633125     3.625482
      3.617839     3.610196     3.602552     3.594909     3.587266     3.579623     3.571980     3.564336     3.556693     3.549050
      3.541407     3.533763     3.526120     3.518477     3.510834     3.503191     3.495547     3.487904     3.480261     3.472618
      3.464974     3.457331     3.449688     3.442045     3.434402     3.426758     3.419115     3.411472     3.403829     3.396185
      3.388542     3.380899     3.373256     3.365613     3.357969     3.350326     3.342683     3.335040     3.327396     3.319753
      3.312110     3.304467     3.296824     3.289180     3.281537     3.273894     3.266251     3.258607     3.250964     3.243321
      3.235678     3.228034     3.220391     3.212748     3.205105     3.197462     3.189818     3.182175     3.174532     3.166889
      3.159245     3.151602     3.143959     3.136316     3.128673     3.121029     3.113386     3.105743     3.098100     3.090456
      3.082813     3.075170     3.067527     3.059884     3.052240     3.044597     3.036954     3.029311     3.021667     3.014024
      3.006381     2.998738     2.991095     2.983451     2.975808     2.968165     2.960522     2.952878     2.945235     2.937592
      2.929949     2.922306     2.914662     2.907019     2.899376     2.891733     2.884089     2.876446     2.868803     2.861160
      2.853517     2.845873     2.838230     2.830587     2.822944     2.815300     2.807657     2.800014     2.792371     2.784728
      2.777084     2.769441     2.761798     2.754155     2.746511     2.738868     2.731225     2.723582     2.715939     2.708295
      2.700652     2.693009     2.685366     2.677722     2.670079     2.662436     2.654793     2.647150     2.639506     2.631863
      2.624220     2.616577     2.608933     2.601290     2.593647     2.586004     2.578361     2.570717     2.563074     2.555431
      2.547788     2.540144     2.532501     2.524858     2.517215     2.509572     2.501928     2.494285     2.486642     2.478999
      2.471355     2.463712     2.456069     2.448426     2.440783     2.433139     2.425496     2.417853     2.410210     2.402566
      2.394923     2.387280     2.379637     2.371994     2.364350     2.356707     2.349064     2.341421     2.333777     2.326134
      2.318491     2.310848     2.303205     2.295561     2.287918     2.280275     2.272632     2.264988     2.257345     2.249702
      2.242059     2.234416     2.226772     2.219129     2.211486     2.203843     2.196199     2.188556     2.180913     2.173270
      2.165627     2.157983     2.150340     2.142697     2.135054     2.127410     2.119767     2.112124     2.104481     2.096838
      2.089194     2.081551     2.073908     2.066265     2.058621     2.050978     2.043335     2.035692     2.028049     2.020405
      2.012762     2.005119     1.997476     1.989833     1.982190     1.974546     1.966903     1.959260     1.951617     1.943974
      1.936331     1.928688     1.921045     1.913402     1.905759     1.898115     1.890472     1.882829     1.875186     1.867543
      1.859900     1.852257     1.844614     1.836971     1.829327     1.821684     1.814041     1.806398     1.798755     1.791112
      1.783469     1.775826     1.768183     1.760540     1.752896     1.745253     1.737610     1.729967     1.722324     1.714681
      1.707038     1.699395     1.691752     1.684108     1.676465     1.668822     1.661179     1.653536     1.645893     1.638250
      1.630607     1.622964     1.615321     1.607677     1.600034     1.592391     1.584748     1.577105     1.569462     1.561819
      1.554176     1.546533     1.538890     1.531246     1.523603     1.515960     1.508317     1.500674     1.493031     1.485388
      1.477745     1.470102     1.462458     1.454815     1.447172     1.439529     1.431886     1.424243     1.416600     1.408957
      1.401314     1.393671     1.386027     1.378384     1.370741     1.363098     1.355455     1.347812     1.340169     1.332526
      1.324883     1.317240     1.309596     1.301953     1.294310     1.286667     1.279024     1.271381     1.263738     1.256095
      1.248452     1.240808     1.233165     1.225522     1.217879     1.210236     1.202593     1.194950     1.187307     1.179664
      1.172021     1.164377     1.156734     1.149091     1.141448     1.133805     1.126162     1.118519     1.110876     1.103233
      1.095590     1.087946     1.080303     1.072660     1.065017     1.057374     1.049731     1.042088     1.034445     1.026802
      1.019158     1.011515     1.003872     0.996229     0.988586     0.980943     0.973300     0.965657     0.958014     0.950371
      0.942727     0.935084     0.927441     0.919798     0.912155     0.904512     0.896869     0.889226     0.881583     0.873940
      0.866296     0.858653     0.851010     0.843367     0.835724     0.828081     0.820438     0.812795     0.805152     0.797508
      0.789865     0.782222     0.774579     0.766936     0.759293     0.751650     0.744007     0.736364     0.728721     0.721077
      0.713434     0.705791     0.698148     0.690505     0.682862     0.675219     0.667576     0.659933     0.652290     0.644646
      0.637003     0.629360     0.621717     0.614074     0.606431     0.598788     0.591145     0.583502     0.575858     0.568215
      0.560572     0.552929     0.545286     0.537643     0.530000     0.522357     0.514714     0.507071     0.499427     0.491784
      0.484141     0.476498     0.468855     0.461212     0.453569     0.445925     0.438282     0.430639     0.422996     0.415353
      0.407710     0.400067     0.392424     0.384780     0.377137     0.369494     0.361851     0.354208     0.346565     0.338922
      0.331278     0.323635     0.315992     0.308349     0.300706     0.293063     0.285420     0.277777     0.270133     0.262490
      0.254847     0.247204     0.239561     0.231918     0.224275     0.216631     0.208988     0.201345
 NY phased data points follow
  -5.89304E+01 -5.83742E+01 -5.94045E+01 -6.02810E+01 -5.93424E+01 -5.84495E+01 -5.84154E+01 -5.59193E+01 -5.72653E+01 -5.42797E+01
  -5.19766E+01 -5.31810E+01 -5.31514E+01 -5.12617E+01 -5.12125E+01 -5.22142E+01 -5.11212E+01 -5.20080E+01 -5.27353E+01 -5.03966E+01
  -5.02537E+01 -4.79553E+01 -4.76258E+01 -4.55795E+01 -4.84744E+01 -4.64723E+01 -4.58930E+01 -4.45179E+01 -4.39366E+01 -4.45035E+01
  -4.43244E+01 -4.23402E+01 -4.09299E+01 -4.27012E+01 -4.26308E+01 -4.19284E+01 -4.33221E+01 -4.16482E+01 -4.26546E+01 -4.06265E+01
  -4.01184E+01 -4.09412E+01 -3.76913E+01 -3.77735E+01 -3.90721E+01 -3.93911E+01 -3.76155E+01 -3.68996E+01 -3.57694E+01 -3.53327E+01
  -3.80298E+01 -3.77968E+01 -3.46313E+01 -3.76217E+01 -3.52354E+01 -3.61812E+01 -3.77337E+01 -3.74104E+01 -3.49788E+01 -3.58477E+01
  -3.42210E+01 -3.63890E+01 -3.56838E+01 -3.24663E+01 -3.63940E+01 -3.39911E+01 -3.27234E+01 -3.16624E+01 -3.70205E+01 -3.30985E+01
  -3.16849E+01 -3.17142E+01 -3.07204E+01 -3.16209E+01 -3.05423E+01 -3.09455E+01 -3.00831E+01 -2.98563E+01 -2.75245E+01 -2.97994E+01
  -2.95357E+01 -2.95369E+01 -2.86672E+01 -3.01306E+01 -3.05635E+01 -3.02442E+01 -2.87093E+01 -3.12858E+01 -2.62962E+01 -2.77271E+01
  -2.78366E+01 -2.65046E+01 -2.41530E+01 -2.59810E+01 -2.76300E+01 -2.54155E+01 -2.64069E+01 -2.91711E+01 -2.99759E+01 -2.59419E+01
  -2.69544E+01 -2.60584E+01 -2.60854E+01 -2.42067E+01 -2.28823E+01 -2.60993E+01 -2.58885E+01 -2.45203E+01 -2.34402E+01 -2.52310E+01
  -2.40759E+01 -2.23731E+01 -2.40462E+01 -2.51946E+01 -2.30505E+01 -2.47342E+01 -2.20227E+01 -2.12981E+01 -2.23861E+01 -2.33636E+01
  -2.44121E+01 -2.76708E+01 -2.32632E+01 -2.37267E+01 -2.25045E+01 -2.06744E+01 -2.16045E+01 -2.04461E+01 -1.72777E+01 -1.92826E+01
  -1.96064E+01 -2.20241E+01 -2.32345E+01 -1.95725E+01 -2.11023E+01 -2.00214E+01 -2.03277E+01 -2.14060E+01 -2.13676E+01 -2.16863E+01
  -2.24015E+01 -1.84191E+01 -2.01223E+01 -2.07416E+01 -2.04482E+01 -2.04990E+01 -2.14746E+01 -2.06317E+01 -1.85203E+01 -1.89070E+01
  -2.12223E+01 -1.87475E+01 -1.98041E+01 -1.68721E+01 -1.83124E+01 -2.17794E+01 -1.94103E+01 -1.80216E+01 -2.04294E+01 -1.66383E+01
  -1.76194E+01 -1.93393E+01 -2.11631E+01 -1.94363E+01 -1.80618E+01 -1.87396E+01 -1.97413E+01 -1.83383E+01 -1.75925E+01 -1.71012E+01
  -2.05952E+01 -1.75754E+01 -1.95412E+01 -1.77263E+01 -1.62647E+01 -1.54577E+01 -1.71204E+01 -1.60471E+01 -1.41143E+01 -1.50418E+01
  -1.41996E+01 -1.65933E+01 -1.60817E+01 -1.60068E+01 -1.82616E+01 -1.57658E+01 -1.62717E+01 -1.77481E+01 -1.65625E+01 -1.78448E+01
  -1.58272E+01 -1.49562E+01 -1.50601E+01 -1.79927E+01 -1.46558E+01 -1.43997E+01 -1.82163E+01 -1.39115E+01 -1.50568E+01 -1.41680E+01
  -1.57220E+01 -1.44417E+01 -1.39557E+01 -1.32249E+01 -1.31735E+01 -1.47604E+01 -1.41769E+01 -1.67251E+01 -1.47186E+01 -1.52409E+01
  -1.59426E+01 -1.69194E+01 -1.59055E+01 -1.53738E+01 -1.22781E+01 -1.04915E+01 -1.21149E+01 -1.19414E+01 -1.48859E+01 -1.48890E+01
  -1.40588E+01 -1.47969E+01 -1.62607E+01 -1.40873E+01 -1.58355E+01 -1.24259E+01 -1.26427E+01 -1.31550E+01 -1.29660E+01 -1.18972E+01
  -1.45637E+01 -1.27603E+01 -1.47767E+01 -1.46722E+01 -1.39389E+01 -1.28968E+01 -1.11516E+01 -1.20683E+01 -1.32211E+01 -1.37633E+01
  -1.48360E+01 -1.15383E+01 -1.28365E+01 -1.22092E+01 -1.13408E+01 -1.24940E+01 -1.05766E+01 -9.71916E+00 -9.18746E+00 -1.00345E+01
  -8.74720E+00 -1.12947E+01 -1.34789E+01 -1.07555E+01 -1.16445E+01 -1.46733E+01 -1.58108E+01 -1.22929E+01 -8.56839E+00 -7.09304E+00
  -7.84266E+00 -8.21000E+00 -7.60416E+00 -8.53460E+00 -1.26992E+01 -1.32878E+01 -1.31379E+01 -1.18280E+01 -1.14699E+01 -1.08732E+01
  -1.11089E+01 -1.30339E+01 -1.09839E+01 -1.30988E+01 -1.29288E+01 -1.23924E+01 -1.04968E+01 -1.60360E+01 -1.18404E+01 -1.14181E+01
  -1.21980E+01 -1.22604E+01 -1.12570E+01 -1.09475E+01 -1.25633E+01 -1.20328E+01 -1.02944E+01 -1.19812E+01 -1.10384E+01 -1.24718E+01
  -1.24712E+01 -1.32014E+01 -1.14002E+01 -1.29540E+01 -1.25336E+01 -1.18607E+01 -1.22781E+01 -1.14044E+01 -1.22490E+01 -1.11283E+01
  -1.43156E+01 -1.01456E+01 -1.32179E+01 -1.15813E+01 -1.03176E+01 -1.27333E+01 -1.17969E+01 -1.24999E+01 -1.23221E+01 -1.02233E+01
  -1.16862E+01 -1.24610E+01 -8.97430E+00 -1.19977E+01 -1.10069E+01 -1.15970E+01 -1.10511E+01 -1.12968E+01 -1.13673E+01 -1.10257E+01
  -1.16968E+01 -1.20244E+01 -1.14166E+01 -1.04387E+01 -9.96142E+00 -1.08772E+01 -1.09297E+01 -9.98429E+00 -1.10054E+01 -1.05799E+01
  -1.17915E+01 -1.35977E+01 -1.22796E+01 -9.49330E+00 -1.18936E+01 -1.05108E+01 -1.15867E+01 -1.13533E+01 -9.79317E+00 -9.58850E+00
  -7.62695E+00 -8.63552E+00 -7.06793E+00 -7.65371E+00 -1.07421E+01 -7.09581E+00 -7.51219E+00 -8.45311E+00 -7.13968E+00 -9.59376E+00
  -9.17830E+00 -8.45279E+00 -6.62369E+00 -7.63925E+00 -8.11846E+00 -7.67687E+00 -7.27569E+00 -8.24271E+00 -8.83794E+00 -7.46071E+00
  -1.02216E+01 -7.13563E+00 -1.12197E+01 -1.02819E+01 -9.00445E+00 -9.82502E+00 -8.89332E+00 -6.04870E+00 -6.68189E+00 -6.99496E+00
  -6.34556E+00 -6.91760E+00 -8.59550E+00 -7.11996E+00 -8.71437E+00 -7.55371E+00 -7.39217E+00 -5.90120E+00 -6.51437E+00 -7.80479E+00
  -9.12163E+00 -8.31073E+00 -6.06002E+00 -1.00377E+01 -7.61234E+00 -1.05643E+01 -7.34942E+00 -7.96795E+00 -1.17840E+01 -9.13139E+00
  -8.42303E+00 -8.81931E+00 -9.85795E+00 -9.20570E+00 -7.78662E+00 -1.04830E+01 -7.90830E+00 -8.05272E+00 -8.70433E+00 -1.00783E+01
  -9.75644E+00 -8.88639E+00 -9.66206E+00 -1.03513E+01 -7.99630E+00 -9.57422E+00 -1.12696E+01 -8.70410E+00 -1.03755E+01 -8.75268E+00
  -7.61338E+00 -7.04034E+00 -1.11268E+01 -6.90981E+00 -9.32478E+00 -8.09434E+00 -9.11252E+00 -7.93618E+00 -7.91981E+00 -8.95280E+00
  -8.55686E+00 -9.09427E+00 -7.51875E+00 -7.21033E+00 -9.40719E+00 -9.13925E+00 -8.65073E+00 -8.68399E+00 -6.96531E+00 -7.32849E+00
  -7.80753E+00 -7.48149E+00 -8.93743E+00 -8.44801E+00 -7.24659E+00 -9.29104E+00 -8.62502E+00 -5.93863E+00 -6.80418E+00 -7.36571E+00
  -6.91460E+00 -6.99954E+00 -6.88067E+00 -8.02100E+00 -8.17718E+00 -8.59440E+00 -7.18973E+00 -7.12667E+00 -5.39274E+00 -6.23577E+00
  -7.76737E+00 -5.95434E+00 -8.79262E+00 -5.78972E+00 -8.52011E+00 -5.53888E+00 -9.18613E+00 -7.61644E+00 -6.62333E+00 -6.53765E+00
  -7.94619E+00 -8.17768E+00 -1.01671E+01 -7.74720E+00 -5.61865E+00 -5.49215E+00 -7.84459E+00 -4.61310E+00 -8.06069E+00 -7.20345E+00
  -7.40646E+00 -6.96423E+00 -7.89562E+00 -6.92716E+00 -8.28142E+00 -6.49167E+00 -6.87399E+00 -7.30823E+00 -7.26676E+00 -5.61257E+00
  -6.24272E+00 -6.66590E+00 -5.97677E+00 -5.84426E+00 -6.79633E+00 -6.24041E+00 -5.52109E+00 -6.86001E+00 -6.16621E+00 -5.88835E+00
  -6.29487E+00 -5.69362E+00 -6.20522E+00 -6.66352E+00 -6.59980E+00 -6.62746E+00 -5.20873E+00 -4.99159E+00
 NY points of the fit to the data follow
  -5.76206E+01 -5.73140E+01 -5.69521E+01 -5.65689E+01 -5.61811E+01 -5.58060E+01 -5.54379E+01 -5.49995E+01 -5.43799E+01 -5.36115E+01
  -5.28329E+01 -5.21666E+01 -5.16807E+01 -5.14149E+01 -5.13458E+01 -5.13304E+01 -5.11890E+01 -5.08712E+01 -5.04453E+01 -4.99704E+01
  -4.94730E+01 -4.89666E+01 -4.84648E+01 -4.80143E+01 -4.76904E+01 -4.74523E+01 -4.70249E+01 -4.62564E+01 -4.52720E+01 -4.42439E+01
  -4.32687E+01 -4.25149E+01 -4.22204E+01 -4.23758E+01 -4.26741E+01 -4.28977E+01 -4.30405E+01 -4.30990E+01 -4.29876E+01 -4.26959E+01
  -4.22998E+01 -4.18530E+01 -4.13413E+01 -4.06658E+01 -3.97342E+01 -3.86386E+01 -3.76560E+01 -3.70420E+01 -3.68997E+01 -3.71992E+01
  -3.77678E+01 -3.82824E+01 -3.84413E+01 -3.82054E+01 -3.77614E+01 -3.72471E+01 -3.66753E+01 -3.60490E+01 -3.54226E+01 -3.48830E+01
  -3.45001E+01 -3.43111E+01 -3.42993E+01 -3.43598E+01 -3.43531E+01 -3.41883E+01 -3.38681E+01 -3.34473E+01 -3.29757E+01 -3.25062E+01
  -3.20912E+01 -3.17553E+01 -3.14860E+01 -3.12688E+01 -3.11004E+01 -3.09619E+01 -3.08141E+01 -3.06350E+01 -3.04368E+01 -3.02330E+01
  -3.00215E+01 -2.98000E+01 -2.95807E+01 -2.94045E+01 -2.93164E+01 -2.93213E+01 -2.93672E+01 -2.93784E+01 -2.92893E+01 -2.90571E+01
  -2.86788E+01 -2.82166E+01 -2.77564E+01 -2.73673E+01 -2.70868E+01 -2.69184E+01 -2.68396E+01 -2.68119E+01 -2.67857E+01 -2.66658E+01
  -2.63428E+01 -2.58479E+01 -2.53241E+01 -2.49050E+01 -2.46535E+01 -2.45905E+01 -2.46843E+01 -2.48168E+01 -2.48523E+01 -2.47620E+01
  -2.46101E+01 -2.44485E+01 -2.42877E+01 -2.41308E+01 -2.39791E+01 -2.38344E+01 -2.37009E+01 -2.35796E+01 -2.34645E+01 -2.33484E+01
  -2.32230E+01 -2.30746E+01 -2.28822E+01 -2.25505E+01 -2.19684E+01 -2.12296E+01 -2.05506E+01 -2.00958E+01 -1.99252E+01 -2.00236E+01
  -2.02947E+01 -2.05788E+01 -2.07496E+01 -2.08391E+01 -2.09729E+01 -2.11806E+01 -2.13628E+01 -2.13921E+01 -2.11844E+01 -2.07904E+01
  -2.03525E+01 -1.99928E+01 -1.97654E+01 -1.96693E+01 -1.96590E+01 -1.96681E+01 -1.96465E+01 -1.95854E+01 -1.95051E+01 -1.94241E+01
  -1.93469E+01 -1.92758E+01 -1.92056E+01 -1.91234E+01 -1.90219E+01 -1.89056E+01 -1.87856E+01 -1.86796E+01 -1.86001E+01 -1.85427E+01
  -1.84873E+01 -1.84076E+01 -1.82961E+01 -1.81661E+01 -1.80372E+01 -1.79290E+01 -1.78522E+01 -1.77994E+01 -1.77500E+01 -1.76847E+01
  -1.76014E+01 -1.75164E+01 -1.74503E+01 -1.74087E+01 -1.73732E+01 -1.73224E+01 -1.72490E+01 -1.71634E+01 -1.70755E+01 -1.69898E+01
  -1.69118E+01 -1.68524E+01 -1.68106E+01 -1.67755E+01 -1.67353E+01 -1.66727E+01 -1.65569E+01 -1.63523E+01 -1.60511E+01 -1.57049E+01
  -1.54078E+01 -1.52368E+01 -1.52193E+01 -1.53413E+01 -1.55656E+01 -1.57960E+01 -1.59184E+01 -1.58766E+01 -1.56840E+01 -1.53788E+01
  -1.50058E+01 -1.46350E+01 -1.43425E+01 -1.41731E+01 -1.41231E+01 -1.41724E+01 -1.43469E+01 -1.46354E+01 -1.49449E+01 -1.51619E+01
  -1.51957E+01 -1.49869E+01 -1.44553E+01 -1.36713E+01 -1.29056E+01 -1.24225E+01 -1.23303E+01 -1.26458E+01 -1.33727E+01 -1.43737E+01
  -1.52878E+01 -1.57753E+01 -1.57663E+01 -1.53530E+01 -1.46401E+01 -1.37929E+01 -1.30656E+01 -1.26826E+01 -1.26709E+01 -1.28616E+01
  -1.30790E+01 -1.32315E+01 -1.32766E+01 -1.31694E+01 -1.28998E+01 -1.25723E+01 -1.23587E+01 -1.23478E+01 -1.25098E+01 -1.28133E+01
  -1.32013E+01 -1.35249E+01 -1.36209E+01 -1.34664E+01 -1.31566E+01 -1.27966E+01 -1.24865E+01 -1.23347E+01 -1.23830E+01 -1.25452E+01
  -1.26921E+01 -1.27530E+01 -1.27131E+01 -1.25893E+01 -1.24488E+01 -1.23368E+01 -1.20178E+01 -1.11455E+01 -9.85046E+00 -8.59315E+00
  -7.75172E+00 -7.52970E+00 -8.05255E+00 -9.20836E+00 -1.04919E+01 -1.13545E+01 -1.17212E+01 -1.18658E+01 -1.19656E+01 -1.20349E+01
  -1.20752E+01 -1.20820E+01 -1.20495E+01 -1.19874E+01 -1.19165E+01 -1.18575E+01 -1.18287E+01 -1.18358E+01 -1.18643E+01 -1.18949E+01
  -1.19181E+01 -1.19314E+01 -1.19328E+01 -1.19222E+01 -1.19042E+01 -1.18857E+01 -1.18703E+01 -1.18571E+01 -1.18453E+01 -1.18345E+01
  -1.18236E+01 -1.18116E+01 -1.17984E+01 -1.17847E+01 -1.17702E+01 -1.17547E+01 -1.17384E+01 -1.17216E+01 -1.17042E+01 -1.16861E+01
  -1.16669E+01 -1.16468E+01 -1.16258E+01 -1.16040E+01 -1.15815E+01 -1.15586E+01 -1.15351E+01 -1.15109E+01 -1.14856E+01 -1.14590E+01
  -1.14309E+01 -1.14013E+01 -1.13702E+01 -1.13371E+01 -1.13019E+01 -1.12641E+01 -1.12230E+01 -1.11780E+01 -1.11279E+01 -1.10709E+01
  -1.10036E+01 -1.09201E+01 -1.08051E+01 -1.06172E+01 -1.03559E+01 -1.01465E+01 -1.01138E+01 -1.02860E+01 -1.06188E+01 -1.10470E+01
  -1.14823E+01 -1.17756E+01 -1.17509E+01 -1.14080E+01 -1.08933E+01 -1.03370E+01 -9.81852E+00 -9.42585E+00 -9.24075E+00 -9.25203E+00
  -9.32716E+00 -9.34314E+00 -9.28379E+00 -9.18028E+00 -9.05171E+00 -8.92266E+00 -8.81324E+00 -8.72910E+00 -8.66671E+00 -8.61977E+00
  -8.57649E+00 -8.51049E+00 -8.40283E+00 -8.26577E+00 -8.12568E+00 -8.00003E+00 -7.89964E+00 -7.83648E+00 -7.81621E+00 -7.82771E+00
  -7.85132E+00 -7.87753E+00 -7.90872E+00 -7.94745E+00 -7.99334E+00 -8.04531E+00 -8.10207E+00 -8.16223E+00 -8.22440E+00 -8.28729E+00
  -8.34968E+00 -8.41053E+00 -8.46894E+00 -8.52420E+00 -8.57573E+00 -8.62315E+00 -8.66619E+00 -8.70471E+00 -8.73871E+00 -8.76825E+00
  -8.79345E+00 -8.81449E+00 -8.83160E+00 -8.84502E+00 -8.85498E+00 -8.86174E+00 -8.86554E+00 -8.86660E+00 -8.86514E+00 -8.86136E+00
  -8.85546E+00 -8.84760E+00 -8.83794E+00 -8.82665E+00 -8.81386E+00 -8.79971E+00 -8.78435E+00 -8.76789E+00 -8.75047E+00 -8.73222E+00
  -8.71327E+00 -8.69373E+00 -8.67373E+00 -8.65336E+00 -8.63272E+00 -8.61190E+00 -8.59098E+00 -8.56999E+00 -8.54900E+00 -8.52802E+00
  -8.50707E+00 -8.48617E+00 -8.46529E+00 -8.44440E+00 -8.42348E+00 -8.40245E+00 -8.38129E+00 -8.35993E+00 -8.33833E+00 -8.31644E+00
  -8.29422E+00 -8.27163E+00 -8.24865E+00 -8.22526E+00 -8.20144E+00 -8.17719E+00 -8.15251E+00 -8.12741E+00 -8.10191E+00 -8.07601E+00
  -8.04974E+00 -8.02311E+00 -7.99614E+00 -7.96885E+00 -7.94127E+00 -7.91342E+00 -7.88532E+00 -7.85697E+00 -7.82841E+00 -7.79965E+00
  -7.77070E+00 -7.74159E+00 -7.71231E+00 -7.68289E+00 -7.65333E+00 -7.62365E+00 -7.59387E+00 -7.56399E+00 -7.53402E+00 -7.50397E+00
  -7.47385E+00 -7.44367E+00 -7.41343E+00 -7.38315E+00 -7.35282E+00 -7.32244E+00 -7.29202E+00 -7.26156E+00 -7.23105E+00 -7.20050E+00
  -7.16990E+00 -7.13926E+00 -7.10857E+00 -7.07785E+00 -7.04708E+00 -7.01625E+00 -6.98539E+00 -6.95447E+00 -6.92352E+00 -6.89252E+00
  -6.86147E+00 -6.83036E+00 -6.79921E+00 -6.76800E+00 -6.73675E+00 -6.70544E+00 -6.67407E+00 -6.64265E+00 -6.61118E+00 -6.57965E+00
  -6.54807E+00 -6.51642E+00 -6.48471E+00 -6.45295E+00 -6.42112E+00 -6.38924E+00 -6.35729E+00 -6.32528E+00 -6.29320E+00 -6.26105E+00
  -6.22885E+00 -6.19658E+00 -6.16424E+00 -6.13183E+00 -6.09935E+00 -6.06681E+00 -6.03420E+00 -6.00153E+00
 NY background values follow
    -5.802E+01   -5.761E+01   -5.720E+01   -5.680E+01   -5.639E+01   -5.598E+01   -5.557E+01   -5.517E+01   -5.476E+01   -5.435E+01
    -5.395E+01   -5.354E+01   -5.313E+01   -5.273E+01   -5.233E+01   -5.192E+01   -5.152E+01   -5.112E+01   -5.072E+01   -5.032E+01
    -4.993E+01   -4.953E+01   -4.913E+01   -4.874E+01   -4.835E+01   -4.796E+01   -4.757E+01   -4.718E+01   -4.680E+01   -4.641E+01
    -4.603E+01   -4.565E+01   -4.528E+01   -4.490E+01   -4.453E+01   -4.416E+01   -4.379E+01   -4.342E+01   -4.306E+01   -4.270E+01
    -4.234E+01   -4.198E+01   -4.163E+01   -4.128E+01   -4.093E+01   -4.059E+01   -4.025E+01   -3.991E+01   -3.958E+01   -3.925E+01
    -3.892E+01   -3.859E+01   -3.827E+01   -3.795E+01   -3.764E+01   -3.732E+01   -3.702E+01   -3.671E+01   -3.640E+01   -3.610E+01
    -3.581E+01   -3.551E+01   -3.522E+01   -3.493E+01   -3.465E+01   -3.437E+01   -3.409E+01   -3.381E+01   -3.354E+01   -3.327E+01
    -3.300E+01   -3.273E+01   -3.247E+01   -3.221E+01   -3.196E+01   -3.171E+01   -3.146E+01   -3.121E+01   -3.097E+01   -3.073E+01
    -3.049E+01   -3.025E+01   -3.002E+01   -2.979E+01   -2.957E+01   -2.934E+01   -2.912E+01   -2.891E+01   -2.869E+01   -2.848E+01
    -2.827E+01   -2.807E+01   -2.786E+01   -2.766E+01   -2.746E+01   -2.727E+01   -2.708E+01   -2.689E+01   -2.670E+01   -2.652E+01
    -2.634E+01   -2.616E+01   -2.598E+01   -2.581E+01   -2.563E+01   -2.546E+01   -2.530E+01   -2.513E+01   -2.497E+01   -2.481E+01
    -2.465E+01   -2.449E+01   -2.434E+01   -2.418E+01   -2.403E+01   -2.388E+01   -2.373E+01   -2.359E+01   -2.345E+01   -2.330E+01
    -2.316E+01   -2.302E+01   -2.289E+01   -2.275E+01   -2.262E+01   -2.248E+01   -2.235E+01   -2.222E+01   -2.210E+01   -2.197E+01
    -2.184E+01   -2.172E+01   -2.159E+01   -2.147E+01   -2.135E+01   -2.123E+01   -2.111E+01   -2.099E+01   -2.087E+01   -2.076E+01
    -2.064E+01   -2.053E+01   -2.041E+01   -2.030E+01   -2.019E+01   -2.008E+01   -1.997E+01   -1.986E+01   -1.975E+01   -1.964E+01
    -1.954E+01   -1.943E+01   -1.933E+01   -1.922E+01   -1.912E+01   -1.902E+01   -1.892E+01   -1.882E+01   -1.872E+01   -1.862E+01
    -1.852E+01   -1.842E+01   -1.833E+01   -1.823E+01   -1.813E+01   -1.804E+01   -1.795E+01   -1.785E+01   -1.776E+01   -1.767E+01
    -1.758E+01   -1.749E+01   -1.740E+01   -1.731E+01   -1.722E+01   -1.714E+01   -1.705E+01   -1.696E+01   -1.688E+01   -1.679E+01
    -1.671E+01   -1.663E+01   -1.654E+01   -1.646E+01   -1.638E+01   -1.630E+01   -1.622E+01   -1.614E+01   -1.606E+01   -1.598E+01
    -1.591E+01   -1.583E+01   -1.575E+01   -1.568E+01   -1.560E+01   -1.553E+01   -1.546E+01   -1.538E+01   -1.531E+01   -1.524E+01
    -1.517E+01   -1.510E+01   -1.503E+01   -1.497E+01   -1.490E+01   -1.483E+01   -1.477E+01   -1.471E+01   -1.464E+01   -1.458E+01
    -1.452E+01   -1.446E+01   -1.440E+01   -1.434E+01   -1.428E+01   -1.422E+01   -1.417E+01   -1.411E+01   -1.406E+01   -1.400E+01
    -1.395E+01   -1.390E+01   -1.385E+01   -1.380E+01   -1.375E+01   -1.370E+01   -1.366E+01   -1.361E+01   -1.357E+01   -1.352E+01
    -1.348E+01   -1.344E+01   -1.340E+01   -1.336E+01   -1.332E+01   -1.328E+01   -1.324E+01   -1.321E+01   -1.317E+01   -1.314E+01
    -1.310E+01   -1.307E+01   -1.304E+01   -1.301E+01   -1.297E+01   -1.294E+01   -1.291E+01   -1.289E+01   -1.286E+01   -1.283E+01
    -1.280E+01   -1.278E+01   -1.275E+01   -1.272E+01   -1.270E+01   -1.268E+01   -1.265E+01   -1.263E+01   -1.261E+01   -1.258E+01
    -1.256E+01   -1.254E+01   -1.252E+01   -1.250E+01   -1.248E+01   -1.246E+01   -1.244E+01   -1.242E+01   -1.240E+01   -1.238E+01
    -1.236E+01   -1.234E+01   -1.232E+01   -1.231E+01   -1.229E+01   -1.227E+01   -1.225E+01   -1.224E+01   -1.222E+01   -1.220E+01
    -1.219E+01   -1.217E+01   -1.215E+01   -1.213E+01   -1.212E+01   -1.210E+01   -1.208E+01   -1.207E+01   -1.205E+01   -1.203E+01
    -1.202E+01   -1.200E+01   -1.198E+01   -1.196E+01   -1.195E+01   -1.193E+01   -1.191E+01   -1.189E+01   -1.187E+01   -1.185E+01
    -1.184E+01   -1.182E+01   -1.180E+01   -1.178E+01   -1.176E+01   -1.174E+01   -1.172E+01   -1.169E+01   -1.167E+01   -1.165E+01
    -1.163E+01   -1.161E+01   -1.158E+01   -1.156E+01   -1.153E+01   -1.151E+01   -1.148E+01   -1.146E+01   -1.143E+01   -1.140E+01
    -1.138E+01   -1.135E+01   -1.132E+01   -1.129E+01   -1.126E+01   -1.123E+01   -1.120E+01   -1.117E+01   -1.114E+01   -1.111E+01
    -1.108E+01   -1.105E+01   -1.102E+01   -1.098E+01   -1.095E+01   -1.092E+01   -1.089E+01   -1.085E+01   -1.082E+01   -1.079E+01
    -1.075E+01   -1.072E+01   -1.069E+01   -1.066E+01   -1.062E+01   -1.059E+01   -1.056E+01   -1.052E+01   -1.049E+01   -1.046E+01
    -1.042E+01   -1.039E+01   -1.036E+01   -1.033E+01   -1.029E+01   -1.026E+01   -1.023E+01   -1.020E+01   -1.017E+01   -1.014E+01
    -1.011E+01   -1.008E+01   -1.005E+01   -1.002E+01   -9.989E+00   -9.961E+00   -9.932E+00   -9.904E+00   -9.877E+00   -9.849E+00
    -9.822E+00   -9.795E+00   -9.769E+00   -9.742E+00   -9.716E+00   -9.690E+00   -9.664E+00   -9.639E+00   -9.613E+00   -9.588E+00
    -9.563E+00   -9.538E+00   -9.513E+00   -9.488E+00   -9.464E+00   -9.439E+00   -9.414E+00   -9.390E+00   -9.365E+00   -9.341E+00
    -9.316E+00   -9.292E+00   -9.267E+00   -9.243E+00   -9.218E+00   -9.194E+00   -9.169E+00   -9.144E+00   -9.119E+00   -9.094E+00
    -9.069E+00   -9.043E+00   -9.018E+00   -8.992E+00   -8.966E+00   -8.940E+00   -8.914E+00   -8.888E+00   -8.861E+00   -8.834E+00
    -8.807E+00   -8.779E+00   -8.752E+00   -8.724E+00   -8.696E+00   -8.668E+00   -8.639E+00   -8.610E+00   -8.582E+00   -8.553E+00
    -8.524E+00   -8.494E+00   -8.465E+00   -8.435E+00   -8.405E+00   -8.376E+00   -8.345E+00   -8.315E+00   -8.285E+00   -8.255E+00
    -8.224E+00   -8.193E+00   -8.162E+00   -8.132E+00   -8.101E+00   -8.070E+00   -8.038E+00   -8.007E+00   -7.976E+00   -7.944E+00
    -7.913E+00   -7.881E+00   -7.850E+00   -7.818E+00   -7.787E+00   -7.755E+00   -7.723E+00   -7.691E+00   -7.660E+00   -7.628E+00
    -7.596E+00   -7.564E+00   -7.532E+00   -7.500E+00   -7.469E+00   -7.437E+00   -7.405E+00   -7.373E+00   -7.341E+00   -7.309E+00
    -7.277E+00   -7.245E+00   -7.214E+00   -7.182E+00   -7.150E+00   -7.118E+00   -7.086E+00   -7.054E+00   -7.022E+00   -6.990E+00
    -6.957E+00   -6.925E+00   -6.893E+00   -6.861E+00   -6.829E+00   -6.796E+00   -6.764E+00   -6.732E+00   -6.699E+00   -6.667E+00
    -6.634E+00   -6.602E+00   -6.569E+00   -6.537E+00   -6.504E+00   -6.471E+00   -6.438E+00   -6.406E+00   -6.373E+00   -6.340E+00
    -6.307E+00   -6.273E+00   -6.240E+00   -6.207E+00   -6.174E+00   -6.140E+00   -6.107E+00   -6.073E+00
 Ala      Conc. = 5.74E+01
