 LCModel (Version 6.3-1L) Copyright: S.W. Provencher.          Ref.: Magn. Reson. Med. 30:672-679 (1993).                
 Slice#1 Row#12 Col#7  PD_05_press_1_raw_act
 36 lines in following concentration table = NCONC+1
    Conc.  %SD /Cr+PCr  Metabolite                                         
   94.219  86%   0.116 Ala                                                 
    0.000 999%   0.000 Asp                                                 
  631.804  22%   0.776 Cr                                                  
  182.748  77%   0.224 PCr                                                 
    0.000 999%   0.000 GABA                                                
    7.089 999% 8.7E-03 Glc                                                 
  657.165  25%   0.807 Gln                                                 
 1.14E+03  16%   1.404 Glu                                                 
  241.581   6%   0.297 GPC                                                 
    0.000 999%   0.000 PCh                                                 
  291.320  18%   0.358 GSH                                                 
 1.30E+03  12%   1.598 Ins                                                 
   66.396 132% 8.2E-02 Lac                                                 
 1.80E+03   3%   2.209 NAA                                                 
    0.000 999%   0.000 NAAG                                                
   65.703  27% 8.1E-02 Scyllo                                              
   86.887 151%   0.107 Tau                                                 
  148.549  48%   0.182 -CrCH2                                              
  241.581   6%   0.297 GPC+PCh                                             
 1.80E+03   3%   2.209 NAA+NAAG                                            
  814.552   5%   1.000 Cr+PCr                                              
 1.80E+03  14%   2.211 Glu+Gln                                             
 1.21E+03  30%   1.485 Lip13a                                              
    0.000 999%   0.000 Lip13b                                              
  119.559 150%   0.147 Lip09                                               
  986.406  20%   1.211 MM09                                                
  165.591  76%   0.203 Lip20                                               
 1.95E+03  12%   2.396 MM20                                                
  365.376  35%   0.449 MM12                                                
 1.06E+03  25%   1.300 MM14                                                
  685.603  22%   0.842 MM17                                                
 1.21E+03  30%   1.485 Lip13a+Lip13b                                       
 2.63E+03  10%   3.233 MM14+Lip13a+Lip13b+MM12                             
 1.11E+03  11%   1.358 MM09+Lip09                                          
 2.12E+03  11%   2.599 MM20+Lip20                                          
   6 lines in following misc. output table
  FWHM = 0.054 ppm    S/N =  13                                            
  Data shift = 0.023 ppm                                                   
  Ph: -19 deg       4.2 deg/ppm                                            
  alphaB,S = 8.5E+01,   1.4E+02                                            
   14 spline knots.   Ns = 7(1)                                            
   5 inflections.     1 extrema                                            
  498 points on ppm-axis = NY
      4.000000     3.992357     3.984714     3.977070     3.969427     3.961784     3.954141     3.946497     3.938854     3.931211
      3.923568     3.915925     3.908281     3.900638     3.892995     3.885352     3.877708     3.870065     3.862422     3.854779
      3.847136     3.839492     3.831849     3.824206     3.816563     3.808919     3.801276     3.793633     3.785990     3.778347
      3.770703     3.763060     3.755417     3.747774     3.740130     3.732487     3.724844     3.717201     3.709558     3.701914
      3.694271     3.686628     3.678985     3.671341     3.663698     3.656055     3.648412     3.640769     3.633125     3.625482
      3.617839     3.610196     3.602552     3.594909     3.587266     3.579623     3.571980     3.564336     3.556693     3.549050
      3.541407     3.533763     3.526120     3.518477     3.510834     3.503191     3.495547     3.487904     3.480261     3.472618
      3.464974     3.457331     3.449688     3.442045     3.434402     3.426758     3.419115     3.411472     3.403829     3.396185
      3.388542     3.380899     3.373256     3.365613     3.357969     3.350326     3.342683     3.335040     3.327396     3.319753
      3.312110     3.304467     3.296824     3.289180     3.281537     3.273894     3.266251     3.258607     3.250964     3.243321
      3.235678     3.228034     3.220391     3.212748     3.205105     3.197462     3.189818     3.182175     3.174532     3.166889
      3.159245     3.151602     3.143959     3.136316     3.128673     3.121029     3.113386     3.105743     3.098100     3.090456
      3.082813     3.075170     3.067527     3.059884     3.052240     3.044597     3.036954     3.029311     3.021667     3.014024
      3.006381     2.998738     2.991095     2.983451     2.975808     2.968165     2.960522     2.952878     2.945235     2.937592
      2.929949     2.922306     2.914662     2.907019     2.899376     2.891733     2.884089     2.876446     2.868803     2.861160
      2.853517     2.845873     2.838230     2.830587     2.822944     2.815300     2.807657     2.800014     2.792371     2.784728
      2.777084     2.769441     2.761798     2.754155     2.746511     2.738868     2.731225     2.723582     2.715939     2.708295
      2.700652     2.693009     2.685366     2.677722     2.670079     2.662436     2.654793     2.647150     2.639506     2.631863
      2.624220     2.616577     2.608933     2.601290     2.593647     2.586004     2.578361     2.570717     2.563074     2.555431
      2.547788     2.540144     2.532501     2.524858     2.517215     2.509572     2.501928     2.494285     2.486642     2.478999
      2.471355     2.463712     2.456069     2.448426     2.440783     2.433139     2.425496     2.417853     2.410210     2.402566
      2.394923     2.387280     2.379637     2.371994     2.364350     2.356707     2.349064     2.341421     2.333777     2.326134
      2.318491     2.310848     2.303205     2.295561     2.287918     2.280275     2.272632     2.264988     2.257345     2.249702
      2.242059     2.234416     2.226772     2.219129     2.211486     2.203843     2.196199     2.188556     2.180913     2.173270
      2.165627     2.157983     2.150340     2.142697     2.135054     2.127410     2.119767     2.112124     2.104481     2.096838
      2.089194     2.081551     2.073908     2.066265     2.058621     2.050978     2.043335     2.035692     2.028049     2.020405
      2.012762     2.005119     1.997476     1.989833     1.982190     1.974546     1.966903     1.959260     1.951617     1.943974
      1.936331     1.928688     1.921045     1.913402     1.905759     1.898115     1.890472     1.882829     1.875186     1.867543
      1.859900     1.852257     1.844614     1.836971     1.829327     1.821684     1.814041     1.806398     1.798755     1.791112
      1.783469     1.775826     1.768183     1.760540     1.752896     1.745253     1.737610     1.729967     1.722324     1.714681
      1.707038     1.699395     1.691752     1.684108     1.676465     1.668822     1.661179     1.653536     1.645893     1.638250
      1.630607     1.622964     1.615321     1.607677     1.600034     1.592391     1.584748     1.577105     1.569462     1.561819
      1.554176     1.546533     1.538890     1.531246     1.523603     1.515960     1.508317     1.500674     1.493031     1.485388
      1.477745     1.470102     1.462458     1.454815     1.447172     1.439529     1.431886     1.424243     1.416600     1.408957
      1.401314     1.393671     1.386027     1.378384     1.370741     1.363098     1.355455     1.347812     1.340169     1.332526
      1.324883     1.317240     1.309596     1.301953     1.294310     1.286667     1.279024     1.271381     1.263738     1.256095
      1.248452     1.240808     1.233165     1.225522     1.217879     1.210236     1.202593     1.194950     1.187307     1.179664
      1.172021     1.164377     1.156734     1.149091     1.141448     1.133805     1.126162     1.118519     1.110876     1.103233
      1.095590     1.087946     1.080303     1.072660     1.065017     1.057374     1.049731     1.042088     1.034445     1.026802
      1.019158     1.011515     1.003872     0.996229     0.988586     0.980943     0.973300     0.965657     0.958014     0.950371
      0.942727     0.935084     0.927441     0.919798     0.912155     0.904512     0.896869     0.889226     0.881583     0.873940
      0.866296     0.858653     0.851010     0.843367     0.835724     0.828081     0.820438     0.812795     0.805152     0.797508
      0.789865     0.782222     0.774579     0.766936     0.759293     0.751650     0.744007     0.736364     0.728721     0.721077
      0.713434     0.705791     0.698148     0.690505     0.682862     0.675219     0.667576     0.659933     0.652290     0.644646
      0.637003     0.629360     0.621717     0.614074     0.606431     0.598788     0.591145     0.583502     0.575858     0.568215
      0.560572     0.552929     0.545286     0.537643     0.530000     0.522357     0.514714     0.507071     0.499427     0.491784
      0.484141     0.476498     0.468855     0.461212     0.453569     0.445925     0.438282     0.430639     0.422996     0.415353
      0.407710     0.400067     0.392424     0.384780     0.377137     0.369494     0.361851     0.354208     0.346565     0.338922
      0.331278     0.323635     0.315992     0.308349     0.300706     0.293063     0.285420     0.277777     0.270133     0.262490
      0.254847     0.247204     0.239561     0.231918     0.224275     0.216631     0.208988     0.201345
 NY phased data points follow
  -1.55740E+00  4.80099E+00  1.50461E+00  1.70898E+00  1.01985E+00  1.36800E+00  5.37008E+00  7.25016E+00  6.85514E+00  9.67480E+00
   1.37483E+01  1.47013E+01  1.33039E+01  1.25571E+01  1.26324E+01  8.22263E+00  5.07848E+00  9.13657E+00  3.26583E+00  2.27182E+00
   1.66241E+00  4.47789E+00  1.88732E+00  4.74636E-01  8.24920E+00 -1.57556E-01  3.70935E+00  9.35196E-01  4.68517E-01  8.87736E+00
   6.80580E+00  6.29621E+00  8.04719E+00  7.67364E+00  9.09574E-01  4.49688E+00  4.92385E+00  3.67615E+00  4.48200E+00  5.29243E+00
   3.82117E+00  2.64600E+00  3.46368E+00  4.67798E+00  5.11384E+00  7.92249E+00  7.27644E+00  8.38837E+00  8.92381E+00  6.36721E+00
   5.67054E+00  7.52119E+00  4.48109E+00  3.74622E+00  2.47453E+00 -9.05240E-01  1.26424E+00  4.67972E-01  4.56217E+00  2.94458E+00
   8.00089E-01  3.13428E+00  4.38787E+00  3.20033E-01  5.42685E-01 -1.14125E+00 -7.84158E-01  1.12938E+00 -3.18481E+00 -7.57870E-01
  -2.27330E-01 -4.32997E-01 -1.04180E+00  5.17526E-01  1.33706E+00 -1.36998E+00 -6.47228E-01 -4.38522E-01 -2.59541E+00  3.20365E+00
   2.79479E+00 -4.26860E-01  9.64848E-01  1.43694E+00 -1.66948E+00  3.69269E-01  1.87509E+00 -1.26118E+00  2.48060E+00  1.06044E+00
  -1.34574E+00  2.70806E-02  1.36077E+00 -1.27676E-01  6.58165E-01  3.96211E+00  1.00473E+00  6.81601E+00  5.18047E+00  5.74652E+00
   8.06317E+00  1.26752E+01  1.46271E+01  1.83664E+01  1.88697E+01  1.49181E+01  1.42198E+01  1.24961E+01  6.39729E+00  3.91796E+00
   7.16457E+00  2.21302E+00 -2.81997E-01  7.87897E-01  3.72361E-01  1.34864E+00  5.93246E-01  1.55869E+00  9.40372E-01  4.48933E-01
   2.37734E+00  4.99878E-01  5.36348E+00  3.09202E+00  1.02904E+01  1.38085E+01  2.56419E+01  2.86953E+01  2.73111E+01  2.40997E+01
   1.84098E+01  1.23383E+01  9.59595E+00  7.15000E+00  1.13249E+00  5.12459E+00  2.79712E+00  2.94724E+00  6.25475E-01  4.48301E+00
   3.44823E-01 -2.71132E-01  1.35356E+00  1.49245E+00 -1.88705E+00 -3.82046E+00 -1.19852E+00 -1.14312E+00 -1.97216E+00  1.49412E-02
  -1.51490E+00  8.63739E-01 -5.51834E+00 -3.94399E+00 -1.84934E+00 -4.68107E-01 -2.22617E+00 -5.37284E+00 -1.75003E+00  2.94719E+00
   1.19282E+00 -2.33169E-01 -3.85443E+00 -6.32321E-01 -7.07530E-01 -3.24829E+00 -2.54705E+00 -3.86738E+00 -5.32991E+00 -7.36647E+00
  -5.87364E+00 -4.93835E+00 -7.62654E+00 -7.97198E+00 -7.42771E+00 -1.29129E+01 -1.02790E+01 -1.02807E+01 -1.08936E+01 -1.08248E+01
  -1.35348E+01 -9.98518E+00 -5.81059E+00 -6.52444E+00 -4.40699E+00 -5.08628E+00 -6.11605E-01 -5.37921E+00 -3.37124E+00 -5.61903E+00
  -4.52512E+00 -2.41785E+00 -2.42444E+00 -4.05703E+00 -2.54604E+00 -5.71930E+00 -3.87697E+00 -5.60595E+00 -7.19885E+00 -7.04303E+00
  -7.33141E+00 -3.92373E+00 -5.13726E-01  6.73119E-01 -1.07582E+00  8.53240E-01 -3.41231E+00 -2.18806E+00 -4.24455E+00 -2.75988E+00
  -4.15443E+00 -9.67344E-01 -1.18057E-01  7.69015E-01  6.26666E+00  6.82916E+00  4.84523E+00  6.47002E+00  6.56119E+00  1.75260E+00
  -2.44052E+00 -4.60963E+00 -3.59900E+00 -4.21152E-01 -1.93815E+00  6.00609E-01 -1.22024E+00  1.03293E+00  4.63918E+00  2.31304E+00
   5.51324E+00  5.70471E+00  4.61501E+00  1.72311E+00  5.42178E+00  4.08330E+00  2.04019E+00  4.23502E+00  1.62040E+00  3.32819E+00
   3.41329E+00  2.24016E+00  8.03685E-02 -5.91725E-01  2.57595E-01  3.05480E+00  6.27667E+00  6.39489E+00  8.50855E+00  7.40073E+00
   4.71859E+00  9.85584E+00  1.08801E+01  1.51666E+01  1.65656E+01  1.84401E+01  2.61368E+01  3.11665E+01  4.19901E+01  6.36179E+01
   6.79302E+01  6.39375E+01  5.67218E+01  4.61793E+01  3.32908E+01  2.29661E+01  2.05663E+01  1.48459E+01  7.57301E+00  5.83320E+00
   5.23108E+00  2.83568E+00  2.57617E+00 -2.91277E-02  1.14720E+00  1.74934E+00  1.41424E-01  2.28077E+00  1.45322E+00  3.02889E+00
  -2.10944E+00  1.50816E+00  4.18805E+00  1.55906E+00 -6.87104E-02  3.44219E-01 -2.64679E+00 -2.78835E+00 -2.32453E+00 -3.78489E-01
  -2.43680E+00 -3.09538E+00 -2.21213E+00 -2.36081E+00  2.28209E+00  1.04636E+00 -6.03524E-01 -7.65160E-01  5.83476E-01 -1.81629E+00
   5.84999E+00  3.37164E+00  3.24363E+00  1.27172E+00  4.13803E+00  7.43868E-01  7.07395E-01  4.71398E+00  4.36150E+00  2.55704E+00
   5.32465E+00  6.66118E+00  5.15906E+00  7.05994E+00  5.62880E+00  8.45694E+00  5.05115E+00  5.05632E+00  4.59237E+00  6.39406E+00
   4.09479E+00  9.54989E-01  6.24124E+00  4.85610E+00  4.24021E+00  3.14506E+00  3.58930E+00  6.44067E+00  5.59061E+00  4.11196E+00
   2.89066E+00  6.59778E+00  4.39906E-01  5.46179E+00  4.70690E+00  6.27108E+00  5.39628E+00  4.97981E+00  4.76118E+00  7.88935E+00
   1.14797E+01  5.84668E+00  5.50489E+00  3.69171E+00  5.51633E+00  7.78419E+00  8.91946E+00  7.63214E+00  1.01876E+01  9.19489E+00
   5.53254E+00  4.73900E+00  6.34698E+00  5.44187E+00  5.67930E+00  5.74419E+00  6.00428E+00  6.28003E+00  5.07531E+00  5.84479E+00
   6.22986E+00  9.78230E+00  2.89783E+00  5.08677E+00  3.10367E+00  9.34674E+00  6.83004E+00  5.33401E+00  5.78033E+00  5.54724E+00
   6.15953E+00  4.72307E+00  8.01464E+00  4.05094E+00  5.50487E+00  3.55748E+00  3.52817E+00  6.42863E+00  3.14931E+00  1.80103E+00
   2.07961E+00  1.91128E+00  1.70280E+00  1.98682E+00  1.48892E+00  1.98810E+00  1.33718E-01  7.74575E-01  7.45483E-01  8.54561E-01
   1.33309E+00  4.00672E+00  2.72653E+00  2.43702E+00  4.38190E+00  5.42280E+00  3.97203E+00  5.14036E+00  8.82627E+00  3.85697E+00
   4.39950E+00  6.85491E+00  7.24251E+00  6.15333E+00  5.96334E+00  6.94393E+00  4.26460E+00  5.94817E+00  7.25431E+00  9.41429E+00
   7.98546E+00  6.20332E+00  6.70967E+00  5.06559E+00  4.62588E+00  3.50595E+00  5.71013E+00  5.31507E+00  5.24941E+00  2.61420E+00
   2.92348E+00  1.94932E+00  2.12846E+00 -1.17665E+00  2.31861E+00 -2.36245E+00  2.25083E+00  1.59405E+00  4.13464E-01  6.93212E-01
   8.78329E-01 -6.57310E-01 -2.92865E-02 -1.13538E+00 -3.06338E+00 -2.58006E+00 -1.81726E+00  4.32381E-01  1.44727E+00  8.20152E-01
   2.29801E+00  1.07521E+00 -1.30470E+00  1.51568E+00  2.77101E-01 -2.17449E+00 -5.77100E-01  1.62048E+00  1.75037E+00 -1.68002E+00
  -1.12370E+00  1.23377E+00  1.80746E+00  1.51459E-01  5.20980E-01  2.90056E+00 -7.35768E-01  8.01838E-01 -2.08884E+00 -9.88941E-01
  -3.19315E+00  3.53085E-01 -1.06696E-01 -6.18376E-01 -1.68123E+00 -1.17625E+00 -3.28221E+00  1.09490E+00 -2.64753E+00 -1.86377E-01
   8.11101E-01 -6.92747E-01  2.67069E-01 -1.37022E+00 -2.51203E+00 -7.53302E-01  1.73490E+00 -1.45301E+00 -8.74829E-01 -1.97331E+00
  -1.04174E+00 -1.88670E+00 -2.68652E-02  3.24335E+00 -3.19166E+00 -1.27690E+00 -2.92009E+00  1.22083E+00 -2.60257E-01  3.62755E-01
  -1.87023E-01  3.67196E-01 -2.24837E+00 -1.49759E+00 -9.91928E-02  1.20620E+00 -9.63899E-01  1.79337E-01
 NY points of the fit to the data follow
   1.77998E+00  1.17345E+00  9.52181E-01  1.03830E+00  1.57509E+00  2.79556E+00  4.18545E+00  5.68223E+00  7.64356E+00  1.02161E+01
   1.29337E+01  1.47615E+01  1.49085E+01  1.34810E+01  1.11502E+01  8.63660E+00  6.48200E+00  4.87966E+00  3.62299E+00  2.44929E+00
   1.59228E+00  1.26969E+00  1.20092E+00  1.35803E+00  1.49376E+00  1.57336E+00  1.85284E+00  2.71711E+00  4.27072E+00  6.11276E+00
   7.66022E+00  8.51038E+00  8.44411E+00  7.49927E+00  5.96352E+00  4.29155E+00  2.84403E+00  1.64156E+00  7.71003E-01  4.47794E-01
   6.53444E-01  1.30743E+00  2.15520E+00  3.11958E+00  4.35465E+00  5.96459E+00  7.70211E+00  8.90998E+00  8.96502E+00  7.81403E+00
   5.85407E+00  3.66817E+00  1.87040E+00  7.62275E-01  1.60483E-01 -1.46348E-01 -1.20587E-01  3.73126E-01  1.19648E+00  2.01217E+00
   2.53754E+00  2.61131E+00  2.22323E+00  1.52031E+00  7.69188E-01  2.83107E-01  1.34121E-01  2.00449E-01  4.26728E-01  7.95712E-01
   1.23033E+00  1.65220E+00  1.93265E+00  2.01067E+00  1.90400E+00  1.65173E+00  1.31200E+00  9.63708E-01  6.80832E-01  5.39380E-01
   5.42523E-01  5.81188E-01  6.36009E-01  7.92739E-01  1.07311E+00  1.29987E+00  1.17949E+00  6.19906E-01 -1.65906E-01 -8.62646E-01
  -1.25754E+00 -1.31641E+00 -1.12124E+00 -8.55392E-01 -6.14902E-01 -2.17037E-01  8.55363E-01  2.45357E+00  3.89324E+00  5.56378E+00
   8.27612E+00  1.22760E+01  1.66011E+01  1.94602E+01  1.96788E+01  1.75012E+01  1.39532E+01  1.01238E+01  6.87321E+00  4.41834E+00
   2.35745E+00  4.52865E-01 -7.44179E-01 -1.04146E+00 -1.06437E+00 -1.01537E+00 -9.36614E-01 -8.20817E-01 -6.32719E-01 -2.00256E-01
   1.09036E+00  3.24809E+00  5.46345E+00  8.03276E+00  1.17813E+01  1.69145E+01  2.23076E+01  2.58532E+01  2.61390E+01  2.34971E+01
   1.92223E+01  1.46340E+01  1.06716E+01  7.46983E+00  4.50302E+00  1.59801E+00 -4.19462E-01 -1.13432E+00 -1.19704E+00 -9.28011E-01
  -5.54535E-01 -2.57701E-01 -9.19171E-02 -5.98190E-02 -1.64021E-01 -3.48596E-01 -5.59044E-01 -7.81416E-01 -1.00182E+00 -1.21202E+00
  -1.39190E+00 -1.52551E+00 -1.62972E+00 -1.73406E+00 -1.88034E+00 -2.00008E+00 -2.08367E+00 -2.17880E+00 -2.34536E+00 -2.67387E+00
  -3.01586E+00 -3.13607E+00 -2.97121E+00 -2.67126E+00 -2.48543E+00 -2.57551E+00 -2.91650E+00 -3.36027E+00 -3.77207E+00 -4.14983E+00
  -4.48756E+00 -4.76177E+00 -5.07559E+00 -5.44904E+00 -5.80773E+00 -5.99378E+00 -5.88599E+00 -5.59900E+00 -5.37566E+00 -5.34781E+00
  -5.46769E+00 -5.50294E+00 -5.37775E+00 -5.16791E+00 -4.96762E+00 -4.78691E+00 -4.42476E+00 -3.68504E+00 -2.63077E+00 -1.53403E+00
  -7.23054E-01 -3.94328E-01 -4.63880E-01 -7.36927E-01 -1.05958E+00 -1.40400E+00 -1.71231E+00 -1.72905E+00 -1.34937E+00 -6.08962E-01
   3.58280E-01  1.37364E+00  2.14108E+00  2.37876E+00  2.07903E+00  1.16559E+00 -3.91745E-01 -2.29993E+00 -4.00058E+00 -4.87995E+00
  -4.86069E+00 -4.14294E+00 -2.73029E+00 -6.67992E-01  1.57651E+00  3.24378E+00  3.81965E+00  3.32980E+00  1.92113E+00 -2.05347E-01
  -2.42985E+00 -4.16757E+00 -4.98993E+00 -4.68559E+00 -3.48071E+00 -1.69028E+00  1.75847E-01  1.63723E+00  2.47188E+00  2.80859E+00
   2.93101E+00  2.88224E+00  2.68189E+00  2.55186E+00  2.70855E+00  3.13561E+00  3.72177E+00  4.30040E+00  4.69568E+00  4.74529E+00
   4.31130E+00  3.57146E+00  2.97105E+00  2.80964E+00  3.04582E+00  3.55003E+00  4.26803E+00  5.02159E+00  5.63367E+00  6.09813E+00
   6.54522E+00  7.02485E+00  8.08554E+00  1.15982E+01  1.62733E+01  2.05570E+01  2.59366E+01  3.45853E+01  4.66015E+01  5.84511E+01
   6.50152E+01  6.39754E+01  5.67806E+01  4.63710E+01  3.57361E+01  2.70191E+01  2.03038E+01  1.41004E+01  8.28436E+00  5.07551E+00
   3.92109E+00  3.26993E+00  2.85086E+00  2.60290E+00  2.42538E+00  2.23921E+00  2.03714E+00  1.80725E+00  1.55340E+00  1.29376E+00
   1.04300E+00  8.03648E-01  5.90054E-01  4.17576E-01  2.82128E-01  1.70831E-01  7.65280E-02  7.12691E-04 -5.18239E-02 -8.24967E-02
  -9.43400E-02 -8.23985E-02 -4.22294E-02  2.89291E-02  1.33170E-01  2.72058E-01  4.46882E-01  6.57056E-01  9.01989E-01  1.18119E+00
   1.49217E+00  1.83017E+00  2.18923E+00  2.56170E+00  2.93892E+00  3.31125E+00  3.66874E+00  4.00141E+00  4.30043E+00  4.55830E+00
   4.76931E+00  4.92950E+00  5.03763E+00  5.09484E+00  5.10525E+00  5.07562E+00  5.01529E+00  4.93547E+00  4.85021E+00  4.77972E+00
   4.75340E+00  4.74630E+00  4.72625E+00  4.73472E+00  4.79591E+00  4.86700E+00  4.84801E+00  4.65409E+00  4.33966E+00  4.04646E+00
   3.82859E+00  3.72335E+00  3.78625E+00  4.05559E+00  4.51329E+00  5.08138E+00  5.66517E+00  6.15338E+00  6.47611E+00  6.66673E+00
   6.80307E+00  6.92577E+00  7.00419E+00  7.03403E+00  7.06306E+00  7.12168E+00  7.12734E+00  6.99958E+00  6.76693E+00  6.51131E+00
   6.27611E+00  6.10616E+00  6.05475E+00  6.15040E+00  6.36282E+00  6.61701E+00  6.84986E+00  7.00353E+00  7.02952E+00  6.94828E+00
   6.80496E+00  6.63199E+00  6.42539E+00  6.16984E+00  5.89602E+00  5.63286E+00  5.37046E+00  5.10412E+00  4.83387E+00  4.56138E+00
   4.28935E+00  4.02082E+00  3.75899E+00  3.50673E+00  3.26690E+00  3.04214E+00  2.83522E+00  2.64857E+00  2.48446E+00  2.34470E+00
   2.23115E+00  2.14548E+00  2.08955E+00  2.06489E+00  2.07290E+00  2.11466E+00  2.19125E+00  2.30345E+00  2.45189E+00  2.63639E+00
   2.85619E+00  3.10963E+00  3.39437E+00  3.70707E+00  4.04337E+00  4.39754E+00  4.76289E+00  5.13162E+00  5.49546E+00  5.84548E+00
   6.17258E+00  6.46754E+00  6.72180E+00  6.92763E+00  7.07883E+00  7.17060E+00  7.19996E+00  7.16566E+00  7.06860E+00  6.91154E+00
   6.69917E+00  6.43742E+00  6.13340E+00  5.79483E+00  5.43005E+00  5.04738E+00  4.65498E+00  4.26018E+00  3.86956E+00  3.48865E+00
   3.12215E+00  2.77366E+00  2.44583E+00  2.14013E+00  1.85732E+00  1.59737E+00  1.35993E+00  1.14407E+00  9.48647E-01  7.72056E-01
   6.12769E-01  4.69161E-01  3.39857E-01  2.23351E-01  1.18295E-01  2.32524E-02 -6.28811E-02 -1.41153E-01 -2.12321E-01 -2.77261E-01
  -3.36677E-01 -3.91335E-01 -4.41689E-01 -4.88204E-01 -5.31161E-01 -5.71028E-01 -6.08124E-01 -6.42841E-01 -6.75293E-01 -7.05687E-01
  -7.34116E-01 -7.60882E-01 -7.86128E-01 -8.10056E-01 -8.32635E-01 -8.53981E-01 -8.74134E-01 -8.93332E-01 -9.11622E-01 -9.29109E-01
  -9.45706E-01 -9.61516E-01 -9.76567E-01 -9.91052E-01 -1.00495E+00 -1.01831E+00 -1.03103E+00 -1.04324E+00 -1.05495E+00 -1.06634E+00
  -1.07731E+00 -1.08789E+00 -1.09800E+00 -1.10778E+00 -1.11724E+00 -1.12650E+00 -1.13543E+00 -1.14408E+00 -1.15238E+00 -1.16049E+00
  -1.16840E+00 -1.17618E+00 -1.18371E+00 -1.19102E+00 -1.19810E+00 -1.20510E+00 -1.21198E+00 -1.21877E+00 -1.22536E+00 -1.23183E+00
  -1.23816E+00 -1.24450E+00 -1.25078E+00 -1.25702E+00 -1.26312E+00 -1.26919E+00 -1.27525E+00 -1.28141E+00
 NY background values follow
    -2.778E+00   -2.777E+00   -2.776E+00   -2.774E+00   -2.773E+00   -2.772E+00   -2.770E+00   -2.769E+00   -2.768E+00   -2.766E+00
    -2.765E+00   -2.764E+00   -2.762E+00   -2.761E+00   -2.760E+00   -2.758E+00   -2.757E+00   -2.756E+00   -2.754E+00   -2.753E+00
    -2.752E+00   -2.750E+00   -2.749E+00   -2.748E+00   -2.746E+00   -2.745E+00   -2.744E+00   -2.742E+00   -2.741E+00   -2.740E+00
    -2.738E+00   -2.737E+00   -2.736E+00   -2.734E+00   -2.733E+00   -2.732E+00   -2.730E+00   -2.729E+00   -2.728E+00   -2.726E+00
    -2.725E+00   -2.724E+00   -2.722E+00   -2.721E+00   -2.720E+00   -2.718E+00   -2.717E+00   -2.715E+00   -2.714E+00   -2.713E+00
    -2.711E+00   -2.710E+00   -2.709E+00   -2.707E+00   -2.706E+00   -2.705E+00   -2.703E+00   -2.702E+00   -2.700E+00   -2.699E+00
    -2.698E+00   -2.696E+00   -2.695E+00   -2.694E+00   -2.692E+00   -2.691E+00   -2.690E+00   -2.688E+00   -2.687E+00   -2.685E+00
    -2.684E+00   -2.683E+00   -2.681E+00   -2.680E+00   -2.678E+00   -2.677E+00   -2.676E+00   -2.674E+00   -2.673E+00   -2.672E+00
    -2.670E+00   -2.669E+00   -2.667E+00   -2.666E+00   -2.665E+00   -2.663E+00   -2.662E+00   -2.660E+00   -2.659E+00   -2.658E+00
    -2.656E+00   -2.655E+00   -2.653E+00   -2.652E+00   -2.651E+00   -2.649E+00   -2.648E+00   -2.646E+00   -2.645E+00   -2.644E+00
    -2.642E+00   -2.641E+00   -2.639E+00   -2.638E+00   -2.637E+00   -2.635E+00   -2.634E+00   -2.632E+00   -2.631E+00   -2.630E+00
    -2.628E+00   -2.627E+00   -2.625E+00   -2.624E+00   -2.622E+00   -2.621E+00   -2.620E+00   -2.618E+00   -2.617E+00   -2.615E+00
    -2.614E+00   -2.612E+00   -2.611E+00   -2.610E+00   -2.608E+00   -2.607E+00   -2.605E+00   -2.604E+00   -2.602E+00   -2.601E+00
    -2.600E+00   -2.598E+00   -2.597E+00   -2.595E+00   -2.594E+00   -2.592E+00   -2.591E+00   -2.590E+00   -2.588E+00   -2.587E+00
    -2.585E+00   -2.584E+00   -2.582E+00   -2.581E+00   -2.579E+00   -2.578E+00   -2.577E+00   -2.575E+00   -2.574E+00   -2.572E+00
    -2.571E+00   -2.569E+00   -2.568E+00   -2.566E+00   -2.565E+00   -2.564E+00   -2.562E+00   -2.561E+00   -2.559E+00   -2.558E+00
    -2.556E+00   -2.555E+00   -2.553E+00   -2.552E+00   -2.550E+00   -2.549E+00   -2.547E+00   -2.546E+00   -2.545E+00   -2.543E+00
    -2.542E+00   -2.540E+00   -2.539E+00   -2.537E+00   -2.536E+00   -2.534E+00   -2.533E+00   -2.531E+00   -2.530E+00   -2.528E+00
    -2.527E+00   -2.525E+00   -2.524E+00   -2.522E+00   -2.521E+00   -2.519E+00   -2.518E+00   -2.517E+00   -2.515E+00   -2.514E+00
    -2.512E+00   -2.511E+00   -2.509E+00   -2.508E+00   -2.506E+00   -2.505E+00   -2.503E+00   -2.502E+00   -2.500E+00   -2.499E+00
    -2.497E+00   -2.496E+00   -2.494E+00   -2.493E+00   -2.491E+00   -2.490E+00   -2.488E+00   -2.487E+00   -2.485E+00   -2.484E+00
    -2.482E+00   -2.481E+00   -2.479E+00   -2.478E+00   -2.476E+00   -2.475E+00   -2.473E+00   -2.472E+00   -2.470E+00   -2.469E+00
    -2.467E+00   -2.466E+00   -2.464E+00   -2.463E+00   -2.461E+00   -2.460E+00   -2.458E+00   -2.457E+00   -2.455E+00   -2.454E+00
    -2.452E+00   -2.450E+00   -2.449E+00   -2.447E+00   -2.446E+00   -2.444E+00   -2.443E+00   -2.441E+00   -2.440E+00   -2.438E+00
    -2.437E+00   -2.435E+00   -2.434E+00   -2.432E+00   -2.431E+00   -2.429E+00   -2.428E+00   -2.426E+00   -2.425E+00   -2.423E+00
    -2.421E+00   -2.420E+00   -2.418E+00   -2.417E+00   -2.415E+00   -2.414E+00   -2.412E+00   -2.411E+00   -2.409E+00   -2.408E+00
    -2.406E+00   -2.405E+00   -2.403E+00   -2.401E+00   -2.400E+00   -2.398E+00   -2.397E+00   -2.395E+00   -2.394E+00   -2.392E+00
    -2.391E+00   -2.389E+00   -2.388E+00   -2.386E+00   -2.384E+00   -2.383E+00   -2.381E+00   -2.380E+00   -2.378E+00   -2.377E+00
    -2.375E+00   -2.374E+00   -2.372E+00   -2.370E+00   -2.369E+00   -2.367E+00   -2.366E+00   -2.364E+00   -2.363E+00   -2.361E+00
    -2.360E+00   -2.358E+00   -2.356E+00   -2.355E+00   -2.353E+00   -2.352E+00   -2.350E+00   -2.349E+00   -2.347E+00   -2.345E+00
    -2.344E+00   -2.342E+00   -2.341E+00   -2.339E+00   -2.338E+00   -2.336E+00   -2.334E+00   -2.333E+00   -2.331E+00   -2.330E+00
    -2.328E+00   -2.327E+00   -2.325E+00   -2.323E+00   -2.322E+00   -2.320E+00   -2.319E+00   -2.317E+00   -2.316E+00   -2.314E+00
    -2.312E+00   -2.311E+00   -2.309E+00   -2.308E+00   -2.306E+00   -2.304E+00   -2.303E+00   -2.301E+00   -2.300E+00   -2.298E+00
    -2.297E+00   -2.295E+00   -2.293E+00   -2.292E+00   -2.290E+00   -2.289E+00   -2.287E+00   -2.285E+00   -2.284E+00   -2.282E+00
    -2.281E+00   -2.279E+00   -2.277E+00   -2.276E+00   -2.274E+00   -2.273E+00   -2.271E+00   -2.269E+00   -2.268E+00   -2.266E+00
    -2.265E+00   -2.263E+00   -2.261E+00   -2.260E+00   -2.258E+00   -2.257E+00   -2.255E+00   -2.253E+00   -2.252E+00   -2.250E+00
    -2.249E+00   -2.247E+00   -2.245E+00   -2.244E+00   -2.242E+00   -2.241E+00   -2.239E+00   -2.237E+00   -2.236E+00   -2.234E+00
    -2.233E+00   -2.231E+00   -2.229E+00   -2.228E+00   -2.226E+00   -2.224E+00   -2.223E+00   -2.221E+00   -2.220E+00   -2.218E+00
    -2.216E+00   -2.215E+00   -2.213E+00   -2.212E+00   -2.210E+00   -2.208E+00   -2.207E+00   -2.205E+00   -2.203E+00   -2.202E+00
    -2.200E+00   -2.199E+00   -2.197E+00   -2.195E+00   -2.194E+00   -2.192E+00   -2.190E+00   -2.189E+00   -2.187E+00   -2.186E+00
    -2.184E+00   -2.182E+00   -2.181E+00   -2.179E+00   -2.177E+00   -2.176E+00   -2.174E+00   -2.173E+00   -2.171E+00   -2.169E+00
    -2.168E+00   -2.166E+00   -2.164E+00   -2.163E+00   -2.161E+00   -2.159E+00   -2.158E+00   -2.156E+00   -2.155E+00   -2.153E+00
    -2.151E+00   -2.150E+00   -2.148E+00   -2.146E+00   -2.145E+00   -2.143E+00   -2.141E+00   -2.140E+00   -2.138E+00   -2.137E+00
    -2.135E+00   -2.133E+00   -2.132E+00   -2.130E+00   -2.128E+00   -2.127E+00   -2.125E+00   -2.123E+00   -2.122E+00   -2.120E+00
    -2.118E+00   -2.117E+00   -2.115E+00   -2.114E+00   -2.112E+00   -2.110E+00   -2.109E+00   -2.107E+00   -2.105E+00   -2.104E+00
    -2.102E+00   -2.100E+00   -2.099E+00   -2.097E+00   -2.095E+00   -2.094E+00   -2.092E+00   -2.090E+00   -2.089E+00   -2.087E+00
    -2.085E+00   -2.084E+00   -2.082E+00   -2.081E+00   -2.079E+00   -2.077E+00   -2.076E+00   -2.074E+00   -2.072E+00   -2.071E+00
    -2.069E+00   -2.067E+00   -2.066E+00   -2.064E+00   -2.062E+00   -2.061E+00   -2.059E+00   -2.057E+00   -2.056E+00   -2.054E+00
    -2.052E+00   -2.051E+00   -2.049E+00   -2.047E+00   -2.046E+00   -2.044E+00   -2.042E+00   -2.041E+00   -2.039E+00   -2.037E+00
    -2.036E+00   -2.034E+00   -2.032E+00   -2.031E+00   -2.029E+00   -2.027E+00   -2.026E+00   -2.024E+00
 Ala      Conc. = 9.42E+01
