 LCModel (Version 6.3-1L) Copyright: S.W. Provencher.          Ref.: Magn. Reson. Med. 30:672-679 (1993).                
 Slice#1 Row#14 Col#10  PD_05_press_1_raw_act
 36 lines in following concentration table = NCONC+1
    Conc.  %SD /Cr+PCr  Metabolite                                         
    0.000 999%   0.000 Ala                                                 
    9.557 120%   0.189 Asp                                                 
   50.589  23%   1.000 Cr                                                  
    0.000 999%   0.000 PCr                                                 
    6.279 110%   0.124 GABA                                                
    7.300  95%   0.144 Glc                                                 
   10.029 472%   0.198 Gln                                                 
   95.161  56%   1.881 Glu                                                 
   22.386  20%   0.442 GPC                                                 
    0.000 999%   0.000 PCh                                                 
   12.740 127%   0.252 GSH                                                 
  160.298  31%   3.169 Ins                                                 
    0.000 999%   0.000 Lac                                                 
   92.042  15%   1.819 NAA                                                 
    0.000 999%   0.000 NAAG                                                
    1.615 136% 3.2E-02 Scyllo                                              
   10.456 108%   0.207 Tau                                                 
 9.76E-02 999% 1.9E-03 -CrCH2                                              
   22.386  20%   0.442 GPC+PCh                                             
   92.042  15%   1.819 NAA+NAAG                                            
   50.589  23%   1.000 Cr+PCr                                              
  105.190  67%   2.079 Glu+Gln                                             
  113.923  56%   2.252 Lip13a                                              
    0.000 999%   0.000 Lip13b                                              
   30.417  56%   0.601 Lip09                                               
   31.764  98%   0.628 MM09                                                
   17.089  56%   0.338 Lip20                                               
   47.670 100%   0.942 MM20                                                
    9.091 116%   0.180 MM12                                                
   39.990  76%   0.790 MM14                                                
   18.709  91%   0.370 MM17                                                
  113.923  56%   2.252 Lip13a+Lip13b                                       
  163.004  33%   3.222 MM14+Lip13a+Lip13b+MM12                             
   62.181  43%   1.229 MM09+Lip09                                          
   64.759  67%   1.280 MM20+Lip20                                          
   6 lines in following misc. output table
  FWHM = 0.054 ppm    S/N =   2                                            
  Data shift =-0.023 ppm                                                   
  Ph: 100 deg     -11.1 deg/ppm                                            
  alphaB,S = 8.5E+01,   2.6E+01                                            
   14 spline knots.   Ns = 5(1)                                            
   2 inflections.     1 extrema                                            
  498 points on ppm-axis = NY
      4.000000     3.992357     3.984714     3.977070     3.969427     3.961784     3.954141     3.946497     3.938854     3.931211
      3.923568     3.915925     3.908281     3.900638     3.892995     3.885352     3.877708     3.870065     3.862422     3.854779
      3.847136     3.839492     3.831849     3.824206     3.816563     3.808919     3.801276     3.793633     3.785990     3.778347
      3.770703     3.763060     3.755417     3.747774     3.740130     3.732487     3.724844     3.717201     3.709558     3.701914
      3.694271     3.686628     3.678985     3.671341     3.663698     3.656055     3.648412     3.640769     3.633125     3.625482
      3.617839     3.610196     3.602552     3.594909     3.587266     3.579623     3.571980     3.564336     3.556693     3.549050
      3.541407     3.533763     3.526120     3.518477     3.510834     3.503191     3.495547     3.487904     3.480261     3.472618
      3.464974     3.457331     3.449688     3.442045     3.434402     3.426758     3.419115     3.411472     3.403829     3.396185
      3.388542     3.380899     3.373256     3.365613     3.357969     3.350326     3.342683     3.335040     3.327396     3.319753
      3.312110     3.304467     3.296824     3.289180     3.281537     3.273894     3.266251     3.258607     3.250964     3.243321
      3.235678     3.228034     3.220391     3.212748     3.205105     3.197462     3.189818     3.182175     3.174532     3.166889
      3.159245     3.151602     3.143959     3.136316     3.128673     3.121029     3.113386     3.105743     3.098100     3.090456
      3.082813     3.075170     3.067527     3.059884     3.052240     3.044597     3.036954     3.029311     3.021667     3.014024
      3.006381     2.998738     2.991095     2.983451     2.975808     2.968165     2.960522     2.952878     2.945235     2.937592
      2.929949     2.922306     2.914662     2.907019     2.899376     2.891733     2.884089     2.876446     2.868803     2.861160
      2.853517     2.845873     2.838230     2.830587     2.822944     2.815300     2.807657     2.800014     2.792371     2.784728
      2.777084     2.769441     2.761798     2.754155     2.746511     2.738868     2.731225     2.723582     2.715939     2.708295
      2.700652     2.693009     2.685366     2.677722     2.670079     2.662436     2.654793     2.647150     2.639506     2.631863
      2.624220     2.616577     2.608933     2.601290     2.593647     2.586004     2.578361     2.570717     2.563074     2.555431
      2.547788     2.540144     2.532501     2.524858     2.517215     2.509572     2.501928     2.494285     2.486642     2.478999
      2.471355     2.463712     2.456069     2.448426     2.440783     2.433139     2.425496     2.417853     2.410210     2.402566
      2.394923     2.387280     2.379637     2.371994     2.364350     2.356707     2.349064     2.341421     2.333777     2.326134
      2.318491     2.310848     2.303205     2.295561     2.287918     2.280275     2.272632     2.264988     2.257345     2.249702
      2.242059     2.234416     2.226772     2.219129     2.211486     2.203843     2.196199     2.188556     2.180913     2.173270
      2.165627     2.157983     2.150340     2.142697     2.135054     2.127410     2.119767     2.112124     2.104481     2.096838
      2.089194     2.081551     2.073908     2.066265     2.058621     2.050978     2.043335     2.035692     2.028049     2.020405
      2.012762     2.005119     1.997476     1.989833     1.982190     1.974546     1.966903     1.959260     1.951617     1.943974
      1.936331     1.928688     1.921045     1.913402     1.905759     1.898115     1.890472     1.882829     1.875186     1.867543
      1.859900     1.852257     1.844614     1.836971     1.829327     1.821684     1.814041     1.806398     1.798755     1.791112
      1.783469     1.775826     1.768183     1.760540     1.752896     1.745253     1.737610     1.729967     1.722324     1.714681
      1.707038     1.699395     1.691752     1.684108     1.676465     1.668822     1.661179     1.653536     1.645893     1.638250
      1.630607     1.622964     1.615321     1.607677     1.600034     1.592391     1.584748     1.577105     1.569462     1.561819
      1.554176     1.546533     1.538890     1.531246     1.523603     1.515960     1.508317     1.500674     1.493031     1.485388
      1.477745     1.470102     1.462458     1.454815     1.447172     1.439529     1.431886     1.424243     1.416600     1.408957
      1.401314     1.393671     1.386027     1.378384     1.370741     1.363098     1.355455     1.347812     1.340169     1.332526
      1.324883     1.317240     1.309596     1.301953     1.294310     1.286667     1.279024     1.271381     1.263738     1.256095
      1.248452     1.240808     1.233165     1.225522     1.217879     1.210236     1.202593     1.194950     1.187307     1.179664
      1.172021     1.164377     1.156734     1.149091     1.141448     1.133805     1.126162     1.118519     1.110876     1.103233
      1.095590     1.087946     1.080303     1.072660     1.065017     1.057374     1.049731     1.042088     1.034445     1.026802
      1.019158     1.011515     1.003872     0.996229     0.988586     0.980943     0.973300     0.965657     0.958014     0.950371
      0.942727     0.935084     0.927441     0.919798     0.912155     0.904512     0.896869     0.889226     0.881583     0.873940
      0.866296     0.858653     0.851010     0.843367     0.835724     0.828081     0.820438     0.812795     0.805152     0.797508
      0.789865     0.782222     0.774579     0.766936     0.759293     0.751650     0.744007     0.736364     0.728721     0.721077
      0.713434     0.705791     0.698148     0.690505     0.682862     0.675219     0.667576     0.659933     0.652290     0.644646
      0.637003     0.629360     0.621717     0.614074     0.606431     0.598788     0.591145     0.583502     0.575858     0.568215
      0.560572     0.552929     0.545286     0.537643     0.530000     0.522357     0.514714     0.507071     0.499427     0.491784
      0.484141     0.476498     0.468855     0.461212     0.453569     0.445925     0.438282     0.430639     0.422996     0.415353
      0.407710     0.400067     0.392424     0.384780     0.377137     0.369494     0.361851     0.354208     0.346565     0.338922
      0.331278     0.323635     0.315992     0.308349     0.300706     0.293063     0.285420     0.277777     0.270133     0.262490
      0.254847     0.247204     0.239561     0.231918     0.224275     0.216631     0.208988     0.201345
 NY phased data points follow
   6.96496E-01  2.18431E+00  3.60960E+00  7.26280E-01  1.64578E+00  1.75565E+00  1.76210E+00  9.78279E-02  2.81401E+00  1.11990E+00
   2.49278E+00  3.08779E+00  2.75305E+00  1.30440E+00  3.36104E+00  1.02592E+00  2.04506E+00  1.98224E+00  3.61192E+00  6.28680E-01
   7.63872E-01  2.00098E+00  9.19092E-01  1.67929E+00  1.72347E+00  1.60105E+00  1.47149E+00  2.13384E+00  3.86453E-01  4.81989E-01
   6.67650E-01  1.07574E+00  3.53634E+00  1.85944E+00  2.03197E+00  2.34078E+00  1.01673E+00  1.50232E+00  1.80795E+00  3.13082E+00
   2.83871E+00  4.43278E-01  6.66206E-01  7.69388E-01 -5.25647E-01  1.88996E+00  3.59802E+00  1.52375E+00  9.42514E-01  2.60464E+00
   2.55171E+00  1.61874E+00 -2.09310E-01  5.13008E-01  1.18696E+00  1.85701E+00 -5.73460E-01  5.98767E-01  8.65685E-01  1.75729E+00
   2.30426E+00  1.40294E+00  1.75927E+00  5.09637E-01  5.86008E-01  3.38796E-01  1.95571E+00  1.31317E+00  8.03686E-01 -1.29381E+00
   1.20170E+00  2.32720E-01  5.23429E-01  1.21193E+00  2.82700E+00  4.98220E-01  2.73474E+00  1.15898E+00  3.19592E+00  9.41665E-01
   1.57839E+00  2.04115E-01 -1.17216E+00 -8.73764E-01 -1.57899E-02  1.86017E+00  3.50851E-02  7.31302E-01  1.49760E+00  7.51954E-01
  -1.50477E-01 -3.22588E-01  1.43088E+00 -4.73980E-03  4.66052E-01 -5.97562E-01 -2.87664E-01  1.22352E+00  8.92073E-01  1.22600E+00
   3.25470E+00  3.68770E+00  2.47657E+00  3.68967E+00  7.19289E-01  1.16873E+00  2.77587E+00  1.01144E+00  1.20589E+00  1.23409E+00
   9.99843E-01 -1.20126E-02  4.14757E-01 -3.63311E-01  4.94466E-01  1.93145E+00  8.78151E-01  2.65107E+00  1.35723E-01  1.46272E+00
  -4.17302E-01  1.61372E+00  1.73312E+00  1.37531E+00  1.22688E+00  2.17396E+00  2.24344E+00  1.15705E+00  2.78229E+00  2.59078E+00
   1.86656E+00  6.56486E-01  1.21329E+00  5.79793E-01  7.74908E-01  8.84609E-01 -4.62805E-02  8.48755E-01 -7.41117E-01  3.41042E-01
  -1.53556E+00  1.94231E-01  4.28175E-01 -2.04016E-01 -3.25559E-02  5.00475E-01  1.60242E+00  1.38345E+00  7.68830E-01  7.17922E-01
  -2.14860E-01  1.32019E+00  1.11141E+00 -2.28658E-01  2.36631E+00  1.11049E-01  2.74479E+00  7.98387E-01  3.42961E-01  1.57177E+00
   4.75293E-01  2.75716E-01  3.22453E-01  6.67981E-02  1.78176E+00  2.69053E+00  3.55053E-01  1.08936E+00  4.22231E-01 -8.68071E-02
   1.13110E+00 -8.39940E-01  5.44446E-01  6.50002E-01  5.81646E-01 -3.79389E-01 -1.42512E-01 -1.51723E+00 -1.93920E-02  2.46569E-03
   1.76416E-01  2.55248E-01  9.43878E-02  4.60357E-01 -6.32793E-01 -3.70710E-01  9.99887E-01  1.77311E+00  9.96297E-01 -1.18931E+00
  -7.84437E-03  8.85027E-01  2.54885E-01 -7.42800E-01  6.65016E-01  7.14648E-02  2.15349E-02  6.05000E-01 -1.36833E-01  1.71532E+00
   1.56382E-02 -1.29705E+00  3.09589E+00  1.42690E+00 -6.84701E-01 -2.43753E-01  9.00866E-01  7.65433E-01  1.15516E+00  2.37537E-01
   7.14450E-01  1.89936E+00  1.01889E+00  1.31921E+00  1.82403E+00  6.99878E-01  4.46020E-01 -1.02926E+00 -5.59771E-02  7.46537E-01
   7.21296E-01  6.30626E-01 -7.16510E-01 -3.44634E-01  1.73754E+00 -3.23728E-01  1.49206E+00  7.08264E-01  1.42200E+00  1.18963E+00
  -6.49632E-01  9.84257E-01  7.64275E-01  5.68985E-01  2.24001E+00  1.43692E+00 -9.00439E-01  8.65570E-01  3.16182E-01  2.95904E-01
  -9.49483E-01  1.73196E+00  5.21161E-01  1.17706E+00  7.93705E-01 -1.48473E+00  7.73370E-01 -7.52277E-01  3.39183E-01  1.55385E+00
   1.71040E-01  5.74749E-01  2.25913E+00  1.00756E+00  3.85509E-01  8.43812E-01  2.46699E+00  1.49802E+00  1.81549E+00  4.16223E+00
   3.68978E+00  5.12314E+00  3.38559E+00  3.08999E+00  1.51667E+00  8.29609E-01  9.83581E-01  1.58780E-01  9.41224E-01 -3.03657E-01
   4.09868E-01  9.35154E-01  1.15546E+00 -1.30444E+00  6.77989E-01  6.36441E-01  8.62809E-01  3.40071E-01  1.01345E+00  2.06298E+00
   8.83859E-01  1.73808E+00  6.58535E-01  9.51729E-01 -2.69939E-01  1.55074E+00  1.33955E+00  1.36236E+00  1.36626E+00  6.94412E-01
   4.42993E-01  6.76192E-01  7.65324E-02  4.26077E-01  1.52716E+00  1.21930E+00  4.09793E-02  5.90241E-01  2.19483E-01  3.24979E-01
  -4.25673E-01  1.58772E+00  2.42946E-01  1.54776E+00  6.10006E-01  8.72867E-01  5.55155E-01 -7.16186E-01 -3.56003E-01  7.43820E-01
   5.63222E-01  2.44534E+00  5.66853E-01  6.63220E-01  1.93283E-01  1.08518E-01 -3.66173E-01  1.47760E-01  5.10234E-01  1.71751E-01
  -1.10473E+00  7.35789E-01  1.47856E+00 -3.55365E-01 -5.53245E-01 -2.00828E+00  1.15437E+00  9.36127E-01  2.29778E+00  1.60111E-01
   1.28799E+00  1.37302E+00 -3.97576E-01  1.98884E+00  5.36868E-01  2.20996E-01  1.12117E+00  5.11616E-02  5.95558E-01  1.86288E+00
   3.91990E-01  1.44709E+00  2.18373E+00  9.52306E-01  1.21242E+00  8.26416E-01  1.34423E+00  1.72534E+00  1.61436E+00  5.64653E-01
   2.07979E+00  3.66669E-01  1.28492E+00  9.13144E-01  7.46068E-01  4.26540E-01 -1.50847E-01  2.14503E+00 -6.35994E-01 -1.79641E-01
  -1.20247E+00  9.24558E-01 -1.58745E-01 -8.63597E-02 -3.44918E-01 -1.15760E+00  5.62091E-01 -1.04412E+00  1.46107E-01  1.07469E+00
   8.46579E-03 -3.37223E-01  3.11144E-01  5.85420E-01  9.60893E-01  1.31097E+00 -5.62215E-01 -1.27471E+00  9.66169E-01 -2.58525E-01
  -1.81237E+00 -1.71467E-01  9.03543E-01  9.01555E-01 -8.81996E-01  5.81799E-01 -5.87477E-01  9.96587E-01 -5.56574E-01  2.37546E-01
   6.07287E-01  1.93107E-01 -2.96284E-01  1.09313E-01  8.22586E-01 -7.08381E-01  2.87741E-01 -7.74443E-02  1.01646E-01 -1.34482E+00
   1.33397E+00  6.43723E-01 -6.25166E-01 -7.57579E-01  1.62581E-01 -7.43194E-01  1.24961E+00  1.17710E-01 -7.83262E-01  1.29174E+00
   1.10720E+00  1.21215E+00  7.88165E-01  2.53394E-01  8.53983E-01  8.99379E-01  5.09405E-01 -3.85374E-01  5.82623E-01 -4.93790E-01
  -2.14827E+00  3.60382E-01 -1.22504E+00  8.18423E-01 -2.37754E-01 -4.13955E-01 -4.62273E-01  1.59600E-01  1.11686E+00  3.26080E-01
   1.16984E+00 -1.64155E+00 -1.45161E-01 -3.98852E-01  8.10655E-01  1.48506E-01  2.22908E+00  3.92403E-01 -2.34334E-02 -5.01302E-01
   1.13897E-01 -1.24223E+00 -3.31404E-01 -4.76328E-01 -7.40005E-01 -2.76988E-01 -5.00050E-01  2.16497E-01 -1.77927E+00  8.53904E-01
   7.15373E-01 -9.04463E-01  1.26275E+00  1.01358E+00  4.26149E-02  8.73718E-01  3.88137E-01 -2.49763E-01  7.35180E-01 -1.50659E+00
   3.61330E-01  5.45134E-01 -1.14686E-01 -1.36809E+00  5.19938E-01  4.70615E-01 -3.29273E-01  7.91018E-01 -1.47595E+00 -1.56933E+00
  -1.09740E+00 -8.22758E-01  6.44140E-01  1.35523E+00  1.65796E-01  1.16185E-01  6.73569E-01 -9.86881E-01 -9.02965E-01 -4.39381E-01
  -2.84320E-01  6.26599E-01 -5.07274E-01 -6.48004E-01  9.12003E-01 -3.85830E-01 -1.75660E+00  7.12080E-01  1.08561E+00  4.02417E-01
   1.26411E+00 -1.54802E+00  1.75170E-01  6.09541E-01  2.72155E-01  9.05829E-01 -2.94260E+00 -5.68142E-01
 NY points of the fit to the data follow
   1.28796E+00  1.21029E+00  1.15778E+00  1.14030E+00  1.15283E+00  1.18836E+00  1.28652E+00  1.46945E+00  1.71195E+00  1.98223E+00
   2.21097E+00  2.32993E+00  2.30664E+00  2.15599E+00  1.93251E+00  1.68694E+00  1.45266E+00  1.25118E+00  1.13162E+00  1.09674E+00
   1.08992E+00  1.09600E+00  1.10374E+00  1.10170E+00  1.08888E+00  1.07677E+00  1.07802E+00  1.11187E+00  1.19273E+00  1.31333E+00
   1.44209E+00  1.54085E+00  1.58765E+00  1.58033E+00  1.52256E+00  1.42136E+00  1.30310E+00  1.20154E+00  1.12108E+00  1.05839E+00
   1.02019E+00  1.01826E+00  1.06984E+00  1.20978E+00  1.44558E+00  1.74496E+00  2.03967E+00  2.23553E+00  2.26078E+00  2.10763E+00
   1.82824E+00  1.49812E+00  1.19036E+00  9.49226E-01  8.09918E-01  8.04853E-01  9.05284E-01  1.05785E+00  1.21457E+00  1.34371E+00
   1.41612E+00  1.41191E+00  1.33794E+00  1.22243E+00  1.10314E+00  1.00624E+00  9.50457E-01  9.56981E-01  1.01247E+00  1.09599E+00
   1.18443E+00  1.25676E+00  1.30024E+00  1.30875E+00  1.28615E+00  1.24183E+00  1.18500E+00  1.12520E+00  1.06602E+00  1.02232E+00
   9.97189E-01  9.84756E-01  9.72661E-01  9.45824E-01  8.88407E-01  7.95718E-01  6.79595E-01  5.64369E-01  4.79857E-01  4.49421E-01
   4.77147E-01  5.50658E-01  6.53272E-01  7.65063E-01  8.60508E-01  9.20878E-01  9.55793E-01  1.05118E+00  1.30608E+00  1.69263E+00
   2.16715E+00  2.61321E+00  2.88159E+00  2.89149E+00  2.64805E+00  2.24214E+00  1.78320E+00  1.34574E+00  9.72137E-01  7.30586E-01
   6.67320E-01  6.58692E-01  6.57495E-01  6.59350E-01  6.60532E-01  6.60152E-01  6.57623E-01  6.54170E-01  6.51777E-01  6.54801E-01
   6.70784E-01  7.24254E-01  8.92709E-01  1.19437E+00  1.58773E+00  2.01082E+00  2.34727E+00  2.49794E+00  2.42627E+00  2.17207E+00
   1.82066E+00  1.44851E+00  1.10176E+00  8.07761E-01  6.37258E-01  5.69614E-01  5.32686E-01  5.17607E-01  5.22212E-01  5.41263E-01
   5.68019E-01  5.95690E-01  6.15120E-01  6.22970E-01  6.20888E-01  6.10306E-01  5.95240E-01  5.79840E-01  5.65427E-01  5.53706E-01
   5.43150E-01  5.34105E-01  5.27221E-01  5.23250E-01  5.21277E-01  5.18416E-01  5.09688E-01  4.93044E-01  4.69856E-01  4.45045E-01
   4.29056E-01  4.26149E-01  4.36050E-01  4.53690E-01  4.69273E-01  4.76041E-01  4.71999E-01  4.59279E-01  4.38789E-01  4.15046E-01
   3.92305E-01  3.68943E-01  3.46823E-01  3.27437E-01  3.11418E-01  3.04035E-01  3.05000E-01  3.11252E-01  3.19187E-01  3.24557E-01
   3.28060E-01  3.31206E-01  3.32569E-01  3.30637E-01  3.29022E-01  3.39112E-01  3.67397E-01  4.13807E-01  4.68051E-01  5.19772E-01
   5.61292E-01  5.87156E-01  5.96774E-01  5.88344E-01  5.64875E-01  5.35906E-01  5.11274E-01  4.96142E-01  4.95725E-01  5.15808E-01
   5.53547E-01  6.02024E-01  6.47503E-01  6.78688E-01  6.81386E-01  6.39780E-01  5.62247E-01  4.64951E-01  3.67925E-01  2.99613E-01
   2.91191E-01  3.69081E-01  5.10443E-01  6.80112E-01  8.23292E-01  8.91261E-01  8.48391E-01  6.80542E-01  4.31970E-01  1.71146E-01
  -4.38207E-02 -1.58400E-01 -1.37349E-01  1.45645E-02  2.27046E-01  4.38162E-01  6.05161E-01  7.09133E-01  7.45384E-01  7.17708E-01
   6.59412E-01  6.13975E-01  5.98578E-01  6.09299E-01  6.37022E-01  6.65453E-01  6.82840E-01  6.76874E-01  6.39716E-01  5.84822E-01
   5.34265E-01  5.05500E-01  5.07964E-01  5.41465E-01  5.95748E-01  6.52856E-01  6.93126E-01  7.05357E-01  6.98074E-01  6.82482E-01
   6.71216E-01  6.80794E-01  7.15567E-01  7.69304E-01  8.60496E-01  1.10521E+00  1.59074E+00  2.24515E+00  2.98434E+00  3.62362E+00
   3.96020E+00  3.89463E+00  3.45764E+00  2.80253E+00  2.08690E+00  1.41411E+00  8.47134E-01  4.95534E-01  3.85608E-01  3.46918E-01
   3.30670E-01  3.32716E-01  3.44676E-01  3.61363E-01  3.78580E-01  3.90423E-01  3.93489E-01  3.87428E-01  3.73824E-01  3.55759E-01
   3.38374E-01  3.25486E-01  3.17500E-01  3.14005E-01  3.14387E-01  3.17207E-01  3.21029E-01  3.24619E-01  3.27550E-01  3.30060E-01
   3.32291E-01  3.34251E-01  3.36263E-01  3.38751E-01  3.41715E-01  3.44930E-01  3.48396E-01  3.52100E-01  3.55779E-01  3.59223E-01
   3.62377E-01  3.65028E-01  3.67054E-01  3.68375E-01  3.68945E-01  3.68777E-01  3.67950E-01  3.66576E-01  3.64785E-01  3.62725E-01
   3.60592E-01  3.58543E-01  3.56730E-01  3.55320E-01  3.54468E-01  3.54317E-01  3.54996E-01  3.56612E-01  3.59249E-01  3.62960E-01
   3.67770E-01  3.73677E-01  3.80659E-01  3.88675E-01  3.97662E-01  4.07536E-01  4.18200E-01  4.29551E-01  4.41483E-01  4.53896E-01
   4.66690E-01  4.79774E-01  4.93065E-01  5.06498E-01  5.20021E-01  5.33593E-01  5.47185E-01  5.60768E-01  5.74319E-01  5.87809E-01
   6.01198E-01  6.14427E-01  6.27409E-01  6.40027E-01  6.52129E-01  6.63535E-01  6.74031E-01  6.83375E-01  6.91303E-01  6.97539E-01
   7.01811E-01  7.03864E-01  7.03471E-01  7.00445E-01  6.94650E-01  6.86014E-01  6.74538E-01  6.60295E-01  6.43427E-01  6.24143E-01
   6.02709E-01  5.79444E-01  5.54703E-01  5.28867E-01  5.02326E-01  4.75463E-01  4.48650E-01  4.22233E-01  3.96529E-01  3.71814E-01
   3.48323E-01  3.26247E-01  3.05740E-01  2.86917E-01  2.69864E-01  2.54636E-01  2.41263E-01  2.29760E-01  2.20131E-01  2.12376E-01
   2.06490E-01  2.02467E-01  2.00301E-01  1.99990E-01  2.01532E-01  2.04924E-01  2.10155E-01  2.17198E-01  2.26010E-01  2.36519E-01
   2.48621E-01  2.62169E-01  2.76968E-01  2.92767E-01  3.09263E-01  3.26098E-01  3.42868E-01  3.59127E-01  3.74403E-01  3.88207E-01
   4.00063E-01  4.09522E-01  4.16184E-01  4.19714E-01  4.19866E-01  4.16486E-01  4.09535E-01  3.99078E-01  3.85289E-01  3.68436E-01
   3.48872E-01  3.27014E-01  3.03324E-01  2.78291E-01  2.52403E-01  2.26129E-01  1.99906E-01  1.74121E-01  1.49109E-01  1.25139E-01
   1.02417E-01  8.10872E-02  6.12347E-02  4.28962E-02  2.60656E-02  1.07005E-02 -3.26923E-03 -1.59331E-02 -2.73917E-02 -3.77505E-02
  -4.71167E-02 -5.55961E-02 -6.32900E-02 -7.02928E-02 -7.66896E-02 -8.25566E-02 -8.79619E-02 -9.29668E-02 -9.76251E-02 -1.01983E-01
  -1.06079E-01 -1.09947E-01 -1.13615E-01 -1.17111E-01 -1.20456E-01 -1.23670E-01 -1.26766E-01 -1.29759E-01 -1.32660E-01 -1.35481E-01
  -1.38231E-01 -1.40916E-01 -1.43543E-01 -1.46117E-01 -1.48644E-01 -1.51130E-01 -1.53577E-01 -1.55989E-01 -1.58369E-01 -1.60719E-01
  -1.63043E-01 -1.65344E-01 -1.67623E-01 -1.69881E-01 -1.72118E-01 -1.74337E-01 -1.76541E-01 -1.78730E-01 -1.80905E-01 -1.83066E-01
  -1.85213E-01 -1.87348E-01 -1.89472E-01 -1.91586E-01 -1.93688E-01 -1.95779E-01 -1.97860E-01 -1.99933E-01 -2.01997E-01 -2.04052E-01
  -2.06098E-01 -2.08134E-01 -2.10161E-01 -2.12181E-01 -2.14192E-01 -2.16194E-01 -2.18185E-01 -2.20166E-01 -2.22138E-01 -2.24100E-01
  -2.26052E-01 -2.27991E-01 -2.29916E-01 -2.31829E-01 -2.33727E-01 -2.35610E-01 -2.37476E-01 -2.39321E-01
 NY background values follow
     8.547E-01    8.525E-01    8.503E-01    8.482E-01    8.460E-01    8.438E-01    8.416E-01    8.395E-01    8.373E-01    8.351E-01
     8.329E-01    8.308E-01    8.286E-01    8.264E-01    8.242E-01    8.221E-01    8.199E-01    8.177E-01    8.156E-01    8.134E-01
     8.112E-01    8.090E-01    8.069E-01    8.047E-01    8.025E-01    8.003E-01    7.982E-01    7.960E-01    7.938E-01    7.916E-01
     7.895E-01    7.873E-01    7.851E-01    7.830E-01    7.808E-01    7.786E-01    7.764E-01    7.743E-01    7.721E-01    7.699E-01
     7.677E-01    7.656E-01    7.634E-01    7.612E-01    7.590E-01    7.569E-01    7.547E-01    7.525E-01    7.503E-01    7.482E-01
     7.460E-01    7.438E-01    7.416E-01    7.395E-01    7.373E-01    7.351E-01    7.330E-01    7.308E-01    7.286E-01    7.264E-01
     7.243E-01    7.221E-01    7.199E-01    7.177E-01    7.156E-01    7.134E-01    7.112E-01    7.090E-01    7.069E-01    7.047E-01
     7.025E-01    7.003E-01    6.982E-01    6.960E-01    6.938E-01    6.916E-01    6.895E-01    6.873E-01    6.851E-01    6.829E-01
     6.808E-01    6.786E-01    6.764E-01    6.743E-01    6.721E-01    6.699E-01    6.677E-01    6.656E-01    6.634E-01    6.612E-01
     6.590E-01    6.569E-01    6.547E-01    6.525E-01    6.503E-01    6.482E-01    6.460E-01    6.438E-01    6.416E-01    6.395E-01
     6.373E-01    6.351E-01    6.330E-01    6.308E-01    6.286E-01    6.264E-01    6.243E-01    6.221E-01    6.199E-01    6.177E-01
     6.156E-01    6.134E-01    6.112E-01    6.090E-01    6.069E-01    6.047E-01    6.025E-01    6.004E-01    5.982E-01    5.960E-01
     5.938E-01    5.917E-01    5.895E-01    5.873E-01    5.851E-01    5.830E-01    5.808E-01    5.786E-01    5.765E-01    5.743E-01
     5.721E-01    5.699E-01    5.678E-01    5.656E-01    5.634E-01    5.613E-01    5.591E-01    5.569E-01    5.547E-01    5.526E-01
     5.504E-01    5.482E-01    5.460E-01    5.439E-01    5.417E-01    5.395E-01    5.374E-01    5.352E-01    5.330E-01    5.308E-01
     5.287E-01    5.265E-01    5.243E-01    5.222E-01    5.200E-01    5.178E-01    5.157E-01    5.135E-01    5.113E-01    5.091E-01
     5.070E-01    5.048E-01    5.026E-01    5.005E-01    4.983E-01    4.961E-01    4.939E-01    4.918E-01    4.896E-01    4.874E-01
     4.853E-01    4.831E-01    4.809E-01    4.788E-01    4.766E-01    4.744E-01    4.723E-01    4.701E-01    4.679E-01    4.657E-01
     4.636E-01    4.614E-01    4.592E-01    4.571E-01    4.549E-01    4.527E-01    4.506E-01    4.484E-01    4.462E-01    4.441E-01
     4.419E-01    4.397E-01    4.376E-01    4.354E-01    4.332E-01    4.311E-01    4.289E-01    4.267E-01    4.245E-01    4.224E-01
     4.202E-01    4.180E-01    4.159E-01    4.137E-01    4.115E-01    4.094E-01    4.072E-01    4.050E-01    4.029E-01    4.007E-01
     3.985E-01    3.964E-01    3.942E-01    3.921E-01    3.899E-01    3.877E-01    3.856E-01    3.834E-01    3.812E-01    3.791E-01
     3.769E-01    3.747E-01    3.726E-01    3.704E-01    3.682E-01    3.661E-01    3.639E-01    3.617E-01    3.596E-01    3.574E-01
     3.553E-01    3.531E-01    3.509E-01    3.488E-01    3.466E-01    3.444E-01    3.423E-01    3.401E-01    3.379E-01    3.358E-01
     3.336E-01    3.315E-01    3.293E-01    3.271E-01    3.250E-01    3.228E-01    3.206E-01    3.185E-01    3.163E-01    3.142E-01
     3.120E-01    3.098E-01    3.077E-01    3.055E-01    3.034E-01    3.012E-01    2.990E-01    2.969E-01    2.947E-01    2.926E-01
     2.904E-01    2.882E-01    2.861E-01    2.839E-01    2.818E-01    2.796E-01    2.774E-01    2.753E-01    2.731E-01    2.710E-01
     2.688E-01    2.666E-01    2.645E-01    2.623E-01    2.602E-01    2.580E-01    2.559E-01    2.537E-01    2.515E-01    2.494E-01
     2.472E-01    2.451E-01    2.429E-01    2.408E-01    2.386E-01    2.364E-01    2.343E-01    2.321E-01    2.300E-01    2.278E-01
     2.257E-01    2.235E-01    2.214E-01    2.192E-01    2.170E-01    2.149E-01    2.127E-01    2.106E-01    2.084E-01    2.063E-01
     2.041E-01    2.020E-01    1.998E-01    1.977E-01    1.955E-01    1.934E-01    1.912E-01    1.891E-01    1.869E-01    1.847E-01
     1.826E-01    1.804E-01    1.783E-01    1.761E-01    1.740E-01    1.718E-01    1.697E-01    1.675E-01    1.654E-01    1.632E-01
     1.611E-01    1.589E-01    1.568E-01    1.546E-01    1.525E-01    1.503E-01    1.482E-01    1.460E-01    1.439E-01    1.417E-01
     1.396E-01    1.374E-01    1.353E-01    1.332E-01    1.310E-01    1.289E-01    1.267E-01    1.246E-01    1.224E-01    1.203E-01
     1.181E-01    1.160E-01    1.138E-01    1.117E-01    1.095E-01    1.074E-01    1.053E-01    1.031E-01    1.010E-01    9.882E-02
     9.667E-02    9.453E-02    9.238E-02    9.024E-02    8.810E-02    8.595E-02    8.381E-02    8.167E-02    7.953E-02    7.738E-02
     7.524E-02    7.310E-02    7.096E-02    6.882E-02    6.668E-02    6.453E-02    6.239E-02    6.025E-02    5.811E-02    5.597E-02
     5.383E-02    5.169E-02    4.955E-02    4.741E-02    4.527E-02    4.314E-02    4.100E-02    3.886E-02    3.672E-02    3.458E-02
     3.244E-02    3.031E-02    2.817E-02    2.603E-02    2.390E-02    2.176E-02    1.962E-02    1.749E-02    1.535E-02    1.321E-02
     1.108E-02    8.944E-03    6.809E-03    4.674E-03    2.540E-03    4.056E-04   -1.728E-03   -3.862E-03   -5.996E-03   -8.129E-03
    -1.026E-02   -1.239E-02   -1.453E-02   -1.666E-02   -1.879E-02   -2.092E-02   -2.306E-02   -2.519E-02   -2.732E-02   -2.945E-02
    -3.158E-02   -3.371E-02   -3.584E-02   -3.797E-02   -4.010E-02   -4.223E-02   -4.436E-02   -4.649E-02   -4.862E-02   -5.074E-02
    -5.287E-02   -5.500E-02   -5.713E-02   -5.925E-02   -6.138E-02   -6.351E-02   -6.563E-02   -6.776E-02   -6.989E-02   -7.201E-02
    -7.414E-02   -7.626E-02   -7.839E-02   -8.051E-02   -8.264E-02   -8.476E-02   -8.689E-02   -8.901E-02   -9.113E-02   -9.326E-02
    -9.538E-02   -9.750E-02   -9.962E-02   -1.017E-01   -1.039E-01   -1.060E-01   -1.081E-01   -1.102E-01   -1.124E-01   -1.145E-01
    -1.166E-01   -1.187E-01   -1.208E-01   -1.230E-01   -1.251E-01   -1.272E-01   -1.293E-01   -1.314E-01   -1.335E-01   -1.357E-01
    -1.378E-01   -1.399E-01   -1.420E-01   -1.441E-01   -1.462E-01   -1.484E-01   -1.505E-01   -1.526E-01   -1.547E-01   -1.568E-01
    -1.589E-01   -1.611E-01   -1.632E-01   -1.653E-01   -1.674E-01   -1.695E-01   -1.716E-01   -1.737E-01   -1.758E-01   -1.780E-01
    -1.801E-01   -1.822E-01   -1.843E-01   -1.864E-01   -1.885E-01   -1.906E-01   -1.927E-01   -1.948E-01   -1.969E-01   -1.991E-01
    -2.012E-01   -2.033E-01   -2.054E-01   -2.075E-01   -2.096E-01   -2.117E-01   -2.138E-01   -2.159E-01
 Asp      Conc. = 9.56E+00
