 LCModel (Version 6.3-1L) Copyright: S.W. Provencher.          Ref.: Magn. Reson. Med. 30:672-679 (1993).                
 Slice#1 Row#8 Col#10  PD_05_press_1_raw_act
 36 lines in following concentration table = NCONC+1
    Conc.  %SD /Cr+PCr  Metabolite                                         
   76.566  80%   0.124 Ala                                                 
    0.000 999%   0.000 Asp                                                 
  107.285 120%   0.174 Cr                                                  
  510.670  26%   0.826 PCr                                                 
   70.655 125%   0.114 GABA                                                
   85.030 108%   0.138 Glc                                                 
  284.452  44%   0.460 Gln                                                 
  984.886  15%   1.594 Glu                                                 
  323.246   5%   0.523 GPC                                                 
    0.000 999%   0.000 PCh                                                 
  234.805  20%   0.380 GSH                                                 
  823.885  18%   1.333 Ins                                                 
    0.000 999%   0.000 Lac                                                 
 1.34E+03   5%   2.167 NAA                                                 
  344.412  17%   0.557 NAAG                                                
   85.686  20%   0.139 Scyllo                                              
  259.224  47%   0.419 Tau                                                 
  274.962  25%   0.445 -CrCH2                                              
  323.246   5%   0.523 GPC+PCh                                             
 1.68E+03   3%   2.724 NAA+NAAG                                            
  617.955   6%   1.000 Cr+PCr                                              
 1.27E+03  15%   2.054 Glu+Gln                                             
    0.000 999%   0.000 Lip13a                                              
    0.000 999%   0.000 Lip13b                                              
    0.000 999%   0.000 Lip09                                               
  825.484  13%   1.336 MM09                                                
 4.92E-04 999% 8.0E-07 Lip20                                               
 1.41E+03  15%   2.274 MM20                                                
  154.513  57%   0.250 MM12                                                
  856.777  19%   1.386 MM14                                                
  156.945  82%   0.254 MM17                                                
    0.000 999%   0.000 Lip13a+Lip13b                                       
 1.01E+03  17%   1.637 MM14+Lip13a+Lip13b+MM12                             
  825.484  13%   1.336 MM09+Lip09                                          
 1.41E+03  15%   2.274 MM20+Lip20                                          
   6 lines in following misc. output table
  FWHM = 0.046 ppm    S/N =  12                                            
  Data shift = 0.000 ppm                                                   
  Ph: -56 deg     -12.2 deg/ppm                                            
  alphaB,S = 8.5E+01,   9.8E+01                                            
   14 spline knots.   Ns = 5(1)                                            
   2 inflections.     1 extrema                                            
  498 points on ppm-axis = NY
      4.000000     3.992357     3.984714     3.977070     3.969427     3.961784     3.954141     3.946497     3.938854     3.931211
      3.923568     3.915925     3.908281     3.900638     3.892995     3.885352     3.877708     3.870065     3.862422     3.854779
      3.847136     3.839492     3.831849     3.824206     3.816563     3.808919     3.801276     3.793633     3.785990     3.778347
      3.770703     3.763060     3.755417     3.747774     3.740130     3.732487     3.724844     3.717201     3.709558     3.701914
      3.694271     3.686628     3.678985     3.671341     3.663698     3.656055     3.648412     3.640769     3.633125     3.625482
      3.617839     3.610196     3.602552     3.594909     3.587266     3.579623     3.571980     3.564336     3.556693     3.549050
      3.541407     3.533763     3.526120     3.518477     3.510834     3.503191     3.495547     3.487904     3.480261     3.472618
      3.464974     3.457331     3.449688     3.442045     3.434402     3.426758     3.419115     3.411472     3.403829     3.396185
      3.388542     3.380899     3.373256     3.365613     3.357969     3.350326     3.342683     3.335040     3.327396     3.319753
      3.312110     3.304467     3.296824     3.289180     3.281537     3.273894     3.266251     3.258607     3.250964     3.243321
      3.235678     3.228034     3.220391     3.212748     3.205105     3.197462     3.189818     3.182175     3.174532     3.166889
      3.159245     3.151602     3.143959     3.136316     3.128673     3.121029     3.113386     3.105743     3.098100     3.090456
      3.082813     3.075170     3.067527     3.059884     3.052240     3.044597     3.036954     3.029311     3.021667     3.014024
      3.006381     2.998738     2.991095     2.983451     2.975808     2.968165     2.960522     2.952878     2.945235     2.937592
      2.929949     2.922306     2.914662     2.907019     2.899376     2.891733     2.884089     2.876446     2.868803     2.861160
      2.853517     2.845873     2.838230     2.830587     2.822944     2.815300     2.807657     2.800014     2.792371     2.784728
      2.777084     2.769441     2.761798     2.754155     2.746511     2.738868     2.731225     2.723582     2.715939     2.708295
      2.700652     2.693009     2.685366     2.677722     2.670079     2.662436     2.654793     2.647150     2.639506     2.631863
      2.624220     2.616577     2.608933     2.601290     2.593647     2.586004     2.578361     2.570717     2.563074     2.555431
      2.547788     2.540144     2.532501     2.524858     2.517215     2.509572     2.501928     2.494285     2.486642     2.478999
      2.471355     2.463712     2.456069     2.448426     2.440783     2.433139     2.425496     2.417853     2.410210     2.402566
      2.394923     2.387280     2.379637     2.371994     2.364350     2.356707     2.349064     2.341421     2.333777     2.326134
      2.318491     2.310848     2.303205     2.295561     2.287918     2.280275     2.272632     2.264988     2.257345     2.249702
      2.242059     2.234416     2.226772     2.219129     2.211486     2.203843     2.196199     2.188556     2.180913     2.173270
      2.165627     2.157983     2.150340     2.142697     2.135054     2.127410     2.119767     2.112124     2.104481     2.096838
      2.089194     2.081551     2.073908     2.066265     2.058621     2.050978     2.043335     2.035692     2.028049     2.020405
      2.012762     2.005119     1.997476     1.989833     1.982190     1.974546     1.966903     1.959260     1.951617     1.943974
      1.936331     1.928688     1.921045     1.913402     1.905759     1.898115     1.890472     1.882829     1.875186     1.867543
      1.859900     1.852257     1.844614     1.836971     1.829327     1.821684     1.814041     1.806398     1.798755     1.791112
      1.783469     1.775826     1.768183     1.760540     1.752896     1.745253     1.737610     1.729967     1.722324     1.714681
      1.707038     1.699395     1.691752     1.684108     1.676465     1.668822     1.661179     1.653536     1.645893     1.638250
      1.630607     1.622964     1.615321     1.607677     1.600034     1.592391     1.584748     1.577105     1.569462     1.561819
      1.554176     1.546533     1.538890     1.531246     1.523603     1.515960     1.508317     1.500674     1.493031     1.485388
      1.477745     1.470102     1.462458     1.454815     1.447172     1.439529     1.431886     1.424243     1.416600     1.408957
      1.401314     1.393671     1.386027     1.378384     1.370741     1.363098     1.355455     1.347812     1.340169     1.332526
      1.324883     1.317240     1.309596     1.301953     1.294310     1.286667     1.279024     1.271381     1.263738     1.256095
      1.248452     1.240808     1.233165     1.225522     1.217879     1.210236     1.202593     1.194950     1.187307     1.179664
      1.172021     1.164377     1.156734     1.149091     1.141448     1.133805     1.126162     1.118519     1.110876     1.103233
      1.095590     1.087946     1.080303     1.072660     1.065017     1.057374     1.049731     1.042088     1.034445     1.026802
      1.019158     1.011515     1.003872     0.996229     0.988586     0.980943     0.973300     0.965657     0.958014     0.950371
      0.942727     0.935084     0.927441     0.919798     0.912155     0.904512     0.896869     0.889226     0.881583     0.873940
      0.866296     0.858653     0.851010     0.843367     0.835724     0.828081     0.820438     0.812795     0.805152     0.797508
      0.789865     0.782222     0.774579     0.766936     0.759293     0.751650     0.744007     0.736364     0.728721     0.721077
      0.713434     0.705791     0.698148     0.690505     0.682862     0.675219     0.667576     0.659933     0.652290     0.644646
      0.637003     0.629360     0.621717     0.614074     0.606431     0.598788     0.591145     0.583502     0.575858     0.568215
      0.560572     0.552929     0.545286     0.537643     0.530000     0.522357     0.514714     0.507071     0.499427     0.491784
      0.484141     0.476498     0.468855     0.461212     0.453569     0.445925     0.438282     0.430639     0.422996     0.415353
      0.407710     0.400067     0.392424     0.384780     0.377137     0.369494     0.361851     0.354208     0.346565     0.338922
      0.331278     0.323635     0.315992     0.308349     0.300706     0.293063     0.285420     0.277777     0.270133     0.262490
      0.254847     0.247204     0.239561     0.231918     0.224275     0.216631     0.208988     0.201345
 NY phased data points follow
   1.11353E+00  6.88189E-01 -2.15811E+00 -2.95546E+00 -3.88321E+00  3.30808E-01  2.77869E+00  6.88209E+00  5.42245E+00  4.22823E+00
   9.13988E+00  7.41437E+00  4.08486E+00  5.98579E+00  2.61316E+00  2.58824E+00 -4.21877E+00  1.89222E+00  1.13908E+00  1.52678E+00
  -4.36787E+00 -3.62881E-01 -4.87796E-01 -4.63499E+00 -6.50335E-01 -1.71628E+00  1.27048E+00  3.79757E+00  1.82988E+00  4.47970E+00
   1.59328E+00  4.97767E+00  1.92792E+00  2.47781E+00 -9.66525E-01  2.37125E+00  1.36980E+00  3.76344E+00  1.48275E+00  1.99577E+00
  -1.96938E-01 -1.07294E+00  2.08351E+00  6.87111E+00  6.31920E+00  5.37878E+00  7.85179E+00  8.22257E+00  6.24961E+00  2.24216E+00
   1.13419E+00  3.59962E+00  2.39970E+00  1.67279E+00  1.23560E+00  1.32171E+00  2.05577E+00  4.10709E+00 -8.91947E-01  2.84942E+00
   3.84903E-01 -1.48522E-02 -1.98071E+00 -2.10049E+00 -1.68836E+00 -1.09602E+00 -4.01579E+00 -4.04426E+00 -2.70407E+00 -2.85412E+00
  -1.81582E+00 -9.01439E-01 -9.91411E-01 -4.62555E-02  1.10155E+00 -1.42466E+00  3.28714E+00 -1.26616E+00  8.85421E-01 -1.37452E+00
  -1.76620E+00  7.25472E-01  4.88351E-01  1.65850E+00  3.43709E-01  1.59838E+00 -5.94019E-01  1.91601E+00  1.83807E+00  6.02443E+00
   5.76836E+00  2.04600E+00  1.68300E-01  5.59851E+00  7.10477E-01  2.23015E-01 -7.04907E-02  2.85794E+00  2.51386E+00  9.91163E+00
   2.13497E+01  2.68228E+01  3.43800E+01  3.70352E+01  2.86243E+01  2.19298E+01  1.47716E+01  8.95923E+00  5.55230E+00  3.42550E+00
   4.01855E+00  1.35860E+00 -2.66680E+00  1.73681E+00  2.07598E+00  1.78424E+00 -2.99393E-01  4.10407E-01 -1.10185E+00 -1.73471E+00
   6.72705E-01 -3.36473E+00  1.74480E+00  2.26274E+00  5.83046E+00  1.78077E+01  2.16611E+01  2.59880E+01  2.79236E+01  1.81537E+01
   9.24649E+00  6.93942E+00  5.79223E+00  1.96303E+00 -1.55167E+00  3.55711E+00 -1.73163E+00 -3.03733E+00 -3.57279E+00 -3.45063E+00
  -1.50274E+00  7.07496E-01 -1.94085E+00 -3.54395E-01  9.70470E-02 -3.68028E-01 -1.29590E+00  4.48393E+00  1.60633E+00  3.03975E+00
  -1.16115E+00  4.74655E-01 -1.80063E+00 -2.03673E+00 -2.37202E+00 -1.27966E+00 -9.06154E-02  2.64869E-01  1.12287E+00 -4.75452E-01
  -1.84922E+00 -1.60754E-01 -1.90920E+00 -3.30321E+00 -2.04652E+00 -1.58987E+00 -3.05921E+00 -1.00595E+00 -8.81571E+00 -3.99665E+00
  -8.35310E+00 -8.50620E+00 -8.86150E+00 -1.05654E+01 -1.39845E+01 -1.07645E+01 -1.11379E+01 -1.19668E+01 -9.97072E+00 -6.18060E+00
  -5.16043E+00 -5.54556E+00 -1.17304E+01 -1.09539E+01 -6.15651E+00 -2.80343E+00 -7.19465E+00 -7.35066E+00 -7.01537E+00 -2.02513E+00
  -5.19345E+00 -1.60237E+00  9.23214E-01 -1.38749E+00 -3.30138E+00 -4.98731E+00 -9.54450E+00 -8.37114E+00 -6.23251E+00 -7.90699E+00
  -8.96828E+00 -7.37228E+00 -1.41382E+00  2.52428E-01  9.55756E-01  3.37410E+00 -9.80320E-01 -4.45338E+00 -7.17544E+00 -3.97782E+00
  -3.27889E+00 -4.71523E+00 -1.68963E+00 -3.53380E-01  4.99054E+00  9.40293E+00  1.02119E+01  7.29992E+00  5.77474E+00 -7.13868E-01
  -5.10897E+00 -5.34665E+00 -6.60785E+00 -2.79615E+00 -3.48580E+00 -1.59364E+00  1.56184E+00  2.32915E+00 -4.05633E-01  3.06009E+00
   4.12782E+00  1.74445E+00  4.08336E+00  2.86583E+00  2.78928E+00  6.08097E+00  6.43768E+00  4.12267E+00  2.83754E+00  3.65273E+00
   8.61351E-01  5.83086E-02 -5.89726E+00  1.26789E+00 -4.01709E+00  2.11709E+00  3.66397E+00  7.72756E+00  2.68940E+00  3.05434E+00
   9.44024E+00  5.60695E+00  7.33191E+00  8.89275E+00  1.99365E+01  2.27028E+01  3.04483E+01  3.25935E+01  4.34382E+01  5.17546E+01
   6.80064E+01  6.75679E+01  5.17552E+01  2.96305E+01  1.77309E+01  1.19766E+01  1.01026E+01  9.40527E+00  6.52336E+00  2.50707E+00
  -1.67320E+00  7.00305E-01 -2.65386E+00  2.14493E+00 -7.38208E-01  1.76208E+00 -3.83196E+00 -1.14241E+00  1.89962E+00  5.53531E-01
  -3.13104E-02  1.97985E+00  1.97663E+00 -1.33003E+00 -1.65449E+00  9.09482E-01 -5.30529E-01  1.94389E+00  5.69338E-01 -1.22719E+00
   5.99670E-01 -1.87578E+00  1.00519E+00  9.79319E-01 -2.62142E+00  3.30943E+00 -1.63508E+00 -3.77697E-01  8.20031E-01  2.47896E+00
   2.51364E-01 -1.59660E+00  6.20426E-02  3.24651E+00 -4.04885E-03 -9.67886E-01 -7.03578E+00 -2.29356E+00  8.72665E-01  3.63510E-01
   1.91424E+00  7.87382E-01  5.65949E-01 -4.00612E-01  2.81877E+00  2.61965E-01  1.33409E+00  1.25649E+00  1.16729E+00  8.96805E-01
  -4.86370E-01  2.90553E+00  1.23771E+00  6.76467E+00  3.03395E+00 -6.76698E-01  1.65615E+00  3.67725E+00  1.32892E+00  1.30293E+00
  -2.26826E-01  2.46490E+00  2.86415E-01  3.62095E+00  5.08265E+00  3.43046E+00  2.85674E+00  5.80233E+00  3.02349E+00  5.57332E+00
   1.62674E+00  2.76077E+00  3.85868E-01  4.54439E+00  5.30203E+00  3.99206E+00  5.40580E+00  4.65414E+00  1.54973E-01  2.38135E+00
  -1.75642E+00  4.33976E+00  9.87585E-01  2.76750E+00  4.34056E+00  1.66007E+00 -4.12941E-01  1.37287E+00 -2.93784E-01 -1.64453E+00
  -4.43446E+00 -3.96385E+00 -1.72078E+00  2.11305E+00 -5.41085E-01 -1.37145E+00 -1.37016E+00 -6.25965E-01 -1.38357E+00 -1.98135E+00
   1.96703E+00  1.22724E-01  1.12212E+00 -1.29368E+00  2.63523E+00 -4.80082E+00  1.51979E+00  7.12872E-02 -4.67458E-01 -5.04167E-01
   6.82916E-01  2.37741E+00 -4.62509E+00 -2.37769E+00 -3.73817E+00 -1.10873E+00 -1.24212E+00  2.31736E-01 -2.90692E-01 -4.81683E-01
  -1.49219E+00  7.98116E-01  4.86349E-01  2.64832E+00  1.80067E+00  1.88088E+00  4.79248E+00  1.91002E+00  9.15347E+00  1.10625E+01
   5.59029E+00  4.00533E+00  5.70029E+00  7.50279E+00  7.40852E+00  4.15536E+00  6.65909E+00  7.94639E+00  4.96599E+00  8.19037E+00
   6.37426E+00  4.81171E+00  4.91692E+00  6.03880E+00  5.23232E+00  3.67012E+00  3.02818E+00  2.23232E+00  1.64273E+00  5.58057E-01
   2.41953E+00  2.30812E+00 -2.30936E+00  1.63766E+00 -2.28259E+00  3.35457E+00 -8.14253E-01  1.10634E+00  1.27665E+00  2.00562E+00
   1.33920E+00  7.58164E-01  2.54257E+00 -2.42204E+00  6.61235E-01 -4.72434E-01 -6.52160E-01  5.40300E-01  5.69313E-01 -4.57225E-01
  -3.87524E-01  1.79277E+00  4.47615E+00  1.27524E+00  9.18416E-01 -1.04151E+00  2.38737E+00  2.47659E-01 -2.81522E+00 -4.51375E+00
  -2.09415E+00  1.55600E+00  1.06436E+00  4.17772E+00  3.07819E+00 -3.37237E-01  5.42576E-01  2.70333E-01 -1.60372E+00 -1.41194E+00
  -3.55038E+00  1.12289E-01 -3.42263E+00 -2.76153E+00  1.71991E+00 -5.49647E-01 -1.40764E+00  1.29998E+00 -5.91238E-01 -2.44642E+00
   2.16344E-01 -7.17109E-01 -3.41195E+00 -1.73311E+00  2.19211E+00  1.05961E+00 -3.43411E-01  2.64935E+00 -5.22619E+00  7.74459E-01
   2.85647E+00  5.61441E-01 -1.23029E+00 -1.36175E+00  9.97045E-01  1.45891E+00  3.47236E+00 -8.72547E-02  7.46124E-02 -1.86742E+00
   1.97892E-01  1.09100E-01 -6.52398E-04 -3.40098E+00  1.38916E+00 -2.39664E+00 -2.11080E-01  1.77113E+00
 NY points of the fit to the data follow
  -1.88539E+00 -1.99451E+00 -1.88977E+00 -1.55538E+00 -9.06670E-01  2.55105E-01  1.89684E+00  3.95809E+00  6.10019E+00  7.76399E+00
   8.35618E+00  7.64085E+00  5.99126E+00  4.10885E+00  2.51830E+00  1.34674E+00  5.49135E-01  8.81694E-02 -2.26243E-01 -3.92938E-01
  -4.43315E-01 -4.65720E-01 -5.00758E-01 -6.13926E-01 -7.22730E-01 -5.29424E-01  1.49684E-02  9.73508E-01  2.37372E+00  4.01133E+00
   5.41256E+00  6.06224E+00  5.94651E+00  5.31658E+00  4.30632E+00  2.82072E+00  1.02121E+00 -5.12142E-01 -1.52063E+00 -1.92038E+00
  -1.70262E+00 -8.85950E-01  4.57143E-01  2.08414E+00  3.85213E+00  5.59682E+00  6.84131E+00  6.96861E+00  5.72845E+00  3.60746E+00
   1.52128E+00  1.87307E-03 -9.62185E-01 -1.45023E+00 -1.43663E+00 -1.04705E+00 -4.50371E-01  2.40140E-01  8.92803E-01  1.30139E+00
   1.24592E+00  6.96965E-01 -9.61336E-02 -8.07954E-01 -1.19824E+00 -1.23253E+00 -9.74342E-01 -5.94763E-01 -2.29499E-01  4.44184E-02
   2.69202E-01  5.20841E-01  7.62043E-01  9.60063E-01  1.10137E+00  1.07939E+00  7.79595E-01  1.54224E-01 -5.93731E-01 -1.15309E+00
  -1.35846E+00 -1.26670E+00 -8.29720E-01 -7.40668E-02  8.05844E-01  1.72048E+00  2.51301E+00  2.86104E+00  2.48794E+00  1.52199E+00
   4.68044E-01 -2.74722E-01 -7.75339E-01 -1.25987E+00 -1.58033E+00 -1.59581E+00 -1.22425E+00  2.46411E-01  4.18676E+00  1.06388E+01
   1.90500E+01  2.79927E+01  3.47553E+01  3.62825E+01  3.14536E+01  2.27120E+01  1.41623E+01  8.04918E+00  3.96814E+00  1.17094E+00
  -1.09699E-01 -6.32371E-01 -9.24419E-01 -1.10937E+00 -1.25254E+00 -1.36798E+00 -1.46875E+00 -1.56238E+00 -1.64500E+00 -1.68237E+00
  -1.59202E+00 -1.10927E+00  7.29040E-01  4.46547E+00  9.84540E+00  1.62355E+01  2.20660E+01  2.50677E+01  2.37011E+01  1.86997E+01
   1.26806E+01  7.89002E+00  4.57456E+00  1.88779E+00 -1.18747E-01 -1.38751E+00 -2.16490E+00 -2.35174E+00 -2.00792E+00 -1.36827E+00
  -6.95061E-01 -2.20888E-01 -9.43203E-02 -2.59794E-01 -5.64245E-01 -8.86800E-01 -1.14594E+00 -1.34428E+00 -1.50274E+00 -1.65561E+00
  -1.84245E+00 -2.05205E+00 -2.25050E+00 -2.38611E+00 -2.40218E+00 -2.29209E+00 -2.17088E+00 -2.19136E+00 -2.44574E+00 -2.91509E+00
  -3.39111E+00 -3.64353E+00 -3.53189E+00 -3.12653E+00 -2.76230E+00 -2.77443E+00 -3.19825E+00 -3.79384E+00 -4.29782E+00 -4.56553E+00
  -4.64954E+00 -4.73907E+00 -4.95006E+00 -5.28989E+00 -5.69750E+00 -5.96343E+00 -5.93805E+00 -5.64244E+00 -5.26138E+00 -5.07140E+00
  -5.16751E+00 -5.33097E+00 -5.33660E+00 -5.17324E+00 -4.96060E+00 -4.70316E+00 -4.23489E+00 -3.32068E+00 -2.00978E+00 -6.66096E-01
   2.91550E-01  5.96980E-01  2.84502E-01 -4.34043E-01 -1.28139E+00 -1.98251E+00 -2.34560E+00 -2.35189E+00 -2.00511E+00 -1.27772E+00
  -3.06982E-01  6.91031E-01  1.54649E+00  2.06564E+00  2.06496E+00  1.28675E+00 -1.95610E-01 -2.03483E+00 -3.84708E+00 -5.21655E+00
  -5.77198E+00 -5.25005E+00 -3.63089E+00 -1.27785E+00  1.40255E+00  3.76444E+00  4.98915E+00  4.36960E+00  1.96533E+00 -1.32924E+00
  -4.48622E+00 -6.80957E+00 -7.85683E+00 -7.27979E+00 -5.10387E+00 -2.23950E+00  2.11949E-01  1.62899E+00  2.09319E+00  1.93975E+00
   1.42781E+00  9.13877E-01  8.45509E-01  1.30999E+00  2.04904E+00  2.78881E+00  3.33351E+00  3.53066E+00  3.20019E+00  2.34329E+00
   1.27665E+00  4.07157E-01  3.07712E-02  3.05624E-01  1.24227E+00  2.51223E+00  3.58862E+00  4.16859E+00  4.30460E+00  4.25574E+00
   4.48334E+00  5.73713E+00  8.24204E+00  1.18628E+01  1.60525E+01  2.11883E+01  2.82106E+01  3.65056E+01  4.63292E+01  5.66298E+01
   6.34216E+01  6.17057E+01  5.07342E+01  3.58595E+01  2.31280E+01  1.46004E+01  8.67233E+00  4.68586E+00  3.11003E+00  2.35311E+00
   1.88026E+00  1.62455E+00  1.56282E+00  1.59857E+00  1.64487E+00  1.62084E+00  1.46620E+00  1.19917E+00  9.04905E-01  6.36664E-01
   4.06249E-01  2.33165E-01  1.33560E-01  8.93764E-02  6.25737E-02  2.38653E-02 -3.03173E-02 -8.69637E-02 -1.40127E-01 -1.77381E-01
  -1.78963E-01 -1.45882E-01 -9.68420E-02 -5.44818E-02 -3.53994E-02 -3.66940E-02 -4.70395E-02 -6.02716E-02 -6.90633E-02 -6.01523E-02
  -2.79827E-02  2.04805E-02  7.33802E-02  1.21799E-01  1.63706E-01  1.98333E-01  2.24395E-01  2.45790E-01  2.66396E-01  2.88056E-01
   3.12553E-01  3.41363E-01  3.76454E-01  4.19817E-01  4.74156E-01  5.41840E-01  6.25532E-01  7.27527E-01  8.51037E-01  1.00014E+00
   1.18219E+00  1.41330E+00  1.72265E+00  2.07939E+00  2.41561E+00  2.65908E+00  2.72093E+00  2.54328E+00  2.16896E+00  1.75255E+00
   1.50052E+00  1.52115E+00  1.77657E+00  2.22527E+00  2.84712E+00  3.50639E+00  3.99540E+00  4.19387E+00  4.13429E+00  3.94897E+00
   3.73451E+00  3.49971E+00  3.26187E+00  3.04859E+00  2.84429E+00  2.64087E+00  2.43748E+00  2.23528E+00  2.03653E+00  1.84322E+00
   1.65756E+00  1.48129E+00  1.31628E+00  1.16358E+00  1.02401E+00  8.97482E-01  7.83929E-01  6.82731E-01  5.93431E-01  5.14908E-01
   4.46114E-01  3.85517E-01  3.32054E-01  2.84485E-01  2.42043E-01  2.03604E-01  1.68454E-01  1.35728E-01  1.05257E-01  7.67965E-02
   5.06043E-02  2.66233E-02  5.27264E-03 -1.31362E-02 -2.76409E-02 -3.74511E-02 -4.13687E-02 -3.85131E-02 -2.74812E-02 -6.93214E-03
   2.51200E-02  7.04764E-02  1.31374E-01  2.09818E-01  3.08396E-01  4.29582E-01  5.76285E-01  7.50900E-01  9.55819E-01  1.19264E+00
   1.46277E+00  1.76648E+00  2.10325E+00  2.47076E+00  2.86542E+00  3.28166E+00  3.71269E+00  4.14985E+00  4.58333E+00  5.00182E+00
   5.39367E+00  5.74691E+00  6.05050E+00  6.29421E+00  6.46977E+00  6.57069E+00  6.59348E+00  6.53719E+00  6.40418E+00  6.19916E+00
   5.92948E+00  5.60412E+00  5.23386E+00  4.83005E+00  4.40464E+00  3.96877E+00  3.53297E+00  3.10622E+00  2.69637E+00  2.30940E+00
   1.94989E+00  1.62042E+00  1.32241E+00  1.05576E+00  8.19804E-01  6.12821E-01  4.32842E-01  2.77164E-01  1.43272E-01  2.84008E-02
  -6.96990E-02 -1.53437E-01 -2.24760E-01 -2.85768E-01 -3.37963E-01 -3.82857E-01 -4.21382E-01 -4.54657E-01 -4.83391E-01 -5.08509E-01
  -5.30425E-01 -5.49704E-01 -5.66497E-01 -5.81292E-01 -5.94267E-01 -6.05864E-01 -6.16086E-01 -6.25175E-01 -6.33064E-01 -6.40069E-01
  -6.46203E-01 -6.51734E-01 -6.56519E-01 -6.60711E-01 -6.64198E-01 -6.67252E-01 -6.69820E-01 -6.72088E-01 -6.73867E-01 -6.75298E-01
  -6.76282E-01 -6.77071E-01 -6.77561E-01 -6.77886E-01 -6.77836E-01 -6.77570E-01 -6.77002E-01 -6.76370E-01 -6.75528E-01 -6.74582E-01
  -6.73331E-01 -6.71957E-01 -6.70380E-01 -6.68802E-01 -6.67042E-01 -6.65195E-01 -6.63087E-01 -6.60928E-01 -6.58634E-01 -6.56375E-01
  -6.53942E-01 -6.51438E-01 -6.48719E-01 -6.46006E-01 -6.43195E-01 -6.40417E-01 -6.37457E-01 -6.34437E-01 -6.31244E-01 -6.28097E-01
  -6.24864E-01 -6.21648E-01 -6.18237E-01 -6.14782E-01 -6.11188E-01 -6.07656E-01 -6.04019E-01 -6.00362E-01
 NY background values follow
    -3.502E+00   -3.497E+00   -3.491E+00   -3.486E+00   -3.480E+00   -3.474E+00   -3.469E+00   -3.463E+00   -3.458E+00   -3.452E+00
    -3.447E+00   -3.441E+00   -3.436E+00   -3.430E+00   -3.425E+00   -3.419E+00   -3.414E+00   -3.408E+00   -3.403E+00   -3.397E+00
    -3.391E+00   -3.386E+00   -3.380E+00   -3.375E+00   -3.369E+00   -3.364E+00   -3.358E+00   -3.353E+00   -3.347E+00   -3.342E+00
    -3.336E+00   -3.331E+00   -3.325E+00   -3.320E+00   -3.314E+00   -3.308E+00   -3.303E+00   -3.297E+00   -3.292E+00   -3.286E+00
    -3.281E+00   -3.275E+00   -3.270E+00   -3.264E+00   -3.259E+00   -3.253E+00   -3.248E+00   -3.242E+00   -3.237E+00   -3.231E+00
    -3.225E+00   -3.220E+00   -3.214E+00   -3.209E+00   -3.203E+00   -3.198E+00   -3.192E+00   -3.187E+00   -3.181E+00   -3.176E+00
    -3.170E+00   -3.165E+00   -3.159E+00   -3.153E+00   -3.148E+00   -3.142E+00   -3.137E+00   -3.131E+00   -3.126E+00   -3.120E+00
    -3.115E+00   -3.109E+00   -3.104E+00   -3.098E+00   -3.093E+00   -3.087E+00   -3.081E+00   -3.076E+00   -3.070E+00   -3.065E+00
    -3.059E+00   -3.054E+00   -3.048E+00   -3.043E+00   -3.037E+00   -3.032E+00   -3.026E+00   -3.021E+00   -3.015E+00   -3.010E+00
    -3.004E+00   -2.998E+00   -2.993E+00   -2.987E+00   -2.982E+00   -2.976E+00   -2.971E+00   -2.965E+00   -2.960E+00   -2.954E+00
    -2.949E+00   -2.943E+00   -2.938E+00   -2.932E+00   -2.926E+00   -2.921E+00   -2.915E+00   -2.910E+00   -2.904E+00   -2.899E+00
    -2.893E+00   -2.888E+00   -2.882E+00   -2.877E+00   -2.871E+00   -2.866E+00   -2.860E+00   -2.854E+00   -2.849E+00   -2.843E+00
    -2.838E+00   -2.832E+00   -2.827E+00   -2.821E+00   -2.816E+00   -2.810E+00   -2.805E+00   -2.799E+00   -2.793E+00   -2.788E+00
    -2.782E+00   -2.777E+00   -2.771E+00   -2.766E+00   -2.760E+00   -2.755E+00   -2.749E+00   -2.744E+00   -2.738E+00   -2.733E+00
    -2.727E+00   -2.721E+00   -2.716E+00   -2.710E+00   -2.705E+00   -2.699E+00   -2.694E+00   -2.688E+00   -2.683E+00   -2.677E+00
    -2.672E+00   -2.666E+00   -2.661E+00   -2.655E+00   -2.649E+00   -2.644E+00   -2.638E+00   -2.633E+00   -2.627E+00   -2.622E+00
    -2.616E+00   -2.611E+00   -2.605E+00   -2.600E+00   -2.594E+00   -2.588E+00   -2.583E+00   -2.577E+00   -2.572E+00   -2.566E+00
    -2.561E+00   -2.555E+00   -2.550E+00   -2.544E+00   -2.539E+00   -2.533E+00   -2.527E+00   -2.522E+00   -2.516E+00   -2.511E+00
    -2.505E+00   -2.500E+00   -2.494E+00   -2.489E+00   -2.483E+00   -2.478E+00   -2.472E+00   -2.466E+00   -2.461E+00   -2.455E+00
    -2.450E+00   -2.444E+00   -2.439E+00   -2.433E+00   -2.428E+00   -2.422E+00   -2.417E+00   -2.411E+00   -2.405E+00   -2.400E+00
    -2.394E+00   -2.389E+00   -2.383E+00   -2.378E+00   -2.372E+00   -2.367E+00   -2.361E+00   -2.356E+00   -2.350E+00   -2.344E+00
    -2.339E+00   -2.333E+00   -2.328E+00   -2.322E+00   -2.317E+00   -2.311E+00   -2.306E+00   -2.300E+00   -2.295E+00   -2.289E+00
    -2.283E+00   -2.278E+00   -2.272E+00   -2.267E+00   -2.261E+00   -2.256E+00   -2.250E+00   -2.245E+00   -2.239E+00   -2.234E+00
    -2.228E+00   -2.222E+00   -2.217E+00   -2.211E+00   -2.206E+00   -2.200E+00   -2.195E+00   -2.189E+00   -2.184E+00   -2.178E+00
    -2.172E+00   -2.167E+00   -2.161E+00   -2.156E+00   -2.150E+00   -2.145E+00   -2.139E+00   -2.134E+00   -2.128E+00   -2.123E+00
    -2.117E+00   -2.111E+00   -2.106E+00   -2.100E+00   -2.095E+00   -2.089E+00   -2.084E+00   -2.078E+00   -2.073E+00   -2.067E+00
    -2.061E+00   -2.056E+00   -2.050E+00   -2.045E+00   -2.039E+00   -2.034E+00   -2.028E+00   -2.023E+00   -2.017E+00   -2.011E+00
    -2.006E+00   -2.000E+00   -1.995E+00   -1.989E+00   -1.984E+00   -1.978E+00   -1.973E+00   -1.967E+00   -1.962E+00   -1.956E+00
    -1.950E+00   -1.945E+00   -1.939E+00   -1.934E+00   -1.928E+00   -1.923E+00   -1.917E+00   -1.912E+00   -1.906E+00   -1.900E+00
    -1.895E+00   -1.889E+00   -1.884E+00   -1.878E+00   -1.873E+00   -1.867E+00   -1.862E+00   -1.856E+00   -1.850E+00   -1.845E+00
    -1.839E+00   -1.834E+00   -1.828E+00   -1.823E+00   -1.817E+00   -1.812E+00   -1.806E+00   -1.800E+00   -1.795E+00   -1.789E+00
    -1.784E+00   -1.778E+00   -1.773E+00   -1.767E+00   -1.762E+00   -1.756E+00   -1.750E+00   -1.745E+00   -1.739E+00   -1.734E+00
    -1.728E+00   -1.723E+00   -1.717E+00   -1.712E+00   -1.706E+00   -1.700E+00   -1.695E+00   -1.689E+00   -1.684E+00   -1.678E+00
    -1.673E+00   -1.667E+00   -1.662E+00   -1.656E+00   -1.650E+00   -1.645E+00   -1.639E+00   -1.634E+00   -1.628E+00   -1.623E+00
    -1.617E+00   -1.611E+00   -1.606E+00   -1.600E+00   -1.595E+00   -1.589E+00   -1.584E+00   -1.578E+00   -1.573E+00   -1.567E+00
    -1.561E+00   -1.556E+00   -1.550E+00   -1.545E+00   -1.539E+00   -1.534E+00   -1.528E+00   -1.523E+00   -1.517E+00   -1.511E+00
    -1.506E+00   -1.500E+00   -1.495E+00   -1.489E+00   -1.484E+00   -1.478E+00   -1.473E+00   -1.467E+00   -1.461E+00   -1.456E+00
    -1.450E+00   -1.445E+00   -1.439E+00   -1.434E+00   -1.428E+00   -1.422E+00   -1.417E+00   -1.411E+00   -1.406E+00   -1.400E+00
    -1.395E+00   -1.389E+00   -1.384E+00   -1.378E+00   -1.372E+00   -1.367E+00   -1.361E+00   -1.356E+00   -1.350E+00   -1.345E+00
    -1.339E+00   -1.334E+00   -1.328E+00   -1.322E+00   -1.317E+00   -1.311E+00   -1.306E+00   -1.300E+00   -1.295E+00   -1.289E+00
    -1.283E+00   -1.278E+00   -1.272E+00   -1.267E+00   -1.261E+00   -1.256E+00   -1.250E+00   -1.245E+00   -1.239E+00   -1.233E+00
    -1.228E+00   -1.222E+00   -1.217E+00   -1.211E+00   -1.206E+00   -1.200E+00   -1.195E+00   -1.189E+00   -1.183E+00   -1.178E+00
    -1.172E+00   -1.167E+00   -1.161E+00   -1.156E+00   -1.150E+00   -1.144E+00   -1.139E+00   -1.133E+00   -1.128E+00   -1.122E+00
    -1.117E+00   -1.111E+00   -1.106E+00   -1.100E+00   -1.094E+00   -1.089E+00   -1.083E+00   -1.078E+00   -1.072E+00   -1.067E+00
    -1.061E+00   -1.055E+00   -1.050E+00   -1.044E+00   -1.039E+00   -1.033E+00   -1.028E+00   -1.022E+00   -1.017E+00   -1.011E+00
    -1.005E+00   -9.998E-01   -9.943E-01   -9.887E-01   -9.831E-01   -9.776E-01   -9.720E-01   -9.664E-01   -9.609E-01   -9.553E-01
    -9.498E-01   -9.442E-01   -9.386E-01   -9.331E-01   -9.275E-01   -9.219E-01   -9.164E-01   -9.108E-01   -9.052E-01   -8.997E-01
    -8.941E-01   -8.886E-01   -8.830E-01   -8.774E-01   -8.719E-01   -8.663E-01   -8.607E-01   -8.552E-01   -8.496E-01   -8.441E-01
    -8.385E-01   -8.329E-01   -8.274E-01   -8.218E-01   -8.162E-01   -8.107E-01   -8.051E-01   -7.995E-01   -7.940E-01   -7.884E-01
    -7.829E-01   -7.773E-01   -7.717E-01   -7.662E-01   -7.606E-01   -7.550E-01   -7.495E-01   -7.439E-01
 Ala      Conc. = 7.66E+01
