 LCModel (Version 6.3-1L) Copyright: S.W. Provencher.          Ref.: Magn. Reson. Med. 30:672-679 (1993).                
 Slice#2 Row#5 Col#4  PD_05_press_1_raw_act
 36 lines in following concentration table = NCONC+1
    Conc.  %SD /Cr+PCr  Metabolite                                         
  125.059  69% 9.4E-02 Ala                                                 
   10.528 999% 7.9E-03 Asp                                                 
  241.089  80%   0.180 Cr                                                  
 1.10E+03  18%   0.820 PCr                                                 
   95.939 154% 7.2E-02 GABA                                                
    0.000 999%   0.000 Glc                                                 
  695.131  28%   0.520 Gln                                                 
 1.39E+03  17%   1.038 Glu                                                 
  535.452   3%   0.400 GPC                                                 
    0.000 999%   0.000 PCh                                                 
  500.124  12%   0.374 GSH                                                 
 1.48E+03  16%   1.104 Ins                                                 
    0.000 999%   0.000 Lac                                                 
 2.45E+03   4%   1.832 NAA                                                 
  148.335  67%   0.111 NAAG                                                
  151.965  15%   0.114 Scyllo                                              
    0.000 999%   0.000 Tau                                                 
  133.194  68%   0.100 -CrCH2                                              
  535.452   3%   0.400 GPC+PCh                                             
 2.60E+03   3%   1.943 NAA+NAAG                                            
 1.34E+03   3%   1.000 Cr+PCr                                              
 2.08E+03  16%   1.558 Glu+Gln                                             
  659.557  46%   0.493 Lip13a                                              
    0.000 999%   0.000 Lip13b                                              
   43.100 336% 3.2E-02 Lip09                                               
  879.982  22%   0.658 MM09                                                
   77.912 124% 5.8E-02 Lip20                                               
 2.08E+03  15%   1.553 MM20                                                
  321.735  34%   0.241 MM12                                                
  220.552 101%   0.165 MM14                                                
   39.355 420% 2.9E-02 MM17                                                
  659.557  46%   0.493 Lip13a+Lip13b                                       
 1.20E+03  31%   0.899 MM14+Lip13a+Lip13b+MM12                             
  923.082  19%   0.690 MM09+Lip09                                          
 2.15E+03  14%   1.611 MM20+Lip20                                          
   6 lines in following misc. output table
  FWHM = 0.061 ppm    S/N =  17                                            
  Data shift = 0.008 ppm                                                   
  Ph: -50 deg     -16.0 deg/ppm                                            
  alphaB,S = 6.3E-01,   3.3E+02                                            
   14 spline knots.   Ns = 8(1)                                            
  (12) 2 infls.   ( 5) 1 extrs.                                            
  498 points on ppm-axis = NY
      4.000000     3.992357     3.984714     3.977070     3.969427     3.961784     3.954141     3.946497     3.938854     3.931211
      3.923568     3.915925     3.908281     3.900638     3.892995     3.885352     3.877708     3.870065     3.862422     3.854779
      3.847136     3.839492     3.831849     3.824206     3.816563     3.808919     3.801276     3.793633     3.785990     3.778347
      3.770703     3.763060     3.755417     3.747774     3.740130     3.732487     3.724844     3.717201     3.709558     3.701914
      3.694271     3.686628     3.678985     3.671341     3.663698     3.656055     3.648412     3.640769     3.633125     3.625482
      3.617839     3.610196     3.602552     3.594909     3.587266     3.579623     3.571980     3.564336     3.556693     3.549050
      3.541407     3.533763     3.526120     3.518477     3.510834     3.503191     3.495547     3.487904     3.480261     3.472618
      3.464974     3.457331     3.449688     3.442045     3.434402     3.426758     3.419115     3.411472     3.403829     3.396185
      3.388542     3.380899     3.373256     3.365613     3.357969     3.350326     3.342683     3.335040     3.327396     3.319753
      3.312110     3.304467     3.296824     3.289180     3.281537     3.273894     3.266251     3.258607     3.250964     3.243321
      3.235678     3.228034     3.220391     3.212748     3.205105     3.197462     3.189818     3.182175     3.174532     3.166889
      3.159245     3.151602     3.143959     3.136316     3.128673     3.121029     3.113386     3.105743     3.098100     3.090456
      3.082813     3.075170     3.067527     3.059884     3.052240     3.044597     3.036954     3.029311     3.021667     3.014024
      3.006381     2.998738     2.991095     2.983451     2.975808     2.968165     2.960522     2.952878     2.945235     2.937592
      2.929949     2.922306     2.914662     2.907019     2.899376     2.891733     2.884089     2.876446     2.868803     2.861160
      2.853517     2.845873     2.838230     2.830587     2.822944     2.815300     2.807657     2.800014     2.792371     2.784728
      2.777084     2.769441     2.761798     2.754155     2.746511     2.738868     2.731225     2.723582     2.715939     2.708295
      2.700652     2.693009     2.685366     2.677722     2.670079     2.662436     2.654793     2.647150     2.639506     2.631863
      2.624220     2.616577     2.608933     2.601290     2.593647     2.586004     2.578361     2.570717     2.563074     2.555431
      2.547788     2.540144     2.532501     2.524858     2.517215     2.509572     2.501928     2.494285     2.486642     2.478999
      2.471355     2.463712     2.456069     2.448426     2.440783     2.433139     2.425496     2.417853     2.410210     2.402566
      2.394923     2.387280     2.379637     2.371994     2.364350     2.356707     2.349064     2.341421     2.333777     2.326134
      2.318491     2.310848     2.303205     2.295561     2.287918     2.280275     2.272632     2.264988     2.257345     2.249702
      2.242059     2.234416     2.226772     2.219129     2.211486     2.203843     2.196199     2.188556     2.180913     2.173270
      2.165627     2.157983     2.150340     2.142697     2.135054     2.127410     2.119767     2.112124     2.104481     2.096838
      2.089194     2.081551     2.073908     2.066265     2.058621     2.050978     2.043335     2.035692     2.028049     2.020405
      2.012762     2.005119     1.997476     1.989833     1.982190     1.974546     1.966903     1.959260     1.951617     1.943974
      1.936331     1.928688     1.921045     1.913402     1.905759     1.898115     1.890472     1.882829     1.875186     1.867543
      1.859900     1.852257     1.844614     1.836971     1.829327     1.821684     1.814041     1.806398     1.798755     1.791112
      1.783469     1.775826     1.768183     1.760540     1.752896     1.745253     1.737610     1.729967     1.722324     1.714681
      1.707038     1.699395     1.691752     1.684108     1.676465     1.668822     1.661179     1.653536     1.645893     1.638250
      1.630607     1.622964     1.615321     1.607677     1.600034     1.592391     1.584748     1.577105     1.569462     1.561819
      1.554176     1.546533     1.538890     1.531246     1.523603     1.515960     1.508317     1.500674     1.493031     1.485388
      1.477745     1.470102     1.462458     1.454815     1.447172     1.439529     1.431886     1.424243     1.416600     1.408957
      1.401314     1.393671     1.386027     1.378384     1.370741     1.363098     1.355455     1.347812     1.340169     1.332526
      1.324883     1.317240     1.309596     1.301953     1.294310     1.286667     1.279024     1.271381     1.263738     1.256095
      1.248452     1.240808     1.233165     1.225522     1.217879     1.210236     1.202593     1.194950     1.187307     1.179664
      1.172021     1.164377     1.156734     1.149091     1.141448     1.133805     1.126162     1.118519     1.110876     1.103233
      1.095590     1.087946     1.080303     1.072660     1.065017     1.057374     1.049731     1.042088     1.034445     1.026802
      1.019158     1.011515     1.003872     0.996229     0.988586     0.980943     0.973300     0.965657     0.958014     0.950371
      0.942727     0.935084     0.927441     0.919798     0.912155     0.904512     0.896869     0.889226     0.881583     0.873940
      0.866296     0.858653     0.851010     0.843367     0.835724     0.828081     0.820438     0.812795     0.805152     0.797508
      0.789865     0.782222     0.774579     0.766936     0.759293     0.751650     0.744007     0.736364     0.728721     0.721077
      0.713434     0.705791     0.698148     0.690505     0.682862     0.675219     0.667576     0.659933     0.652290     0.644646
      0.637003     0.629360     0.621717     0.614074     0.606431     0.598788     0.591145     0.583502     0.575858     0.568215
      0.560572     0.552929     0.545286     0.537643     0.530000     0.522357     0.514714     0.507071     0.499427     0.491784
      0.484141     0.476498     0.468855     0.461212     0.453569     0.445925     0.438282     0.430639     0.422996     0.415353
      0.407710     0.400067     0.392424     0.384780     0.377137     0.369494     0.361851     0.354208     0.346565     0.338922
      0.331278     0.323635     0.315992     0.308349     0.300706     0.293063     0.285420     0.277777     0.270133     0.262490
      0.254847     0.247204     0.239561     0.231918     0.224275     0.216631     0.208988     0.201345
 NY phased data points follow
  -8.37794E+01 -8.13274E+01 -7.75805E+01 -7.37024E+01 -7.03186E+01 -6.70684E+01 -6.12380E+01 -5.64421E+01 -5.23505E+01 -4.94071E+01
  -4.78020E+01 -5.09281E+01 -5.31470E+01 -5.58584E+01 -5.90868E+01 -6.30469E+01 -6.58494E+01 -6.47050E+01 -6.58599E+01 -6.73006E+01
  -6.71723E+01 -6.06791E+01 -6.33172E+01 -6.19185E+01 -6.15321E+01 -6.09731E+01 -5.81272E+01 -5.82037E+01 -5.52215E+01 -5.43667E+01
  -5.34858E+01 -5.22688E+01 -5.35424E+01 -5.69778E+01 -5.58527E+01 -5.65590E+01 -5.37143E+01 -5.69584E+01 -5.45159E+01 -5.81064E+01
  -5.44087E+01 -5.10499E+01 -5.03726E+01 -4.89964E+01 -4.44764E+01 -4.54130E+01 -4.26402E+01 -4.43359E+01 -4.60502E+01 -4.65890E+01
  -4.60857E+01 -5.08679E+01 -5.14628E+01 -4.88680E+01 -4.68450E+01 -4.90665E+01 -4.49327E+01 -4.72830E+01 -4.49667E+01 -4.86196E+01
  -4.67868E+01 -4.95241E+01 -5.00769E+01 -5.16757E+01 -4.93396E+01 -5.05345E+01 -5.04283E+01 -4.81313E+01 -4.92939E+01 -4.66932E+01
  -4.82199E+01 -4.69410E+01 -4.29386E+01 -4.41796E+01 -4.41931E+01 -4.54267E+01 -4.18968E+01 -4.52371E+01 -4.49283E+01 -3.96889E+01
  -4.17337E+01 -4.31291E+01 -3.78442E+01 -3.70843E+01 -3.80473E+01 -3.83194E+01 -3.87675E+01 -3.46897E+01 -3.46478E+01 -3.41008E+01
  -3.32759E+01 -3.69273E+01 -3.24904E+01 -3.45196E+01 -3.30865E+01 -3.19005E+01 -2.64864E+01 -2.35702E+01 -1.65273E+01 -1.02256E+01
  -1.70894E+00  2.21477E+00  5.22159E+00  2.30262E+00 -1.80587E+00 -6.39642E+00 -1.21015E+01 -1.70587E+01 -2.06345E+01 -2.10070E+01
  -2.15836E+01 -2.86549E+01 -2.59401E+01 -2.69983E+01 -2.55775E+01 -2.67878E+01 -2.80030E+01 -2.73151E+01 -2.57478E+01 -2.88807E+01
  -2.48107E+01 -1.98034E+01 -1.78506E+01 -9.88603E+00 -2.52795E+00  1.72736E+00  7.12294E+00  9.18517E+00  1.10888E+01  6.48749E+00
  -1.77894E+00 -9.26598E+00 -1.28147E+01 -1.76280E+01 -2.25753E+01 -2.39841E+01 -2.51890E+01 -2.61991E+01 -2.51151E+01 -2.63995E+01
  -2.99495E+01 -2.56215E+01 -2.39109E+01 -2.74685E+01 -2.35041E+01 -2.61659E+01 -2.60608E+01 -2.86133E+01 -2.60568E+01 -2.35091E+01
  -2.75596E+01 -2.74533E+01 -2.67093E+01 -2.48826E+01 -2.82842E+01 -2.52033E+01 -2.69806E+01 -2.56746E+01 -2.38487E+01 -2.49503E+01
  -2.97626E+01 -2.90074E+01 -2.90170E+01 -2.63117E+01 -2.93254E+01 -2.74631E+01 -2.40785E+01 -2.34666E+01 -2.53056E+01 -2.91656E+01
  -2.83299E+01 -2.96559E+01 -2.71748E+01 -2.86246E+01 -3.02460E+01 -2.83949E+01 -3.12066E+01 -2.97026E+01 -3.18291E+01 -2.84881E+01
  -3.02987E+01 -2.94426E+01 -2.88458E+01 -2.86184E+01 -2.65326E+01 -2.54591E+01 -2.25671E+01 -2.16560E+01 -2.04223E+01 -1.60597E+01
  -1.56463E+01 -1.24921E+01 -1.18135E+01 -1.46089E+01 -1.64525E+01 -1.56275E+01 -1.59625E+01 -1.66251E+01 -1.44248E+01 -1.60937E+01
  -1.32789E+01 -1.45624E+01 -1.69387E+01 -1.35148E+01 -1.22997E+01 -1.35229E+01 -1.34042E+01 -1.70913E+01 -1.72444E+01 -1.47633E+01
  -1.75599E+01 -1.40641E+01 -1.28473E+01 -9.60224E+00 -8.36246E+00 -6.35723E+00 -5.35569E+00 -4.68777E+00 -7.30037E+00 -8.47566E+00
  -9.97261E+00 -1.50694E+01 -1.29723E+01 -1.27494E+01 -1.19232E+01 -7.92834E+00 -5.77125E+00 -8.18316E+00 -7.58992E+00 -7.37029E+00
  -6.03778E+00 -5.03272E+00 -4.40284E+00 -6.65628E+00 -5.48259E+00 -2.57706E+00 -3.57023E+00 -4.85093E+00 -3.84651E+00 -2.35801E+00
  -4.51678E+00 -4.86961E+00 -5.42228E+00 -4.24730E+00 -1.17860E+00 -4.04271E+00 -2.33067E+00  3.23252E-01  2.94654E+00  4.24044E+00
   4.90723E+00  5.03461E+00  5.30105E+00  8.31224E+00  1.60341E+01  2.67808E+01  3.54694E+01  4.45270E+01  5.34976E+01  6.08561E+01
   6.82408E+01  6.98609E+01  6.79545E+01  5.65022E+01  4.55276E+01  3.23165E+01  2.63543E+01  1.90725E+01  1.11955E+01  6.89645E+00
   4.78914E+00  2.83677E+00  1.74478E+00  6.16122E-01  5.70203E-01 -1.18187E+00  9.93322E-01 -1.64142E+00 -2.35839E+00 -4.76466E+00
  -4.13433E+00 -4.62260E+00 -3.57648E+00 -3.86586E+00 -6.20918E+00 -4.41835E+00 -3.54530E+00 -3.49222E+00 -3.79548E+00 -3.48356E+00
  -5.66687E+00 -5.14855E+00 -4.01982E+00 -4.36551E+00 -4.96089E+00 -3.77029E+00 -3.82800E+00 -2.80540E+00 -5.16679E+00 -6.13658E+00
  -2.06822E+00 -3.36501E+00 -1.26795E+00 -5.73792E-01 -3.07262E+00 -3.55776E+00 -4.55426E+00 -1.71894E+00 -3.88109E+00 -4.33875E+00
  -5.37894E+00 -6.92229E-01 -2.60747E+00 -1.80215E+00  2.47440E-01 -2.75241E+00 -1.77928E+00 -3.26713E+00 -2.59453E+00 -2.12552E+00
  -3.38032E-01 -8.47050E-01 -1.16372E-01 -2.14060E+00 -6.50012E-01 -2.72594E+00 -1.19438E+00 -5.61248E+00 -3.46222E+00 -5.67971E-01
  -2.17985E+00 -1.37479E+00 -1.67622E+00 -1.11767E+00 -1.50062E+00  1.33092E+00 -3.75298E-01  3.06963E+00 -1.19609E+00  1.45061E-01
  -2.41498E+00  2.26244E+00  1.96803E+00  2.09777E+00  4.08752E+00  1.56925E+00 -8.91917E-02  3.88285E+00  3.73646E+00  1.89341E+00
  -8.57432E-01  2.40132E+00  4.50582E+00  2.55034E+00  5.50787E+00  3.77110E+00  2.19399E+00  3.72336E-01  1.16422E+00  1.43897E+00
   4.75256E+00  4.38150E+00  3.96218E+00  3.15871E+00  3.23761E+00  2.48956E+00  4.90441E+00  4.70099E+00  4.00237E+00  2.91251E+00
   3.97862E+00  2.98643E+00  5.61005E+00  2.27017E+00  4.87450E+00  6.48101E+00  2.31715E+00  3.35515E+00  1.95617E+00  2.03339E+00
   1.64373E+00  2.30436E+00  1.47559E+00  6.41592E-01  2.74862E+00  2.27426E-01  2.36002E+00  2.03831E-01  1.89456E+00  2.23673E+00
   3.34360E+00  1.78025E+00  2.05107E-01  3.82033E+00  6.49586E+00  3.94892E+00  4.67738E+00  3.43157E+00  3.89621E+00  7.13696E+00
   4.56205E+00  5.20417E+00  5.81173E+00  5.37802E+00  8.15188E+00  6.77512E+00  8.58473E+00  7.90515E+00  7.08852E+00  5.83505E+00
   5.59891E+00  5.76933E+00  6.35751E+00  5.55947E+00  5.99396E+00  5.86791E+00  9.64587E+00  5.24472E+00  4.15252E+00  6.79090E+00
   3.33006E+00  6.03943E+00  5.53380E+00  5.19168E+00  2.45989E+00  3.25736E+00  2.43660E+00  4.62529E+00  4.93115E+00  5.93630E+00
   3.83734E+00  2.81906E+00  1.41544E+00  3.29547E+00  7.30318E-01  6.74640E+00  1.00770E+00  1.14445E+00  1.82228E+00  2.19545E+00
   2.93973E+00  3.28151E+00  2.46362E+00  2.30773E+00  3.85857E+00  1.99083E+00  2.82117E+00  3.84374E+00  1.27687E+00  3.28693E+00
   3.98288E+00  4.95800E+00  4.87767E+00  1.87942E+00  5.08719E+00  4.45631E+00  3.57211E+00  2.91030E+00  3.58090E+00  2.95401E+00
   4.69448E+00  2.16933E+00  4.16403E+00  1.46019E+00 -1.50567E+00  6.88745E+00  3.10109E+00  3.28835E+00  5.53017E+00  1.00144E+00
   4.24663E+00  4.09725E+00  3.51841E+00  6.24173E+00  1.75734E+00  6.37074E+00  4.78811E+00  6.38407E-01  2.84601E+00  4.35995E+00
   5.63611E+00  3.20414E+00  4.42235E+00  5.69630E+00  5.33940E+00  2.63552E+00  6.32452E+00  4.35661E+00  3.76653E+00  4.37237E+00
   4.01256E+00  3.06705E+00  4.60140E+00  3.47031E+00  4.66913E+00  4.27832E+00  6.21580E+00  6.08711E+00
 NY points of the fit to the data follow
  -7.83223E+01 -7.74902E+01 -7.55687E+01 -7.26922E+01 -6.91027E+01 -6.50265E+01 -6.07617E+01 -5.66777E+01 -5.32309E+01 -5.09310E+01
  -5.01882E+01 -5.10806E+01 -5.32407E+01 -5.59817E+01 -5.86226E+01 -6.08104E+01 -6.25548E+01 -6.40263E+01 -6.53354E+01 -6.62150E+01
  -6.64546E+01 -6.61913E+01 -6.54404E+01 -6.43516E+01 -6.29694E+01 -6.12913E+01 -5.93375E+01 -5.72305E+01 -5.52112E+01 -5.35494E+01
  -5.24924E+01 -5.21542E+01 -5.24669E+01 -5.32192E+01 -5.41621E+01 -5.51341E+01 -5.61068E+01 -5.69465E+01 -5.73205E+01 -5.68292E+01
  -5.54901E+01 -5.36897E+01 -5.16709E+01 -4.96654E+01 -4.78932E+01 -4.65742E+01 -4.59053E+01 -4.59759E+01 -4.67522E+01 -4.80020E+01
  -4.93129E+01 -5.02716E+01 -5.07083E+01 -5.06937E+01 -5.04390E+01 -5.00362E+01 -4.94311E+01 -4.86941E+01 -4.80504E+01 -4.76598E+01
  -4.75318E+01 -4.76133E+01 -4.77815E+01 -4.78556E+01 -4.77093E+01 -4.73142E+01 -4.67446E+01 -4.61035E+01 -4.54384E+01 -4.47906E+01
  -4.42116E+01 -4.37328E+01 -4.33873E+01 -4.31634E+01 -4.30208E+01 -4.29056E+01 -4.27632E+01 -4.25831E+01 -4.23611E+01 -4.19537E+01
  -4.13069E+01 -4.04780E+01 -3.95493E+01 -3.85718E+01 -3.75920E+01 -3.66768E+01 -3.59299E+01 -3.54500E+01 -3.52932E+01 -3.54368E+01
  -3.57487E+01 -3.60464E+01 -3.61852E+01 -3.60155E+01 -3.49650E+01 -3.22879E+01 -2.80882E+01 -2.26392E+01 -1.63592E+01 -9.75721E+00
  -3.49934E+00  1.49212E+00  4.22374E+00  4.00184E+00  8.28521E-01 -4.43611E+00 -1.04414E+01 -1.59971E+01 -2.05581E+01 -2.42427E+01
  -2.74024E+01 -3.01130E+01 -3.18701E+01 -3.24125E+01 -3.24422E+01 -3.23125E+01 -3.20908E+01 -3.17501E+01 -3.10745E+01 -2.92264E+01
  -2.56909E+01 -2.08604E+01 -1.51798E+01 -8.99124E+00 -2.70990E+00  3.01986E+00  7.29062E+00  9.16604E+00  8.12792E+00  4.40063E+00
  -1.03414E+00 -6.85421E+00 -1.20888E+01 -1.64362E+01 -2.00972E+01 -2.32902E+01 -2.57947E+01 -2.69043E+01 -2.68004E+01 -2.63361E+01
  -2.58518E+01 -2.54903E+01 -2.52796E+01 -2.51758E+01 -2.51658E+01 -2.52345E+01 -2.53470E+01 -2.54987E+01 -2.56727E+01 -2.58251E+01
  -2.59359E+01 -2.59657E+01 -2.59262E+01 -2.58559E+01 -2.58165E+01 -2.58240E+01 -2.58683E+01 -2.59230E+01 -2.59541E+01 -2.59795E+01
  -2.60018E+01 -2.59859E+01 -2.58966E+01 -2.57355E+01 -2.55568E+01 -2.54436E+01 -2.54657E+01 -2.56423E+01 -2.59283E+01 -2.62630E+01
  -2.65694E+01 -2.68136E+01 -2.70347E+01 -2.72387E+01 -2.74273E+01 -2.75197E+01 -2.74413E+01 -2.72287E+01 -2.69331E+01 -2.66373E+01
  -2.64226E+01 -2.62269E+01 -2.59123E+01 -2.53668E+01 -2.45523E+01 -2.35228E+01 -2.23752E+01 -2.11970E+01 -2.00386E+01 -1.89809E+01
  -1.81391E+01 -1.76350E+01 -1.75010E+01 -1.75645E+01 -1.76039E+01 -1.74605E+01 -1.70206E+01 -1.62693E+01 -1.53093E+01 -1.42178E+01
  -1.31492E+01 -1.22946E+01 -1.18221E+01 -1.17841E+01 -1.21633E+01 -1.29481E+01 -1.40987E+01 -1.53592E+01 -1.63229E+01 -1.66200E+01
  -1.61657E+01 -1.50556E+01 -1.35121E+01 -1.18240E+01 -1.02740E+01 -9.18171E+00 -8.80121E+00 -9.15265E+00 -1.01300E+01 -1.15004E+01
  -1.28736E+01 -1.37870E+01 -1.39984E+01 -1.35593E+01 -1.26340E+01 -1.13632E+01 -9.94355E+00 -8.60133E+00 -7.58953E+00 -6.83628E+00
  -6.17411E+00 -5.49991E+00 -4.80139E+00 -4.15294E+00 -3.61626E+00 -3.21674E+00 -3.01679E+00 -3.02161E+00 -3.17246E+00 -3.41814E+00
  -3.69493E+00 -3.89425E+00 -3.86374E+00 -3.51396E+00 -2.88549E+00 -2.10391E+00 -1.26502E+00 -3.85125E-01  5.46748E-01  1.54361E+00
   2.65915E+00  3.97285E+00  5.96362E+00  1.01711E+01  1.70408E+01  2.57332E+01  3.54135E+01  4.54483E+01  5.50818E+01  6.32171E+01
   6.84349E+01  6.93229E+01  6.52000E+01  5.67537E+01  4.59466E+01  3.51207E+01  2.58748E+01  1.84172E+01  1.21351E+01  6.51949E+00
   1.99015E+00 -3.31802E-01 -1.12110E+00 -1.47992E+00 -1.68568E+00 -1.82968E+00 -1.98733E+00 -2.17978E+00 -2.39151E+00 -2.60905E+00
  -2.81718E+00 -3.00176E+00 -3.16037E+00 -3.29378E+00 -3.39372E+00 -3.45863E+00 -3.49889E+00 -3.52488E+00 -3.54177E+00 -3.54959E+00
  -3.54830E+00 -3.54362E+00 -3.53781E+00 -3.52945E+00 -3.51930E+00 -3.50674E+00 -3.48896E+00 -3.46495E+00 -3.43480E+00 -3.39871E+00
  -3.35710E+00 -3.31066E+00 -3.25962E+00 -3.20529E+00 -3.14969E+00 -3.09356E+00 -3.03672E+00 -2.97877E+00 -2.91951E+00 -2.85897E+00
  -2.79605E+00 -2.72959E+00 -2.65854E+00 -2.58160E+00 -2.49703E+00 -2.40267E+00 -2.29522E+00 -2.16867E+00 -2.00963E+00 -1.79790E+00
  -1.55836E+00 -1.33498E+00 -1.15263E+00 -1.02861E+00 -9.84553E-01 -1.04679E+00 -1.23352E+00 -1.50449E+00 -1.77707E+00 -1.97723E+00
  -2.04106E+00 -1.92968E+00 -1.64518E+00 -1.22857E+00 -7.39881E-01 -2.39475E-01  2.25789E-01  6.22362E-01  9.04905E-01  1.08060E+00
   1.20264E+00  1.30957E+00  1.41150E+00  1.49915E+00  1.56920E+00  1.65807E+00  1.78615E+00  1.93523E+00  2.09456E+00  2.25838E+00
   2.42255E+00  2.58358E+00  2.73827E+00  2.88364E+00  3.01692E+00  3.13568E+00  3.23781E+00  3.32153E+00  3.38546E+00  3.42864E+00
   3.45068E+00  3.45169E+00  3.43231E+00  3.39359E+00  3.33702E+00  3.26446E+00  3.17815E+00  3.08058E+00  2.97440E+00  2.86230E+00
   2.74702E+00  2.63128E+00  2.51775E+00  2.40898E+00  2.30734E+00  2.21495E+00  2.13377E+00  2.06559E+00  2.01207E+00  1.97466E+00
   1.95462E+00  1.95311E+00  1.97119E+00  2.00988E+00  2.07015E+00  2.15286E+00  2.25875E+00  2.38843E+00  2.54240E+00  2.72094E+00
   2.92400E+00  3.15109E+00  3.40120E+00  3.67273E+00  3.96343E+00  4.27034E+00  4.58964E+00  4.91675E+00  5.24631E+00  5.57239E+00
   5.88861E+00  6.18831E+00  6.46475E+00  6.71144E+00  6.92240E+00  7.09248E+00  7.21761E+00  7.29493E+00  7.32296E+00  7.30164E+00
   7.23242E+00  7.11817E+00  6.96298E+00  6.77194E+00  6.55090E+00  6.30620E+00  6.04440E+00  5.77204E+00  5.49528E+00  5.21976E+00
   4.95043E+00  4.69148E+00  4.44631E+00  4.21747E+00  4.00671E+00  3.81502E+00  3.64277E+00  3.48981E+00  3.35560E+00  3.23925E+00
   3.13964E+00  3.05547E+00  2.98542E+00  2.92817E+00  2.88243E+00  2.84697E+00  2.82060E+00  2.80226E+00  2.79098E+00  2.78593E+00
   2.78636E+00  2.79161E+00  2.80104E+00  2.81414E+00  2.83047E+00  2.84966E+00  2.87136E+00  2.89527E+00  2.92109E+00  2.94859E+00
   2.97760E+00  3.00796E+00  3.03949E+00  3.07204E+00  3.10549E+00  3.13976E+00  3.17479E+00  3.21051E+00  3.24685E+00  3.28372E+00
   3.32108E+00  3.35889E+00  3.39715E+00  3.43581E+00  3.47482E+00  3.51414E+00  3.55374E+00  3.59364E+00  3.63382E+00  3.67425E+00
   3.71491E+00  3.75576E+00  3.79682E+00  3.83810E+00  3.87959E+00  3.92126E+00  3.96309E+00  4.00508E+00  4.04725E+00  4.08960E+00
   4.13213E+00  4.17482E+00  4.21764E+00  4.26062E+00  4.30378E+00  4.34713E+00  4.39065E+00  4.43432E+00  4.47816E+00  4.52217E+00
   4.56640E+00  4.61083E+00  4.65546E+00  4.70027E+00  4.74531E+00  4.79058E+00  4.83613E+00  4.88195E+00
 NY background values follow
    -8.250E+01   -8.197E+01   -8.143E+01   -8.090E+01   -8.037E+01   -7.984E+01   -7.931E+01   -7.878E+01   -7.825E+01   -7.772E+01
    -7.719E+01   -7.666E+01   -7.613E+01   -7.561E+01   -7.508E+01   -7.456E+01   -7.404E+01   -7.352E+01   -7.300E+01   -7.248E+01
    -7.196E+01   -7.144E+01   -7.093E+01   -7.041E+01   -6.990E+01   -6.939E+01   -6.888E+01   -6.837E+01   -6.786E+01   -6.736E+01
    -6.686E+01   -6.635E+01   -6.585E+01   -6.536E+01   -6.486E+01   -6.437E+01   -6.387E+01   -6.338E+01   -6.289E+01   -6.241E+01
    -6.192E+01   -6.144E+01   -6.096E+01   -6.048E+01   -6.001E+01   -5.954E+01   -5.906E+01   -5.860E+01   -5.813E+01   -5.767E+01
    -5.721E+01   -5.675E+01   -5.629E+01   -5.584E+01   -5.539E+01   -5.494E+01   -5.449E+01   -5.405E+01   -5.361E+01   -5.318E+01
    -5.274E+01   -5.231E+01   -5.188E+01   -5.146E+01   -5.104E+01   -5.062E+01   -5.020E+01   -4.979E+01   -4.938E+01   -4.898E+01
    -4.857E+01   -4.818E+01   -4.778E+01   -4.739E+01   -4.700E+01   -4.661E+01   -4.623E+01   -4.585E+01   -4.548E+01   -4.511E+01
    -4.474E+01   -4.437E+01   -4.401E+01   -4.366E+01   -4.330E+01   -4.296E+01   -4.261E+01   -4.227E+01   -4.193E+01   -4.160E+01
    -4.127E+01   -4.095E+01   -4.063E+01   -4.031E+01   -4.000E+01   -3.969E+01   -3.938E+01   -3.908E+01   -3.878E+01   -3.849E+01
    -3.820E+01   -3.791E+01   -3.763E+01   -3.735E+01   -3.708E+01   -3.680E+01   -3.653E+01   -3.627E+01   -3.601E+01   -3.575E+01
    -3.549E+01   -3.524E+01   -3.499E+01   -3.474E+01   -3.450E+01   -3.426E+01   -3.402E+01   -3.378E+01   -3.355E+01   -3.332E+01
    -3.310E+01   -3.287E+01   -3.265E+01   -3.243E+01   -3.221E+01   -3.200E+01   -3.179E+01   -3.158E+01   -3.137E+01   -3.117E+01
    -3.096E+01   -3.076E+01   -3.057E+01   -3.037E+01   -3.018E+01   -2.998E+01   -2.979E+01   -2.960E+01   -2.942E+01   -2.923E+01
    -2.905E+01   -2.887E+01   -2.869E+01   -2.851E+01   -2.833E+01   -2.815E+01   -2.797E+01   -2.780E+01   -2.762E+01   -2.745E+01
    -2.728E+01   -2.710E+01   -2.693E+01   -2.676E+01   -2.659E+01   -2.642E+01   -2.624E+01   -2.607E+01   -2.590E+01   -2.573E+01
    -2.555E+01   -2.538E+01   -2.521E+01   -2.503E+01   -2.486E+01   -2.468E+01   -2.451E+01   -2.433E+01   -2.415E+01   -2.397E+01
    -2.379E+01   -2.361E+01   -2.342E+01   -2.324E+01   -2.305E+01   -2.286E+01   -2.267E+01   -2.247E+01   -2.228E+01   -2.208E+01
    -2.188E+01   -2.168E+01   -2.148E+01   -2.127E+01   -2.106E+01   -2.085E+01   -2.064E+01   -2.042E+01   -2.021E+01   -1.999E+01
    -1.977E+01   -1.955E+01   -1.933E+01   -1.911E+01   -1.888E+01   -1.866E+01   -1.844E+01   -1.821E+01   -1.799E+01   -1.776E+01
    -1.754E+01   -1.731E+01   -1.708E+01   -1.686E+01   -1.664E+01   -1.641E+01   -1.619E+01   -1.597E+01   -1.575E+01   -1.553E+01
    -1.531E+01   -1.509E+01   -1.487E+01   -1.466E+01   -1.445E+01   -1.423E+01   -1.403E+01   -1.382E+01   -1.361E+01   -1.341E+01
    -1.321E+01   -1.302E+01   -1.282E+01   -1.263E+01   -1.244E+01   -1.226E+01   -1.207E+01   -1.190E+01   -1.172E+01   -1.155E+01
    -1.138E+01   -1.121E+01   -1.105E+01   -1.089E+01   -1.074E+01   -1.058E+01   -1.043E+01   -1.029E+01   -1.014E+01   -1.000E+01
    -9.861E+00   -9.725E+00   -9.591E+00   -9.460E+00   -9.332E+00   -9.206E+00   -9.082E+00   -8.961E+00   -8.843E+00   -8.726E+00
    -8.612E+00   -8.501E+00   -8.391E+00   -8.283E+00   -8.178E+00   -8.074E+00   -7.973E+00   -7.873E+00   -7.776E+00   -7.680E+00
    -7.586E+00   -7.494E+00   -7.403E+00   -7.314E+00   -7.227E+00   -7.141E+00   -7.056E+00   -6.973E+00   -6.892E+00   -6.812E+00
    -6.733E+00   -6.655E+00   -6.579E+00   -6.503E+00   -6.429E+00   -6.356E+00   -6.284E+00   -6.213E+00   -6.143E+00   -6.074E+00
    -6.006E+00   -5.939E+00   -5.873E+00   -5.807E+00   -5.743E+00   -5.679E+00   -5.616E+00   -5.554E+00   -5.493E+00   -5.432E+00
    -5.372E+00   -5.312E+00   -5.253E+00   -5.195E+00   -5.137E+00   -5.080E+00   -5.023E+00   -4.966E+00   -4.910E+00   -4.855E+00
    -4.799E+00   -4.744E+00   -4.690E+00   -4.635E+00   -4.581E+00   -4.527E+00   -4.473E+00   -4.420E+00   -4.366E+00   -4.312E+00
    -4.259E+00   -4.206E+00   -4.152E+00   -4.099E+00   -4.045E+00   -3.991E+00   -3.938E+00   -3.884E+00   -3.829E+00   -3.775E+00
    -3.721E+00   -3.666E+00   -3.612E+00   -3.557E+00   -3.502E+00   -3.447E+00   -3.393E+00   -3.338E+00   -3.283E+00   -3.228E+00
    -3.173E+00   -3.118E+00   -3.064E+00   -3.009E+00   -2.954E+00   -2.900E+00   -2.846E+00   -2.791E+00   -2.737E+00   -2.683E+00
    -2.630E+00   -2.576E+00   -2.523E+00   -2.470E+00   -2.417E+00   -2.364E+00   -2.312E+00   -2.260E+00   -2.208E+00   -2.157E+00
    -2.106E+00   -2.055E+00   -2.005E+00   -1.955E+00   -1.905E+00   -1.856E+00   -1.808E+00   -1.759E+00   -1.712E+00   -1.664E+00
    -1.617E+00   -1.571E+00   -1.525E+00   -1.480E+00   -1.435E+00   -1.391E+00   -1.347E+00   -1.304E+00   -1.261E+00   -1.218E+00
    -1.176E+00   -1.134E+00   -1.092E+00   -1.051E+00   -1.010E+00   -9.689E-01   -9.284E-01   -8.880E-01   -8.479E-01   -8.079E-01
    -7.680E-01   -7.283E-01   -6.887E-01   -6.492E-01   -6.097E-01   -5.702E-01   -5.308E-01   -4.913E-01   -4.519E-01   -4.123E-01
    -3.727E-01   -3.330E-01   -2.932E-01   -2.532E-01   -2.131E-01   -1.728E-01   -1.323E-01   -9.155E-02   -5.056E-02   -9.287E-03
     3.228E-02    7.415E-02    1.164E-01    1.589E-01    2.019E-01    2.453E-01    2.891E-01    3.333E-01    3.780E-01    4.231E-01
     4.687E-01    5.147E-01    5.610E-01    6.078E-01    6.549E-01    7.024E-01    7.502E-01    7.984E-01    8.468E-01    8.956E-01
     9.446E-01    9.939E-01    1.043E+00    1.093E+00    1.143E+00    1.193E+00    1.244E+00    1.294E+00    1.345E+00    1.396E+00
     1.447E+00    1.498E+00    1.550E+00    1.601E+00    1.652E+00    1.704E+00    1.755E+00    1.807E+00    1.858E+00    1.910E+00
     1.962E+00    2.013E+00    2.065E+00    2.116E+00    2.167E+00    2.219E+00    2.270E+00    2.321E+00    2.372E+00    2.423E+00
     2.473E+00    2.524E+00    2.574E+00    2.624E+00    2.674E+00    2.724E+00    2.773E+00    2.822E+00    2.872E+00    2.921E+00
     2.969E+00    3.018E+00    3.067E+00    3.115E+00    3.163E+00    3.211E+00    3.260E+00    3.308E+00    3.355E+00    3.403E+00
     3.451E+00    3.498E+00    3.546E+00    3.593E+00    3.641E+00    3.688E+00    3.735E+00    3.783E+00    3.830E+00    3.877E+00
     3.924E+00    3.971E+00    4.018E+00    4.065E+00    4.113E+00    4.160E+00    4.207E+00    4.254E+00    4.301E+00    4.349E+00
     4.396E+00    4.443E+00    4.491E+00    4.538E+00    4.586E+00    4.633E+00    4.681E+00    4.729E+00
 Ala      Conc. = 1.25E+02
