 LCModel (Version 6.3-1L) Copyright: S.W. Provencher.          Ref.: Magn. Reson. Med. 30:672-679 (1993).                
 Slice#1 Row#3 Col#13  PD_05_press_1_raw_act
 36 lines in following concentration table = NCONC+1
    Conc.  %SD /Cr+PCr  Metabolite                                         
 1.04E+04  25%   0.000 Ala                                                 
 6.16E-02 999%   0.000 Asp                                                 
    0.000 999%   0.000 Cr                                                  
    0.000 999%   0.000 PCr                                                 
    0.000 999%   0.000 GABA                                                
    0.000 999%   0.000 Glc                                                 
    0.000 999%   0.000 Gln                                                 
    0.000 999%   0.000 Glu                                                 
    0.000 999%   0.000 GPC                                                 
    0.000 999%   0.000 PCh                                                 
  306.898  32%   0.000 GSH                                                 
    0.000 999%   0.000 Ins                                                 
 5.81E+03  52%   0.000 Lac                                                 
    0.000 999%   0.000 NAA                                                 
    0.000 999%   0.000 NAAG                                                
    0.000 999%   0.000 Scyllo                                              
    0.000 999%   0.000 Tau                                                 
   13.725 386%   0.000 -CrCH2                                              
    0.000 999%   0.000 GPC+PCh                                             
    0.000 999%   0.000 NAA+NAAG                                            
    0.000 999%   0.000 Cr+PCr                                              
    0.000 999%   0.000 Glu+Gln                                             
 7.13E+04  15%   0.000 Lip13a                                              
 1.73E+03 169%   0.000 Lip13b                                              
 3.64E+04  11%   0.000 Lip09                                               
    0.000 999%   0.000 MM09                                                
    0.000 999%   0.000 Lip20                                               
    0.000 999%   0.000 MM20                                                
 1.21E+04  18%   0.000+MM12                                                
 3.29E+04  18%   0.000 MM14                                                
 1.36E+04  20%   0.000 MM17                                                
 7.30E+04  14%   0.000 Lip13a+Lip13b                                       
 1.18E+05   7%   0.000 MM14+Lip13a+Lip13b+MM12                             
 3.64E+04  11%   0.000 MM09+Lip09                                          
    0.000 999%   0.000 MM20+Lip20                                          
   6 lines in following misc. output table
  FWHM = 0.153 ppm    S/N =  71                                            
  Data shift = 0.199 ppm                                                   
  Ph:-171 deg      49.3 deg/ppm                                            
  alphaB,S = 8.5E+01,   4.1E+02                                            
    6 spline knots.   Ns = 9(2)                                            
   2 inflections.     1 extrema                                            
  498 points on ppm-axis = NY
      4.000000     3.992357     3.984714     3.977070     3.969427     3.961784     3.954141     3.946497     3.938854     3.931211
      3.923568     3.915925     3.908281     3.900638     3.892995     3.885352     3.877708     3.870065     3.862422     3.854779
      3.847136     3.839492     3.831849     3.824206     3.816563     3.808919     3.801276     3.793633     3.785990     3.778347
      3.770703     3.763060     3.755417     3.747774     3.740130     3.732487     3.724844     3.717201     3.709558     3.701914
      3.694271     3.686628     3.678985     3.671341     3.663698     3.656055     3.648412     3.640769     3.633125     3.625482
      3.617839     3.610196     3.602552     3.594909     3.587266     3.579623     3.571980     3.564336     3.556693     3.549050
      3.541407     3.533763     3.526120     3.518477     3.510834     3.503191     3.495547     3.487904     3.480261     3.472618
      3.464974     3.457331     3.449688     3.442045     3.434402     3.426758     3.419115     3.411472     3.403829     3.396185
      3.388542     3.380899     3.373256     3.365613     3.357969     3.350326     3.342683     3.335040     3.327396     3.319753
      3.312110     3.304467     3.296824     3.289180     3.281537     3.273894     3.266251     3.258607     3.250964     3.243321
      3.235678     3.228034     3.220391     3.212748     3.205105     3.197462     3.189818     3.182175     3.174532     3.166889
      3.159245     3.151602     3.143959     3.136316     3.128673     3.121029     3.113386     3.105743     3.098100     3.090456
      3.082813     3.075170     3.067527     3.059884     3.052240     3.044597     3.036954     3.029311     3.021667     3.014024
      3.006381     2.998738     2.991095     2.983451     2.975808     2.968165     2.960522     2.952878     2.945235     2.937592
      2.929949     2.922306     2.914662     2.907019     2.899376     2.891733     2.884089     2.876446     2.868803     2.861160
      2.853517     2.845873     2.838230     2.830587     2.822944     2.815300     2.807657     2.800014     2.792371     2.784728
      2.777084     2.769441     2.761798     2.754155     2.746511     2.738868     2.731225     2.723582     2.715939     2.708295
      2.700652     2.693009     2.685366     2.677722     2.670079     2.662436     2.654793     2.647150     2.639506     2.631863
      2.624220     2.616577     2.608933     2.601290     2.593647     2.586004     2.578361     2.570717     2.563074     2.555431
      2.547788     2.540144     2.532501     2.524858     2.517215     2.509572     2.501928     2.494285     2.486642     2.478999
      2.471355     2.463712     2.456069     2.448426     2.440783     2.433139     2.425496     2.417853     2.410210     2.402566
      2.394923     2.387280     2.379637     2.371994     2.364350     2.356707     2.349064     2.341421     2.333777     2.326134
      2.318491     2.310848     2.303205     2.295561     2.287918     2.280275     2.272632     2.264988     2.257345     2.249702
      2.242059     2.234416     2.226772     2.219129     2.211486     2.203843     2.196199     2.188556     2.180913     2.173270
      2.165627     2.157983     2.150340     2.142697     2.135054     2.127410     2.119767     2.112124     2.104481     2.096838
      2.089194     2.081551     2.073908     2.066265     2.058621     2.050978     2.043335     2.035692     2.028049     2.020405
      2.012762     2.005119     1.997476     1.989833     1.982190     1.974546     1.966903     1.959260     1.951617     1.943974
      1.936331     1.928688     1.921045     1.913402     1.905759     1.898115     1.890472     1.882829     1.875186     1.867543
      1.859900     1.852257     1.844614     1.836971     1.829327     1.821684     1.814041     1.806398     1.798755     1.791112
      1.783469     1.775826     1.768183     1.760540     1.752896     1.745253     1.737610     1.729967     1.722324     1.714681
      1.707038     1.699395     1.691752     1.684108     1.676465     1.668822     1.661179     1.653536     1.645893     1.638250
      1.630607     1.622964     1.615321     1.607677     1.600034     1.592391     1.584748     1.577105     1.569462     1.561819
      1.554176     1.546533     1.538890     1.531246     1.523603     1.515960     1.508317     1.500674     1.493031     1.485388
      1.477745     1.470102     1.462458     1.454815     1.447172     1.439529     1.431886     1.424243     1.416600     1.408957
      1.401314     1.393671     1.386027     1.378384     1.370741     1.363098     1.355455     1.347812     1.340169     1.332526
      1.324883     1.317240     1.309596     1.301953     1.294310     1.286667     1.279024     1.271381     1.263738     1.256095
      1.248452     1.240808     1.233165     1.225522     1.217879     1.210236     1.202593     1.194950     1.187307     1.179664
      1.172021     1.164377     1.156734     1.149091     1.141448     1.133805     1.126162     1.118519     1.110876     1.103233
      1.095590     1.087946     1.080303     1.072660     1.065017     1.057374     1.049731     1.042088     1.034445     1.026802
      1.019158     1.011515     1.003872     0.996229     0.988586     0.980943     0.973300     0.965657     0.958014     0.950371
      0.942727     0.935084     0.927441     0.919798     0.912155     0.904512     0.896869     0.889226     0.881583     0.873940
      0.866296     0.858653     0.851010     0.843367     0.835724     0.828081     0.820438     0.812795     0.805152     0.797508
      0.789865     0.782222     0.774579     0.766936     0.759293     0.751650     0.744007     0.736364     0.728721     0.721077
      0.713434     0.705791     0.698148     0.690505     0.682862     0.675219     0.667576     0.659933     0.652290     0.644646
      0.637003     0.629360     0.621717     0.614074     0.606431     0.598788     0.591145     0.583502     0.575858     0.568215
      0.560572     0.552929     0.545286     0.537643     0.530000     0.522357     0.514714     0.507071     0.499427     0.491784
      0.484141     0.476498     0.468855     0.461212     0.453569     0.445925     0.438282     0.430639     0.422996     0.415353
      0.407710     0.400067     0.392424     0.384780     0.377137     0.369494     0.361851     0.354208     0.346565     0.338922
      0.331278     0.323635     0.315992     0.308349     0.300706     0.293063     0.285420     0.277777     0.270133     0.262490
      0.254847     0.247204     0.239561     0.231918     0.224275     0.216631     0.208988     0.201345
 NY phased data points follow
  -2.39547E+01 -2.80205E+01 -2.82673E+01 -2.65389E+01 -2.67240E+01 -2.57204E+01 -2.45312E+01 -2.66253E+01 -2.56925E+01 -2.64808E+01
  -2.93407E+01 -2.91794E+01 -2.62296E+01 -2.65712E+01 -2.82770E+01 -2.86595E+01 -2.70040E+01 -2.63196E+01 -2.76733E+01 -2.93178E+01
  -2.80284E+01 -2.86174E+01 -2.77827E+01 -2.92251E+01 -2.73792E+01 -2.65055E+01 -2.81934E+01 -2.91647E+01 -2.75925E+01 -2.67630E+01
  -2.71108E+01 -2.95429E+01 -2.69044E+01 -2.74084E+01 -2.71900E+01 -2.69516E+01 -2.96923E+01 -2.88581E+01 -3.06117E+01 -2.82383E+01
  -2.91160E+01 -2.97407E+01 -3.01103E+01 -2.97046E+01 -3.00518E+01 -2.97239E+01 -3.06367E+01 -2.93763E+01 -3.07122E+01 -3.01612E+01
  -3.38150E+01 -2.97089E+01 -3.15836E+01 -3.00839E+01 -3.04962E+01 -3.11444E+01 -3.18634E+01 -3.04046E+01 -3.22143E+01 -3.24258E+01
  -3.35409E+01 -3.04370E+01 -3.09938E+01 -3.07658E+01 -3.38758E+01 -2.88618E+01 -3.35505E+01 -3.26201E+01 -3.17727E+01 -3.06572E+01
  -3.33138E+01 -3.27341E+01 -2.81585E+01 -3.26044E+01 -3.20855E+01 -3.11142E+01 -3.00241E+01 -3.50715E+01 -3.56619E+01 -3.29796E+01
  -3.07069E+01 -3.02284E+01 -3.38932E+01 -3.57131E+01 -3.34514E+01 -3.29523E+01 -3.26865E+01 -3.36623E+01 -3.45019E+01 -3.32660E+01
  -3.61731E+01 -3.35452E+01 -3.45591E+01 -3.33991E+01 -3.24799E+01 -3.36571E+01 -3.36535E+01 -3.59486E+01 -3.15764E+01 -3.62079E+01
  -3.42091E+01 -3.48707E+01 -3.25321E+01 -3.18238E+01 -3.60878E+01 -3.44996E+01 -3.43034E+01 -3.38749E+01 -3.40746E+01 -3.42846E+01
  -3.38662E+01 -3.56922E+01 -3.38520E+01 -3.62398E+01 -3.60754E+01 -3.26923E+01 -3.64109E+01 -3.28974E+01 -3.47686E+01 -3.38779E+01
  -3.40207E+01 -3.40846E+01 -3.38783E+01 -3.47170E+01 -3.59009E+01 -3.59423E+01 -3.49855E+01 -3.46726E+01 -3.46597E+01 -3.45071E+01
  -3.59554E+01 -3.80305E+01 -3.53963E+01 -3.87405E+01 -3.66726E+01 -3.77889E+01 -3.42763E+01 -3.62563E+01 -3.51232E+01 -3.49721E+01
  -3.70584E+01 -3.47340E+01 -3.36155E+01 -3.61652E+01 -3.69133E+01 -3.87414E+01 -3.59493E+01 -3.65238E+01 -3.77563E+01 -3.73460E+01
  -3.64374E+01 -3.48992E+01 -3.55055E+01 -3.95095E+01 -3.63019E+01 -3.78665E+01 -3.77727E+01 -3.60517E+01 -3.72070E+01 -3.95724E+01
  -3.59473E+01 -3.83759E+01 -3.20364E+01 -3.63765E+01 -3.54124E+01 -3.86294E+01 -3.61764E+01 -3.58615E+01 -3.54669E+01 -3.82384E+01
  -3.59979E+01 -3.42971E+01 -3.61473E+01 -3.65921E+01 -3.53856E+01 -3.68124E+01 -3.64861E+01 -3.67571E+01 -3.64995E+01 -3.74761E+01
  -3.45054E+01 -3.71530E+01 -3.88373E+01 -3.65028E+01 -3.61933E+01 -3.80692E+01 -3.68368E+01 -3.68925E+01 -3.86748E+01 -3.69308E+01
  -3.74689E+01 -3.73887E+01 -3.63222E+01 -3.71237E+01 -3.66860E+01 -3.77716E+01 -3.86744E+01 -3.80205E+01 -3.67554E+01 -3.60605E+01
  -3.62127E+01 -3.77652E+01 -3.63686E+01 -3.65442E+01 -3.57487E+01 -3.59272E+01 -3.62247E+01 -3.56969E+01 -3.78843E+01 -3.61197E+01
  -3.72194E+01 -3.65551E+01 -3.60835E+01 -3.83981E+01 -3.59781E+01 -3.63296E+01 -3.78586E+01 -3.66417E+01 -3.78461E+01 -3.62347E+01
  -3.67134E+01 -3.71744E+01 -3.75850E+01 -3.69326E+01 -3.81927E+01 -3.85459E+01 -3.72811E+01 -3.65200E+01 -3.80091E+01 -3.88138E+01
  -3.64584E+01 -3.87479E+01 -3.84500E+01 -3.96380E+01 -3.85700E+01 -3.94497E+01 -3.62186E+01 -3.77618E+01 -4.08465E+01 -3.98142E+01
  -3.97270E+01 -3.90381E+01 -4.10132E+01 -3.88008E+01 -4.10640E+01 -3.83118E+01 -3.75360E+01 -3.97853E+01 -3.90923E+01 -4.05410E+01
  -3.97124E+01 -3.93711E+01 -3.77862E+01 -3.78884E+01 -3.79924E+01 -3.82061E+01 -3.54118E+01 -3.53967E+01 -3.50249E+01 -3.51502E+01
  -3.31883E+01 -3.15711E+01 -3.03958E+01 -3.00628E+01 -3.22530E+01 -2.81798E+01 -2.98569E+01 -2.74456E+01 -2.67755E+01 -2.46042E+01
  -2.56817E+01 -2.61724E+01 -2.54761E+01 -2.35756E+01 -2.31308E+01 -2.09842E+01 -1.89873E+01 -1.67077E+01 -1.88811E+01 -1.74203E+01
  -1.50301E+01 -1.29826E+01 -9.55203E+00 -1.00771E+01 -6.33981E+00 -5.22728E+00 -3.81819E+00 -2.47534E+00 -5.22459E-01  2.40977E+00
   1.30815E+00  8.34327E+00  8.44712E+00  1.42895E+01  1.51084E+01  1.87122E+01  2.08486E+01  2.48817E+01  2.61062E+01  2.69653E+01
   3.49865E+01  3.74234E+01  4.26165E+01  4.63232E+01  5.20436E+01  5.62573E+01  5.91515E+01  6.62851E+01  6.96269E+01  7.70053E+01
   8.02012E+01  8.35844E+01  8.89458E+01  9.72362E+01  1.00950E+02  1.06470E+02  1.16401E+02  1.24358E+02  1.28616E+02  1.38340E+02
   1.45318E+02  1.50972E+02  1.60697E+02  1.67643E+02  1.79022E+02  1.85465E+02  1.96010E+02  2.05147E+02  2.12689E+02  2.23526E+02
   2.35912E+02  2.43748E+02  2.53064E+02  2.63188E+02  2.71301E+02  2.81106E+02  2.90365E+02  2.93364E+02  2.99679E+02  2.98003E+02
   3.00644E+02  2.95233E+02  2.97941E+02  2.91862E+02  2.90614E+02  2.85631E+02  2.86232E+02  2.83237E+02  2.78491E+02  2.79606E+02
   2.78552E+02  2.75732E+02  2.74131E+02  2.73412E+02  2.66444E+02  2.65250E+02  2.63870E+02  2.55944E+02  2.55850E+02  2.48748E+02
   2.43528E+02  2.38209E+02  2.33581E+02  2.28531E+02  2.24308E+02  2.19322E+02  2.10539E+02  2.12496E+02  2.04357E+02  2.00445E+02
   1.97921E+02  1.94709E+02  1.92092E+02  1.88272E+02  1.85009E+02  1.80497E+02  1.78815E+02  1.78850E+02  1.74979E+02  1.71745E+02
   1.65857E+02  1.64136E+02  1.60220E+02  1.58354E+02  1.57573E+02  1.53134E+02  1.46305E+02  1.44478E+02  1.39696E+02  1.32562E+02
   1.30385E+02  1.25228E+02  1.18713E+02  1.15645E+02  1.10845E+02  1.05008E+02  1.00123E+02  9.58348E+01  9.30417E+01  8.97263E+01
   8.49844E+01  8.13590E+01  7.74406E+01  7.40050E+01  6.93827E+01  6.44596E+01  6.21899E+01  5.52356E+01  5.52891E+01  4.96819E+01
   4.79613E+01  4.50303E+01  4.39254E+01  3.79224E+01  3.73573E+01  3.40373E+01  2.96988E+01  2.69527E+01  2.36550E+01  2.07936E+01
   1.82110E+01  1.55817E+01  1.10737E+01  1.03538E+01  6.23086E+00  3.17709E+00  4.12782E-02 -2.34254E+00 -5.72127E+00 -8.25786E+00
  -1.05404E+01 -9.28104E+00 -1.71989E+01 -1.58406E+01 -1.90154E+01 -2.17289E+01 -2.02967E+01 -2.46535E+01 -2.48662E+01 -2.63586E+01
  -2.86809E+01 -3.39653E+01 -3.50497E+01 -3.45065E+01 -3.51356E+01 -3.62804E+01 -3.85498E+01 -3.95267E+01 -4.26581E+01 -4.38561E+01
  -4.58517E+01 -4.82108E+01 -4.78336E+01 -5.16986E+01 -4.89680E+01 -5.03873E+01 -5.05008E+01 -5.45425E+01 -5.25163E+01 -5.37684E+01
  -5.41458E+01 -5.60102E+01 -5.63321E+01 -5.82597E+01 -6.18340E+01 -5.96232E+01 -6.19100E+01 -6.03446E+01 -6.10758E+01 -6.11175E+01
  -6.14517E+01 -6.29835E+01 -6.43441E+01 -6.42407E+01 -6.60365E+01 -6.47493E+01 -6.37722E+01 -6.39782E+01 -6.72709E+01 -6.45542E+01
  -6.66927E+01 -6.79173E+01 -6.80021E+01 -6.92858E+01 -6.56564E+01 -6.95117E+01 -6.89423E+01 -6.79738E+01 -7.08911E+01 -6.55869E+01
  -6.93170E+01 -6.90431E+01 -6.97528E+01 -6.92624E+01 -7.02944E+01 -6.85582E+01 -7.16034E+01 -6.78366E+01
 NY points of the fit to the data follow
  -2.74986E+01 -2.64518E+01 -2.75470E+01 -2.65667E+01 -2.73751E+01 -2.64492E+01 -2.71259E+01 -2.62382E+01 -2.71219E+01 -2.64766E+01
  -2.74447E+01 -2.67441E+01 -2.76333E+01 -2.66919E+01 -2.77263E+01 -2.64726E+01 -2.74729E+01 -2.62572E+01 -2.73501E+01 -2.62888E+01
  -2.74478E+01 -2.65114E+01 -2.76788E+01 -2.69964E+01 -2.79466E+01 -2.75606E+01 -2.81990E+01 -2.81069E+01 -2.82534E+01 -2.83626E+01
  -2.79914E+01 -2.82892E+01 -2.75014E+01 -2.80682E+01 -2.70881E+01 -2.81142E+01 -2.71992E+01 -2.86658E+01 -2.78889E+01 -2.95896E+01
  -2.88813E+01 -3.04603E+01 -2.95716E+01 -3.08324E+01 -2.97619E+01 -3.06524E+01 -2.96114E+01 -3.02619E+01 -2.96314E+01 -3.03649E+01
  -3.00439E+01 -3.07808E+01 -3.06662E+01 -3.12762E+01 -3.12682E+01 -3.15168E+01 -3.13517E+01 -3.14222E+01 -3.12493E+01 -3.12275E+01
  -3.11312E+01 -3.11157E+01 -3.11611E+01 -3.12255E+01 -3.12976E+01 -3.13727E+01 -3.14496E+01 -3.15268E+01 -3.16044E+01 -3.16815E+01
  -3.17585E+01 -3.18347E+01 -3.19108E+01 -3.19860E+01 -3.20612E+01 -3.21353E+01 -3.22095E+01 -3.22827E+01 -3.23559E+01 -3.24282E+01
  -3.25006E+01 -3.25721E+01 -3.26436E+01 -3.27144E+01 -3.27852E+01 -3.28552E+01 -3.29253E+01 -3.29946E+01 -3.30639E+01 -3.31326E+01
  -3.32012E+01 -3.32691E+01 -3.33370E+01 -3.34041E+01 -3.34712E+01 -3.35375E+01 -3.36037E+01 -3.36690E+01 -3.37341E+01 -3.37981E+01
  -3.38614E+01 -3.39242E+01 -3.39887E+01 -3.40503E+01 -3.41150E+01 -3.41747E+01 -3.42387E+01 -3.42931E+01 -3.43586E+01 -3.44089E+01
  -3.44763E+01 -3.45207E+01 -3.45882E+01 -3.46229E+01 -3.46845E+01 -3.46948E+01 -3.47416E+01 -3.47560E+01 -3.48074E+01 -3.48276E+01
  -3.48802E+01 -3.48983E+01 -3.49313E+01 -3.49542E+01 -3.49608E+01 -3.50143E+01 -3.50069E+01 -3.50972E+01 -3.50689E+01 -3.51953E+01
  -3.51342E+01 -3.52958E+01 -3.52009E+01 -3.54027E+01 -3.52820E+01 -3.55198E+01 -3.53799E+01 -3.56362E+01 -3.54760E+01 -3.57370E+01
  -3.55697E+01 -3.58359E+01 -3.56877E+01 -3.59591E+01 -3.58488E+01 -3.61137E+01 -3.60432E+01 -3.62863E+01 -3.62490E+01 -3.64637E+01
  -3.64507E+01 -3.66342E+01 -3.66390E+01 -3.67864E+01 -3.68019E+01 -3.69161E+01 -3.69459E+01 -3.70537E+01 -3.71147E+01 -3.72116E+01
  -3.72902E+01 -3.73671E+01 -3.74400E+01 -3.75009E+01 -3.75617E+01 -3.76197E+01 -3.76759E+01 -3.77410E+01 -3.77962E+01 -3.78662E+01
  -3.79195E+01 -3.79911E+01 -3.80324E+01 -3.81002E+01 -3.81273E+01 -3.81972E+01 -3.82170E+01 -3.82862E+01 -3.82957E+01 -3.83665E+01
  -3.83746E+01 -3.84227E+01 -3.84227E+01 -3.84536E+01 -3.84615E+01 -3.84788E+01 -3.85059E+01 -3.85035E+01 -3.85516E+01 -3.85244E+01
  -3.85908E+01 -3.85415E+01 -3.86271E+01 -3.85598E+01 -3.86571E+01 -3.85703E+01 -3.86661E+01 -3.85589E+01 -3.86386E+01 -3.85144E+01
  -3.85742E+01 -3.84523E+01 -3.85015E+01 -3.83968E+01 -3.84406E+01 -3.83596E+01 -3.83970E+01 -3.83378E+01 -3.83652E+01 -3.83176E+01
  -3.83264E+01 -3.82831E+01 -3.82680E+01 -3.82365E+01 -3.82145E+01 -3.81914E+01 -3.81662E+01 -3.81524E+01 -3.81285E+01 -3.81098E+01
  -3.80844E+01 -3.80628E+01 -3.80383E+01 -3.80106E+01 -3.79800E+01 -3.79445E+01 -3.79050E+01 -3.78602E+01 -3.77986E+01 -3.77564E+01
  -3.76798E+01 -3.76426E+01 -3.75470E+01 -3.75121E+01 -3.73936E+01 -3.73623E+01 -3.72213E+01 -3.71941E+01 -3.70347E+01 -3.70043E+01
  -3.68277E+01 -3.67744E+01 -3.65745E+01 -3.64848E+01 -3.62596E+01 -3.61334E+01 -3.58906E+01 -3.57367E+01 -3.54881E+01 -3.53097E+01
  -3.50573E+01 -3.48524E+01 -3.45925E+01 -3.43553E+01 -3.40783E+01 -3.37915E+01 -3.34788E+01 -3.31370E+01 -3.27821E+01 -3.23904E+01
  -3.19959E+01 -3.15745E+01 -3.11492E+01 -3.06897E+01 -3.02209E+01 -2.97084E+01 -2.91789E+01 -2.85958E+01 -2.79844E+01 -2.73227E+01
  -2.66237E+01 -2.58739E+01 -2.50765E+01 -2.42245E+01 -2.33150E+01 -2.23417E+01 -2.12990E+01 -2.01801E+01 -1.89797E+01 -1.76904E+01
  -1.63065E+01 -1.48202E+01 -1.32259E+01 -1.15162E+01 -9.68584E+00 -7.72873E+00 -5.64113E+00 -3.41906E+00 -1.06130E+00  1.43278E+00
   4.06095E+00  6.81974E+00  9.70284E+00  1.27025E+01  1.58083E+01  1.90089E+01  2.22916E+01  2.56437E+01  2.90530E+01  3.25093E+01
   3.60060E+01  3.95415E+01  4.31218E+01  4.67631E+01  5.04955E+01  5.43701E+01  5.84714E+01  6.29533E+01  6.81348E+01  7.41397E+01
   7.91378E+01  8.52791E+01  9.03480E+01  9.70902E+01  1.02311E+02  1.09634E+02  1.14430E+02  1.23409E+02  1.28899E+02  1.38325E+02
   1.43964E+02  1.53473E+02  1.59403E+02  1.69168E+02  1.76112E+02  1.86145E+02  1.94562E+02  2.04299E+02  2.14454E+02  2.24068E+02
   2.35408E+02  2.43785E+02  2.55892E+02  2.62932E+02  2.74768E+02  2.79506E+02  2.89300E+02  2.91506E+02  2.98155E+02  2.96910E+02
   3.00089E+02  2.96289E+02  2.96811E+02  2.92065E+02  2.91327E+02  2.86964E+02  2.86077E+02  2.82726E+02  2.81844E+02  2.79481E+02
   2.77879E+02  2.75537E+02  2.73373E+02  2.71133E+02  2.68072E+02  2.65631E+02  2.61603E+02  2.58711E+02  2.54252E+02  2.49938E+02
   2.44602E+02  2.39227E+02  2.33490E+02  2.27890E+02  2.22460E+02  2.17338E+02  2.12785E+02  2.08651E+02  2.05011E+02  2.01791E+02
   1.98435E+02  1.95034E+02  1.91945E+02  1.88443E+02  1.85508E+02  1.82216E+02  1.79465E+02  1.76947E+02  1.74449E+02  1.71852E+02
   1.69076E+02  1.66065E+02  1.62784E+02  1.59218E+02  1.55367E+02  1.51250E+02  1.46895E+02  1.42346E+02  1.37647E+02  1.32853E+02
   1.28015E+02  1.23181E+02  1.18397E+02  1.13699E+02  1.09117E+02  1.04670E+02  1.00370E+02  9.62197E+01  9.22156E+01  8.83480E+01
   8.46023E+01  8.09622E+01  7.74085E+01  7.39234E+01  7.04885E+01  6.70888E+01  6.37101E+01  6.03423E+01  5.69771E+01  5.36100E+01
   5.02382E+01  4.68626E+01  4.34847E+01  4.01095E+01  3.67415E+01  3.33878E+01  3.00549E+01  2.67507E+01  2.34821E+01  2.02569E+01
   1.70813E+01  1.39623E+01  1.09049E+01  7.91486E+00  4.99583E+00  2.15207E+00 -6.14358E-01 -3.30057E+00 -5.90581E+00 -8.42846E+00
  -1.08690E+01 -1.32269E+01 -1.55037E+01 -1.76995E+01 -1.98164E+01 -2.18555E+01 -2.38193E+01 -2.57092E+01 -2.75281E+01 -2.92776E+01
  -3.09607E+01 -3.25792E+01 -3.41362E+01 -3.56335E+01 -3.70742E+01 -3.84598E+01 -3.97935E+01 -4.10768E+01 -4.23126E+01 -4.35023E+01
  -4.46488E+01 -4.57532E+01 -4.68183E+01 -4.78450E+01 -4.88359E+01 -4.97920E+01 -5.07154E+01 -5.16072E+01 -5.24693E+01 -5.33025E+01
  -5.41089E+01 -5.48889E+01 -5.56444E+01 -5.63759E+01 -5.70852E+01 -5.77725E+01 -5.84396E+01 -5.90866E+01 -5.97152E+01 -6.03254E+01
  -6.09187E+01 -6.14953E+01 -6.20564E+01 -6.26022E+01 -6.31338E+01 -6.36513E+01 -6.41559E+01 -6.46474E+01 -6.51271E+01 -6.55947E+01
  -6.60516E+01 -6.64972E+01 -6.69330E+01 -6.73584E+01 -6.77746E+01 -6.81813E+01 -6.85795E+01 -6.89688E+01 -6.93502E+01 -6.97234E+01
  -7.00893E+01 -7.04475E+01 -7.07989E+01 -7.11429E+01 -7.14807E+01 -7.18114E+01 -7.21362E+01 -7.24542E+01
 NY background values follow
    -2.974E+01   -2.983E+01   -2.991E+01   -3.000E+01   -3.009E+01   -3.018E+01   -3.026E+01   -3.035E+01   -3.044E+01   -3.053E+01
    -3.061E+01   -3.070E+01   -3.079E+01   -3.088E+01   -3.096E+01   -3.105E+01   -3.114E+01   -3.122E+01   -3.131E+01   -3.140E+01
    -3.148E+01   -3.157E+01   -3.166E+01   -3.175E+01   -3.183E+01   -3.192E+01   -3.201E+01   -3.209E+01   -3.218E+01   -3.227E+01
    -3.235E+01   -3.244E+01   -3.253E+01   -3.261E+01   -3.270E+01   -3.279E+01   -3.287E+01   -3.296E+01   -3.305E+01   -3.313E+01
    -3.322E+01   -3.331E+01   -3.339E+01   -3.348E+01   -3.357E+01   -3.365E+01   -3.374E+01   -3.383E+01   -3.391E+01   -3.400E+01
    -3.409E+01   -3.418E+01   -3.426E+01   -3.435E+01   -3.444E+01   -3.452E+01   -3.461E+01   -3.470E+01   -3.478E+01   -3.487E+01
    -3.496E+01   -3.505E+01   -3.513E+01   -3.522E+01   -3.531E+01   -3.539E+01   -3.548E+01   -3.557E+01   -3.566E+01   -3.574E+01
    -3.583E+01   -3.592E+01   -3.601E+01   -3.609E+01   -3.618E+01   -3.627E+01   -3.636E+01   -3.645E+01   -3.653E+01   -3.662E+01
    -3.671E+01   -3.680E+01   -3.689E+01   -3.698E+01   -3.706E+01   -3.715E+01   -3.724E+01   -3.733E+01   -3.742E+01   -3.751E+01
    -3.760E+01   -3.768E+01   -3.777E+01   -3.786E+01   -3.795E+01   -3.804E+01   -3.813E+01   -3.822E+01   -3.831E+01   -3.840E+01
    -3.849E+01   -3.858E+01   -3.867E+01   -3.876E+01   -3.885E+01   -3.894E+01   -3.903E+01   -3.912E+01   -3.921E+01   -3.930E+01
    -3.939E+01   -3.948E+01   -3.957E+01   -3.967E+01   -3.976E+01   -3.985E+01   -3.994E+01   -4.003E+01   -4.012E+01   -4.022E+01
    -4.031E+01   -4.040E+01   -4.049E+01   -4.058E+01   -4.068E+01   -4.077E+01   -4.086E+01   -4.096E+01   -4.105E+01   -4.114E+01
    -4.124E+01   -4.133E+01   -4.142E+01   -4.152E+01   -4.161E+01   -4.171E+01   -4.180E+01   -4.189E+01   -4.199E+01   -4.208E+01
    -4.218E+01   -4.227E+01   -4.237E+01   -4.246E+01   -4.256E+01   -4.266E+01   -4.275E+01   -4.285E+01   -4.294E+01   -4.304E+01
    -4.314E+01   -4.323E+01   -4.333E+01   -4.343E+01   -4.353E+01   -4.362E+01   -4.372E+01   -4.382E+01   -4.392E+01   -4.402E+01
    -4.411E+01   -4.421E+01   -4.431E+01   -4.441E+01   -4.451E+01   -4.461E+01   -4.471E+01   -4.481E+01   -4.491E+01   -4.501E+01
    -4.511E+01   -4.521E+01   -4.531E+01   -4.541E+01   -4.551E+01   -4.562E+01   -4.572E+01   -4.582E+01   -4.592E+01   -4.602E+01
    -4.613E+01   -4.623E+01   -4.633E+01   -4.643E+01   -4.654E+01   -4.664E+01   -4.674E+01   -4.685E+01   -4.695E+01   -4.706E+01
    -4.716E+01   -4.726E+01   -4.737E+01   -4.747E+01   -4.758E+01   -4.768E+01   -4.779E+01   -4.789E+01   -4.800E+01   -4.811E+01
    -4.821E+01   -4.832E+01   -4.842E+01   -4.853E+01   -4.864E+01   -4.874E+01   -4.885E+01   -4.896E+01   -4.906E+01   -4.917E+01
    -4.928E+01   -4.939E+01   -4.949E+01   -4.960E+01   -4.971E+01   -4.982E+01   -4.993E+01   -5.004E+01   -5.014E+01   -5.025E+01
    -5.036E+01   -5.047E+01   -5.058E+01   -5.069E+01   -5.080E+01   -5.091E+01   -5.102E+01   -5.113E+01   -5.124E+01   -5.135E+01
    -5.146E+01   -5.157E+01   -5.168E+01   -5.179E+01   -5.190E+01   -5.201E+01   -5.213E+01   -5.224E+01   -5.235E+01   -5.246E+01
    -5.257E+01   -5.268E+01   -5.280E+01   -5.291E+01   -5.302E+01   -5.313E+01   -5.324E+01   -5.336E+01   -5.347E+01   -5.358E+01
    -5.369E+01   -5.381E+01   -5.392E+01   -5.403E+01   -5.415E+01   -5.426E+01   -5.437E+01   -5.449E+01   -5.460E+01   -5.472E+01
    -5.483E+01   -5.494E+01   -5.506E+01   -5.517E+01   -5.529E+01   -5.540E+01   -5.551E+01   -5.563E+01   -5.574E+01   -5.586E+01
    -5.597E+01   -5.609E+01   -5.620E+01   -5.632E+01   -5.643E+01   -5.655E+01   -5.666E+01   -5.678E+01   -5.690E+01   -5.701E+01
    -5.713E+01   -5.724E+01   -5.736E+01   -5.747E+01   -5.759E+01   -5.771E+01   -5.782E+01   -5.794E+01   -5.805E+01   -5.817E+01
    -5.829E+01   -5.840E+01   -5.852E+01   -5.864E+01   -5.875E+01   -5.887E+01   -5.899E+01   -5.910E+01   -5.922E+01   -5.934E+01
    -5.945E+01   -5.957E+01   -5.969E+01   -5.981E+01   -5.992E+01   -6.004E+01   -6.016E+01   -6.028E+01   -6.039E+01   -6.051E+01
    -6.063E+01   -6.075E+01   -6.086E+01   -6.098E+01   -6.110E+01   -6.122E+01   -6.133E+01   -6.145E+01   -6.157E+01   -6.169E+01
    -6.181E+01   -6.192E+01   -6.204E+01   -6.216E+01   -6.228E+01   -6.240E+01   -6.251E+01   -6.263E+01   -6.275E+01   -6.287E+01
    -6.299E+01   -6.311E+01   -6.322E+01   -6.334E+01   -6.346E+01   -6.358E+01   -6.370E+01   -6.382E+01   -6.393E+01   -6.405E+01
    -6.417E+01   -6.429E+01   -6.441E+01   -6.453E+01   -6.464E+01   -6.476E+01   -6.488E+01   -6.500E+01   -6.512E+01   -6.524E+01
    -6.536E+01   -6.548E+01   -6.559E+01   -6.571E+01   -6.583E+01   -6.595E+01   -6.607E+01   -6.619E+01   -6.631E+01   -6.643E+01
    -6.654E+01   -6.666E+01   -6.678E+01   -6.690E+01   -6.702E+01   -6.714E+01   -6.726E+01   -6.738E+01   -6.750E+01   -6.761E+01
    -6.773E+01   -6.785E+01   -6.797E+01   -6.809E+01   -6.821E+01   -6.833E+01   -6.845E+01   -6.857E+01   -6.869E+01   -6.880E+01
    -6.892E+01   -6.904E+01   -6.916E+01   -6.928E+01   -6.940E+01   -6.952E+01   -6.964E+01   -6.976E+01   -6.988E+01   -7.000E+01
    -7.012E+01   -7.024E+01   -7.035E+01   -7.047E+01   -7.059E+01   -7.071E+01   -7.083E+01   -7.095E+01   -7.107E+01   -7.119E+01
    -7.131E+01   -7.143E+01   -7.155E+01   -7.167E+01   -7.179E+01   -7.191E+01   -7.203E+01   -7.214E+01   -7.226E+01   -7.238E+01
    -7.250E+01   -7.262E+01   -7.274E+01   -7.286E+01   -7.298E+01   -7.310E+01   -7.322E+01   -7.334E+01   -7.346E+01   -7.358E+01
    -7.370E+01   -7.382E+01   -7.394E+01   -7.406E+01   -7.418E+01   -7.430E+01   -7.441E+01   -7.453E+01   -7.465E+01   -7.477E+01
    -7.489E+01   -7.501E+01   -7.513E+01   -7.525E+01   -7.537E+01   -7.549E+01   -7.561E+01   -7.573E+01   -7.585E+01   -7.597E+01
    -7.609E+01   -7.621E+01   -7.633E+01   -7.645E+01   -7.657E+01   -7.669E+01   -7.681E+01   -7.692E+01   -7.704E+01   -7.716E+01
    -7.728E+01   -7.740E+01   -7.752E+01   -7.764E+01   -7.776E+01   -7.788E+01   -7.800E+01   -7.812E+01   -7.824E+01   -7.836E+01
    -7.848E+01   -7.860E+01   -7.872E+01   -7.884E+01   -7.896E+01   -7.908E+01   -7.920E+01   -7.932E+01   -7.943E+01   -7.955E+01
    -7.967E+01   -7.979E+01   -7.991E+01   -8.003E+01   -8.015E+01   -8.027E+01   -8.039E+01   -8.051E+01   -8.063E+01   -8.075E+01
    -8.087E+01   -8.099E+01   -8.111E+01   -8.123E+01   -8.135E+01   -8.147E+01   -8.158E+01   -8.170E+01   -8.182E+01   -8.194E+01
    -8.206E+01   -8.218E+01   -8.230E+01   -8.242E+01   -8.254E+01   -8.266E+01   -8.278E+01   -8.290E+01
 Ala      Conc. = 1.04E+04
