 LCModel (Version 6.3-1L) Copyright: S.W. Provencher.          Ref.: Magn. Reson. Med. 30:672-679 (1993).                
 Slice#1 Row#3 Col#11  PD_05_press_1_raw_act
 36 lines in following concentration table = NCONC+1
    Conc.  %SD /Cr+PCr  Metabolite                                         
    0.000 999%   0.000 Ala                                                 
    0.000 999%   0.000 Asp                                                 
    0.000 999%   0.000 Cr                                                  
  241.967  19%   1.000 PCr                                                 
    9.850 601% 4.1E-02 GABA                                                
    0.000 999%   0.000 Glc                                                 
    0.000 999%   0.000 Gln                                                 
    0.000 999%   0.000 Glu                                                 
   29.235 281%   0.121 GPC                                                 
   50.943 162%   0.211 PCh                                                 
   76.953  70%   0.318 GSH                                                 
  101.642 189%   0.420 Ins                                                 
    0.000 999%   0.000 Lac                                                 
    0.000 999%   0.000 NAA                                                 
  434.188  17%   1.794 NAAG                                                
    0.000 999%   0.000 Scyllo                                              
    0.000 999%   0.000 Tau                                                 
  289.265  24%   1.195 -CrCH2                                              
   80.178  20%   0.331 GPC+PCh                                             
  434.188  17%   1.794 NAA+NAAG                                            
  241.967  19%   1.000 Cr+PCr                                              
    0.000 999%   0.000 Glu+Gln                                             
    0.000 999%   0.000 Lip13a                                              
    0.000 999%   0.000 Lip13b                                              
    0.000 999%   0.000 Lip09                                               
 1.48E+03  11%   6.133 MM09                                                
   24.306 162%   0.100 Lip20                                               
 3.70E+03   8%  15.282 MM20                                                
  524.123  22%   2.166 MM12                                                
    0.000 999%   0.000 MM14                                                
  476.787  33%   1.970 MM17                                                
    0.000 999%   0.000 Lip13a+Lip13b                                       
  524.123  22%   2.166 MM14+Lip13a+Lip13b+MM12                             
 1.48E+03  11%   6.133 MM09+Lip09                                          
 3.72E+03   8%  15.382 MM20+Lip20                                          
   6 lines in following misc. output table
  FWHM = 0.076 ppm    S/N =   5                                            
  Data shift = 0.107 ppm                                                   
  Ph: 133 deg      52.9 deg/ppm                                            
  alphaB,S = 4.3E-01,   2.4E+01                                            
   14 spline knots.   Ns = 6(2)                                            
  ( 8) 1 infls.   ( 5) 2 extrs.                                            
  498 points on ppm-axis = NY
      4.000000     3.992357     3.984714     3.977070     3.969427     3.961784     3.954141     3.946497     3.938854     3.931211
      3.923568     3.915925     3.908281     3.900638     3.892995     3.885352     3.877708     3.870065     3.862422     3.854779
      3.847136     3.839492     3.831849     3.824206     3.816563     3.808919     3.801276     3.793633     3.785990     3.778347
      3.770703     3.763060     3.755417     3.747774     3.740130     3.732487     3.724844     3.717201     3.709558     3.701914
      3.694271     3.686628     3.678985     3.671341     3.663698     3.656055     3.648412     3.640769     3.633125     3.625482
      3.617839     3.610196     3.602552     3.594909     3.587266     3.579623     3.571980     3.564336     3.556693     3.549050
      3.541407     3.533763     3.526120     3.518477     3.510834     3.503191     3.495547     3.487904     3.480261     3.472618
      3.464974     3.457331     3.449688     3.442045     3.434402     3.426758     3.419115     3.411472     3.403829     3.396185
      3.388542     3.380899     3.373256     3.365613     3.357969     3.350326     3.342683     3.335040     3.327396     3.319753
      3.312110     3.304467     3.296824     3.289180     3.281537     3.273894     3.266251     3.258607     3.250964     3.243321
      3.235678     3.228034     3.220391     3.212748     3.205105     3.197462     3.189818     3.182175     3.174532     3.166889
      3.159245     3.151602     3.143959     3.136316     3.128673     3.121029     3.113386     3.105743     3.098100     3.090456
      3.082813     3.075170     3.067527     3.059884     3.052240     3.044597     3.036954     3.029311     3.021667     3.014024
      3.006381     2.998738     2.991095     2.983451     2.975808     2.968165     2.960522     2.952878     2.945235     2.937592
      2.929949     2.922306     2.914662     2.907019     2.899376     2.891733     2.884089     2.876446     2.868803     2.861160
      2.853517     2.845873     2.838230     2.830587     2.822944     2.815300     2.807657     2.800014     2.792371     2.784728
      2.777084     2.769441     2.761798     2.754155     2.746511     2.738868     2.731225     2.723582     2.715939     2.708295
      2.700652     2.693009     2.685366     2.677722     2.670079     2.662436     2.654793     2.647150     2.639506     2.631863
      2.624220     2.616577     2.608933     2.601290     2.593647     2.586004     2.578361     2.570717     2.563074     2.555431
      2.547788     2.540144     2.532501     2.524858     2.517215     2.509572     2.501928     2.494285     2.486642     2.478999
      2.471355     2.463712     2.456069     2.448426     2.440783     2.433139     2.425496     2.417853     2.410210     2.402566
      2.394923     2.387280     2.379637     2.371994     2.364350     2.356707     2.349064     2.341421     2.333777     2.326134
      2.318491     2.310848     2.303205     2.295561     2.287918     2.280275     2.272632     2.264988     2.257345     2.249702
      2.242059     2.234416     2.226772     2.219129     2.211486     2.203843     2.196199     2.188556     2.180913     2.173270
      2.165627     2.157983     2.150340     2.142697     2.135054     2.127410     2.119767     2.112124     2.104481     2.096838
      2.089194     2.081551     2.073908     2.066265     2.058621     2.050978     2.043335     2.035692     2.028049     2.020405
      2.012762     2.005119     1.997476     1.989833     1.982190     1.974546     1.966903     1.959260     1.951617     1.943974
      1.936331     1.928688     1.921045     1.913402     1.905759     1.898115     1.890472     1.882829     1.875186     1.867543
      1.859900     1.852257     1.844614     1.836971     1.829327     1.821684     1.814041     1.806398     1.798755     1.791112
      1.783469     1.775826     1.768183     1.760540     1.752896     1.745253     1.737610     1.729967     1.722324     1.714681
      1.707038     1.699395     1.691752     1.684108     1.676465     1.668822     1.661179     1.653536     1.645893     1.638250
      1.630607     1.622964     1.615321     1.607677     1.600034     1.592391     1.584748     1.577105     1.569462     1.561819
      1.554176     1.546533     1.538890     1.531246     1.523603     1.515960     1.508317     1.500674     1.493031     1.485388
      1.477745     1.470102     1.462458     1.454815     1.447172     1.439529     1.431886     1.424243     1.416600     1.408957
      1.401314     1.393671     1.386027     1.378384     1.370741     1.363098     1.355455     1.347812     1.340169     1.332526
      1.324883     1.317240     1.309596     1.301953     1.294310     1.286667     1.279024     1.271381     1.263738     1.256095
      1.248452     1.240808     1.233165     1.225522     1.217879     1.210236     1.202593     1.194950     1.187307     1.179664
      1.172021     1.164377     1.156734     1.149091     1.141448     1.133805     1.126162     1.118519     1.110876     1.103233
      1.095590     1.087946     1.080303     1.072660     1.065017     1.057374     1.049731     1.042088     1.034445     1.026802
      1.019158     1.011515     1.003872     0.996229     0.988586     0.980943     0.973300     0.965657     0.958014     0.950371
      0.942727     0.935084     0.927441     0.919798     0.912155     0.904512     0.896869     0.889226     0.881583     0.873940
      0.866296     0.858653     0.851010     0.843367     0.835724     0.828081     0.820438     0.812795     0.805152     0.797508
      0.789865     0.782222     0.774579     0.766936     0.759293     0.751650     0.744007     0.736364     0.728721     0.721077
      0.713434     0.705791     0.698148     0.690505     0.682862     0.675219     0.667576     0.659933     0.652290     0.644646
      0.637003     0.629360     0.621717     0.614074     0.606431     0.598788     0.591145     0.583502     0.575858     0.568215
      0.560572     0.552929     0.545286     0.537643     0.530000     0.522357     0.514714     0.507071     0.499427     0.491784
      0.484141     0.476498     0.468855     0.461212     0.453569     0.445925     0.438282     0.430639     0.422996     0.415353
      0.407710     0.400067     0.392424     0.384780     0.377137     0.369494     0.361851     0.354208     0.346565     0.338922
      0.331278     0.323635     0.315992     0.308349     0.300706     0.293063     0.285420     0.277777     0.270133     0.262490
      0.254847     0.247204     0.239561     0.231918     0.224275     0.216631     0.208988     0.201345
 NY phased data points follow
  -6.94675E+00 -6.53352E+00 -7.68955E+00 -2.69186E+00 -4.81479E+00 -4.65610E+00 -4.33497E+00 -5.77729E+00 -6.77051E+00 -6.55938E+00
  -4.05705E+00 -6.16605E+00 -2.93043E+00 -4.52823E+00 -5.02966E+00 -6.51079E+00 -1.63533E+00 -6.26637E+00 -3.84178E+00 -6.42649E+00
  -3.67683E+00 -4.71211E+00 -4.17277E+00 -5.89752E+00 -2.51915E+00 -6.03941E-01 -7.06007E+00 -5.47072E+00 -2.59902E+00 -4.02561E+00
  -6.58600E-01 -3.14102E+00 -4.68782E+00 -4.02082E+00 -1.27926E+00 -4.47774E+00 -2.21806E+00 -1.95712E+00 -5.50991E+00 -1.38326E+00
  -4.20161E+00 -5.17882E+00 -1.00998E+00 -1.06939E+00 -8.74858E-01 -1.63775E+00  7.67508E-01  5.37996E-02 -1.21810E+00 -4.31454E+00
  -2.40172E+00 -3.47341E+00  5.07526E-01 -6.40006E-01  9.76695E-01  6.41870E-02 -3.80423E+00 -8.63636E-01 -5.34697E+00 -2.78385E+00
   1.41618E-01 -1.99615E+00 -7.47044E+00 -4.60554E-01 -2.21752E+00 -2.56626E+00 -8.21919E-01 -3.57981E+00 -3.85763E+00 -2.73533E+00
  -7.19477E+00 -1.58472E+00 -4.27722E+00 -3.39382E+00 -2.10128E+00 -2.75980E+00 -2.21945E+00 -2.85005E+00 -2.26388E+00 -4.71317E+00
  -2.95638E+00 -4.37733E+00 -3.70344E+00 -7.67902E+00 -5.18823E+00 -2.82706E-01  2.10197E+00  9.27035E-02 -4.41764E+00 -4.03537E+00
   9.68295E-01 -3.63143E+00 -3.91106E+00 -5.19365E+00 -5.18543E+00 -4.47393E+00 -7.63317E-01 -2.89857E-01 -1.27822E+00  2.18838E+00
   4.44930E+00  1.20313E+00  3.38087E+00  3.90427E+00  3.98443E+00  4.62814E+00  4.59044E+00  6.95924E+00  4.46297E+00  1.94271E+00
   2.00398E+00  1.73663E+00  2.65456E+00 -2.49564E-01  7.04337E-01 -8.26831E-01 -2.53728E+00  1.11685E+00  2.44438E-01 -7.47151E-01
   5.07539E+00 -1.65439E+00  1.85722E+00  2.70983E+00  5.22662E+00  6.37676E+00  6.73461E+00  4.84156E+00  9.20302E+00  7.26165E+00
   8.89987E+00  6.02692E+00  5.90033E+00  4.40457E+00  7.70795E+00  5.59788E+00  4.93567E+00  4.20914E+00  4.20965E+00  5.54252E-01
   1.82060E+00  7.97127E-01  4.17013E+00  6.71706E-01  7.37219E-01  2.85669E+00  7.70654E-01 -4.94953E-01  3.14581E+00  3.93036E+00
   2.89964E+00  1.19536E+00  2.24828E+00  2.37602E+00 -1.22006E-01  7.41553E-02  2.26599E+00  2.66918E+00  1.59215E+00  3.73377E-01
  -2.50790E+00  1.86897E+00 -1.14275E-01  1.36772E-01  3.39474E-02 -3.76234E+00 -1.95443E+00 -1.25138E+00 -3.14335E+00 -3.68218E+00
  -2.44720E+00 -4.60295E+00 -4.73819E+00 -2.04193E+00 -5.58506E+00 -4.51473E+00 -2.79791E+00 -5.63281E+00 -4.83143E+00 -3.92445E+00
  -5.85387E+00 -3.89254E+00 -6.15710E+00 -7.04744E+00 -4.76242E+00 -4.97623E+00 -3.48897E+00 -8.08909E+00 -7.76627E-01  6.16361E-01
  -4.51743E+00 -2.51272E+00 -4.65342E-01 -5.67367E+00 -5.20678E+00 -4.09586E+00 -2.88196E+00  2.48824E-01  5.10237E-01 -4.83597E+00
  -3.97672E+00 -1.90614E+00 -3.99738E+00 -3.82583E+00 -1.76951E+00 -4.63371E+00 -2.58237E+00 -2.72482E+00 -3.91372E-01 -1.56188E+00
  -3.74650E-01 -8.41653E-01  6.84888E-01 -1.16204E+00 -4.79550E-01  1.76331E+00 -4.73426E-01  1.51135E+00  4.20177E+00  7.19289E-01
   1.60904E+00  2.38055E+00  3.55820E+00 -2.00568E+00  1.05788E+00  2.60533E+00  6.70467E-01 -1.23475E+00  1.61669E+00  3.00794E+00
   1.76232E+00  5.28733E+00  2.40236E+00  1.83397E+00  1.60482E+00  2.02716E+00  4.19184E+00  3.85479E+00  5.07385E+00  4.38948E+00
   4.29655E+00  4.27123E+00  4.52038E+00  7.49458E+00  7.37901E+00  7.27094E+00  5.46706E+00  8.26574E+00  9.77775E+00  8.64786E+00
   8.72665E+00  8.17087E+00  1.53741E+01  1.70292E+01  1.71503E+01  1.78032E+01  1.76997E+01  1.83716E+01  2.00301E+01  2.10459E+01
   2.03421E+01  1.55445E+01  1.19700E+01  1.36300E+01  9.90542E+00  8.10529E+00  3.21966E+00  1.07290E+00 -2.99487E-01  1.09605E+00
  -1.03278E+00 -1.83621E+00 -1.87404E-01 -3.80544E+00 -1.55634E+00 -1.54810E+00  8.07790E-01 -3.05623E-03 -1.43652E+00 -1.90309E+00
  -9.62581E-01 -2.67900E+00 -3.67717E+00 -3.60580E+00 -3.98935E+00  5.48116E-01 -2.46645E+00 -3.10840E+00 -3.86887E+00 -2.70441E+00
  -4.71362E+00 -4.80955E+00 -1.28169E+00 -4.64219E+00 -5.57702E+00 -3.24646E+00 -1.46966E+00  8.05601E-01 -1.89884E+00 -2.39847E+00
  -1.01593E+00 -1.34999E+00 -2.90622E+00 -3.88932E+00 -4.34280E+00 -3.70001E+00 -3.19249E+00 -2.56240E+00 -4.17017E+00 -1.91778E+00
  -1.77962E+00 -4.20749E+00 -2.06570E+00 -4.94660E+00 -5.24208E+00 -5.20221E+00 -1.08447E+00 -6.94000E+00 -3.73484E+00 -3.70627E+00
  -4.47869E+00 -6.89913E+00 -4.13906E+00 -6.04049E+00 -6.86222E+00 -3.05276E+00 -5.71261E+00 -5.72610E+00 -5.11335E+00 -6.98771E+00
  -6.82460E+00 -9.36598E+00 -4.50372E+00 -7.48571E+00 -5.17512E+00 -7.25377E+00 -6.01251E+00 -4.51266E+00 -5.05423E+00 -7.48180E+00
  -2.97129E+00 -1.15494E+01 -9.62106E+00 -1.21297E+01 -1.06751E+01 -1.05828E+01 -1.11558E+01 -1.25256E+01 -1.20402E+01 -1.39417E+01
  -1.38573E+01 -1.34261E+01 -8.64102E+00 -8.16015E+00 -7.53809E+00 -6.86784E+00 -5.60724E+00 -8.31708E+00 -4.28701E+00 -5.49128E+00
  -2.97058E+00 -3.75026E+00 -2.86064E+00 -1.89283E+00 -2.80290E+00 -2.33402E+00 -1.35719E+00 -2.08885E+00 -6.19817E-01  1.17255E+00
   1.44846E+00 -3.48101E+00  3.88114E+00 -9.92679E-02  9.67697E-01  4.67185E-02  1.10240E+00  3.01804E+00  2.52094E+00  3.22180E+00
   3.14944E+00  4.03547E+00  2.85559E-01  4.12242E+00  1.91608E-01  4.08539E+00  6.35304E+00  4.26084E+00  1.79868E+00  1.33260E+00
   5.70840E+00  5.28625E+00  4.20767E+00  5.47919E+00  5.87914E+00  4.23439E+00  4.68322E+00  6.31664E+00  5.26912E+00  5.81335E+00
   6.81020E+00  3.61358E+00  6.04714E+00  5.72196E+00  3.80547E+00  3.72039E+00  2.45018E+00  5.27544E+00  5.30033E+00  5.12469E+00
   2.39250E+00 -4.79497E-01 -1.46725E+00  1.26258E+00 -2.84609E-01  8.73899E-01  4.46352E+00  1.45899E+00 -2.14477E+00 -1.76271E+00
  -1.46325E+00 -5.05691E-01 -9.40089E-01 -1.21744E+00  2.54372E+00  1.79591E+00 -1.60635E+00 -1.38351E+00  1.43426E+00 -4.06005E-01
  -4.57003E-02  4.72146E+00  6.06365E-01  4.48128E+00 -1.98354E+00  2.25461E-01  6.60314E-01  2.22965E+00  3.29631E+00  1.25670E+00
   1.70669E+00  1.11719E+00  1.55345E+00  1.22993E+00  2.36728E+00  3.05141E+00  1.80145E+00  3.54725E+00  2.20716E+00 -1.37699E+00
   2.89513E+00  1.05022E+00  2.03315E+00  2.08440E+00  4.47435E-01  1.94823E+00  1.39924E+00  4.27881E+00  6.00937E-01  1.81498E+00
   4.57470E+00  8.68147E-01 -2.74199E-01  3.06415E+00  3.93685E+00  1.34832E+00  2.66354E+00  1.30955E+00  2.93169E+00  4.01349E+00
   4.18577E+00  3.06569E+00  2.64814E+00  2.86114E+00 -1.54127E+00  4.61968E+00  7.04596E-01  2.40368E+00  4.25230E+00  4.89173E+00
   2.31624E+00  2.62927E+00  1.10079E+00  2.65441E+00  2.15904E-01  9.47107E-01  2.60765E+00  2.00742E+00  7.30399E-02  3.62030E+00
   2.78031E+00  3.43403E-01  3.08628E+00  5.17640E-01  2.12170E+00  1.46647E+00  2.24063E+00  2.93148E+00
 NY points of the fit to the data follow
  -4.64249E+00 -4.18686E+00 -4.97157E+00 -4.64506E+00 -5.43109E+00 -5.35084E+00 -5.14239E+00 -5.55332E+00 -4.81308E+00 -5.67780E+00
  -4.36261E+00 -5.60715E+00 -3.63546E+00 -5.11451E+00 -3.08555E+00 -4.51468E+00 -2.87692E+00 -4.04919E+00 -3.00736E+00 -3.72202E+00
  -3.55454E+00 -3.74700E+00 -3.85853E+00 -3.81065E+00 -3.43309E+00 -3.39125E+00 -2.89556E+00 -2.93279E+00 -2.47601E+00 -2.56723E+00
  -2.12302E+00 -2.28453E+00 -1.90988E+00 -2.15694E+00 -1.98164E+00 -2.33200E+00 -2.35048E+00 -2.67435E+00 -2.75738E+00 -2.97079E+00
  -3.07890E+00 -3.15948E+00 -3.09524E+00 -3.02599E+00 -2.78128E+00 -2.77100E+00 -2.61653E+00 -2.67554E+00 -2.55514E+00 -2.62320E+00
  -2.53772E+00 -2.60590E+00 -2.54896E+00 -2.63798E+00 -2.61080E+00 -2.68311E+00 -2.66499E+00 -2.73542E+00 -2.70674E+00 -2.73792E+00
  -2.67295E+00 -2.64397E+00 -2.57588E+00 -2.57847E+00 -2.52895E+00 -2.55852E+00 -2.51417E+00 -2.53873E+00 -2.48182E+00 -2.50450E+00
  -2.44022E+00 -2.45007E+00 -2.37439E+00 -2.36328E+00 -2.27334E+00 -2.26418E+00 -2.18636E+00 -2.19983E+00 -2.15263E+00 -2.18675E+00
  -2.16200E+00 -2.20166E+00 -2.19498E+00 -2.23944E+00 -2.23643E+00 -2.27077E+00 -2.23874E+00 -2.26801E+00 -2.22393E+00 -2.27445E+00
  -2.34657E+00 -2.81508E+00 -2.87278E+00 -3.01623E+00 -2.78415E+00 -2.25641E+00 -1.77698E+00 -1.00086E+00 -2.72670E-01  1.12586E+00
   1.88474E+00  2.89221E+00  3.46608E+00  4.18940E+00  4.58889E+00  4.93813E+00  5.01897E+00  4.60182E+00  4.33811E+00  3.38375E+00
   2.93411E+00  1.82747E+00  1.30917E+00  1.77594E-01 -2.25644E-01 -1.02636E+00 -1.29323E+00 -9.76084E-01 -9.43055E-01 -1.95672E-01
   1.92918E-01  1.02502E+00  1.75988E+00  3.02036E+00  4.32147E+00  4.94475E+00  6.30810E+00  6.36993E+00  7.69566E+00  7.16831E+00
   8.25280E+00  6.83341E+00  7.34530E+00  5.45491E+00  5.43765E+00  3.58161E+00  3.20985E+00  1.55582E+00  9.86398E-01  2.13601E-01
  -7.06715E-02 -4.62207E-02  5.90210E-02 -1.16101E-01 -1.09336E-01 -2.77517E-01 -3.30855E-01 -5.33017E-01 -6.03630E-01 -8.41440E-01
  -9.84263E-01 -1.21436E+00 -1.35584E+00 -1.52305E+00 -1.60448E+00 -1.70801E+00 -1.78061E+00 -1.87780E+00 -1.91156E+00 -2.00417E+00
  -2.08208E+00 -2.17227E+00 -2.31610E+00 -2.37394E+00 -2.48580E+00 -2.56595E+00 -2.70849E+00 -2.80701E+00 -2.90721E+00 -3.00466E+00
  -3.00130E+00 -3.05444E+00 -3.08785E+00 -3.07540E+00 -3.13005E+00 -3.14160E+00 -3.18108E+00 -3.21404E+00 -3.28731E+00 -3.34634E+00
  -3.34605E+00 -3.38930E+00 -3.30245E+00 -3.31053E+00 -3.09996E+00 -3.03195E+00 -2.66456E+00 -2.61634E+00 -2.30955E+00 -2.31443E+00
  -2.19707E+00 -2.16347E+00 -2.13087E+00 -2.11108E+00 -2.23090E+00 -2.21329E+00 -2.35199E+00 -2.34209E+00 -2.44351E+00 -2.42785E+00
  -2.49414E+00 -2.48506E+00 -2.45799E+00 -2.43906E+00 -2.32103E+00 -2.34211E+00 -2.18161E+00 -2.22730E+00 -2.11350E+00 -2.20181E+00
  -2.13036E+00 -2.19969E+00 -2.09525E+00 -2.05125E+00 -1.86078E+00 -1.75445E+00 -1.54103E+00 -1.38618E+00 -1.16142E+00 -9.16800E-01
  -7.01894E-01 -4.61794E-01 -2.74122E-01 -1.26224E-01  2.93901E-02  1.84981E-01  3.84121E-01  5.59357E-01  8.17554E-01  1.06692E+00
   1.41892E+00  1.76162E+00  2.14553E+00  2.50810E+00  2.83978E+00  3.25119E+00  3.60011E+00  4.11227E+00  4.46448E+00  5.02234E+00
   5.40239E+00  5.96901E+00  6.33581E+00  6.57957E+00  6.00576E+00  6.20041E+00  6.04065E+00  6.70274E+00  7.80412E+00  8.70711E+00
   1.02765E+01  1.13401E+01  1.42348E+01  1.49106E+01  1.72016E+01  1.72297E+01  1.90360E+01  1.84928E+01  1.97041E+01  1.84445E+01
   1.81089E+01  1.62103E+01  1.45690E+01  1.24349E+01  1.01649E+01  8.13191E+00  5.46800E+00  4.03459E+00  2.47740E+00  1.84122E+00
   1.71743E+00  1.28239E+00  8.49053E-01  3.57140E-01 -4.55686E-02 -4.92197E-01 -8.43851E-01 -1.26267E+00 -1.56202E+00 -1.94030E+00
  -2.18519E+00 -2.52413E+00 -2.72060E+00 -2.99881E+00 -3.11018E+00 -3.30690E+00 -3.32157E+00 -3.43335E+00 -3.36601E+00 -3.41689E+00
  -3.31485E+00 -3.34513E+00 -3.22163E+00 -3.20463E+00 -3.06449E+00 -3.00859E+00 -2.87008E+00 -2.78662E+00 -2.66316E+00 -2.59971E+00
  -2.52281E+00 -2.49754E+00 -2.49297E+00 -2.52034E+00 -2.57944E+00 -2.66012E+00 -2.76226E+00 -2.88404E+00 -3.03255E+00 -3.19109E+00
  -3.37451E+00 -3.56537E+00 -3.76912E+00 -3.97935E+00 -4.18447E+00 -4.38433E+00 -4.57406E+00 -4.75269E+00 -4.91756E+00 -5.06891E+00
  -5.20490E+00 -5.32717E+00 -5.43442E+00 -5.52945E+00 -5.61081E+00 -5.68211E+00 -5.74182E+00 -5.79366E+00 -5.83647E+00 -5.87340E+00
  -5.90322E+00 -5.92868E+00 -5.94849E+00 -5.96508E+00 -5.97716E+00 -5.98675E+00 -5.99251E+00 -5.99606E+00 -5.99608E+00 -5.99384E+00
  -5.98800E+00 -5.97936E+00 -5.96640E+00 -5.94941E+00 -5.92665E+00 -5.89780E+00 -5.86074E+00 -5.81433E+00 -5.75600E+00 -5.68383E+00
  -5.59491E+00 -5.48674E+00 -5.35629E+00 -5.20090E+00 -5.01805E+00 -4.80572E+00 -4.56281E+00 -4.28885E+00 -3.98500E+00 -3.65313E+00
  -3.29733E+00 -2.92219E+00 -2.53472E+00 -2.14170E+00 -1.75205E+00 -1.37339E+00 -1.01482E+00 -6.82805E-01 -3.84457E-01 -1.22914E-01
   9.85646E-02  2.81561E-01  4.27499E-01  5.42890E-01  6.33421E-01  7.09450E-01  7.79228E-01  8.54749E-01  9.44322E-01  1.05902E+00
   1.20478E+00  1.38951E+00  1.61487E+00  1.88415E+00  2.19379E+00  2.54218E+00  2.92081E+00  3.32390E+00  3.73914E+00  4.15805E+00
   4.56639E+00  4.95507E+00  5.31004E+00  5.62369E+00  5.88414E+00  6.08699E+00  6.22399E+00  6.29514E+00  6.29651E+00  6.23268E+00
   6.10380E+00  5.91836E+00  5.67965E+00  5.39885E+00  5.08090E+00  4.73808E+00  4.37541E+00  4.00481E+00  3.63016E+00  3.26202E+00
   2.90228E+00  2.55956E+00  2.23351E+00  1.93082E+00  1.64910E+00  1.39341E+00  1.15972E+00  9.51923E-01  7.64864E-01  6.01814E-01
   4.56986E-01  3.33427E-01  2.25037E-01  1.34912E-01  5.68914E-02 -5.67152E-03 -5.88692E-02 -9.90465E-02 -1.32214E-01 -1.54400E-01
  -1.71506E-01 -1.79230E-01 -1.83397E-01 -1.79447E-01 -1.73182E-01 -1.59795E-01 -1.45063E-01 -1.23951E-01 -1.02258E-01 -7.47810E-02
  -4.73662E-02 -1.46342E-02  1.75372E-02  5.46844E-02  9.08531E-02  1.31701E-01  1.71202E-01  2.15159E-01  2.57483E-01  3.04099E-01
   3.48818E-01  3.97672E-01  4.44393E-01  4.95147E-01  5.43596E-01  5.96014E-01  6.45955E-01  6.99800E-01  7.51024E-01  8.06128E-01
   8.58497E-01  9.14720E-01  9.68078E-01  1.02526E+00  1.07948E+00  1.13754E+00  1.19254E+00  1.25137E+00  1.30704E+00  1.36654E+00
   1.42280E+00  1.48291E+00  1.53972E+00  1.60037E+00  1.65763E+00  1.71876E+00  1.77643E+00  1.83801E+00  1.89605E+00  1.95801E+00
   2.01636E+00  2.07866E+00  2.13731E+00  2.19993E+00  2.25882E+00  2.32171E+00  2.38081E+00  2.44394E+00  2.50324E+00  2.56659E+00
   2.62605E+00  2.68958E+00  2.74917E+00  2.81288E+00  2.87258E+00  2.93643E+00  2.99622E+00  3.06018E+00
 NY background values follow
    -5.153E+00   -5.125E+00   -5.097E+00   -5.068E+00   -5.040E+00   -5.012E+00   -4.984E+00   -4.955E+00   -4.927E+00   -4.898E+00
    -4.870E+00   -4.842E+00   -4.813E+00   -4.785E+00   -4.756E+00   -4.728E+00   -4.700E+00   -4.671E+00   -4.643E+00   -4.614E+00
    -4.586E+00   -4.558E+00   -4.530E+00   -4.501E+00   -4.473E+00   -4.445E+00   -4.417E+00   -4.389E+00   -4.361E+00   -4.333E+00
    -4.305E+00   -4.277E+00   -4.250E+00   -4.222E+00   -4.194E+00   -4.167E+00   -4.139E+00   -4.112E+00   -4.085E+00   -4.058E+00
    -4.031E+00   -4.004E+00   -3.977E+00   -3.950E+00   -3.923E+00   -3.897E+00   -3.871E+00   -3.844E+00   -3.818E+00   -3.792E+00
    -3.766E+00   -3.741E+00   -3.715E+00   -3.690E+00   -3.664E+00   -3.639E+00   -3.614E+00   -3.590E+00   -3.565E+00   -3.540E+00
    -3.516E+00   -3.492E+00   -3.468E+00   -3.444E+00   -3.421E+00   -3.397E+00   -3.374E+00   -3.351E+00   -3.328E+00   -3.305E+00
    -3.283E+00   -3.261E+00   -3.239E+00   -3.217E+00   -3.195E+00   -3.174E+00   -3.153E+00   -3.132E+00   -3.111E+00   -3.090E+00
    -3.070E+00   -3.050E+00   -3.030E+00   -3.011E+00   -2.991E+00   -2.972E+00   -2.954E+00   -2.935E+00   -2.917E+00   -2.899E+00
    -2.881E+00   -2.864E+00   -2.846E+00   -2.830E+00   -2.813E+00   -2.797E+00   -2.781E+00   -2.765E+00   -2.750E+00   -2.735E+00
    -2.720E+00   -2.706E+00   -2.692E+00   -2.678E+00   -2.665E+00   -2.652E+00   -2.639E+00   -2.627E+00   -2.615E+00   -2.604E+00
    -2.593E+00   -2.583E+00   -2.573E+00   -2.563E+00   -2.554E+00   -2.545E+00   -2.537E+00   -2.529E+00   -2.522E+00   -2.515E+00
    -2.509E+00   -2.503E+00   -2.498E+00   -2.493E+00   -2.489E+00   -2.485E+00   -2.482E+00   -2.479E+00   -2.477E+00   -2.475E+00
    -2.474E+00   -2.474E+00   -2.474E+00   -2.475E+00   -2.476E+00   -2.478E+00   -2.481E+00   -2.484E+00   -2.488E+00   -2.492E+00
    -2.497E+00   -2.503E+00   -2.509E+00   -2.516E+00   -2.523E+00   -2.531E+00   -2.539E+00   -2.548E+00   -2.558E+00   -2.568E+00
    -2.579E+00   -2.590E+00   -2.602E+00   -2.614E+00   -2.627E+00   -2.640E+00   -2.654E+00   -2.668E+00   -2.683E+00   -2.699E+00
    -2.714E+00   -2.731E+00   -2.747E+00   -2.765E+00   -2.782E+00   -2.801E+00   -2.819E+00   -2.838E+00   -2.858E+00   -2.878E+00
    -2.898E+00   -2.919E+00   -2.940E+00   -2.962E+00   -2.984E+00   -3.006E+00   -3.029E+00   -3.052E+00   -3.076E+00   -3.100E+00
    -3.124E+00   -3.149E+00   -3.174E+00   -3.200E+00   -3.226E+00   -3.252E+00   -3.278E+00   -3.305E+00   -3.332E+00   -3.360E+00
    -3.388E+00   -3.416E+00   -3.444E+00   -3.473E+00   -3.502E+00   -3.531E+00   -3.561E+00   -3.591E+00   -3.621E+00   -3.651E+00
    -3.682E+00   -3.713E+00   -3.744E+00   -3.776E+00   -3.807E+00   -3.839E+00   -3.871E+00   -3.903E+00   -3.936E+00   -3.969E+00
    -4.001E+00   -4.035E+00   -4.068E+00   -4.101E+00   -4.135E+00   -4.169E+00   -4.203E+00   -4.237E+00   -4.271E+00   -4.305E+00
    -4.340E+00   -4.374E+00   -4.409E+00   -4.444E+00   -4.479E+00   -4.514E+00   -4.549E+00   -4.585E+00   -4.620E+00   -4.656E+00
    -4.691E+00   -4.727E+00   -4.762E+00   -4.798E+00   -4.834E+00   -4.869E+00   -4.905E+00   -4.941E+00   -4.976E+00   -5.012E+00
    -5.048E+00   -5.083E+00   -5.119E+00   -5.154E+00   -5.189E+00   -5.224E+00   -5.260E+00   -5.295E+00   -5.329E+00   -5.364E+00
    -5.399E+00   -5.433E+00   -5.467E+00   -5.502E+00   -5.535E+00   -5.569E+00   -5.603E+00   -5.636E+00   -5.669E+00   -5.702E+00
    -5.734E+00   -5.767E+00   -5.799E+00   -5.830E+00   -5.862E+00   -5.893E+00   -5.924E+00   -5.954E+00   -5.985E+00   -6.015E+00
    -6.044E+00   -6.073E+00   -6.102E+00   -6.130E+00   -6.158E+00   -6.186E+00   -6.213E+00   -6.240E+00   -6.266E+00   -6.292E+00
    -6.318E+00   -6.343E+00   -6.367E+00   -6.391E+00   -6.415E+00   -6.438E+00   -6.461E+00   -6.483E+00   -6.505E+00   -6.526E+00
    -6.546E+00   -6.567E+00   -6.586E+00   -6.605E+00   -6.623E+00   -6.641E+00   -6.659E+00   -6.675E+00   -6.691E+00   -6.707E+00
    -6.722E+00   -6.736E+00   -6.750E+00   -6.762E+00   -6.775E+00   -6.787E+00   -6.798E+00   -6.808E+00   -6.818E+00   -6.827E+00
    -6.835E+00   -6.842E+00   -6.849E+00   -6.855E+00   -6.861E+00   -6.866E+00   -6.869E+00   -6.873E+00   -6.875E+00   -6.877E+00
    -6.878E+00   -6.878E+00   -6.877E+00   -6.876E+00   -6.874E+00   -6.871E+00   -6.867E+00   -6.862E+00   -6.857E+00   -6.851E+00
    -6.844E+00   -6.836E+00   -6.828E+00   -6.818E+00   -6.808E+00   -6.797E+00   -6.785E+00   -6.773E+00   -6.759E+00   -6.745E+00
    -6.730E+00   -6.714E+00   -6.698E+00   -6.680E+00   -6.662E+00   -6.642E+00   -6.622E+00   -6.601E+00   -6.579E+00   -6.557E+00
    -6.533E+00   -6.509E+00   -6.484E+00   -6.458E+00   -6.431E+00   -6.403E+00   -6.374E+00   -6.344E+00   -6.314E+00   -6.283E+00
    -6.250E+00   -6.217E+00   -6.183E+00   -6.148E+00   -6.112E+00   -6.076E+00   -6.038E+00   -6.000E+00   -5.961E+00   -5.921E+00
    -5.880E+00   -5.838E+00   -5.796E+00   -5.752E+00   -5.708E+00   -5.664E+00   -5.618E+00   -5.572E+00   -5.525E+00   -5.478E+00
    -5.429E+00   -5.380E+00   -5.331E+00   -5.280E+00   -5.229E+00   -5.177E+00   -5.125E+00   -5.072E+00   -5.019E+00   -4.965E+00
    -4.910E+00   -4.855E+00   -4.799E+00   -4.742E+00   -4.686E+00   -4.628E+00   -4.570E+00   -4.512E+00   -4.453E+00   -4.393E+00
    -4.333E+00   -4.273E+00   -4.212E+00   -4.151E+00   -4.089E+00   -4.027E+00   -3.964E+00   -3.901E+00   -3.838E+00   -3.774E+00
    -3.710E+00   -3.646E+00   -3.581E+00   -3.516E+00   -3.450E+00   -3.384E+00   -3.318E+00   -3.252E+00   -3.185E+00   -3.118E+00
    -3.051E+00   -2.984E+00   -2.916E+00   -2.848E+00   -2.780E+00   -2.711E+00   -2.643E+00   -2.574E+00   -2.505E+00   -2.436E+00
    -2.367E+00   -2.297E+00   -2.227E+00   -2.158E+00   -2.088E+00   -2.018E+00   -1.948E+00   -1.877E+00   -1.807E+00   -1.737E+00
    -1.666E+00   -1.596E+00   -1.525E+00   -1.455E+00   -1.384E+00   -1.314E+00   -1.243E+00   -1.172E+00   -1.102E+00   -1.031E+00
    -9.605E-01   -8.900E-01   -8.195E-01   -7.491E-01   -6.788E-01   -6.085E-01   -5.383E-01   -4.681E-01   -3.980E-01   -3.279E-01
    -2.579E-01   -1.880E-01   -1.181E-01   -4.825E-02    2.153E-02    9.124E-02    1.609E-01    2.305E-01    3.001E-01    3.696E-01
     4.390E-01    5.084E-01    5.777E-01    6.470E-01    7.162E-01    7.854E-01    8.545E-01    9.235E-01    9.925E-01    1.061E+00
     1.130E+00    1.199E+00    1.268E+00    1.337E+00    1.405E+00    1.474E+00    1.543E+00    1.611E+00    1.680E+00    1.748E+00
     1.817E+00    1.885E+00    1.953E+00    2.021E+00    2.090E+00    2.158E+00    2.226E+00    2.294E+00
 PCr      Conc. = 2.42E+02
