 LCModel (Version 6.3-1L) Copyright: S.W. Provencher.          Ref.: Magn. Reson. Med. 30:672-679 (1993).                
 Slice#1 Row#14 Col#14  PD_05_press_1_raw_act
 36 lines in following concentration table = NCONC+1
    Conc.  %SD /Cr+PCr  Metabolite                                         
    0.000 999%   0.000 Ala                                                 
    1.276 150%   0.118 Asp                                                 
   10.796  73%   1.000 Cr                                                  
    0.000 999%   0.000 PCr                                                 
    0.765 150% 7.1E-02 GABA                                                
    0.710 162% 6.6E-02 Glc                                                 
    0.000 999%   0.000 Gln                                                 
    0.000 999%   0.000 Glu                                                 
    0.000 999%   0.000 GPC                                                 
    4.116  74%   0.381 PCh                                                 
   24.236  52%   2.245 GSH                                                 
    0.000 999%   0.000 Ins                                                 
    0.000 999%   0.000 Lac                                                 
    1.498 577%   0.139 NAA                                                 
    0.000 999%   0.000 NAAG                                                
    0.240 159% 2.2E-02 Scyllo                                              
    1.045 183% 9.7E-02 Tau                                                 
    1.218 235%   0.113 -CrCH2                                              
    4.116  74%   0.381 GPC+PCh                                             
    1.498 577%   0.139 NAA+NAAG                                            
   10.796  73%   1.000 Cr+PCr                                              
    0.000 999%   0.000 Glu+Gln                                             
  154.108  47%  14.275 Lip13a                                              
   18.448 230%   1.709 Lip13b                                              
   45.327  30%   4.199 Lip09                                               
 5.07E-05 999% 4.7E-06 MM09                                                
   25.161  34%   2.331 Lip20                                               
    0.000 999%   0.000 MM20                                                
 3.12E-05 999% 2.9E-06 MM12                                                
 2.75E-04 999% 2.5E-05 MM14                                                
 5.54E-04 999% 5.1E-05 MM17                                                
  172.556  27%  15.984 Lip13a+Lip13b                                       
  172.556  27%  15.984 MM14+Lip13a+Lip13b+MM12                             
   45.327  30%   4.199 MM09+Lip09                                          
   25.161  34%   2.331 MM20+Lip20                                          
   6 lines in following misc. output table
  FWHM = 0.054 ppm    S/N =   1                                            
  Data shift =-0.038 ppm                                                   
  Ph: -75 deg     -55.0 deg/ppm                                            
  alphaB,S = 8.5E+01,   1.3E+01                                            
   14 spline knots.   Ns = 5(1)                                            
   2 inflections.     1 extrema                                            
  498 points on ppm-axis = NY
      4.000000     3.992357     3.984714     3.977070     3.969427     3.961784     3.954141     3.946497     3.938854     3.931211
      3.923568     3.915925     3.908281     3.900638     3.892995     3.885352     3.877708     3.870065     3.862422     3.854779
      3.847136     3.839492     3.831849     3.824206     3.816563     3.808919     3.801276     3.793633     3.785990     3.778347
      3.770703     3.763060     3.755417     3.747774     3.740130     3.732487     3.724844     3.717201     3.709558     3.701914
      3.694271     3.686628     3.678985     3.671341     3.663698     3.656055     3.648412     3.640769     3.633125     3.625482
      3.617839     3.610196     3.602552     3.594909     3.587266     3.579623     3.571980     3.564336     3.556693     3.549050
      3.541407     3.533763     3.526120     3.518477     3.510834     3.503191     3.495547     3.487904     3.480261     3.472618
      3.464974     3.457331     3.449688     3.442045     3.434402     3.426758     3.419115     3.411472     3.403829     3.396185
      3.388542     3.380899     3.373256     3.365613     3.357969     3.350326     3.342683     3.335040     3.327396     3.319753
      3.312110     3.304467     3.296824     3.289180     3.281537     3.273894     3.266251     3.258607     3.250964     3.243321
      3.235678     3.228034     3.220391     3.212748     3.205105     3.197462     3.189818     3.182175     3.174532     3.166889
      3.159245     3.151602     3.143959     3.136316     3.128673     3.121029     3.113386     3.105743     3.098100     3.090456
      3.082813     3.075170     3.067527     3.059884     3.052240     3.044597     3.036954     3.029311     3.021667     3.014024
      3.006381     2.998738     2.991095     2.983451     2.975808     2.968165     2.960522     2.952878     2.945235     2.937592
      2.929949     2.922306     2.914662     2.907019     2.899376     2.891733     2.884089     2.876446     2.868803     2.861160
      2.853517     2.845873     2.838230     2.830587     2.822944     2.815300     2.807657     2.800014     2.792371     2.784728
      2.777084     2.769441     2.761798     2.754155     2.746511     2.738868     2.731225     2.723582     2.715939     2.708295
      2.700652     2.693009     2.685366     2.677722     2.670079     2.662436     2.654793     2.647150     2.639506     2.631863
      2.624220     2.616577     2.608933     2.601290     2.593647     2.586004     2.578361     2.570717     2.563074     2.555431
      2.547788     2.540144     2.532501     2.524858     2.517215     2.509572     2.501928     2.494285     2.486642     2.478999
      2.471355     2.463712     2.456069     2.448426     2.440783     2.433139     2.425496     2.417853     2.410210     2.402566
      2.394923     2.387280     2.379637     2.371994     2.364350     2.356707     2.349064     2.341421     2.333777     2.326134
      2.318491     2.310848     2.303205     2.295561     2.287918     2.280275     2.272632     2.264988     2.257345     2.249702
      2.242059     2.234416     2.226772     2.219129     2.211486     2.203843     2.196199     2.188556     2.180913     2.173270
      2.165627     2.157983     2.150340     2.142697     2.135054     2.127410     2.119767     2.112124     2.104481     2.096838
      2.089194     2.081551     2.073908     2.066265     2.058621     2.050978     2.043335     2.035692     2.028049     2.020405
      2.012762     2.005119     1.997476     1.989833     1.982190     1.974546     1.966903     1.959260     1.951617     1.943974
      1.936331     1.928688     1.921045     1.913402     1.905759     1.898115     1.890472     1.882829     1.875186     1.867543
      1.859900     1.852257     1.844614     1.836971     1.829327     1.821684     1.814041     1.806398     1.798755     1.791112
      1.783469     1.775826     1.768183     1.760540     1.752896     1.745253     1.737610     1.729967     1.722324     1.714681
      1.707038     1.699395     1.691752     1.684108     1.676465     1.668822     1.661179     1.653536     1.645893     1.638250
      1.630607     1.622964     1.615321     1.607677     1.600034     1.592391     1.584748     1.577105     1.569462     1.561819
      1.554176     1.546533     1.538890     1.531246     1.523603     1.515960     1.508317     1.500674     1.493031     1.485388
      1.477745     1.470102     1.462458     1.454815     1.447172     1.439529     1.431886     1.424243     1.416600     1.408957
      1.401314     1.393671     1.386027     1.378384     1.370741     1.363098     1.355455     1.347812     1.340169     1.332526
      1.324883     1.317240     1.309596     1.301953     1.294310     1.286667     1.279024     1.271381     1.263738     1.256095
      1.248452     1.240808     1.233165     1.225522     1.217879     1.210236     1.202593     1.194950     1.187307     1.179664
      1.172021     1.164377     1.156734     1.149091     1.141448     1.133805     1.126162     1.118519     1.110876     1.103233
      1.095590     1.087946     1.080303     1.072660     1.065017     1.057374     1.049731     1.042088     1.034445     1.026802
      1.019158     1.011515     1.003872     0.996229     0.988586     0.980943     0.973300     0.965657     0.958014     0.950371
      0.942727     0.935084     0.927441     0.919798     0.912155     0.904512     0.896869     0.889226     0.881583     0.873940
      0.866296     0.858653     0.851010     0.843367     0.835724     0.828081     0.820438     0.812795     0.805152     0.797508
      0.789865     0.782222     0.774579     0.766936     0.759293     0.751650     0.744007     0.736364     0.728721     0.721077
      0.713434     0.705791     0.698148     0.690505     0.682862     0.675219     0.667576     0.659933     0.652290     0.644646
      0.637003     0.629360     0.621717     0.614074     0.606431     0.598788     0.591145     0.583502     0.575858     0.568215
      0.560572     0.552929     0.545286     0.537643     0.530000     0.522357     0.514714     0.507071     0.499427     0.491784
      0.484141     0.476498     0.468855     0.461212     0.453569     0.445925     0.438282     0.430639     0.422996     0.415353
      0.407710     0.400067     0.392424     0.384780     0.377137     0.369494     0.361851     0.354208     0.346565     0.338922
      0.331278     0.323635     0.315992     0.308349     0.300706     0.293063     0.285420     0.277777     0.270133     0.262490
      0.254847     0.247204     0.239561     0.231918     0.224275     0.216631     0.208988     0.201345
 NY phased data points follow
  -2.61830E-01 -1.27623E+00  2.41859E-01 -5.32569E-01 -7.16594E-01  2.57397E-01  6.07629E-01 -1.41386E+00 -4.14607E-01 -5.68940E-01
  -1.03076E+00  1.95682E-01  1.56602E-01 -2.31073E-01 -1.85020E-01 -7.22832E-01 -5.03109E-01  1.31614E+00 -1.44295E+00 -1.77109E+00
  -2.71739E-01 -9.35743E-01 -1.09390E-01 -5.22267E-01 -2.18816E-01 -3.26901E-01 -4.29253E-01  1.79170E-01 -5.81649E-01  3.01158E-01
   1.03480E+00  1.25059E+00 -1.30887E+00  7.59679E-02  3.84592E-01  6.30333E-01 -1.48418E+00 -1.02949E+00 -7.88329E-01  3.94655E-01
  -4.72847E-01 -9.98454E-01  7.63416E-01  4.35617E-01  2.96866E-01  4.99895E-01 -2.84868E-01  6.21403E-01 -4.28273E-01 -6.96718E-01
  -6.60794E-02 -7.22527E-01 -3.08523E-01  2.19392E-01 -3.10223E-02  9.09775E-02 -2.81873E-01 -5.90288E-01 -6.53852E-01  2.49433E-02
  -2.80402E-01 -1.01584E+00  1.02931E+00 -2.92786E-01  2.58079E-01  4.43324E-01 -9.74045E-01 -5.23184E-01 -7.73629E-01 -1.30634E+00
  -9.07283E-01 -2.88072E-02 -2.72989E+00  9.45992E-01 -1.62296E+00 -4.75720E-01 -1.27338E+00 -8.62356E-01 -1.45708E+00 -1.93478E-01
  -1.19278E+00  2.33752E-02 -6.80591E-01  6.80262E-01  5.46031E-01 -5.16230E-01 -9.53110E-01  4.39230E-01 -4.58108E-01  6.67518E-01
  -1.36396E+00 -1.16389E+00 -1.66108E-01 -2.01970E-01 -9.59809E-01 -6.50448E-01  1.12849E+00 -7.92550E-01  9.89680E-03 -5.28654E-01
  -1.26562E+00 -3.98265E-01  1.02480E+00 -5.04324E-01 -2.34595E-01  7.18192E-01  5.58979E-01 -6.72014E-01  1.32796E-01  6.01761E-01
  -3.02677E-01  3.69409E-01  9.42397E-02 -3.89848E-01 -4.74889E-01 -8.08640E-01 -1.21321E-01 -1.11399E-01 -1.14897E+00 -4.49440E-01
  -6.75548E-01 -7.19185E-01 -1.92064E-01 -1.14604E+00 -1.87975E-01 -5.45206E-01 -3.04180E-01  5.98373E-02  6.83402E-01  2.27407E-01
  -3.87819E-03 -5.67280E-01  1.45614E+00  3.43097E-01  3.54774E-01 -1.40178E+00  1.07186E-01  7.39356E-01  1.12543E+00 -3.79284E-01
  -7.29515E-01 -7.23023E-01 -6.31226E-01 -2.78435E-01  2.54283E-03 -5.87321E-01  9.30797E-01 -9.69889E-01  1.93990E-01  6.95794E-02
  -6.66431E-01 -7.64589E-01 -5.93223E-01 -4.98770E-01 -6.50800E-01  1.70815E-01  3.10854E-01  7.15474E-01  4.52642E-01 -4.46347E-01
  -1.57514E+00 -5.64704E-01 -2.87900E-01 -7.88701E-01  5.13154E-01 -6.15123E-01 -7.71566E-01  8.14766E-01  3.63403E-01 -1.82138E-01
  -6.29691E-01 -4.28266E-01 -1.17226E+00 -7.49603E-01 -4.43537E-01  2.14313E-01 -5.74295E-01  5.30188E-01 -3.49454E-01 -8.35858E-01
  -6.94642E-01 -1.11872E+00 -1.65718E-01  7.83825E-01  4.21511E-02  6.91390E-01  6.92732E-01 -7.00350E-01  1.01187E+00 -6.36646E-01
  -7.29151E-01  4.48006E-01 -8.09093E-02 -8.92833E-01  2.03210E-01  7.01186E-01  4.39153E-01  7.23435E-01  1.10481E-01 -4.21070E-01
   4.90868E-01 -2.59053E-01 -1.26128E+00 -7.51460E-01 -6.59900E-02 -5.30016E-01 -5.36848E-02 -3.03081E-01 -7.23392E-01 -2.15249E-01
   1.20260E-01  5.92280E-02 -4.84654E-01  5.70099E-01  2.33935E-01 -3.78665E-01  5.28204E-01  3.59886E-01 -2.48484E-01 -1.44410E-01
   5.61187E-02 -8.89786E-01  4.97687E-01 -6.00100E-01 -1.59661E-01  1.57079E+00  6.40119E-01 -7.88756E-01 -1.48964E-01 -6.47803E-01
  -2.15980E-01  5.82568E-01 -8.89740E-01 -1.19702E+00  9.72050E-01 -5.11222E-01 -6.15018E-01 -3.02470E-01 -6.25186E-01  5.99182E-01
   8.01411E-01  9.95115E-01 -9.85362E-01  2.70749E-01 -1.49748E+00  3.77012E-01 -6.51102E-01  3.49594E-01 -4.68855E-01  4.90775E-01
  -9.92648E-02  9.97397E-01 -1.81522E-01 -9.37143E-01 -1.57585E+00  1.91596E-01 -2.32409E-01 -8.78490E-01  5.04737E-02  7.00827E-01
  -9.91588E-01  5.48163E-02  4.72932E-01  1.83848E-01  6.62253E-02 -1.48758E-02  5.28974E-01  1.49504E-01 -2.98865E-01  1.32458E-01
   3.35666E-01  2.18611E-03 -3.27266E-01 -7.53363E-01  5.94115E-01  9.76219E-01  1.76967E-01 -4.15610E-01  3.96203E-01  1.04252E+00
   2.43548E-01  1.59498E-01 -2.81432E-01 -4.86696E-01 -6.04641E-01 -4.37230E-01  5.93557E-01  8.14249E-01  8.65582E-01 -9.25460E-01
  -2.60242E-01 -2.80533E-01  9.01335E-01  3.25116E-01  5.53396E-01  3.95722E-01  4.90888E-01 -1.03196E+00  1.56300E-01  2.49107E-01
   2.05962E+00 -1.41670E-01 -2.14673E-01  8.11321E-01  2.48846E-03  1.47876E-01  9.04464E-01  3.91862E-01 -4.10068E-01  3.88751E-01
   1.55722E-01 -8.78496E-02  1.37226E-01 -1.26212E-01  4.80056E-01 -2.22975E-01  8.00340E-01  8.47471E-01  1.56716E+00 -1.23862E-01
   6.39466E-01 -4.38195E-01  9.62806E-01 -1.81496E-01  5.80286E-01  9.55166E-01 -1.65420E-01 -2.06365E-01 -4.06174E-01  5.40580E-01
  -4.08593E-01 -5.57583E-01  4.48871E-01  2.07712E-01  5.15297E-01  1.04532E+00  7.51200E-01  6.68464E-01  6.47299E-01  3.80494E-02
   3.06813E-01  9.08608E-01  8.70436E-01  1.20012E-01 -4.51866E-01  1.09671E-01  4.54973E-01 -2.13969E-01  5.84267E-01  8.48710E-01
   1.41798E+00  7.33894E-01  1.04609E+00  5.22599E-01  1.16472E+00  1.84303E+00  6.98239E-01 -2.88331E-01  1.61682E+00  1.71215E+00
   2.54664E-01  7.89067E-01  2.34812E+00  2.52623E-01  1.20455E-01  1.46337E+00  2.27762E+00  1.43349E-01  7.17762E-01  3.66229E-01
   6.11145E-01  9.65522E-01  6.60804E-01  6.45802E-01  8.57037E-01 -2.12898E-01 -9.07883E-01  1.04651E+00  1.36084E+00  6.93511E-01
   3.12989E-02 -2.24351E-01 -4.68940E-01  3.11166E-01  4.37080E-01 -5.58708E-01  9.53442E-01  8.17460E-01 -9.51237E-01  1.10944E+00
   1.09747E+00 -3.47935E-01  2.99070E+00  1.29003E+00 -2.04509E-01  7.51725E-02 -1.35014E-01  4.91254E-01  6.15658E-01  1.27401E+00
  -2.38835E-01  1.12657E+00 -3.21609E-01 -4.35851E-01 -1.01623E+00  1.05128E+00  4.63862E-01 -8.54178E-02  4.80806E-01  1.03557E+00
  -1.66113E+00  6.19602E-01 -3.07116E-02  1.17623E+00  3.85871E-01  1.42976E+00  5.03423E-01  9.57606E-01 -3.47386E-01  1.69747E-02
  -7.78371E-01  1.61245E+00  9.18010E-01  7.83508E-01 -6.54791E-01  1.21869E+00  5.61700E-01  1.31460E+00  2.16735E+00 -5.90597E-01
   9.49646E-01  8.65222E-01  3.72554E-01  2.49429E-01 -4.36567E-01  5.18324E-01 -2.30732E-02  1.44045E-01  1.73888E-01  1.23603E+00
  -3.84845E-01  1.70281E-01  1.13841E-01 -9.87908E-02  1.01257E-01 -2.46691E-01  1.36918E+00 -2.00867E-01 -7.33451E-01  4.49704E-01
   8.79117E-01  8.70872E-02  1.63657E-01  3.54433E-01 -8.60206E-01 -5.40231E-01  9.13999E-02 -7.30259E-01  2.05909E-01 -4.54464E-01
  -4.36816E-01  9.32259E-01  1.09947E+00 -7.89612E-01  2.70783E-01 -1.82409E-01  1.71252E+00  3.59229E-01 -1.87786E-01 -3.28943E-01
   7.70450E-01  7.59944E-01 -1.82003E-01  7.50999E-01 -2.54955E-01 -9.33276E-01  9.33230E-01 -4.28863E-01 -7.41518E-01  5.72372E-01
   1.16275E+00 -4.30673E-01  3.00155E-01  1.45634E+00  1.54461E+00 -3.71946E-01 -5.24035E-01  3.16845E-02 -4.74991E-02 -7.64385E-01
   1.86447E-01 -2.18217E-01  2.93602E-01  9.51279E-01  1.24922E-01  5.84593E-02  3.37551E-01  9.68135E-01
 NY points of the fit to the data follow
  -4.40449E-01 -4.38319E-01 -4.36016E-01 -4.33469E-01 -4.30802E-01 -4.28885E-01 -4.28690E-01 -4.26677E-01 -4.11627E-01 -3.73207E-01
  -3.13466E-01 -2.50040E-01 -2.05030E-01 -1.82382E-01 -1.67832E-01 -1.66228E-01 -2.09983E-01 -2.97962E-01 -3.66479E-01 -3.81366E-01
  -3.79448E-01 -3.76911E-01 -3.79662E-01 -3.88939E-01 -4.01208E-01 -4.08584E-01 -3.93309E-01 -3.30305E-01 -2.03815E-01 -2.55225E-02
   1.51117E-01  2.56586E-01  2.87922E-01  2.80922E-01  2.10975E-01  1.69316E-02 -2.41733E-01 -3.78617E-01 -3.97537E-01 -3.90670E-01
  -3.74781E-01 -3.53140E-01 -3.37895E-01 -3.40396E-01 -3.49485E-01 -3.55576E-01 -3.59891E-01 -3.62819E-01 -3.63602E-01 -3.62552E-01
  -3.61207E-01 -3.58898E-01 -3.56447E-01 -3.54499E-01 -3.52144E-01 -3.49590E-01 -3.47131E-01 -3.44697E-01 -3.44088E-01 -3.44878E-01
  -3.44979E-01 -3.44496E-01 -3.43573E-01 -3.42096E-01 -3.40240E-01 -3.38371E-01 -3.36629E-01 -3.35063E-01 -3.33668E-01 -3.32464E-01
  -3.31443E-01 -3.30510E-01 -3.29182E-01 -3.26840E-01 -3.23553E-01 -3.20077E-01 -3.16755E-01 -3.14567E-01 -3.13454E-01 -3.12727E-01
  -3.12730E-01 -3.13687E-01 -3.13497E-01 -3.10409E-01 -3.05072E-01 -2.98387E-01 -2.91915E-01 -2.87629E-01 -2.85612E-01 -2.84234E-01
  -2.83744E-01 -2.86155E-01 -2.90924E-01 -2.93712E-01 -2.93539E-01 -2.91994E-01 -2.89237E-01 -2.85245E-01 -2.79312E-01 -2.65725E-01
  -2.29288E-01 -1.56300E-01 -5.11013E-02  5.91705E-02  1.37761E-01  1.71052E-01  1.78456E-01  1.63306E-01  8.57520E-02 -6.49485E-02
  -1.96844E-01 -2.37872E-01 -2.46517E-01 -2.48893E-01 -2.49081E-01 -2.47502E-01 -2.45013E-01 -2.42734E-01 -2.41555E-01 -2.41712E-01
  -2.42264E-01 -2.41215E-01 -2.36695E-01 -2.21932E-01 -1.81285E-01 -1.03526E-01  1.92003E-03  1.04564E-01  1.74981E-01  2.09568E-01
   2.29171E-01  2.31854E-01  1.77902E-01  6.11273E-02 -3.97351E-02 -9.65793E-02 -1.48482E-01 -1.96692E-01 -2.43560E-01 -2.82711E-01
  -2.82504E-01 -2.26635E-01 -1.51528E-01 -8.63559E-02 -4.17380E-02 -2.89627E-02 -4.49288E-02 -7.58768E-02 -1.09689E-01 -1.26334E-01
  -1.35120E-01 -1.42039E-01 -1.48234E-01 -1.54194E-01 -1.60719E-01 -1.65896E-01 -1.65987E-01 -1.62935E-01 -1.59559E-01 -1.55621E-01
  -1.50712E-01 -1.47248E-01 -1.48294E-01 -1.51468E-01 -1.53654E-01 -1.54642E-01 -1.54559E-01 -1.53934E-01 -1.53136E-01 -1.52120E-01
  -1.50371E-01 -1.47636E-01 -1.44849E-01 -1.44082E-01 -1.45684E-01 -1.48823E-01 -1.52673E-01 -1.57009E-01 -1.62548E-01 -1.69099E-01
  -1.74100E-01 -1.76227E-01 -1.78261E-01 -1.83343E-01 -1.91856E-01 -2.01203E-01 -2.06262E-01 -2.01771E-01 -1.85323E-01 -1.55767E-01
  -1.14161E-01 -6.73267E-02 -3.31284E-02 -2.02179E-02 -3.08274E-02 -7.06260E-02 -1.35740E-01 -2.03231E-01 -2.44418E-01 -2.46926E-01
  -2.24289E-01 -1.92083E-01 -1.45339E-01 -8.47120E-02 -3.97016E-02 -3.53864E-02 -4.61542E-02 -5.20534E-02 -5.31012E-02 -5.21895E-02
  -5.07527E-02 -4.92292E-02 -4.83673E-02 -4.94022E-02 -5.30649E-02 -5.73277E-02 -5.91951E-02 -5.87316E-02 -5.64992E-02 -5.16033E-02
  -4.36105E-02 -3.48313E-02 -2.80383E-02 -2.22354E-02 -1.69835E-02 -1.24575E-02 -8.73134E-03 -7.03340E-03 -1.11146E-02 -2.45850E-02
  -4.61010E-02 -6.78386E-02 -7.94082E-02 -7.48643E-02 -5.47354E-02 -2.00114E-02  3.04569E-02  8.59198E-02  1.13614E-01  9.37466E-02
   4.73576E-02 -8.16425E-03 -7.26945E-02 -1.35430E-01 -1.59867E-01 -1.24483E-01 -6.38286E-02 -8.79896E-03  3.63564E-02  7.39772E-02
   9.40088E-02  8.31183E-02  5.35062E-02  2.99597E-02  1.60623E-02  8.25018E-03  5.91615E-03  1.23119E-02  2.87641E-02  4.96982E-02
   6.86328E-02  7.99322E-02  8.42892E-02  8.50297E-02  8.22041E-02  7.08773E-02  5.10078E-02  3.47108E-02  2.83930E-02  2.48406E-02
   2.19177E-02  1.96396E-02  1.79659E-02  1.67929E-02  1.62654E-02  1.65333E-02  1.71796E-02  1.76342E-02  1.78741E-02  1.79435E-02
   1.78445E-02  1.75585E-02  1.71470E-02  1.70210E-02  1.74722E-02  1.83454E-02  1.95364E-02  2.10856E-02  2.28759E-02  2.47978E-02
   2.67301E-02  2.85034E-02  3.01968E-02  3.19760E-02  3.38180E-02  3.56598E-02  3.75625E-02  3.95792E-02  4.16691E-02  4.38008E-02
   4.60060E-02  4.83039E-02  5.07046E-02  5.31908E-02  5.57590E-02  5.84098E-02  6.11516E-02  6.39959E-02  6.69560E-02  7.00383E-02
   7.32507E-02  7.66070E-02  8.01269E-02  8.38157E-02  8.76746E-02  9.17246E-02  9.59934E-02  1.00505E-01  1.05289E-01  1.10375E-01
   1.15802E-01  1.21608E-01  1.27839E-01  1.34547E-01  1.41794E-01  1.49642E-01  1.58168E-01  1.67451E-01  1.77580E-01  1.88649E-01
   2.00761E-01  2.14023E-01  2.28543E-01  2.44432E-01  2.61796E-01  2.80737E-01  3.01351E-01  3.23723E-01  3.47932E-01  3.74054E-01
   4.02172E-01  4.32385E-01  4.64822E-01  4.99647E-01  5.37049E-01  5.77218E-01  6.20284E-01  6.66222E-01  7.14729E-01  7.65101E-01
   8.16132E-01  8.66075E-01  9.12714E-01  9.53535E-01  9.86020E-01  1.00798E+00  1.01790E+00  1.01518E+00  1.00023E+00  9.74402E-01
   9.39783E-01  8.98846E-01  8.54125E-01  8.07904E-01  7.62026E-01  7.17797E-01  6.76018E-01  6.37065E-01  6.01024E-01  5.67805E-01
   5.37250E-01  5.09188E-01  4.83479E-01  4.60018E-01  4.38734E-01  4.19575E-01  4.02498E-01  3.87461E-01  3.74418E-01  3.63313E-01
   3.54091E-01  3.46687E-01  3.41036E-01  3.37072E-01  3.34735E-01  3.33963E-01  3.34699E-01  3.36886E-01  3.40465E-01  3.45371E-01
   3.51534E-01  3.58870E-01  3.67283E-01  3.76654E-01  3.86844E-01  3.97690E-01  4.09007E-01  4.20586E-01  4.32198E-01  4.43596E-01
   4.54525E-01  4.64727E-01  4.73951E-01  4.81959E-01  4.88542E-01  4.93517E-01  4.96749E-01  4.98145E-01  4.97668E-01  4.95327E-01
   4.91186E-01  4.85355E-01  4.77989E-01  4.69274E-01  4.59425E-01  4.48671E-01  4.37250E-01  4.25395E-01  4.13332E-01  4.01267E-01
   3.89386E-01  3.77847E-01  3.66780E-01  3.56287E-01  3.46443E-01  3.37297E-01  3.28876E-01  3.21185E-01  3.14214E-01  3.07939E-01
   3.02331E-01  2.97348E-01  2.92949E-01  2.89086E-01  2.85714E-01  2.82790E-01  2.80271E-01  2.78116E-01  2.76290E-01  2.74756E-01
   2.73486E-01  2.72451E-01  2.71628E-01  2.70993E-01  2.70528E-01  2.70214E-01  2.70036E-01  2.69982E-01  2.70040E-01  2.70198E-01
   2.70448E-01  2.70779E-01  2.71187E-01  2.71664E-01  2.72204E-01  2.72802E-01  2.73453E-01  2.74153E-01  2.74898E-01  2.75686E-01
   2.76513E-01  2.77374E-01  2.78269E-01  2.79195E-01  2.80150E-01  2.81132E-01  2.82139E-01  2.83169E-01  2.84221E-01  2.85294E-01
   2.86387E-01  2.87498E-01  2.88626E-01  2.89769E-01  2.90928E-01  2.92102E-01  2.93290E-01  2.94490E-01  2.95702E-01  2.96926E-01
   2.98161E-01  2.99406E-01  3.00662E-01  3.01927E-01  3.03200E-01  3.04482E-01  3.05773E-01  3.07071E-01  3.08378E-01  3.09690E-01
   3.11010E-01  3.12335E-01  3.13668E-01  3.15007E-01  3.16352E-01  3.17701E-01  3.19056E-01  3.20416E-01
 NY background values follow
    -4.477E-01   -4.461E-01   -4.446E-01   -4.431E-01   -4.416E-01   -4.400E-01   -4.385E-01   -4.370E-01   -4.355E-01   -4.339E-01
    -4.324E-01   -4.309E-01   -4.293E-01   -4.278E-01   -4.263E-01   -4.248E-01   -4.232E-01   -4.217E-01   -4.202E-01   -4.187E-01
    -4.171E-01   -4.156E-01   -4.141E-01   -4.126E-01   -4.110E-01   -4.095E-01   -4.080E-01   -4.064E-01   -4.049E-01   -4.034E-01
    -4.019E-01   -4.003E-01   -3.988E-01   -3.973E-01   -3.958E-01   -3.942E-01   -3.927E-01   -3.912E-01   -3.897E-01   -3.881E-01
    -3.866E-01   -3.851E-01   -3.835E-01   -3.820E-01   -3.805E-01   -3.790E-01   -3.774E-01   -3.759E-01   -3.744E-01   -3.729E-01
    -3.713E-01   -3.698E-01   -3.683E-01   -3.668E-01   -3.652E-01   -3.637E-01   -3.622E-01   -3.606E-01   -3.591E-01   -3.576E-01
    -3.561E-01   -3.545E-01   -3.530E-01   -3.515E-01   -3.500E-01   -3.484E-01   -3.469E-01   -3.454E-01   -3.439E-01   -3.423E-01
    -3.408E-01   -3.393E-01   -3.377E-01   -3.362E-01   -3.347E-01   -3.332E-01   -3.316E-01   -3.301E-01   -3.286E-01   -3.271E-01
    -3.255E-01   -3.240E-01   -3.225E-01   -3.210E-01   -3.194E-01   -3.179E-01   -3.164E-01   -3.148E-01   -3.133E-01   -3.118E-01
    -3.103E-01   -3.087E-01   -3.072E-01   -3.057E-01   -3.042E-01   -3.026E-01   -3.011E-01   -2.996E-01   -2.981E-01   -2.965E-01
    -2.950E-01   -2.935E-01   -2.920E-01   -2.904E-01   -2.889E-01   -2.874E-01   -2.858E-01   -2.843E-01   -2.828E-01   -2.813E-01
    -2.797E-01   -2.782E-01   -2.767E-01   -2.752E-01   -2.736E-01   -2.721E-01   -2.706E-01   -2.691E-01   -2.675E-01   -2.660E-01
    -2.645E-01   -2.629E-01   -2.614E-01   -2.599E-01   -2.584E-01   -2.568E-01   -2.553E-01   -2.538E-01   -2.523E-01   -2.507E-01
    -2.492E-01   -2.477E-01   -2.462E-01   -2.446E-01   -2.431E-01   -2.416E-01   -2.400E-01   -2.385E-01   -2.370E-01   -2.355E-01
    -2.339E-01   -2.324E-01   -2.309E-01   -2.294E-01   -2.278E-01   -2.263E-01   -2.248E-01   -2.233E-01   -2.217E-01   -2.202E-01
    -2.187E-01   -2.171E-01   -2.156E-01   -2.141E-01   -2.126E-01   -2.110E-01   -2.095E-01   -2.080E-01   -2.065E-01   -2.049E-01
    -2.034E-01   -2.019E-01   -2.004E-01   -1.988E-01   -1.973E-01   -1.958E-01   -1.942E-01   -1.927E-01   -1.912E-01   -1.897E-01
    -1.881E-01   -1.866E-01   -1.851E-01   -1.836E-01   -1.820E-01   -1.805E-01   -1.790E-01   -1.775E-01   -1.759E-01   -1.744E-01
    -1.729E-01   -1.713E-01   -1.698E-01   -1.683E-01   -1.668E-01   -1.652E-01   -1.637E-01   -1.622E-01   -1.607E-01   -1.591E-01
    -1.576E-01   -1.561E-01   -1.546E-01   -1.530E-01   -1.515E-01   -1.500E-01   -1.484E-01   -1.469E-01   -1.454E-01   -1.439E-01
    -1.423E-01   -1.408E-01   -1.393E-01   -1.378E-01   -1.362E-01   -1.347E-01   -1.332E-01   -1.317E-01   -1.301E-01   -1.286E-01
    -1.271E-01   -1.255E-01   -1.240E-01   -1.225E-01   -1.210E-01   -1.194E-01   -1.179E-01   -1.164E-01   -1.149E-01   -1.133E-01
    -1.118E-01   -1.103E-01   -1.088E-01   -1.072E-01   -1.057E-01   -1.042E-01   -1.026E-01   -1.011E-01   -9.959E-02   -9.807E-02
    -9.654E-02   -9.501E-02   -9.349E-02   -9.196E-02   -9.043E-02   -8.891E-02   -8.738E-02   -8.585E-02   -8.433E-02   -8.280E-02
    -8.127E-02   -7.975E-02   -7.822E-02   -7.669E-02   -7.517E-02   -7.364E-02   -7.211E-02   -7.059E-02   -6.906E-02   -6.753E-02
    -6.601E-02   -6.448E-02   -6.295E-02   -6.143E-02   -5.990E-02   -5.837E-02   -5.685E-02   -5.532E-02   -5.379E-02   -5.227E-02
    -5.074E-02   -4.921E-02   -4.769E-02   -4.616E-02   -4.463E-02   -4.311E-02   -4.158E-02   -4.005E-02   -3.853E-02   -3.700E-02
    -3.547E-02   -3.395E-02   -3.242E-02   -3.089E-02   -2.937E-02   -2.784E-02   -2.631E-02   -2.479E-02   -2.326E-02   -2.173E-02
    -2.021E-02   -1.868E-02   -1.715E-02   -1.563E-02   -1.410E-02   -1.257E-02   -1.105E-02   -9.520E-03   -7.994E-03   -6.467E-03
    -4.940E-03   -3.414E-03   -1.887E-03   -3.605E-04    1.166E-03    2.693E-03    4.219E-03    5.746E-03    7.273E-03    8.799E-03
     1.033E-02    1.185E-02    1.338E-02    1.491E-02    1.643E-02    1.796E-02    1.949E-02    2.101E-02    2.254E-02    2.407E-02
     2.559E-02    2.712E-02    2.865E-02    3.017E-02    3.170E-02    3.323E-02    3.475E-02    3.628E-02    3.781E-02    3.933E-02
     4.086E-02    4.238E-02    4.391E-02    4.544E-02    4.696E-02    4.849E-02    5.002E-02    5.154E-02    5.307E-02    5.460E-02
     5.612E-02    5.765E-02    5.918E-02    6.070E-02    6.223E-02    6.376E-02    6.528E-02    6.681E-02    6.834E-02    6.986E-02
     7.139E-02    7.292E-02    7.444E-02    7.597E-02    7.750E-02    7.902E-02    8.055E-02    8.208E-02    8.360E-02    8.513E-02
     8.666E-02    8.818E-02    8.971E-02    9.124E-02    9.276E-02    9.429E-02    9.582E-02    9.734E-02    9.887E-02    1.004E-01
     1.019E-01    1.034E-01    1.050E-01    1.065E-01    1.080E-01    1.096E-01    1.111E-01    1.126E-01    1.141E-01    1.157E-01
     1.172E-01    1.187E-01    1.202E-01    1.218E-01    1.233E-01    1.248E-01    1.263E-01    1.279E-01    1.294E-01    1.309E-01
     1.325E-01    1.340E-01    1.355E-01    1.370E-01    1.386E-01    1.401E-01    1.416E-01    1.431E-01    1.447E-01    1.462E-01
     1.477E-01    1.492E-01    1.508E-01    1.523E-01    1.538E-01    1.554E-01    1.569E-01    1.584E-01    1.599E-01    1.615E-01
     1.630E-01    1.645E-01    1.660E-01    1.676E-01    1.691E-01    1.706E-01    1.721E-01    1.737E-01    1.752E-01    1.767E-01
     1.783E-01    1.798E-01    1.813E-01    1.828E-01    1.844E-01    1.859E-01    1.874E-01    1.889E-01    1.905E-01    1.920E-01
     1.935E-01    1.950E-01    1.966E-01    1.981E-01    1.996E-01    2.011E-01    2.027E-01    2.042E-01    2.057E-01    2.073E-01
     2.088E-01    2.103E-01    2.118E-01    2.134E-01    2.149E-01    2.164E-01    2.179E-01    2.195E-01    2.210E-01    2.225E-01
     2.240E-01    2.256E-01    2.271E-01    2.286E-01    2.302E-01    2.317E-01    2.332E-01    2.347E-01    2.363E-01    2.378E-01
     2.393E-01    2.408E-01    2.424E-01    2.439E-01    2.454E-01    2.469E-01    2.485E-01    2.500E-01    2.515E-01    2.531E-01
     2.546E-01    2.561E-01    2.576E-01    2.592E-01    2.607E-01    2.622E-01    2.637E-01    2.653E-01    2.668E-01    2.683E-01
     2.698E-01    2.714E-01    2.729E-01    2.744E-01    2.760E-01    2.775E-01    2.790E-01    2.805E-01    2.821E-01    2.836E-01
     2.851E-01    2.866E-01    2.882E-01    2.897E-01    2.912E-01    2.927E-01    2.943E-01    2.958E-01    2.973E-01    2.988E-01
     3.004E-01    3.019E-01    3.034E-01    3.050E-01    3.065E-01    3.080E-01    3.095E-01    3.111E-01
 Asp      Conc. = 1.28E+00
