 LCModel (Version 6.3-1L) Copyright: S.W. Provencher.          Ref.: Magn. Reson. Med. 30:672-679 (1993).                
 Slice#1 Row#1 Col#3  PD_05_press_1_raw_act
 36 lines in following concentration table = NCONC+1
    Conc.  %SD /Cr+PCr  Metabolite                                         
    0.000 999%   0.000 Ala                                                 
    2.953 311% 7.4E-02 Asp                                                 
    0.000 999%   0.000 Cr                                                  
   39.906  36%   1.000 PCr                                                 
    2.866 192% 7.2E-02 GABA                                                
    2.981 186% 7.5E-02 Glc                                                 
    0.000 999%   0.000 Gln                                                 
   32.394 122%   0.812 Glu                                                 
    0.000 999%   0.000 GPC                                                 
    4.552  94%   0.114 PCh                                                 
   11.058 130%   0.277 GSH                                                 
    0.000 999%   0.000 Ins                                                 
    0.000 999%   0.000 Lac                                                 
   51.942  34%   1.302 NAA                                                 
    0.000 999%   0.000 NAAG                                                
    1.101 163% 2.8E-02 Scyllo                                              
    6.014 152%   0.151 Tau                                                 
   21.203  65%   0.531 -CrCH2                                              
    4.552  94%   0.114 GPC+PCh                                             
   51.942  34%   1.302 NAA+NAAG                                            
   39.906  36%   1.000 Cr+PCr                                              
   32.394 122%   0.812 Glu+Gln                                             
  486.070  26%  12.180 Lip13a                                              
   75.138  91%   1.883 Lip13b                                              
  135.441  22%   3.394 Lip09                                               
    0.000 999%   0.000 MM09                                                
   81.981  25%   2.054 Lip20                                               
    0.000 999%   0.000 MM20                                                
 2.28E-04 999% 5.7E-06 MM12                                                
 6.19E-04 999% 1.6E-05 MM14                                                
    0.000 999%   0.000 MM17                                                
  561.208  17%  14.063 Lip13a+Lip13b                                       
  561.208  17%  14.063 MM14+Lip13a+Lip13b+MM12                             
  135.441  22%   3.394 MM09+Lip09                                          
   81.981  25%   2.054 MM20+Lip20                                          
   6 lines in following misc. output table
  FWHM = 0.038 ppm    S/N =   1                                            
  Data shift = 0.000 ppm                                                   
  Ph: -11 deg     -50.8 deg/ppm                                            
  alphaB,S = 8.5E+01,   1.3E+01                                            
   14 spline knots.   Ns = 6(1)                                            
   1 inflections.     2 extrema                                            
  498 points on ppm-axis = NY
      4.000000     3.992357     3.984714     3.977070     3.969427     3.961784     3.954141     3.946497     3.938854     3.931211
      3.923568     3.915925     3.908281     3.900638     3.892995     3.885352     3.877708     3.870065     3.862422     3.854779
      3.847136     3.839492     3.831849     3.824206     3.816563     3.808919     3.801276     3.793633     3.785990     3.778347
      3.770703     3.763060     3.755417     3.747774     3.740130     3.732487     3.724844     3.717201     3.709558     3.701914
      3.694271     3.686628     3.678985     3.671341     3.663698     3.656055     3.648412     3.640769     3.633125     3.625482
      3.617839     3.610196     3.602552     3.594909     3.587266     3.579623     3.571980     3.564336     3.556693     3.549050
      3.541407     3.533763     3.526120     3.518477     3.510834     3.503191     3.495547     3.487904     3.480261     3.472618
      3.464974     3.457331     3.449688     3.442045     3.434402     3.426758     3.419115     3.411472     3.403829     3.396185
      3.388542     3.380899     3.373256     3.365613     3.357969     3.350326     3.342683     3.335040     3.327396     3.319753
      3.312110     3.304467     3.296824     3.289180     3.281537     3.273894     3.266251     3.258607     3.250964     3.243321
      3.235678     3.228034     3.220391     3.212748     3.205105     3.197462     3.189818     3.182175     3.174532     3.166889
      3.159245     3.151602     3.143959     3.136316     3.128673     3.121029     3.113386     3.105743     3.098100     3.090456
      3.082813     3.075170     3.067527     3.059884     3.052240     3.044597     3.036954     3.029311     3.021667     3.014024
      3.006381     2.998738     2.991095     2.983451     2.975808     2.968165     2.960522     2.952878     2.945235     2.937592
      2.929949     2.922306     2.914662     2.907019     2.899376     2.891733     2.884089     2.876446     2.868803     2.861160
      2.853517     2.845873     2.838230     2.830587     2.822944     2.815300     2.807657     2.800014     2.792371     2.784728
      2.777084     2.769441     2.761798     2.754155     2.746511     2.738868     2.731225     2.723582     2.715939     2.708295
      2.700652     2.693009     2.685366     2.677722     2.670079     2.662436     2.654793     2.647150     2.639506     2.631863
      2.624220     2.616577     2.608933     2.601290     2.593647     2.586004     2.578361     2.570717     2.563074     2.555431
      2.547788     2.540144     2.532501     2.524858     2.517215     2.509572     2.501928     2.494285     2.486642     2.478999
      2.471355     2.463712     2.456069     2.448426     2.440783     2.433139     2.425496     2.417853     2.410210     2.402566
      2.394923     2.387280     2.379637     2.371994     2.364350     2.356707     2.349064     2.341421     2.333777     2.326134
      2.318491     2.310848     2.303205     2.295561     2.287918     2.280275     2.272632     2.264988     2.257345     2.249702
      2.242059     2.234416     2.226772     2.219129     2.211486     2.203843     2.196199     2.188556     2.180913     2.173270
      2.165627     2.157983     2.150340     2.142697     2.135054     2.127410     2.119767     2.112124     2.104481     2.096838
      2.089194     2.081551     2.073908     2.066265     2.058621     2.050978     2.043335     2.035692     2.028049     2.020405
      2.012762     2.005119     1.997476     1.989833     1.982190     1.974546     1.966903     1.959260     1.951617     1.943974
      1.936331     1.928688     1.921045     1.913402     1.905759     1.898115     1.890472     1.882829     1.875186     1.867543
      1.859900     1.852257     1.844614     1.836971     1.829327     1.821684     1.814041     1.806398     1.798755     1.791112
      1.783469     1.775826     1.768183     1.760540     1.752896     1.745253     1.737610     1.729967     1.722324     1.714681
      1.707038     1.699395     1.691752     1.684108     1.676465     1.668822     1.661179     1.653536     1.645893     1.638250
      1.630607     1.622964     1.615321     1.607677     1.600034     1.592391     1.584748     1.577105     1.569462     1.561819
      1.554176     1.546533     1.538890     1.531246     1.523603     1.515960     1.508317     1.500674     1.493031     1.485388
      1.477745     1.470102     1.462458     1.454815     1.447172     1.439529     1.431886     1.424243     1.416600     1.408957
      1.401314     1.393671     1.386027     1.378384     1.370741     1.363098     1.355455     1.347812     1.340169     1.332526
      1.324883     1.317240     1.309596     1.301953     1.294310     1.286667     1.279024     1.271381     1.263738     1.256095
      1.248452     1.240808     1.233165     1.225522     1.217879     1.210236     1.202593     1.194950     1.187307     1.179664
      1.172021     1.164377     1.156734     1.149091     1.141448     1.133805     1.126162     1.118519     1.110876     1.103233
      1.095590     1.087946     1.080303     1.072660     1.065017     1.057374     1.049731     1.042088     1.034445     1.026802
      1.019158     1.011515     1.003872     0.996229     0.988586     0.980943     0.973300     0.965657     0.958014     0.950371
      0.942727     0.935084     0.927441     0.919798     0.912155     0.904512     0.896869     0.889226     0.881583     0.873940
      0.866296     0.858653     0.851010     0.843367     0.835724     0.828081     0.820438     0.812795     0.805152     0.797508
      0.789865     0.782222     0.774579     0.766936     0.759293     0.751650     0.744007     0.736364     0.728721     0.721077
      0.713434     0.705791     0.698148     0.690505     0.682862     0.675219     0.667576     0.659933     0.652290     0.644646
      0.637003     0.629360     0.621717     0.614074     0.606431     0.598788     0.591145     0.583502     0.575858     0.568215
      0.560572     0.552929     0.545286     0.537643     0.530000     0.522357     0.514714     0.507071     0.499427     0.491784
      0.484141     0.476498     0.468855     0.461212     0.453569     0.445925     0.438282     0.430639     0.422996     0.415353
      0.407710     0.400067     0.392424     0.384780     0.377137     0.369494     0.361851     0.354208     0.346565     0.338922
      0.331278     0.323635     0.315992     0.308349     0.300706     0.293063     0.285420     0.277777     0.270133     0.262490
      0.254847     0.247204     0.239561     0.231918     0.224275     0.216631     0.208988     0.201345
 NY phased data points follow
  -3.75624E+00 -2.59030E+00 -3.20421E+00 -3.84631E+00 -2.84238E+00 -2.09447E+00 -3.32908E+00  2.14992E-01 -1.57387E+00 -4.09681E+00
  -3.23334E+00 -2.80205E+00 -1.56583E+00 -4.23250E-01 -1.18536E+00 -5.44740E+00 -4.77460E+00 -4.75969E+00 -1.65554E+00 -3.88419E+00
  -4.20189E+00 -3.75506E+00 -3.27609E+00 -3.42723E+00 -5.61208E+00 -2.86796E+00 -3.60403E+00 -2.29702E+00 -3.00009E+00 -2.44106E+00
  -2.60982E+00 -2.65531E+00 -3.31084E+00 -9.48618E-01 -3.10486E+00 -1.82801E+00 -3.22916E+00 -2.79187E+00 -5.43874E+00 -5.29127E+00
  -2.02322E+00 -3.46547E+00 -1.28321E+00 -2.31898E+00 -1.99084E+00 -4.36564E+00 -3.22410E+00 -1.19074E+00 -1.16583E+00  2.66673E-01
  -1.83967E+00 -2.55499E+00 -3.25993E+00 -1.88235E+00 -1.89621E+00 -3.72297E+00 -2.88556E+00 -2.87070E+00 -2.71865E+00 -1.79504E+00
  -3.32523E+00 -2.42291E+00 -2.64400E+00 -2.42953E+00 -1.28536E+00 -1.37263E+00 -3.06349E+00 -3.84101E+00 -2.61122E+00 -1.66280E+00
  -3.17971E+00 -1.78310E+00 -2.03362E+00 -5.08923E-01 -1.30671E+00 -5.78917E-01 -1.12195E+00 -3.46671E+00  9.20884E-02 -1.47957E+00
  -3.90658E+00 -1.17619E+00 -2.58435E-01 -2.20740E+00 -1.55889E+00 -1.82747E+00  2.27777E-01 -2.63614E+00  3.24539E-01 -2.88753E+00
  -1.15379E+00 -2.74711E+00 -5.67465E-01 -1.83027E+00 -2.01463E+00 -2.84972E+00 -1.96877E+00 -1.29915E+00 -2.38385E+00 -2.09399E+00
  -1.76890E+00  6.21135E-01 -1.88329E+00 -1.61890E-01 -2.05866E+00 -3.33165E+00  1.45579E-01 -3.38251E-02 -4.16676E-01 -4.41994E-01
  -1.95082E+00 -3.54456E+00  8.62020E-01 -1.94542E+00 -1.53133E+00 -1.67969E+00 -6.16767E-01 -1.91948E+00 -3.56570E-01 -1.55881E+00
  -2.45787E+00 -2.78794E+00  1.58042E-01 -2.15973E+00 -2.90642E-01  1.76978E+00 -9.29843E-01  2.26466E-01  9.75457E-01  9.73862E-01
   8.20460E-01  1.38523E+00  1.77281E+00 -1.16228E+00 -4.80337E-01 -1.12256E+00 -3.20018E+00 -1.03887E+00 -9.82379E-01 -3.01428E+00
  -2.49516E+00 -4.35634E+00 -2.42768E+00 -1.09094E+00  5.40477E-01 -6.88660E-01 -5.61879E-01 -1.67746E+00 -2.59021E+00 -1.78518E+00
  -9.51905E-01 -2.02370E-01 -2.98887E+00 -1.95726E+00 -1.15593E-01 -9.41840E-01  3.34483E-01 -1.96083E+00 -8.90387E-01 -2.97216E+00
   6.56976E-01 -1.68011E+00  1.01054E+00 -9.39609E-01 -7.99936E-02  1.23612E+00 -1.60608E-01 -1.52812E+00 -1.33605E+00  1.53494E+00
   5.87987E-01  1.34575E-01 -2.86294E+00  6.92765E-01 -1.36010E-01  1.77279E-01 -3.33892E-01 -1.67989E+00  1.14310E+00 -1.02338E+00
  -1.97234E+00 -1.06414E+00 -2.90218E+00 -1.23713E+00 -1.55230E+00 -1.53386E+00 -3.50425E+00 -1.30131E+00 -1.12174E+00 -2.12759E+00
   2.22446E+00 -5.02768E-01 -4.69735E-01  1.85679E+00  5.81334E-01 -2.76349E-01  1.09865E+00  1.84893E+00 -9.44000E-01 -3.44975E-01
  -1.10208E+00 -4.62204E+00 -1.56430E+00 -1.20803E+00 -1.17074E+00 -4.38432E+00 -3.28349E+00 -2.45081E+00 -1.40953E+00 -1.44589E+00
  -9.31831E-02 -3.00254E+00 -8.22755E-01 -2.07266E+00 -2.38895E-01 -6.47899E-01 -1.24980E+00 -6.32647E-01  8.96494E-01  1.50573E+00
   1.15955E+00 -8.00382E-01 -3.61364E-01 -2.74583E+00 -2.27148E+00  8.08408E-02  1.24514E+00 -6.61829E-01 -5.03537E-01 -6.53449E-01
   8.95892E-02 -9.79921E-01 -5.34826E-01 -2.90752E+00  1.66245E+00  6.45986E-01  2.60184E-01 -1.82948E+00 -2.13742E+00  2.14631E-01
  -1.36211E+00  3.63203E-01 -7.98241E-01 -2.74185E-01 -1.00914E+00  3.59082E-01 -2.02186E+00 -1.45382E+00 -1.55368E+00 -1.53547E+00
  -1.34899E+00 -9.04883E-01 -2.81042E+00 -2.80824E+00 -2.73045E+00 -3.89288E+00 -3.53913E+00 -7.20565E-01 -2.52539E+00 -2.75170E+00
  -2.95250E-01  6.41267E-01  6.73956E-01  3.25214E+00  2.83970E+00  6.17255E-01  1.74973E+00  3.02297E+00  1.70073E+00  1.31360E-01
  -2.57878E-02 -1.19091E+00  8.70799E-01  3.57105E+00 -6.69997E-01 -1.08700E+00  3.22911E+00  2.44148E+00  1.57751E+00 -1.35107E+00
  -1.02201E-02 -8.24941E-01 -1.33701E+00 -1.87781E+00  1.74262E+00 -9.13325E-01 -9.98714E-01  5.32469E-01 -3.82911E-01  1.01046E+00
  -5.49559E-03  2.58595E+00  2.66492E+00 -2.40793E-01  1.53535E+00 -2.06180E-01 -1.97253E+00  2.22436E+00  2.56610E-01  6.68589E-02
   7.99683E-01 -2.42946E+00 -1.10996E+00  1.02177E+00  1.76680E+00 -9.50166E-01  3.03378E-01  5.03102E-01 -5.24553E-01 -1.71960E+00
  -7.15951E-01  1.37468E+00 -1.31898E+00 -2.34420E+00 -2.71158E+00 -9.95573E-01 -1.22202E+00  1.35259E+00 -2.27258E+00  1.20082E+00
  -1.67213E-01 -2.22880E+00 -8.87891E-01 -1.91331E+00  5.66592E-02  2.04975E-01  1.35885E+00 -8.80945E-01 -2.63492E+00  9.67477E-01
  -7.13533E-01  1.99824E+00  9.55374E-02  1.97445E+00 -1.15983E+00  2.49046E+00  7.35577E-01  2.27950E+00  1.30029E+00  1.44026E+00
  -3.67657E-02 -2.07511E-01  3.39440E+00  1.62512E+00  6.56854E-01  6.95088E-01  3.08494E+00  3.80796E+00  7.73338E-01  3.16431E+00
   2.29199E+00  3.75641E+00  3.46111E+00  4.42626E+00  2.51612E+00  5.04304E+00  3.50548E+00  1.81432E+00  4.44160E+00  3.06459E+00
   3.22288E+00 -5.14063E-01  3.49398E+00  2.66866E+00  1.24946E+00  4.75179E-01  3.35281E-01  3.18320E+00  9.76633E-01  2.25156E+00
   2.12183E+00  1.81376E+00  2.11621E+00  2.02980E+00  3.08253E+00  1.58989E+00  5.05018E+00  1.71168E+00  2.18615E+00  3.27334E+00
   9.15561E-01  2.68770E+00  2.40030E+00 -2.38073E-01  1.70336E+00  1.36505E+00  1.89219E+00  6.28969E-01  2.47939E+00  2.20549E+00
  -3.48082E-01 -4.50737E-02  8.33696E-01  9.63985E-01  1.67014E+00  1.74442E+00 -3.42503E-02  1.71883E+00  2.93786E+00  1.97625E+00
   5.75217E-01 -1.51875E+00 -6.55703E-02  1.66138E+00 -4.79790E-01 -6.27387E-01  2.69852E+00  9.00024E-01  1.27413E+00  5.23179E-01
  -2.55599E-02 -1.72010E+00  1.55088E+00  8.34509E-01 -1.13608E+00  2.49543E-01 -1.39497E+00  1.06987E+00  2.32545E-01  1.42751E-01
  -6.41052E-01 -8.29708E-01  7.48001E-01 -8.63315E-01 -5.97391E-01  7.67139E-01  6.97664E-01 -1.89942E+00  7.58422E-01 -4.33009E-01
  -1.26173E+00 -1.51851E+00 -5.07698E-01  2.42240E+00  8.24577E-01  1.08699E+00  1.06100E+00  1.61456E+00 -4.24949E-01 -2.14239E+00
   2.53111E+00  4.83174E-01  6.97551E-01  1.44582E+00  1.76523E+00  1.23277E+00  5.86515E-02  1.13366E-01  1.39513E+00  3.34850E-01
   9.11215E-01  2.59337E+00  1.05634E-02  3.55323E-02 -7.08338E-01  8.82462E-01  2.12381E-01  7.49347E-01 -2.36273E-01  1.53607E+00
   1.60645E+00  4.80994E-01 -6.40996E-02  1.85290E+00  2.52140E+00  1.23411E+00  9.65284E-01 -9.26142E-01 -7.54599E-02  1.96572E+00
   5.33351E-01  2.12304E+00  1.69320E+00 -5.77805E-01  1.03158E+00 -1.27489E+00  1.76808E+00  2.22813E+00  5.46052E-01  1.60900E+00
  -6.07969E-01  1.47796E+00  2.39785E+00 -1.65421E+00 -3.56509E-01  2.89093E+00  2.39885E+00 -2.58504E-01 -2.47269E+00  1.18455E+00
   6.06780E-01 -1.18903E+00 -2.34687E+00  4.15057E-01  1.01174E+00  1.83440E+00  1.67436E+00  1.58036E+00
 NY points of the fit to the data follow
  -2.42684E+00 -2.44782E+00 -2.57299E+00 -2.72026E+00 -2.69557E+00 -2.54891E+00 -2.35696E+00 -2.16026E+00 -1.97904E+00 -1.81228E+00
  -1.65592E+00 -1.55706E+00 -1.57208E+00 -1.71913E+00 -1.97067E+00 -2.23549E+00 -2.33383E+00 -2.29985E+00 -2.28499E+00 -2.27504E+00
  -2.27004E+00 -2.26436E+00 -2.24352E+00 -2.23367E+00 -2.28836E+00 -2.34944E+00 -2.36082E+00 -2.32942E+00 -2.26837E+00 -2.17601E+00
  -2.05155E+00 -1.90915E+00 -1.76858E+00 -1.65579E+00 -1.61057E+00 -1.65580E+00 -1.79507E+00 -1.96151E+00 -2.06693E+00 -2.13177E+00
  -2.17848E+00 -2.19139E+00 -2.16265E+00 -2.11170E+00 -2.06607E+00 -2.03346E+00 -2.02484E+00 -2.03943E+00 -2.05283E+00 -2.05668E+00
  -2.05416E+00 -2.04856E+00 -2.03974E+00 -2.03025E+00 -2.02136E+00 -2.01248E+00 -2.00407E+00 -1.99647E+00 -1.99026E+00 -1.98758E+00
  -1.98766E+00 -1.98688E+00 -1.98124E+00 -1.97277E+00 -1.96021E+00 -1.94451E+00 -1.93093E+00 -1.92076E+00 -1.91249E+00 -1.91207E+00
  -1.92063E+00 -1.92504E+00 -1.91953E+00 -1.90515E+00 -1.88231E+00 -1.85647E+00 -1.83626E+00 -1.81919E+00 -1.80710E+00 -1.80647E+00
  -1.82786E+00 -1.86122E+00 -1.88294E+00 -1.87708E+00 -1.84327E+00 -1.79770E+00 -1.75281E+00 -1.71025E+00 -1.67052E+00 -1.64080E+00
  -1.62849E+00 -1.63923E+00 -1.67685E+00 -1.72926E+00 -1.76151E+00 -1.77221E+00 -1.79080E+00 -1.87426E+00 -2.00527E+00 -2.04424E+00
  -1.95416E+00 -1.77958E+00 -1.57652E+00 -1.38055E+00 -1.20163E+00 -1.03786E+00 -9.06643E-01 -8.52832E-01 -9.19055E-01 -1.10686E+00
  -1.35404E+00 -1.52506E+00 -1.57183E+00 -1.58162E+00 -1.58247E+00 -1.58123E+00 -1.57920E+00 -1.57948E+00 -1.59094E+00 -1.65696E+00
  -1.94947E+00 -2.35911E+00 -2.48649E+00 -2.26497E+00 -1.81629E+00 -1.26509E+00 -7.03767E-01 -1.65234E-01  3.43285E-01  7.48862E-01
   9.00030E-01  6.88513E-01  1.19735E-01 -6.12326E-01 -1.09395E+00 -1.23925E+00 -1.30774E+00 -1.36289E+00 -1.41036E+00 -1.44775E+00
  -1.46534E+00 -1.44461E+00 -1.38469E+00 -1.31408E+00 -1.25152E+00 -1.20959E+00 -1.19588E+00 -1.20077E+00 -1.21165E+00 -1.21962E+00
  -1.22034E+00 -1.22077E+00 -1.22164E+00 -1.22152E+00 -1.21670E+00 -1.19988E+00 -1.17754E+00 -1.16393E+00 -1.16495E+00 -1.18248E+00
  -1.20101E+00 -1.20659E+00 -1.20548E+00 -1.20549E+00 -1.20494E+00 -1.19785E+00 -1.17917E+00 -1.14916E+00 -1.11977E+00 -1.11009E+00
  -1.11737E+00 -1.13223E+00 -1.16165E+00 -1.18976E+00 -1.20948E+00 -1.21723E+00 -1.21549E+00 -1.22008E+00 -1.23370E+00 -1.24318E+00
  -1.23548E+00 -1.20588E+00 -1.17427E+00 -1.17258E+00 -1.20839E+00 -1.26138E+00 -1.29217E+00 -1.28574E+00 -1.25082E+00 -1.20877E+00
  -1.16235E+00 -1.09868E+00 -1.01008E+00 -9.23774E-01 -8.70828E-01 -8.66426E-01 -8.98094E-01 -9.42790E-01 -9.95259E-01 -1.03594E+00
  -1.05172E+00 -1.03819E+00 -1.00177E+00 -9.51664E-01 -8.84880E-01 -8.15033E-01 -7.64339E-01 -7.28357E-01 -7.22848E-01 -7.71583E-01
  -8.82521E-01 -9.87301E-01 -1.02379E+00 -9.95510E-01 -9.21657E-01 -8.18175E-01 -6.81097E-01 -5.35465E-01 -4.50510E-01 -4.59182E-01
  -5.51101E-01 -7.12366E-01 -8.99742E-01 -1.05071E+00 -1.11007E+00 -1.08305E+00 -9.88093E-01 -8.51649E-01 -7.03478E-01 -5.83291E-01
  -5.36745E-01 -5.64551E-01 -6.15204E-01 -6.41501E-01 -6.33599E-01 -5.91948E-01 -5.29026E-01 -4.53049E-01 -3.90831E-01 -3.77783E-01
  -4.18402E-01 -4.84828E-01 -5.61707E-01 -6.30636E-01 -6.64610E-01 -6.43956E-01 -5.74229E-01 -4.88986E-01 -4.14693E-01 -3.63074E-01
  -3.39080E-01 -3.53264E-01 -3.94251E-01 -4.81279E-01 -7.97306E-01 -1.35984E+00 -1.62490E+00 -1.41088E+00 -8.68909E-01 -1.70927E-01
   5.52717E-01  1.25029E+00  1.92430E+00  2.48766E+00  2.74279E+00  2.53526E+00  1.83683E+00  8.42559E-01  6.82347E-02 -1.98359E-01
  -2.89785E-01 -3.40193E-01 -3.66401E-01 -3.79284E-01 -3.84443E-01 -3.78107E-01 -3.63421E-01 -3.46169E-01 -3.31545E-01 -3.23576E-01
  -3.25128E-01 -3.32650E-01 -3.40732E-01 -3.47571E-01 -3.51711E-01 -3.51661E-01 -3.47717E-01 -3.40814E-01 -3.32140E-01 -3.23381E-01
  -3.14830E-01 -3.06891E-01 -3.00014E-01 -2.93738E-01 -2.87244E-01 -2.80427E-01 -2.73558E-01 -2.66493E-01 -2.58938E-01 -2.50970E-01
  -2.42599E-01 -2.33665E-01 -2.24384E-01 -2.14857E-01 -2.05105E-01 -1.95094E-01 -1.84768E-01 -1.74106E-01 -1.63136E-01 -1.51903E-01
  -1.40391E-01 -1.28456E-01 -1.15984E-01 -1.02944E-01 -8.93330E-02 -7.51418E-02 -6.03052E-02 -4.47118E-02 -2.82448E-02 -1.08148E-02
   7.65651E-03  2.72789E-02  4.82152E-02  7.06651E-02  9.48338E-02  1.20918E-01  1.49131E-01  1.79739E-01  2.13067E-01  2.49462E-01
   2.89267E-01  3.32820E-01  3.80478E-01  4.32633E-01  4.89693E-01  5.52043E-01  6.20033E-01  6.94005E-01  7.74358E-01  8.61610E-01
   9.56461E-01  1.05986E+00  1.17310E+00  1.29786E+00  1.43617E+00  1.59011E+00  1.76134E+00  1.95032E+00  2.15554E+00  2.37273E+00
   2.59445E+00  2.81014E+00  3.00694E+00  3.17117E+00  3.29034E+00  3.35525E+00  3.36157E+00  3.31056E+00  3.20884E+00  3.06705E+00
   2.89806E+00  2.71490E+00  2.52902E+00  2.34913E+00  2.18080E+00  2.02672E+00  1.88738E+00  1.76187E+00  1.64864E+00  1.54604E+00
   1.45265E+00  1.36746E+00  1.28983E+00  1.21945E+00  1.15616E+00  1.09988E+00  1.05054E+00  1.00805E+00  9.72281E-01  9.43069E-01
   9.20188E-01  9.03355E-01  8.92267E-01  8.86618E-01  8.86103E-01  8.90397E-01  8.99143E-01  9.11954E-01  9.28432E-01  9.48169E-01
   9.70727E-01  9.95618E-01  1.02230E+00  1.05018E+00  1.07866E+00  1.10712E+00  1.13493E+00  1.16143E+00  1.18597E+00  1.20794E+00
   1.22682E+00  1.24213E+00  1.25349E+00  1.26062E+00  1.26333E+00  1.26157E+00  1.25541E+00  1.24505E+00  1.23078E+00  1.21296E+00
   1.19202E+00  1.16847E+00  1.14287E+00  1.11576E+00  1.08767E+00  1.05911E+00  1.03055E+00  1.00242E+00  9.75107E-01  9.48914E-01
   9.24072E-01  9.00753E-01  8.79085E-01  8.59157E-01  8.41006E-01  8.24615E-01  8.09932E-01  7.96888E-01  7.85412E-01  7.75426E-01
   7.66832E-01  7.59515E-01  7.53363E-01  7.48279E-01  7.44181E-01  7.40989E-01  7.38616E-01  7.36971E-01  7.35979E-01  7.35583E-01
   7.35741E-01  7.36403E-01  7.37512E-01  7.39017E-01  7.40879E-01  7.43077E-01  7.45592E-01  7.48392E-01  7.51444E-01  7.54716E-01
   7.58196E-01  7.61878E-01  7.65753E-01  7.69797E-01  7.73987E-01  7.78308E-01  7.82761E-01  7.87348E-01  7.92057E-01  7.96871E-01
   8.01772E-01  8.06759E-01  8.11837E-01  8.17007E-01  8.22258E-01  8.27571E-01  8.32941E-01  8.38372E-01  8.43871E-01  8.49435E-01
   8.55051E-01  8.60706E-01  8.66399E-01  8.72141E-01  8.77935E-01  8.83775E-01  8.89647E-01  8.95544E-01  9.01473E-01  9.07441E-01
   9.13450E-01  9.19489E-01  9.25547E-01  9.31623E-01  9.37726E-01  9.43863E-01  9.50031E-01  9.56216E-01  9.62413E-01  9.68625E-01
   9.74863E-01  9.81129E-01  9.87416E-01  9.93712E-01  1.00002E+00  1.00633E+00  1.01268E+00  1.01904E+00
 NY background values follow
    -2.422E+00   -2.415E+00   -2.408E+00   -2.401E+00   -2.394E+00   -2.387E+00   -2.380E+00   -2.374E+00   -2.367E+00   -2.360E+00
    -2.353E+00   -2.346E+00   -2.339E+00   -2.332E+00   -2.325E+00   -2.319E+00   -2.312E+00   -2.305E+00   -2.298E+00   -2.291E+00
    -2.284E+00   -2.277E+00   -2.271E+00   -2.264E+00   -2.257E+00   -2.250E+00   -2.243E+00   -2.236E+00   -2.229E+00   -2.223E+00
    -2.216E+00   -2.209E+00   -2.202E+00   -2.195E+00   -2.188E+00   -2.181E+00   -2.174E+00   -2.168E+00   -2.161E+00   -2.154E+00
    -2.147E+00   -2.140E+00   -2.133E+00   -2.126E+00   -2.120E+00   -2.113E+00   -2.106E+00   -2.099E+00   -2.092E+00   -2.085E+00
    -2.078E+00   -2.071E+00   -2.065E+00   -2.058E+00   -2.051E+00   -2.044E+00   -2.037E+00   -2.030E+00   -2.023E+00   -2.017E+00
    -2.010E+00   -2.003E+00   -1.996E+00   -1.989E+00   -1.982E+00   -1.975E+00   -1.968E+00   -1.962E+00   -1.955E+00   -1.948E+00
    -1.941E+00   -1.934E+00   -1.927E+00   -1.920E+00   -1.914E+00   -1.907E+00   -1.900E+00   -1.893E+00   -1.886E+00   -1.879E+00
    -1.872E+00   -1.866E+00   -1.859E+00   -1.852E+00   -1.845E+00   -1.838E+00   -1.831E+00   -1.824E+00   -1.817E+00   -1.811E+00
    -1.804E+00   -1.797E+00   -1.790E+00   -1.783E+00   -1.776E+00   -1.769E+00   -1.763E+00   -1.756E+00   -1.749E+00   -1.742E+00
    -1.735E+00   -1.728E+00   -1.721E+00   -1.714E+00   -1.708E+00   -1.701E+00   -1.694E+00   -1.687E+00   -1.680E+00   -1.673E+00
    -1.666E+00   -1.660E+00   -1.653E+00   -1.646E+00   -1.639E+00   -1.632E+00   -1.625E+00   -1.618E+00   -1.612E+00   -1.605E+00
    -1.598E+00   -1.591E+00   -1.584E+00   -1.577E+00   -1.570E+00   -1.563E+00   -1.557E+00   -1.550E+00   -1.543E+00   -1.536E+00
    -1.529E+00   -1.522E+00   -1.515E+00   -1.509E+00   -1.502E+00   -1.495E+00   -1.488E+00   -1.481E+00   -1.474E+00   -1.467E+00
    -1.460E+00   -1.454E+00   -1.447E+00   -1.440E+00   -1.433E+00   -1.426E+00   -1.419E+00   -1.412E+00   -1.406E+00   -1.399E+00
    -1.392E+00   -1.385E+00   -1.378E+00   -1.371E+00   -1.364E+00   -1.358E+00   -1.351E+00   -1.344E+00   -1.337E+00   -1.330E+00
    -1.323E+00   -1.316E+00   -1.309E+00   -1.303E+00   -1.296E+00   -1.289E+00   -1.282E+00   -1.275E+00   -1.268E+00   -1.261E+00
    -1.255E+00   -1.248E+00   -1.241E+00   -1.234E+00   -1.227E+00   -1.220E+00   -1.213E+00   -1.206E+00   -1.200E+00   -1.193E+00
    -1.186E+00   -1.179E+00   -1.172E+00   -1.165E+00   -1.158E+00   -1.152E+00   -1.145E+00   -1.138E+00   -1.131E+00   -1.124E+00
    -1.117E+00   -1.110E+00   -1.104E+00   -1.097E+00   -1.090E+00   -1.083E+00   -1.076E+00   -1.069E+00   -1.062E+00   -1.055E+00
    -1.049E+00   -1.042E+00   -1.035E+00   -1.028E+00   -1.021E+00   -1.014E+00   -1.007E+00   -1.001E+00   -9.937E-01   -9.868E-01
    -9.800E-01   -9.731E-01   -9.662E-01   -9.594E-01   -9.525E-01   -9.456E-01   -9.388E-01   -9.319E-01   -9.250E-01   -9.182E-01
    -9.113E-01   -9.044E-01   -8.976E-01   -8.907E-01   -8.839E-01   -8.770E-01   -8.701E-01   -8.633E-01   -8.564E-01   -8.495E-01
    -8.427E-01   -8.358E-01   -8.289E-01   -8.221E-01   -8.152E-01   -8.083E-01   -8.015E-01   -7.946E-01   -7.877E-01   -7.809E-01
    -7.740E-01   -7.672E-01   -7.603E-01   -7.534E-01   -7.466E-01   -7.397E-01   -7.328E-01   -7.260E-01   -7.191E-01   -7.122E-01
    -7.054E-01   -6.985E-01   -6.916E-01   -6.848E-01   -6.779E-01   -6.711E-01   -6.642E-01   -6.573E-01   -6.505E-01   -6.436E-01
    -6.367E-01   -6.299E-01   -6.230E-01   -6.161E-01   -6.093E-01   -6.024E-01   -5.955E-01   -5.887E-01   -5.818E-01   -5.749E-01
    -5.681E-01   -5.612E-01   -5.544E-01   -5.475E-01   -5.406E-01   -5.338E-01   -5.269E-01   -5.200E-01   -5.132E-01   -5.063E-01
    -4.994E-01   -4.926E-01   -4.857E-01   -4.788E-01   -4.720E-01   -4.651E-01   -4.583E-01   -4.514E-01   -4.445E-01   -4.377E-01
    -4.308E-01   -4.239E-01   -4.171E-01   -4.102E-01   -4.033E-01   -3.965E-01   -3.896E-01   -3.827E-01   -3.759E-01   -3.690E-01
    -3.622E-01   -3.553E-01   -3.484E-01   -3.416E-01   -3.347E-01   -3.278E-01   -3.210E-01   -3.141E-01   -3.072E-01   -3.004E-01
    -2.935E-01   -2.866E-01   -2.798E-01   -2.729E-01   -2.661E-01   -2.592E-01   -2.523E-01   -2.455E-01   -2.386E-01   -2.317E-01
    -2.249E-01   -2.180E-01   -2.111E-01   -2.043E-01   -1.974E-01   -1.906E-01   -1.837E-01   -1.768E-01   -1.700E-01   -1.631E-01
    -1.562E-01   -1.494E-01   -1.425E-01   -1.356E-01   -1.288E-01   -1.219E-01   -1.150E-01   -1.082E-01   -1.013E-01   -9.445E-02
    -8.759E-02   -8.073E-02   -7.386E-02   -6.700E-02   -6.013E-02   -5.327E-02   -4.640E-02   -3.954E-02   -3.268E-02   -2.581E-02
    -1.895E-02   -1.208E-02   -5.220E-03    1.644E-03    8.508E-03    1.537E-02    2.224E-02    2.910E-02    3.596E-02    4.283E-02
     4.969E-02    5.656E-02    6.342E-02    7.028E-02    7.715E-02    8.401E-02    9.088E-02    9.774E-02    1.046E-01    1.115E-01
     1.183E-01    1.252E-01    1.321E-01    1.389E-01    1.458E-01    1.527E-01    1.595E-01    1.664E-01    1.732E-01    1.801E-01
     1.870E-01    1.938E-01    2.007E-01    2.076E-01    2.144E-01    2.213E-01    2.282E-01    2.350E-01    2.419E-01    2.487E-01
     2.556E-01    2.625E-01    2.693E-01    2.762E-01    2.831E-01    2.899E-01    2.968E-01    3.037E-01    3.105E-01    3.174E-01
     3.243E-01    3.311E-01    3.380E-01    3.448E-01    3.517E-01    3.586E-01    3.654E-01    3.723E-01    3.792E-01    3.860E-01
     3.929E-01    3.998E-01    4.066E-01    4.135E-01    4.203E-01    4.272E-01    4.341E-01    4.409E-01    4.478E-01    4.547E-01
     4.615E-01    4.684E-01    4.753E-01    4.821E-01    4.890E-01    4.958E-01    5.027E-01    5.096E-01    5.164E-01    5.233E-01
     5.302E-01    5.370E-01    5.439E-01    5.508E-01    5.576E-01    5.645E-01    5.714E-01    5.782E-01    5.851E-01    5.919E-01
     5.988E-01    6.057E-01    6.125E-01    6.194E-01    6.263E-01    6.331E-01    6.400E-01    6.469E-01    6.537E-01    6.606E-01
     6.674E-01    6.743E-01    6.812E-01    6.880E-01    6.949E-01    7.018E-01    7.086E-01    7.155E-01    7.224E-01    7.292E-01
     7.361E-01    7.429E-01    7.498E-01    7.567E-01    7.635E-01    7.704E-01    7.773E-01    7.841E-01    7.910E-01    7.979E-01
     8.047E-01    8.116E-01    8.185E-01    8.253E-01    8.322E-01    8.390E-01    8.459E-01    8.528E-01    8.596E-01    8.665E-01
     8.734E-01    8.802E-01    8.871E-01    8.940E-01    9.008E-01    9.077E-01    9.145E-01    9.214E-01    9.283E-01    9.351E-01
     9.420E-01    9.489E-01    9.557E-01    9.626E-01    9.695E-01    9.763E-01    9.832E-01    9.900E-01
 Asp      Conc. = 2.95E+00
