 LCModel (Version 6.3-1L) Copyright: S.W. Provencher.          Ref.: Magn. Reson. Med. 30:672-679 (1993).                
 Slice#1 Row#1 Col#2  PD_05_press_1_raw_act
 36 lines in following concentration table = NCONC+1
    Conc.  %SD /Cr+PCr  Metabolite                                         
    2.968 753% 9.9E-02 Ala                                                 
    4.941  82%   0.165 Asp                                                 
   28.224 112%   0.943 Cr                                                  
    1.702 999% 5.7E-02 PCr                                                 
    3.019  80%   0.101 GABA                                                
    3.013  81%   0.101 Glc                                                 
   22.923 189%   0.766 Gln                                                 
    0.000 999%   0.000 Glu                                                 
    5.416  88%   0.181 GPC                                                 
    0.000 999%   0.000 PCh                                                 
    0.000 999%   0.000 GSH                                                 
   53.036  98%   1.772 Ins                                                 
    0.000 999%   0.000 Lac                                                 
   33.064  47%   1.105 NAA                                                 
   23.642  69%   0.790 NAAG                                                
    1.096  74% 3.7E-02 Scyllo                                              
    5.379  75%   0.180 Tau                                                 
    1.587 272% 5.3E-02 -CrCH2                                              
    5.416  88%   0.181 GPC+PCh                                             
   56.707  32%   1.895 NAA+NAAG                                            
   29.925  45%   1.000 Cr+PCr                                              
   22.923 189%   0.766 Glu+Gln                                             
  891.530  11%  29.792 Lip13a                                              
    0.000 999%   0.000 Lip13b                                              
    0.000 999%   0.000 Lip09                                               
    0.000 999%   0.000 MM09                                                
   56.575 102%   1.891 Lip20                                               
    0.000 999%   0.000 MM20                                                
 1.02E-04 999% 3.4E-06 MM12                                                
 3.34E-03 999% 1.1E-04 MM14                                                
    0.000 999%   0.000 MM17                                                
  891.530  11%  29.792 Lip13a+Lip13b                                       
  891.533  11%  29.792 MM14+Lip13a+Lip13b+MM12                             
    0.000 999%   0.000 MM09+Lip09                                          
   56.575 102%   1.891 MM20+Lip20                                          
   6 lines in following misc. output table
  FWHM = 0.038 ppm    S/N =   2                                            
  Data shift = 0.023 ppm                                                   
  Ph:  98 deg      20.2 deg/ppm                                            
  alphaB,S = 8.5E+01,   1.3E+01                                            
   14 spline knots.   Ns = 5(1)                                            
   2 inflections.     1 extrema                                            
  498 points on ppm-axis = NY
      4.000000     3.992357     3.984714     3.977070     3.969427     3.961784     3.954141     3.946497     3.938854     3.931211
      3.923568     3.915925     3.908281     3.900638     3.892995     3.885352     3.877708     3.870065     3.862422     3.854779
      3.847136     3.839492     3.831849     3.824206     3.816563     3.808919     3.801276     3.793633     3.785990     3.778347
      3.770703     3.763060     3.755417     3.747774     3.740130     3.732487     3.724844     3.717201     3.709558     3.701914
      3.694271     3.686628     3.678985     3.671341     3.663698     3.656055     3.648412     3.640769     3.633125     3.625482
      3.617839     3.610196     3.602552     3.594909     3.587266     3.579623     3.571980     3.564336     3.556693     3.549050
      3.541407     3.533763     3.526120     3.518477     3.510834     3.503191     3.495547     3.487904     3.480261     3.472618
      3.464974     3.457331     3.449688     3.442045     3.434402     3.426758     3.419115     3.411472     3.403829     3.396185
      3.388542     3.380899     3.373256     3.365613     3.357969     3.350326     3.342683     3.335040     3.327396     3.319753
      3.312110     3.304467     3.296824     3.289180     3.281537     3.273894     3.266251     3.258607     3.250964     3.243321
      3.235678     3.228034     3.220391     3.212748     3.205105     3.197462     3.189818     3.182175     3.174532     3.166889
      3.159245     3.151602     3.143959     3.136316     3.128673     3.121029     3.113386     3.105743     3.098100     3.090456
      3.082813     3.075170     3.067527     3.059884     3.052240     3.044597     3.036954     3.029311     3.021667     3.014024
      3.006381     2.998738     2.991095     2.983451     2.975808     2.968165     2.960522     2.952878     2.945235     2.937592
      2.929949     2.922306     2.914662     2.907019     2.899376     2.891733     2.884089     2.876446     2.868803     2.861160
      2.853517     2.845873     2.838230     2.830587     2.822944     2.815300     2.807657     2.800014     2.792371     2.784728
      2.777084     2.769441     2.761798     2.754155     2.746511     2.738868     2.731225     2.723582     2.715939     2.708295
      2.700652     2.693009     2.685366     2.677722     2.670079     2.662436     2.654793     2.647150     2.639506     2.631863
      2.624220     2.616577     2.608933     2.601290     2.593647     2.586004     2.578361     2.570717     2.563074     2.555431
      2.547788     2.540144     2.532501     2.524858     2.517215     2.509572     2.501928     2.494285     2.486642     2.478999
      2.471355     2.463712     2.456069     2.448426     2.440783     2.433139     2.425496     2.417853     2.410210     2.402566
      2.394923     2.387280     2.379637     2.371994     2.364350     2.356707     2.349064     2.341421     2.333777     2.326134
      2.318491     2.310848     2.303205     2.295561     2.287918     2.280275     2.272632     2.264988     2.257345     2.249702
      2.242059     2.234416     2.226772     2.219129     2.211486     2.203843     2.196199     2.188556     2.180913     2.173270
      2.165627     2.157983     2.150340     2.142697     2.135054     2.127410     2.119767     2.112124     2.104481     2.096838
      2.089194     2.081551     2.073908     2.066265     2.058621     2.050978     2.043335     2.035692     2.028049     2.020405
      2.012762     2.005119     1.997476     1.989833     1.982190     1.974546     1.966903     1.959260     1.951617     1.943974
      1.936331     1.928688     1.921045     1.913402     1.905759     1.898115     1.890472     1.882829     1.875186     1.867543
      1.859900     1.852257     1.844614     1.836971     1.829327     1.821684     1.814041     1.806398     1.798755     1.791112
      1.783469     1.775826     1.768183     1.760540     1.752896     1.745253     1.737610     1.729967     1.722324     1.714681
      1.707038     1.699395     1.691752     1.684108     1.676465     1.668822     1.661179     1.653536     1.645893     1.638250
      1.630607     1.622964     1.615321     1.607677     1.600034     1.592391     1.584748     1.577105     1.569462     1.561819
      1.554176     1.546533     1.538890     1.531246     1.523603     1.515960     1.508317     1.500674     1.493031     1.485388
      1.477745     1.470102     1.462458     1.454815     1.447172     1.439529     1.431886     1.424243     1.416600     1.408957
      1.401314     1.393671     1.386027     1.378384     1.370741     1.363098     1.355455     1.347812     1.340169     1.332526
      1.324883     1.317240     1.309596     1.301953     1.294310     1.286667     1.279024     1.271381     1.263738     1.256095
      1.248452     1.240808     1.233165     1.225522     1.217879     1.210236     1.202593     1.194950     1.187307     1.179664
      1.172021     1.164377     1.156734     1.149091     1.141448     1.133805     1.126162     1.118519     1.110876     1.103233
      1.095590     1.087946     1.080303     1.072660     1.065017     1.057374     1.049731     1.042088     1.034445     1.026802
      1.019158     1.011515     1.003872     0.996229     0.988586     0.980943     0.973300     0.965657     0.958014     0.950371
      0.942727     0.935084     0.927441     0.919798     0.912155     0.904512     0.896869     0.889226     0.881583     0.873940
      0.866296     0.858653     0.851010     0.843367     0.835724     0.828081     0.820438     0.812795     0.805152     0.797508
      0.789865     0.782222     0.774579     0.766936     0.759293     0.751650     0.744007     0.736364     0.728721     0.721077
      0.713434     0.705791     0.698148     0.690505     0.682862     0.675219     0.667576     0.659933     0.652290     0.644646
      0.637003     0.629360     0.621717     0.614074     0.606431     0.598788     0.591145     0.583502     0.575858     0.568215
      0.560572     0.552929     0.545286     0.537643     0.530000     0.522357     0.514714     0.507071     0.499427     0.491784
      0.484141     0.476498     0.468855     0.461212     0.453569     0.445925     0.438282     0.430639     0.422996     0.415353
      0.407710     0.400067     0.392424     0.384780     0.377137     0.369494     0.361851     0.354208     0.346565     0.338922
      0.331278     0.323635     0.315992     0.308349     0.300706     0.293063     0.285420     0.277777     0.270133     0.262490
      0.254847     0.247204     0.239561     0.231918     0.224275     0.216631     0.208988     0.201345
 NY phased data points follow
   1.03679E+00  8.65839E-01  1.68183E+00 -5.81705E-01  3.02769E+00  3.28843E+00  1.46453E+00  2.34577E-01  1.13143E+00  1.31733E+00
   1.70167E+00  3.80113E+00  1.93577E+00  6.99178E-02  2.73009E-01  4.65979E-01  2.46770E+00  1.40482E+00  1.11545E+00 -1.02807E+00
   1.30412E+00 -1.43844E+00 -1.65016E-01  2.13619E-02 -1.72478E+00 -5.60884E-01  4.08560E-01 -1.02200E+00 -1.21364E+00 -5.73779E-01
   5.09835E-01  9.17612E-01  1.00544E+00  2.34259E+00 -5.10983E-01  1.78898E+00 -1.45029E+00  1.12684E+00 -1.18455E+00  1.76555E+00
   7.83129E-01  1.41705E+00  8.10217E-01 -1.70430E+00  1.39114E+00  5.91057E-01  2.19096E-01  1.07292E+00  6.59394E-01 -7.88161E-01
  -7.67234E-01  2.92948E-01 -1.78289E-01 -4.97067E-01 -7.09665E-01 -5.38747E-01 -3.00544E-01 -6.13393E-03 -5.06116E-02  6.20112E-01
   2.88925E-01  9.90742E-01  1.64490E+00  1.23595E+00 -6.73569E-01 -1.71311E+00 -1.87444E-01 -1.91253E-01  9.25440E-01  4.68046E-01
   4.73717E-01  6.57388E-01  1.20653E+00  1.55600E+00 -1.27258E+00  9.54893E-01  1.24841E+00 -5.55217E-01 -2.17685E-01  4.35976E-01
  -9.42165E-01 -8.15994E-02 -7.13099E-03  9.78634E-01  1.38610E+00  5.47311E-01 -2.08641E-01  6.08001E-01  2.66239E-02 -2.93369E-01
   3.40495E-01  8.89984E-02 -5.08897E-01 -2.07278E+00  2.03702E-01 -2.83852E-01  1.49078E+00 -3.91865E-01  1.61663E+00 -1.68906E-01
   2.05269E+00  2.40861E-01 -3.95797E-01  2.59435E-01  1.13650E+00  4.02473E-03 -1.23733E+00 -4.46032E-01 -1.05018E+00  1.64131E+00
   5.09300E-01  1.26266E+00 -1.59142E+00  8.87135E-01  2.24314E-02  1.67971E+00  9.94463E-01 -1.94751E-01 -1.91408E+00  9.53238E-01
  -1.33470E-01 -1.60292E+00  2.10155E-01 -8.12859E-01  2.21499E-01  2.91263E-01  1.25028E+00  5.28453E-01  1.43354E+00  1.11631E+00
  -3.53238E-01  4.62953E-01  4.90408E-01 -8.71063E-01 -5.28541E-01  2.86844E-01  3.51146E-01 -5.97420E-01 -3.17882E-01 -1.24607E-01
   6.24564E-01  7.99091E-01 -7.74282E-01 -5.69650E-01 -6.63919E-02 -1.42737E+00 -5.63505E-01 -7.39974E-01  1.53049E-01  5.11984E-01
  -2.11116E+00  5.17206E-01  1.50534E+00 -7.33602E-01  3.19362E-01  1.11936E+00  1.94169E-01  7.05152E-01 -8.17050E-01  1.23792E+00
   4.78909E-01 -3.74928E-01  7.44698E-03  8.27244E-01  1.50286E-01 -7.83473E-01  4.10430E-01  2.33790E-01  3.33874E-01 -2.31408E-01
   5.07728E-01  3.05286E-01  4.73298E-01  1.17043E+00 -2.05799E+00  1.00011E+00 -5.37265E-01 -3.29183E-01  6.30655E-01  2.41791E-01
   7.92396E-01 -3.22040E-01  4.97205E-01 -2.46466E+00  1.05024E+00 -1.61195E+00  1.04925E+00  2.28271E+00 -2.95901E-01  1.19412E-01
   1.69315E+00 -1.88627E+00 -1.07857E-01  6.73729E-01  4.42886E-01 -8.30573E-01  3.86952E-02 -1.89769E+00 -4.20539E-01  5.80506E-02
  -2.01250E-01 -7.27276E-01 -1.97158E-01 -2.21286E+00  1.17504E+00 -3.61651E-01  3.57722E-01  5.34192E-01 -1.70534E+00  1.99347E+00
  -6.31660E-01  7.96585E-01 -1.41148E+00 -8.70855E-01 -7.10905E-01  1.97535E-02  2.60981E-01 -3.94910E-01 -1.48038E-01 -1.06592E-01
  -1.76652E+00  3.86247E-01  4.90685E-01  7.90440E-01 -1.00361E+00 -1.67503E+00  2.45755E-01 -1.65022E-01  1.23601E-01 -6.78254E-01
   8.71295E-01  4.42445E-01  2.34507E-01  6.36685E-01 -5.21138E-01  2.79243E-01 -3.54734E-01  2.65571E-01 -5.38342E-01 -6.49325E-01
  -1.28461E+00  1.44050E+00 -3.93024E-01 -1.79924E+00 -4.50282E-01 -3.13613E+00  3.74724E-02  8.44075E-01 -1.87888E+00 -1.13496E+00
   1.64127E+00  1.10371E+00  3.61747E-01  1.34150E+00  2.20694E+00  6.79618E-01  3.05606E-01  1.80156E+00  1.68740E+00  2.53587E+00
   1.91299E+00  9.47901E-01 -5.20231E-01  9.61952E-01 -4.03512E-01 -2.13106E+00 -2.85187E-01 -2.81684E+00 -1.27618E+00  8.02559E-01
   3.19651E-01 -1.34714E+00 -3.34098E-01 -3.64638E-01 -5.18625E-01 -2.43992E+00 -7.07833E-01 -1.75577E-01  9.16475E-01  1.17442E-02
   9.28741E-01  2.73533E-02 -1.14882E+00  6.25444E-01  9.08709E-01  1.10623E+00  5.59557E-01  1.63166E-01  3.06180E+00 -6.36284E-01
  -1.32374E+00  1.34246E+00 -7.71576E-01  7.79063E-01 -6.13092E-01 -2.19006E+00 -1.59429E+00 -9.27745E-01 -3.19044E+00 -9.69429E-01
  -1.64076E+00 -2.13742E+00 -2.47019E+00 -3.62193E-01 -1.41786E-01 -2.83465E+00 -8.05052E-01 -1.05483E+00 -2.28631E+00 -1.78779E+00
  -2.31944E+00  1.77648E-01 -6.42531E-01 -5.42964E-01 -1.53041E+00  8.45181E-01 -5.23423E-01 -1.11449E+00 -1.28990E+00 -3.17386E-01
   1.87642E-01  9.40866E-01 -1.20914E+00  5.11981E-01 -1.69036E+00 -9.87172E-01  3.43620E+00 -1.65667E+00  1.63721E+00 -4.62769E-01
  -4.23316E-01  1.45023E+00  2.30475E-01 -6.24985E-01  2.12821E+00  4.19164E-03  1.47128E+00  5.47376E-01  1.91850E+00  2.69762E+00
   1.76624E+00  1.92006E+00  2.10925E+00  3.68766E+00 -9.78024E-01  2.38255E+00  1.76762E+00  2.88660E+00  3.54061E+00  4.96764E+00
   5.50079E+00  4.80272E+00  3.17501E+00  2.75297E+00  5.91247E+00  6.78437E+00  3.21358E+00  4.86383E+00  5.47754E+00  2.30743E+00
   3.55728E+00  1.35883E+00  2.64722E+00  3.63906E+00  2.75243E+00  3.74571E+00  4.45933E+00  4.24498E-01  2.43435E+00  1.64825E+00
   2.97129E+00  3.66524E+00  3.66831E+00  1.51254E+00  1.71259E+00  2.10367E+00 -2.68981E-01  1.31975E+00  4.90451E-01 -6.45375E-01
   2.23612E+00  1.75005E-02 -4.46260E-01  7.71401E-02 -1.57299E-01  2.04874E+00 -8.46491E-01 -9.23809E-02  7.36765E-01  6.31006E-01
   1.82591E+00 -5.98513E-01 -1.21617E+00 -1.87780E+00  1.34642E+00 -1.89269E+00 -2.23889E+00 -2.22154E+00 -1.89849E-01  1.80089E-01
  -2.27960E+00 -2.74577E+00 -2.89312E+00 -3.76575E+00 -1.76353E+00 -1.74410E+00 -3.09647E+00 -2.50059E+00  1.20171E-01  7.06444E-01
  -1.53959E+00 -2.88020E-01 -2.02090E+00  1.14657E-01  3.71285E-02 -2.12300E+00 -1.65760E+00 -1.59924E+00  1.01757E+00 -1.42409E+00
  -1.36904E+00  8.35162E-01 -9.49174E-01 -1.35239E+00  1.61832E+00 -1.85879E-01 -2.70232E-01  6.28689E-01 -6.32293E-01  3.44222E-01
   2.57021E-01  6.62981E-01  5.11459E-01  1.15686E-01 -1.01854E-01  2.25486E-01  5.45642E+00  1.04540E-01 -7.72035E-01 -6.90014E-01
  -7.92839E-01  4.99492E-01  7.32391E-01  1.22520E+00 -6.95574E-01 -2.06813E-01 -7.75590E-01 -6.76212E-01 -7.88836E-01 -3.47853E-01
  -1.10196E+00 -1.04845E+00 -1.59025E-01  6.46538E-01  1.20814E-01 -5.79622E-02  5.16721E-01 -2.08719E-01 -9.72426E-01 -2.02327E+00
  -1.52774E+00  7.63818E-01  3.72113E-01 -1.02363E+00  9.49441E-03 -2.92509E-01 -1.66487E+00 -5.51999E-01 -9.39140E-02  5.32555E-01
   8.92349E-02 -6.89985E-01  7.90126E-01  3.75531E-01 -1.24109E+00 -4.95191E-01 -1.70384E+00  4.47459E-01 -5.92307E-02 -2.32106E+00
   1.71569E+00  7.00852E-01 -1.72317E-01 -1.18992E+00  1.58799E-01  1.50314E+00 -1.12111E+00 -8.25990E-01  7.08165E-01  6.01574E-03
   1.25433E+00  4.49825E-01 -2.08380E+00 -1.89740E+00 -7.75496E-01  3.10637E+00 -1.05164E-01 -8.58330E-01
 NY points of the fit to the data follow
   2.92706E-01  2.81668E-01  2.87836E-01  2.98127E-01  3.08506E-01  3.26200E-01  3.91131E-01  5.50528E-01  7.84900E-01  1.01734E+00
   1.15142E+00  1.13570E+00  9.83710E-01  7.52095E-01  5.10806E-01  3.19292E-01  2.17632E-01  2.11018E-01  2.39741E-01  2.50827E-01
   2.61955E-01  2.75147E-01  2.79961E-01  2.67667E-01  2.38612E-01  2.03587E-01  1.76959E-01  1.75545E-01  2.06790E-01  2.61834E-01
   3.20576E-01  3.59722E-01  3.65903E-01  3.47457E-01  3.21333E-01  2.94250E-01  2.66597E-01  2.39338E-01  2.15369E-01  1.92123E-01
   1.73027E-01  1.71561E-01  2.09780E-01  3.12349E-01  4.73460E-01  6.41141E-01  7.45280E-01  7.43215E-01  6.35970E-01  4.60846E-01
   2.72452E-01  1.25077E-01  5.39778E-02  6.06640E-02  1.13906E-01  1.77436E-01  2.41297E-01  3.08400E-01  3.67038E-01  3.96873E-01
   3.84952E-01  3.33762E-01  2.61116E-01  1.90325E-01  1.44577E-01  1.37874E-01  1.62062E-01  2.02071E-01  2.45916E-01  2.81623E-01
   3.05106E-01  3.15753E-01  3.14944E-01  3.04423E-01  2.84221E-01  2.56080E-01  2.23458E-01  1.94942E-01  1.77807E-01  1.68702E-01
   1.67641E-01  1.78011E-01  1.91334E-01  1.90863E-01  1.63703E-01  1.09844E-01  4.42816E-02 -9.67104E-03 -3.45111E-02 -2.60832E-02
   8.48305E-03  5.70617E-02  1.03831E-01  1.30168E-01  1.33959E-01  1.21665E-01  1.03591E-01  1.05238E-01  1.79389E-01  3.35580E-01
   5.29418E-01  6.81612E-01  7.28534E-01  6.55904E-01  4.95154E-01  3.03476E-01  1.34032E-01  2.78412E-02  2.31970E-03  2.65347E-02
   3.73105E-02  3.61799E-02  3.40036E-02  3.07883E-02  2.70000E-02  2.14769E-02  1.50384E-02  9.22295E-03  5.38229E-03  5.01968E-03
   1.16137E-02  4.21796E-02  1.69008E-01  4.53462E-01  8.48425E-01  1.22108E+00  1.42149E+00  1.37819E+00  1.12053E+00  7.45151E-01
   3.67176E-01  8.14888E-02 -5.31847E-02 -4.45018E-02 -1.69275E-03  7.06581E-03  9.36809E-03  1.19605E-02  1.33635E-02  1.29412E-02
   1.16763E-02  1.19773E-02  1.51581E-02  1.97325E-02  2.41010E-02  2.69314E-02  2.71860E-02  2.51649E-02  2.18750E-02  1.76912E-02
   1.17873E-02  4.39817E-03 -2.28511E-03 -4.97456E-03 -5.14412E-04  8.84371E-03  1.45571E-02  8.92089E-03 -8.94050E-03 -3.25870E-02
  -5.12971E-02 -5.75740E-02 -5.19622E-02 -4.24979E-02 -3.79191E-02 -4.56304E-02 -6.66936E-02 -9.11954E-02 -1.06883E-01 -1.09626E-01
  -1.05007E-01 -1.04457E-01 -1.16857E-01 -1.37229E-01 -1.55080E-01 -1.63167E-01 -1.62076E-01 -1.57392E-01 -1.57187E-01 -1.62361E-01
  -1.66191E-01 -1.63563E-01 -1.54034E-01 -1.38115E-01 -1.18995E-01 -1.01506E-01 -8.62299E-02 -7.23865E-02 -5.95284E-02 -5.12680E-02
  -5.27412E-02 -6.92894E-02 -9.82659E-02 -1.30636E-01 -1.56033E-01 -1.69138E-01 -1.67746E-01 -1.47860E-01 -1.10444E-01 -6.31617E-02
  -1.46045E-02  2.57803E-02  4.50770E-02  3.33598E-02 -1.65186E-02 -1.06055E-01 -2.20301E-01 -3.26784E-01 -3.92909E-01 -4.01664E-01
  -3.56751E-01 -2.78206E-01 -1.92553E-01 -1.22241E-01 -7.97621E-02 -6.73766E-02 -7.31749E-02 -7.71419E-02 -7.47475E-02 -7.15032E-02
  -6.38116E-02 -5.18649E-02 -4.06192E-02 -3.42578E-02 -3.47503E-02 -4.21186E-02 -5.62255E-02 -7.46236E-02 -9.27134E-02 -1.04856E-01
  -1.08190E-01 -1.08672E-01 -1.12822E-01 -1.21547E-01 -1.28356E-01 -1.22136E-01 -9.61543E-02 -5.54211E-02 -1.72267E-02  2.27781E-04
  -1.32598E-02 -5.58117E-02 -1.14315E-01 -1.66002E-01 -1.97594E-01 -2.05868E-01 -1.91298E-01 -1.58721E-01 -1.17237E-01 -6.87823E-02
   7.34900E-03  1.69512E-01  4.36530E-01  7.55553E-01  1.02712E+00  1.22273E+00  1.40155E+00  1.57799E+00  1.70190E+00  1.68603E+00
   1.49655E+00  1.18279E+00  8.11735E-01  4.12090E-01  7.47786E-02 -1.11055E-01 -1.32929E-01 -9.65800E-02 -9.74584E-02 -1.06957E-01
  -1.13060E-01 -1.16393E-01 -1.20500E-01 -1.29252E-01 -1.44077E-01 -1.63193E-01 -1.83010E-01 -1.99747E-01 -2.11486E-01 -2.17995E-01
  -2.19996E-01 -2.19352E-01 -2.18976E-01 -2.20693E-01 -2.24283E-01 -2.29600E-01 -2.36613E-01 -2.44020E-01 -2.49565E-01 -2.51702E-01
  -2.51047E-01 -2.49190E-01 -2.47294E-01 -2.46907E-01 -2.48998E-01 -2.53526E-01 -2.59590E-01 -2.65257E-01 -2.68714E-01 -2.70068E-01
  -2.69814E-01 -2.68405E-01 -2.66478E-01 -2.64653E-01 -2.63383E-01 -2.62610E-01 -2.61624E-01 -2.60216E-01 -2.58396E-01 -2.56097E-01
  -2.53310E-01 -2.50001E-01 -2.46114E-01 -2.41567E-01 -2.36246E-01 -2.30006E-01 -2.22678E-01 -2.14055E-01 -2.03872E-01 -1.91765E-01
  -1.77135E-01 -1.58707E-01 -1.34145E-01 -1.04642E-01 -7.58588E-02 -5.35109E-02 -3.93925E-02 -2.95044E-02 -1.68311E-02  5.15334E-03
   4.36141E-02  1.06301E-01  1.96387E-01  3.09558E-01  4.35033E-01  5.66690E-01  7.03582E-01  8.45860E-01  9.96420E-01  1.15970E+00
   1.34080E+00  1.54370E+00  1.76589E+00  2.00123E+00  2.24685E+00  2.49947E+00  2.75498E+00  3.00865E+00  3.25528E+00  3.48936E+00
   3.70531E+00  3.89771E+00  4.06152E+00  4.19235E+00  4.28662E+00  4.34182E+00  4.35654E+00  4.33062E+00  4.26511E+00  4.16222E+00
   4.02517E+00  3.85807E+00  3.66566E+00  3.45313E+00  3.22580E+00  2.98901E+00  2.74779E+00  2.50680E+00  2.27011E+00  2.04118E+00
   1.82277E+00  1.61696E+00  1.42517E+00  1.24822E+00  1.08640E+00  9.39560E-01  8.07197E-01  6.88548E-01  5.82670E-01  4.88510E-01
   4.04966E-01  3.30938E-01  2.65358E-01  2.07225E-01  1.55616E-01  1.09696E-01  6.87192E-02  3.20285E-02 -9.49730E-04 -3.07114E-02
  -5.76828E-02 -8.22288E-02 -1.04662E-01 -1.25249E-01 -1.44217E-01 -1.61760E-01 -1.78042E-01 -1.93206E-01 -2.07373E-01 -2.20649E-01
  -2.33125E-01 -2.44881E-01 -2.55985E-01 -2.66497E-01 -2.76472E-01 -2.85957E-01 -2.94994E-01 -3.03619E-01 -3.11866E-01 -3.19764E-01
  -3.27340E-01 -3.34620E-01 -3.41625E-01 -3.48373E-01 -3.54883E-01 -3.61171E-01 -3.67253E-01 -3.73142E-01 -3.78850E-01 -3.84389E-01
  -3.89769E-01 -3.94999E-01 -4.00090E-01 -4.05049E-01 -4.09884E-01 -4.14600E-01 -4.19205E-01 -4.23707E-01 -4.28110E-01 -4.32419E-01
  -4.36639E-01 -4.40774E-01 -4.44829E-01 -4.48809E-01 -4.52716E-01 -4.56554E-01 -4.60326E-01 -4.64035E-01 -4.67685E-01 -4.71278E-01
  -4.74817E-01 -4.78303E-01 -4.81740E-01 -4.85129E-01 -4.88473E-01 -4.91773E-01 -4.95032E-01 -4.98250E-01 -5.01430E-01 -5.04573E-01
  -5.07682E-01 -5.10757E-01 -5.13798E-01 -5.16808E-01 -5.19788E-01 -5.22738E-01 -5.25662E-01 -5.28558E-01 -5.31428E-01 -5.34273E-01
  -5.37094E-01 -5.39892E-01 -5.42668E-01 -5.45422E-01 -5.48154E-01 -5.50865E-01 -5.53558E-01 -5.56233E-01 -5.58889E-01 -5.61527E-01
  -5.64148E-01 -5.66752E-01 -5.69342E-01 -5.71916E-01 -5.74475E-01 -5.77019E-01 -5.79549E-01 -5.82066E-01 -5.84571E-01 -5.87063E-01
  -5.89543E-01 -5.92010E-01 -5.94466E-01 -5.96912E-01 -5.99348E-01 -6.01773E-01 -6.04188E-01 -6.06593E-01 -6.08989E-01 -6.11378E-01
  -6.13758E-01 -6.16129E-01 -6.18493E-01 -6.20849E-01 -6.23199E-01 -6.25544E-01 -6.27882E-01 -6.30213E-01
 NY background values follow
     2.204E-01    2.185E-01    2.167E-01    2.149E-01    2.130E-01    2.112E-01    2.094E-01    2.075E-01    2.057E-01    2.039E-01
     2.020E-01    2.002E-01    1.984E-01    1.965E-01    1.947E-01    1.928E-01    1.910E-01    1.892E-01    1.873E-01    1.855E-01
     1.837E-01    1.818E-01    1.800E-01    1.782E-01    1.763E-01    1.745E-01    1.727E-01    1.708E-01    1.690E-01    1.671E-01
     1.653E-01    1.635E-01    1.616E-01    1.598E-01    1.580E-01    1.561E-01    1.543E-01    1.525E-01    1.506E-01    1.488E-01
     1.470E-01    1.451E-01    1.433E-01    1.414E-01    1.396E-01    1.378E-01    1.359E-01    1.341E-01    1.323E-01    1.304E-01
     1.286E-01    1.268E-01    1.249E-01    1.231E-01    1.213E-01    1.194E-01    1.176E-01    1.158E-01    1.139E-01    1.121E-01
     1.103E-01    1.084E-01    1.066E-01    1.047E-01    1.029E-01    1.011E-01    9.924E-02    9.740E-02    9.557E-02    9.374E-02
     9.190E-02    9.007E-02    8.823E-02    8.640E-02    8.456E-02    8.273E-02    8.089E-02    7.906E-02    7.722E-02    7.539E-02
     7.355E-02    7.172E-02    6.988E-02    6.805E-02    6.621E-02    6.438E-02    6.254E-02    6.071E-02    5.887E-02    5.704E-02
     5.521E-02    5.337E-02    5.154E-02    4.970E-02    4.787E-02    4.603E-02    4.420E-02    4.237E-02    4.053E-02    3.870E-02
     3.686E-02    3.503E-02    3.319E-02    3.136E-02    2.953E-02    2.769E-02    2.586E-02    2.402E-02    2.219E-02    2.036E-02
     1.852E-02    1.669E-02    1.485E-02    1.302E-02    1.119E-02    9.352E-03    7.518E-03    5.684E-03    3.851E-03    2.017E-03
     1.835E-04   -1.650E-03   -3.484E-03   -5.317E-03   -7.151E-03   -8.984E-03   -1.082E-02   -1.265E-02   -1.448E-02   -1.632E-02
    -1.815E-02   -1.998E-02   -2.182E-02   -2.365E-02   -2.548E-02   -2.732E-02   -2.915E-02   -3.098E-02   -3.282E-02   -3.465E-02
    -3.648E-02   -3.832E-02   -4.015E-02   -4.198E-02   -4.381E-02   -4.565E-02   -4.748E-02   -4.931E-02   -5.114E-02   -5.298E-02
    -5.481E-02   -5.664E-02   -5.847E-02   -6.031E-02   -6.214E-02   -6.397E-02   -6.580E-02   -6.764E-02   -6.947E-02   -7.130E-02
    -7.313E-02   -7.497E-02   -7.680E-02   -7.863E-02   -8.046E-02   -8.229E-02   -8.412E-02   -8.596E-02   -8.779E-02   -8.962E-02
    -9.145E-02   -9.328E-02   -9.512E-02   -9.695E-02   -9.878E-02   -1.006E-01   -1.024E-01   -1.043E-01   -1.061E-01   -1.079E-01
    -1.098E-01   -1.116E-01   -1.134E-01   -1.153E-01   -1.171E-01   -1.189E-01   -1.208E-01   -1.226E-01   -1.244E-01   -1.262E-01
    -1.281E-01   -1.299E-01   -1.317E-01   -1.336E-01   -1.354E-01   -1.372E-01   -1.391E-01   -1.409E-01   -1.427E-01   -1.446E-01
    -1.464E-01   -1.482E-01   -1.500E-01   -1.519E-01   -1.537E-01   -1.555E-01   -1.574E-01   -1.592E-01   -1.610E-01   -1.629E-01
    -1.647E-01   -1.665E-01   -1.683E-01   -1.702E-01   -1.720E-01   -1.738E-01   -1.757E-01   -1.775E-01   -1.793E-01   -1.811E-01
    -1.830E-01   -1.848E-01   -1.866E-01   -1.885E-01   -1.903E-01   -1.921E-01   -1.939E-01   -1.958E-01   -1.976E-01   -1.994E-01
    -2.013E-01   -2.031E-01   -2.049E-01   -2.067E-01   -2.086E-01   -2.104E-01   -2.122E-01   -2.141E-01   -2.159E-01   -2.177E-01
    -2.195E-01   -2.214E-01   -2.232E-01   -2.250E-01   -2.269E-01   -2.287E-01   -2.305E-01   -2.323E-01   -2.342E-01   -2.360E-01
    -2.378E-01   -2.396E-01   -2.415E-01   -2.433E-01   -2.451E-01   -2.470E-01   -2.488E-01   -2.506E-01   -2.524E-01   -2.543E-01
    -2.561E-01   -2.579E-01   -2.597E-01   -2.616E-01   -2.634E-01   -2.652E-01   -2.670E-01   -2.689E-01   -2.707E-01   -2.725E-01
    -2.744E-01   -2.762E-01   -2.780E-01   -2.798E-01   -2.817E-01   -2.835E-01   -2.853E-01   -2.871E-01   -2.890E-01   -2.908E-01
    -2.926E-01   -2.944E-01   -2.963E-01   -2.981E-01   -2.999E-01   -3.017E-01   -3.036E-01   -3.054E-01   -3.072E-01   -3.090E-01
    -3.109E-01   -3.127E-01   -3.145E-01   -3.163E-01   -3.182E-01   -3.200E-01   -3.218E-01   -3.236E-01   -3.254E-01   -3.273E-01
    -3.291E-01   -3.309E-01   -3.327E-01   -3.346E-01   -3.364E-01   -3.382E-01   -3.400E-01   -3.419E-01   -3.437E-01   -3.455E-01
    -3.473E-01   -3.492E-01   -3.510E-01   -3.528E-01   -3.546E-01   -3.564E-01   -3.583E-01   -3.601E-01   -3.619E-01   -3.637E-01
    -3.656E-01   -3.674E-01   -3.692E-01   -3.710E-01   -3.728E-01   -3.747E-01   -3.765E-01   -3.783E-01   -3.801E-01   -3.819E-01
    -3.838E-01   -3.856E-01   -3.874E-01   -3.892E-01   -3.911E-01   -3.929E-01   -3.947E-01   -3.965E-01   -3.983E-01   -4.002E-01
    -4.020E-01   -4.038E-01   -4.056E-01   -4.074E-01   -4.093E-01   -4.111E-01   -4.129E-01   -4.147E-01   -4.165E-01   -4.184E-01
    -4.202E-01   -4.220E-01   -4.238E-01   -4.256E-01   -4.275E-01   -4.293E-01   -4.311E-01   -4.329E-01   -4.347E-01   -4.365E-01
    -4.384E-01   -4.402E-01   -4.420E-01   -4.438E-01   -4.456E-01   -4.475E-01   -4.493E-01   -4.511E-01   -4.529E-01   -4.547E-01
    -4.565E-01   -4.584E-01   -4.602E-01   -4.620E-01   -4.638E-01   -4.656E-01   -4.674E-01   -4.693E-01   -4.711E-01   -4.729E-01
    -4.747E-01   -4.765E-01   -4.783E-01   -4.802E-01   -4.820E-01   -4.838E-01   -4.856E-01   -4.874E-01   -4.892E-01   -4.911E-01
    -4.929E-01   -4.947E-01   -4.965E-01   -4.983E-01   -5.001E-01   -5.020E-01   -5.038E-01   -5.056E-01   -5.074E-01   -5.092E-01
    -5.110E-01   -5.128E-01   -5.147E-01   -5.165E-01   -5.183E-01   -5.201E-01   -5.219E-01   -5.237E-01   -5.255E-01   -5.274E-01
    -5.292E-01   -5.310E-01   -5.328E-01   -5.346E-01   -5.364E-01   -5.382E-01   -5.401E-01   -5.419E-01   -5.437E-01   -5.455E-01
    -5.473E-01   -5.491E-01   -5.509E-01   -5.527E-01   -5.546E-01   -5.564E-01   -5.582E-01   -5.600E-01   -5.618E-01   -5.636E-01
    -5.654E-01   -5.672E-01   -5.690E-01   -5.709E-01   -5.727E-01   -5.745E-01   -5.763E-01   -5.781E-01   -5.799E-01   -5.817E-01
    -5.835E-01   -5.853E-01   -5.872E-01   -5.890E-01   -5.908E-01   -5.926E-01   -5.944E-01   -5.962E-01   -5.980E-01   -5.998E-01
    -6.016E-01   -6.034E-01   -6.052E-01   -6.071E-01   -6.089E-01   -6.107E-01   -6.125E-01   -6.143E-01   -6.161E-01   -6.179E-01
    -6.197E-01   -6.215E-01   -6.233E-01   -6.251E-01   -6.269E-01   -6.288E-01   -6.306E-01   -6.324E-01   -6.342E-01   -6.360E-01
    -6.378E-01   -6.396E-01   -6.414E-01   -6.432E-01   -6.450E-01   -6.468E-01   -6.486E-01   -6.504E-01   -6.522E-01   -6.541E-01
    -6.559E-01   -6.577E-01   -6.595E-01   -6.613E-01   -6.631E-01   -6.649E-01   -6.667E-01   -6.685E-01   -6.703E-01   -6.721E-01
    -6.739E-01   -6.757E-01   -6.775E-01   -6.793E-01   -6.811E-01   -6.829E-01   -6.847E-01   -6.865E-01
 Ala      Conc. = 2.97E+00
