 LCModel (Version 6.3-1L) Copyright: S.W. Provencher.          Ref.: Magn. Reson. Med. 30:672-679 (1993).                
 Slice#3 Row#6 Col#6  PD_05_press_1_raw_act
 36 lines in following concentration table = NCONC+1
    Conc.  %SD /Cr+PCr  Metabolite                                         
    0.000 999%   0.000 Ala                                                 
  239.068  82%   0.172 Asp                                                 
  636.703  33%   0.458 Cr                                                  
  753.015  29%   0.542 PCr                                                 
    0.000 999%   0.000 GABA                                                
   78.411 174% 5.6E-02 Glc                                                 
  928.975  23%   0.668 Gln                                                 
 1.22E+03  20%   0.875 Glu                                                 
  521.751   4%   0.375 GPC                                                 
    0.000 999%   0.000 PCh                                                 
  435.972  16%   0.314 GSH                                                 
  900.643  27%   0.648 Ins                                                 
    0.000 999%   0.000 Lac                                                 
 1.98E+03   3%   1.422 NAA                                                 
    0.000 999%   0.000 NAAG                                                
  107.958  23% 7.8E-02 Scyllo                                              
   75.109 256% 5.4E-02 Tau                                                 
   93.515 109% 6.7E-02 -CrCH2                                              
  521.751   4%   0.375 GPC+PCh                                             
 1.98E+03   3%   1.422 NAA+NAAG                                            
 1.39E+03   4%   1.000 Cr+PCr                                              
 2.15E+03  17%   1.544 Glu+Gln                                             
  908.243  36%   0.654 Lip13a                                              
    0.000 999%   0.000 Lip13b                                              
    0.000 999%   0.000 Lip09                                               
 1.26E+03  15%   0.907 MM09                                                
   85.763 146% 6.2E-02 Lip20                                               
 2.69E+03  12%   1.935 MM20                                                
  507.477  27%   0.365 MM12                                                
 1.38E+03  22%   0.994 MM14                                                
  513.734  39%   0.370 MM17                                                
  908.243  36%   0.654 Lip13a+Lip13b                                       
 2.80E+03  14%   2.013 MM14+Lip13a+Lip13b+MM12                             
 1.26E+03  15%   0.907 MM09+Lip09                                          
 2.77E+03  12%   1.996 MM20+Lip20                                          
   6 lines in following misc. output table
  FWHM = 0.061 ppm    S/N =  12                                            
  Data shift =-0.008 ppm                                                   
  Ph: -25 deg      -7.7 deg/ppm                                            
  alphaB,S = 9.6E-01,   2.0E+02                                            
   14 spline knots.   Ns = 8(1)                                            
  (13) 4 infls.   ( 7) 1 extrs.                                            
  498 points on ppm-axis = NY
      4.000000     3.992357     3.984714     3.977070     3.969427     3.961784     3.954141     3.946497     3.938854     3.931211
      3.923568     3.915925     3.908281     3.900638     3.892995     3.885352     3.877708     3.870065     3.862422     3.854779
      3.847136     3.839492     3.831849     3.824206     3.816563     3.808919     3.801276     3.793633     3.785990     3.778347
      3.770703     3.763060     3.755417     3.747774     3.740130     3.732487     3.724844     3.717201     3.709558     3.701914
      3.694271     3.686628     3.678985     3.671341     3.663698     3.656055     3.648412     3.640769     3.633125     3.625482
      3.617839     3.610196     3.602552     3.594909     3.587266     3.579623     3.571980     3.564336     3.556693     3.549050
      3.541407     3.533763     3.526120     3.518477     3.510834     3.503191     3.495547     3.487904     3.480261     3.472618
      3.464974     3.457331     3.449688     3.442045     3.434402     3.426758     3.419115     3.411472     3.403829     3.396185
      3.388542     3.380899     3.373256     3.365613     3.357969     3.350326     3.342683     3.335040     3.327396     3.319753
      3.312110     3.304467     3.296824     3.289180     3.281537     3.273894     3.266251     3.258607     3.250964     3.243321
      3.235678     3.228034     3.220391     3.212748     3.205105     3.197462     3.189818     3.182175     3.174532     3.166889
      3.159245     3.151602     3.143959     3.136316     3.128673     3.121029     3.113386     3.105743     3.098100     3.090456
      3.082813     3.075170     3.067527     3.059884     3.052240     3.044597     3.036954     3.029311     3.021667     3.014024
      3.006381     2.998738     2.991095     2.983451     2.975808     2.968165     2.960522     2.952878     2.945235     2.937592
      2.929949     2.922306     2.914662     2.907019     2.899376     2.891733     2.884089     2.876446     2.868803     2.861160
      2.853517     2.845873     2.838230     2.830587     2.822944     2.815300     2.807657     2.800014     2.792371     2.784728
      2.777084     2.769441     2.761798     2.754155     2.746511     2.738868     2.731225     2.723582     2.715939     2.708295
      2.700652     2.693009     2.685366     2.677722     2.670079     2.662436     2.654793     2.647150     2.639506     2.631863
      2.624220     2.616577     2.608933     2.601290     2.593647     2.586004     2.578361     2.570717     2.563074     2.555431
      2.547788     2.540144     2.532501     2.524858     2.517215     2.509572     2.501928     2.494285     2.486642     2.478999
      2.471355     2.463712     2.456069     2.448426     2.440783     2.433139     2.425496     2.417853     2.410210     2.402566
      2.394923     2.387280     2.379637     2.371994     2.364350     2.356707     2.349064     2.341421     2.333777     2.326134
      2.318491     2.310848     2.303205     2.295561     2.287918     2.280275     2.272632     2.264988     2.257345     2.249702
      2.242059     2.234416     2.226772     2.219129     2.211486     2.203843     2.196199     2.188556     2.180913     2.173270
      2.165627     2.157983     2.150340     2.142697     2.135054     2.127410     2.119767     2.112124     2.104481     2.096838
      2.089194     2.081551     2.073908     2.066265     2.058621     2.050978     2.043335     2.035692     2.028049     2.020405
      2.012762     2.005119     1.997476     1.989833     1.982190     1.974546     1.966903     1.959260     1.951617     1.943974
      1.936331     1.928688     1.921045     1.913402     1.905759     1.898115     1.890472     1.882829     1.875186     1.867543
      1.859900     1.852257     1.844614     1.836971     1.829327     1.821684     1.814041     1.806398     1.798755     1.791112
      1.783469     1.775826     1.768183     1.760540     1.752896     1.745253     1.737610     1.729967     1.722324     1.714681
      1.707038     1.699395     1.691752     1.684108     1.676465     1.668822     1.661179     1.653536     1.645893     1.638250
      1.630607     1.622964     1.615321     1.607677     1.600034     1.592391     1.584748     1.577105     1.569462     1.561819
      1.554176     1.546533     1.538890     1.531246     1.523603     1.515960     1.508317     1.500674     1.493031     1.485388
      1.477745     1.470102     1.462458     1.454815     1.447172     1.439529     1.431886     1.424243     1.416600     1.408957
      1.401314     1.393671     1.386027     1.378384     1.370741     1.363098     1.355455     1.347812     1.340169     1.332526
      1.324883     1.317240     1.309596     1.301953     1.294310     1.286667     1.279024     1.271381     1.263738     1.256095
      1.248452     1.240808     1.233165     1.225522     1.217879     1.210236     1.202593     1.194950     1.187307     1.179664
      1.172021     1.164377     1.156734     1.149091     1.141448     1.133805     1.126162     1.118519     1.110876     1.103233
      1.095590     1.087946     1.080303     1.072660     1.065017     1.057374     1.049731     1.042088     1.034445     1.026802
      1.019158     1.011515     1.003872     0.996229     0.988586     0.980943     0.973300     0.965657     0.958014     0.950371
      0.942727     0.935084     0.927441     0.919798     0.912155     0.904512     0.896869     0.889226     0.881583     0.873940
      0.866296     0.858653     0.851010     0.843367     0.835724     0.828081     0.820438     0.812795     0.805152     0.797508
      0.789865     0.782222     0.774579     0.766936     0.759293     0.751650     0.744007     0.736364     0.728721     0.721077
      0.713434     0.705791     0.698148     0.690505     0.682862     0.675219     0.667576     0.659933     0.652290     0.644646
      0.637003     0.629360     0.621717     0.614074     0.606431     0.598788     0.591145     0.583502     0.575858     0.568215
      0.560572     0.552929     0.545286     0.537643     0.530000     0.522357     0.514714     0.507071     0.499427     0.491784
      0.484141     0.476498     0.468855     0.461212     0.453569     0.445925     0.438282     0.430639     0.422996     0.415353
      0.407710     0.400067     0.392424     0.384780     0.377137     0.369494     0.361851     0.354208     0.346565     0.338922
      0.331278     0.323635     0.315992     0.308349     0.300706     0.293063     0.285420     0.277777     0.270133     0.262490
      0.254847     0.247204     0.239561     0.231918     0.224275     0.216631     0.208988     0.201345
 NY phased data points follow
  -3.69390E+01 -4.00129E+01 -3.46076E+01 -2.95215E+01 -2.48481E+01 -2.46918E+01 -1.56176E+01 -1.19657E+01 -9.80907E+00 -3.43087E+00
  -5.91554E+00 -2.87006E+00 -7.00251E+00 -1.37932E+01 -1.84410E+01 -2.32645E+01 -2.32168E+01 -2.86267E+01 -3.07460E+01 -3.14144E+01
  -2.93892E+01 -2.42221E+01 -2.58982E+01 -2.67264E+01 -2.45365E+01 -2.25112E+01 -2.25784E+01 -2.07340E+01 -2.16591E+01 -2.31219E+01
  -1.94269E+01 -1.87852E+01 -1.77223E+01 -2.00200E+01 -2.20074E+01 -2.32800E+01 -2.49161E+01 -2.25547E+01 -2.07189E+01 -1.87337E+01
  -2.38375E+01 -1.89885E+01 -2.07294E+01 -2.02750E+01 -2.14582E+01 -1.99190E+01 -1.80998E+01 -1.83897E+01 -1.78343E+01 -1.82905E+01
  -2.00520E+01 -2.11274E+01 -2.14443E+01 -2.34215E+01 -2.16373E+01 -2.38391E+01 -2.61727E+01 -2.23683E+01 -2.18105E+01 -2.22817E+01
  -2.22653E+01 -2.56646E+01 -2.27465E+01 -2.77090E+01 -2.76556E+01 -2.68263E+01 -2.98558E+01 -2.73980E+01 -2.61251E+01 -2.42963E+01
  -2.75557E+01 -2.27636E+01 -2.35227E+01 -2.42185E+01 -2.16120E+01 -2.04073E+01 -2.07376E+01 -2.28156E+01 -2.11386E+01 -2.16683E+01
  -2.25958E+01 -2.03270E+01 -1.96348E+01 -1.90091E+01 -1.52796E+01 -1.87886E+01 -2.02567E+01 -1.60616E+01 -1.65198E+01 -2.00154E+01
  -1.96586E+01 -2.17445E+01 -1.70742E+01 -1.97222E+01 -1.20716E+01 -1.15720E+01 -8.31447E+00 -5.28572E+00 -1.73825E+00  2.19578E+00
   7.09983E+00  1.47914E+01  1.89605E+01  2.37271E+01  1.93145E+01  1.34736E+01  7.08987E+00 -1.27780E+00 -3.44893E+00 -1.13847E+01
  -1.27289E+01 -1.43598E+01 -1.54764E+01 -1.36109E+01 -1.45567E+01 -1.24851E+01 -1.34410E+01 -1.35258E+01 -1.18474E+01 -1.19437E+01
  -8.78698E+00 -5.60271E+00 -7.94859E-01  2.83847E+00  8.96468E+00  1.92638E+01  1.88468E+01  2.36821E+01  2.01451E+01  1.83622E+01
   1.24192E+01  2.12224E+00 -3.80893E+00 -1.08656E+01 -1.19183E+01 -1.37667E+01 -1.74632E+01 -1.82546E+01 -1.70066E+01 -1.46773E+01
  -1.40684E+01 -1.74837E+01 -1.65945E+01 -1.79018E+01 -1.51553E+01 -1.63957E+01 -2.15121E+01 -1.77025E+01 -1.88126E+01 -1.74918E+01
  -1.64602E+01 -1.76884E+01 -1.52630E+01 -1.78709E+01 -1.94876E+01 -2.32468E+01 -2.13267E+01 -2.29372E+01 -1.90774E+01 -1.97849E+01
  -1.84971E+01 -1.87783E+01 -2.19842E+01 -1.95691E+01 -2.13707E+01 -1.83302E+01 -1.80862E+01 -2.07367E+01 -1.81407E+01 -1.86419E+01
  -1.92235E+01 -1.92423E+01 -1.90603E+01 -2.42332E+01 -2.33582E+01 -2.14390E+01 -2.52495E+01 -2.03848E+01 -2.13930E+01 -2.11585E+01
  -1.95882E+01 -1.95225E+01 -2.43039E+01 -2.35598E+01 -2.13597E+01 -1.66635E+01 -1.74630E+01 -1.90874E+01 -1.62771E+01 -1.29028E+01
  -1.47818E+01 -1.13114E+01 -7.30026E+00 -8.33239E+00 -7.34529E+00 -6.50258E+00 -9.21274E+00 -1.20023E+01 -1.05120E+01 -1.22391E+01
  -1.38904E+01 -8.89631E+00 -9.39630E+00 -8.85582E+00 -1.01949E+01 -1.50789E+01 -1.32507E+01 -1.54684E+01 -1.32907E+01 -1.44808E+01
  -1.07653E+01 -1.18647E+01 -9.35048E+00 -8.25897E+00 -6.20101E+00 -2.63064E+00 -5.12764E+00 -4.09165E+00 -4.31354E+00 -4.40576E+00
  -4.68186E+00 -1.19592E+01 -1.26251E+01 -9.94928E+00 -1.18419E+01 -6.11098E+00 -2.74658E+00  3.71983E-02 -1.82199E+00 -2.96025E+00
  -3.49953E+00 -2.97021E+00 -2.01011E+00 -3.22215E+00 -4.29346E+00 -7.84194E-01 -3.29260E+00  1.31588E+00 -1.59323E+00 -5.04652E+00
  -1.85479E+00 -2.96199E+00 -6.80933E+00 -3.63154E+00 -4.61028E+00 -3.38169E+00 -9.26094E-01 -4.69932E-01  1.47985E+00  2.17810E+00
   5.01639E+00  3.53539E+00  8.23964E+00  1.51795E+01  1.68113E+01  2.68698E+01  2.94710E+01  4.00032E+01  4.46308E+01  5.59255E+01
   5.65060E+01  5.65951E+01  5.22653E+01  4.33078E+01  2.90297E+01  1.86690E+01  9.51993E+00  1.91270E+00  2.63933E+00  2.26239E-02
   2.06797E+00  6.04494E+00  6.59810E+00  1.94891E+00  2.92365E+00  8.52150E-01 -6.39765E-01 -4.99060E+00 -2.15646E+00 -3.08738E+00
  -6.15204E+00 -6.08687E+00 -5.42883E+00 -8.54115E+00 -7.81683E+00 -4.13386E+00 -4.58246E+00 -3.01158E+00 -3.79862E+00 -5.35524E+00
  -4.90346E+00 -7.57794E+00 -3.23952E+00 -3.77627E+00 -8.41302E+00 -8.59430E+00 -3.70771E+00 -4.86892E+00 -3.04919E+00 -4.44907E+00
  -5.41526E+00 -5.16185E+00 -2.17510E+00 -2.21584E+00 -3.93549E+00 -4.05398E+00 -6.51331E-02  2.59994E-01  2.52653E+00 -1.89224E+00
   3.16573E+00  1.55025E+00  6.21978E-01  8.50204E-01  1.97404E-01  3.69969E+00  9.10272E-01  3.16723E+00  9.75906E-01  2.29813E+00
   2.00534E+00  2.88748E+00  4.68032E-01  1.78436E+00  6.01495E-01  1.28913E+00  1.72805E+00  1.77349E+00  2.19606E+00  7.41668E-01
   5.67536E+00  4.74233E+00  6.14187E+00  8.30833E+00  7.23035E+00  7.13150E+00  5.16585E+00  5.88568E+00  1.58116E+00  7.10171E+00
   5.35722E+00 -1.32107E+00  1.41099E+00  4.32140E+00  1.29661E+00  4.41977E+00  6.12861E+00  7.20854E+00  7.68897E+00  6.96488E+00
   6.50375E+00  8.13418E+00  3.25660E+00  6.13678E+00  3.84546E+00  3.05137E+00  3.03044E+00  4.84203E+00  2.56200E+00  2.23431E+00
   4.76039E+00  3.68198E-02  3.17463E+00  3.21512E+00  5.58328E+00  6.04872E+00  6.58440E+00  6.85437E+00  5.43233E+00  3.67959E+00
   6.71385E+00  6.87162E+00  3.18579E+00  5.21224E+00  3.16227E+00  3.54329E+00  7.08369E+00  4.74111E+00 -5.46105E-01  3.90636E+00
  -3.16150E-01 -1.24883E+00  2.36210E+00 -4.48804E-01  2.85556E-01  2.29040E+00  6.62390E-01  1.80639E+00 -4.27888E-01  2.01103E+00
   4.72953E+00  1.14613E-01  3.82278E-01  1.28347E+00  1.84256E+00  1.32570E+00  2.99582E+00  4.43034E+00  4.49608E+00 -3.68919E-01
   5.43190E+00  1.04796E+01  4.59939E+00  7.68565E+00  7.07743E+00  8.93849E+00  6.14501E+00  6.65424E+00  1.17104E+01  1.07786E+01
   8.65910E+00  7.98904E+00  1.01113E+01  8.12937E+00  7.59251E+00  5.07562E+00  4.55417E+00  4.31104E+00  5.16511E+00  4.43268E+00
   5.43292E+00  2.76018E+00  2.09626E+00  5.38481E+00  2.07843E+00  8.51369E-01  5.72719E+00  2.39635E+00  1.89340E+00  4.05458E+00
   5.16846E+00  5.42855E+00  3.15019E+00  2.67459E+00  1.93345E+00  7.51237E-01 -1.53506E+00  3.03319E+00  2.04946E+00 -6.18827E-01
   1.04103E+00 -6.50706E-01  1.54377E+00  3.31142E+00 -2.64351E+00  4.59519E+00  3.86450E+00  2.39909E+00 -2.42873E+00  9.24332E-02
  -1.66340E+00  4.18924E+00  2.87956E+00  1.53295E+00  4.66483E+00  2.79240E+00  2.69178E+00 -9.04779E-01  2.14472E+00  1.60238E+00
   2.79773E+00  1.36505E-01  1.43687E+00 -1.14423E+00 -6.96776E-01  1.37391E+00  9.35012E-01  1.01975E+00 -6.87994E-01  2.67188E-01
   2.21492E+00  3.06432E-01  1.17972E+00  1.50783E+00  1.21750E-01  1.76649E+00  7.05793E-01  1.66422E+00  3.07615E+00  2.76240E+00
  -1.99165E+00  1.44125E+00  8.94841E-01  1.17044E+00  1.89875E+00  3.67075E+00  2.24778E+00  4.50382E+00  2.49107E+00  4.96780E+00
   2.88816E+00  1.90214E+00  4.09937E+00  1.72458E+00  1.66607E+00  3.59052E+00  2.10673E+00  3.52257E+00
 NY points of the fit to the data follow
  -3.25064E+01 -3.17697E+01 -2.98857E+01 -2.70472E+01 -2.39024E+01 -2.06625E+01 -1.72086E+01 -1.34966E+01 -9.82966E+00 -6.87648E+00
  -5.39251E+00 -5.85707E+00 -8.27540E+00 -1.21212E+01 -1.65011E+01 -2.05080E+01 -2.35838E+01 -2.56778E+01 -2.70688E+01 -2.79807E+01
  -2.85443E+01 -2.87580E+01 -2.84170E+01 -2.76551E+01 -2.67582E+01 -2.57783E+01 -2.45572E+01 -2.29813E+01 -2.11830E+01 -1.94171E+01
  -1.80112E+01 -1.73640E+01 -1.76903E+01 -1.89834E+01 -2.09081E+01 -2.29202E+01 -2.45871E+01 -2.56733E+01 -2.60900E+01 -2.58137E+01
  -2.49695E+01 -2.39046E+01 -2.28571E+01 -2.18804E+01 -2.09567E+01 -2.01382E+01 -1.95712E+01 -1.93746E+01 -1.96139E+01 -2.03169E+01
  -2.13688E+01 -2.25104E+01 -2.34701E+01 -2.40741E+01 -2.43199E+01 -2.43208E+01 -2.41605E+01 -2.38899E+01 -2.35835E+01 -2.33266E+01
  -2.31969E+01 -2.32257E+01 -2.34166E+01 -2.36958E+01 -2.39334E+01 -2.40428E+01 -2.39796E+01 -2.37437E+01 -2.33773E+01 -2.29531E+01
  -2.25500E+01 -2.22191E+01 -2.19835E+01 -2.18461E+01 -2.17898E+01 -2.17959E+01 -2.18350E+01 -2.18407E+01 -2.16444E+01 -2.12109E+01
  -2.07508E+01 -2.03089E+01 -1.98075E+01 -1.92088E+01 -1.85745E+01 -1.80549E+01 -1.78072E+01 -1.79233E+01 -1.83662E+01 -1.90228E+01
  -1.97040E+01 -2.01870E+01 -2.03206E+01 -1.99868E+01 -1.86883E+01 -1.54338E+01 -1.09668E+01 -6.31176E+00 -1.53468E+00  3.74105E+00
   9.59548E+00  1.53574E+01  1.97647E+01  2.15556E+01  1.99986E+01  1.51701E+01  8.02830E+00  1.61822E-01 -6.83297E+00 -1.20113E+01
  -1.53086E+01 -1.72970E+01 -1.84747E+01 -1.88959E+01 -1.88936E+01 -1.87392E+01 -1.84668E+01 -1.79658E+01 -1.66474E+01 -1.36177E+01
  -9.32973E+00 -4.79456E+00 -1.16953E-01  5.03990E+00  1.07509E+01  1.64384E+01  2.09269E+01  2.29197E+01  2.16660E+01  1.72490E+01
   1.05630E+01  3.10288E+00 -3.64896E+00 -8.83120E+00 -1.23774E+01 -1.47846E+01 -1.64152E+01 -1.72341E+01 -1.73776E+01 -1.71337E+01
  -1.66871E+01 -1.62101E+01 -1.58584E+01 -1.57032E+01 -1.57384E+01 -1.59282E+01 -1.62057E+01 -1.65088E+01 -1.67975E+01 -1.70462E+01
  -1.72472E+01 -1.74023E+01 -1.75374E+01 -1.77141E+01 -1.79015E+01 -1.80543E+01 -1.81583E+01 -1.82169E+01 -1.83173E+01 -1.84673E+01
  -1.85974E+01 -1.86310E+01 -1.85293E+01 -1.83141E+01 -1.80612E+01 -1.78679E+01 -1.78126E+01 -1.79325E+01 -1.82285E+01 -1.85847E+01
  -1.88494E+01 -1.90242E+01 -1.91717E+01 -1.93725E+01 -1.95720E+01 -1.96556E+01 -1.95899E+01 -1.94213E+01 -1.92304E+01 -1.90897E+01
  -1.89456E+01 -1.87282E+01 -1.84145E+01 -1.79867E+01 -1.74427E+01 -1.68233E+01 -1.61383E+01 -1.53898E+01 -1.45815E+01 -1.37837E+01
  -1.31947E+01 -1.29025E+01 -1.28735E+01 -1.30175E+01 -1.32252E+01 -1.33311E+01 -1.31033E+01 -1.25007E+01 -1.15798E+01 -1.04875E+01
  -9.45298E+00 -8.73862E+00 -8.46172E+00 -8.61090E+00 -9.27303E+00 -1.05034E+01 -1.20468E+01 -1.34951E+01 -1.43748E+01 -1.44773E+01
  -1.38348E+01 -1.25009E+01 -1.06529E+01 -8.63388E+00 -6.91639E+00 -5.89639E+00 -5.64519E+00 -6.08073E+00 -7.16425E+00 -8.72593E+00
  -1.03594E+01 -1.15430E+01 -1.19253E+01 -1.14696E+01 -1.03233E+01 -8.70790E+00 -6.95628E+00 -5.52754E+00 -4.62632E+00 -4.15525E+00
  -3.94659E+00 -3.85710E+00 -3.74406E+00 -3.52351E+00 -3.15203E+00 -2.61993E+00 -2.01196E+00 -1.45923E+00 -1.11650E+00 -1.15191E+00
  -1.57855E+00 -2.22731E+00 -2.81034E+00 -3.04177E+00 -2.77307E+00 -2.01143E+00 -8.91507E-01  3.68431E-01  1.54000E+00  2.51932E+00
   3.34797E+00  4.55241E+00  7.96249E+00  1.36478E+01  1.97225E+01  2.57358E+01  3.22245E+01  3.95726E+01  4.72499E+01  5.37783E+01
   5.73431E+01  5.66055E+01  5.12103E+01  4.20067E+01  3.09286E+01  2.03177E+01  1.18875E+01  6.14411E+00  2.46990E+00 -2.02694E-03
  -1.40757E+00 -1.99534E+00 -2.31831E+00 -2.53392E+00 -2.68436E+00 -2.80730E+00 -2.94274E+00 -3.10522E+00 -3.29691E+00 -3.50439E+00
  -3.70641E+00 -3.88541E+00 -4.03414E+00 -4.14931E+00 -4.23084E+00 -4.28454E+00 -4.31806E+00 -4.33633E+00 -4.34037E+00 -4.32825E+00
  -4.29821E+00 -4.24947E+00 -4.17969E+00 -4.08755E+00 -3.97263E+00 -3.83469E+00 -3.67357E+00 -3.48954E+00 -3.28336E+00 -3.05619E+00
  -2.80933E+00 -2.54478E+00 -2.26544E+00 -1.97491E+00 -1.67734E+00 -1.37740E+00 -1.07993E+00 -7.89522E-01 -5.10224E-01 -2.45404E-01
   2.29993E-03  2.31039E-01  4.39939E-01  6.29375E-01  8.00958E-01  9.57335E-01  1.10200E+00  1.23906E+00  1.37298E+00  1.50833E+00
   1.64937E+00  1.79974E+00  1.96219E+00  2.13836E+00  2.32877E+00  2.53277E+00  2.74853E+00  2.97318E+00  3.20293E+00  3.43343E+00
   3.66001E+00  3.87799E+00  4.08292E+00  4.27077E+00  4.43820E+00  4.58280E+00  4.70312E+00  4.79881E+00  4.87043E+00  4.91950E+00
   4.94830E+00  4.95980E+00  4.95744E+00  4.94485E+00  4.92564E+00  4.90315E+00  4.88035E+00  4.85970E+00  4.84296E+00  4.83113E+00
   4.82438E+00  4.82214E+00  4.82314E+00  4.82554E+00  4.82702E+00  4.82492E+00  4.81635E+00  4.79845E+00  4.76853E+00  4.72421E+00
   4.66348E+00  4.58484E+00  4.48734E+00  4.37072E+00  4.23539E+00  4.08238E+00  3.91330E+00  3.73027E+00  3.53588E+00  3.33311E+00
   3.12524E+00  2.91568E+00  2.70790E+00  2.50530E+00  2.31122E+00  2.12883E+00  1.96110E+00  1.81070E+00  1.68001E+00  1.57117E+00
   1.48608E+00  1.42648E+00  1.39388E+00  1.38967E+00  1.41507E+00  1.47128E+00  1.55940E+00  1.68050E+00  1.83545E+00  2.02492E+00
   2.24928E+00  2.50856E+00  2.80223E+00  3.12912E+00  3.48715E+00  3.87333E+00  4.28358E+00  4.71271E+00  5.15441E+00  5.60124E+00
   6.04479E+00  6.47588E+00  6.88487E+00  7.26204E+00  7.59790E+00  7.88362E+00  8.11144E+00  8.27509E+00  8.37009E+00  8.39398E+00
   8.34644E+00  8.22929E+00  8.04639E+00  7.80347E+00  7.50784E+00  7.16797E+00  6.79309E+00  6.39272E+00  5.97635E+00  5.55302E+00
   5.13107E+00  4.71782E+00  4.31944E+00  3.94086E+00  3.58581E+00  3.25687E+00  2.95552E+00  2.68232E+00  2.43700E+00  2.21867E+00
   2.02601E+00  1.85736E+00  1.71088E+00  1.58460E+00  1.47654E+00  1.38477E+00  1.30752E+00  1.24312E+00  1.19006E+00  1.14693E+00
   1.11251E+00  1.08573E+00  1.06564E+00  1.05146E+00  1.04245E+00  1.03798E+00  1.03750E+00  1.04056E+00  1.04678E+00  1.05582E+00
   1.06736E+00  1.08112E+00  1.09687E+00  1.11443E+00  1.13364E+00  1.15436E+00  1.17642E+00  1.19970E+00  1.22409E+00  1.24954E+00
   1.27595E+00  1.30324E+00  1.33133E+00  1.36017E+00  1.38970E+00  1.41990E+00  1.45072E+00  1.48210E+00  1.51399E+00  1.54638E+00
   1.57924E+00  1.61257E+00  1.64632E+00  1.68046E+00  1.71496E+00  1.74983E+00  1.78505E+00  1.82062E+00  1.85649E+00  1.89266E+00
   1.92910E+00  1.96584E+00  2.00285E+00  2.04015E+00  2.07769E+00  2.11546E+00  2.15348E+00  2.19175E+00  2.23028E+00  2.26904E+00
   2.30802E+00  2.34723E+00  2.38667E+00  2.42636E+00  2.46631E+00  2.50650E+00  2.54692E+00  2.58760E+00
 NY background values follow
    -3.688E+01   -3.671E+01   -3.654E+01   -3.637E+01   -3.620E+01   -3.603E+01   -3.586E+01   -3.569E+01   -3.552E+01   -3.535E+01
    -3.518E+01   -3.501E+01   -3.484E+01   -3.467E+01   -3.451E+01   -3.434E+01   -3.417E+01   -3.400E+01   -3.384E+01   -3.367E+01
    -3.350E+01   -3.334E+01   -3.317E+01   -3.301E+01   -3.285E+01   -3.268E+01   -3.252E+01   -3.236E+01   -3.219E+01   -3.203E+01
    -3.187E+01   -3.171E+01   -3.155E+01   -3.139E+01   -3.123E+01   -3.107E+01   -3.092E+01   -3.076E+01   -3.060E+01   -3.045E+01
    -3.029E+01   -3.014E+01   -2.999E+01   -2.983E+01   -2.968E+01   -2.953E+01   -2.938E+01   -2.923E+01   -2.908E+01   -2.894E+01
    -2.879E+01   -2.864E+01   -2.850E+01   -2.835E+01   -2.821E+01   -2.807E+01   -2.793E+01   -2.779E+01   -2.765E+01   -2.751E+01
    -2.737E+01   -2.723E+01   -2.709E+01   -2.696E+01   -2.682E+01   -2.669E+01   -2.656E+01   -2.643E+01   -2.630E+01   -2.617E+01
    -2.604E+01   -2.591E+01   -2.578E+01   -2.566E+01   -2.553E+01   -2.541E+01   -2.528E+01   -2.516E+01   -2.504E+01   -2.492E+01
    -2.480E+01   -2.468E+01   -2.457E+01   -2.445E+01   -2.434E+01   -2.422E+01   -2.411E+01   -2.400E+01   -2.389E+01   -2.378E+01
    -2.367E+01   -2.356E+01   -2.345E+01   -2.335E+01   -2.324E+01   -2.314E+01   -2.304E+01   -2.294E+01   -2.283E+01   -2.273E+01
    -2.264E+01   -2.254E+01   -2.244E+01   -2.234E+01   -2.225E+01   -2.215E+01   -2.206E+01   -2.197E+01   -2.188E+01   -2.178E+01
    -2.169E+01   -2.160E+01   -2.151E+01   -2.142E+01   -2.134E+01   -2.125E+01   -2.116E+01   -2.107E+01   -2.099E+01   -2.090E+01
    -2.082E+01   -2.073E+01   -2.065E+01   -2.057E+01   -2.048E+01   -2.040E+01   -2.032E+01   -2.023E+01   -2.015E+01   -2.007E+01
    -1.999E+01   -1.991E+01   -1.983E+01   -1.975E+01   -1.967E+01   -1.959E+01   -1.951E+01   -1.943E+01   -1.935E+01   -1.927E+01
    -1.919E+01   -1.911E+01   -1.903E+01   -1.895E+01   -1.887E+01   -1.879E+01   -1.871E+01   -1.863E+01   -1.856E+01   -1.848E+01
    -1.840E+01   -1.832E+01   -1.824E+01   -1.816E+01   -1.808E+01   -1.800E+01   -1.792E+01   -1.783E+01   -1.775E+01   -1.767E+01
    -1.759E+01   -1.751E+01   -1.743E+01   -1.734E+01   -1.726E+01   -1.718E+01   -1.709E+01   -1.701E+01   -1.692E+01   -1.684E+01
    -1.675E+01   -1.666E+01   -1.658E+01   -1.649E+01   -1.640E+01   -1.631E+01   -1.622E+01   -1.613E+01   -1.604E+01   -1.595E+01
    -1.586E+01   -1.576E+01   -1.567E+01   -1.558E+01   -1.548E+01   -1.538E+01   -1.529E+01   -1.519E+01   -1.509E+01   -1.500E+01
    -1.490E+01   -1.480E+01   -1.470E+01   -1.460E+01   -1.450E+01   -1.440E+01   -1.430E+01   -1.420E+01   -1.410E+01   -1.400E+01
    -1.389E+01   -1.379E+01   -1.369E+01   -1.359E+01   -1.349E+01   -1.339E+01   -1.329E+01   -1.319E+01   -1.309E+01   -1.298E+01
    -1.288E+01   -1.278E+01   -1.268E+01   -1.259E+01   -1.249E+01   -1.239E+01   -1.229E+01   -1.219E+01   -1.209E+01   -1.200E+01
    -1.190E+01   -1.181E+01   -1.171E+01   -1.162E+01   -1.152E+01   -1.143E+01   -1.134E+01   -1.125E+01   -1.116E+01   -1.107E+01
    -1.098E+01   -1.089E+01   -1.081E+01   -1.072E+01   -1.063E+01   -1.055E+01   -1.047E+01   -1.038E+01   -1.030E+01   -1.022E+01
    -1.014E+01   -1.006E+01   -9.977E+00   -9.898E+00   -9.819E+00   -9.742E+00   -9.664E+00   -9.588E+00   -9.512E+00   -9.437E+00
    -9.362E+00   -9.288E+00   -9.214E+00   -9.141E+00   -9.068E+00   -8.997E+00   -8.925E+00   -8.854E+00   -8.784E+00   -8.714E+00
    -8.644E+00   -8.575E+00   -8.507E+00   -8.439E+00   -8.371E+00   -8.304E+00   -8.237E+00   -8.171E+00   -8.105E+00   -8.039E+00
    -7.974E+00   -7.909E+00   -7.845E+00   -7.780E+00   -7.717E+00   -7.653E+00   -7.590E+00   -7.527E+00   -7.465E+00   -7.403E+00
    -7.341E+00   -7.279E+00   -7.218E+00   -7.157E+00   -7.097E+00   -7.036E+00   -6.976E+00   -6.917E+00   -6.857E+00   -6.798E+00
    -6.739E+00   -6.680E+00   -6.622E+00   -6.564E+00   -6.506E+00   -6.449E+00   -6.391E+00   -6.334E+00   -6.277E+00   -6.221E+00
    -6.164E+00   -6.108E+00   -6.052E+00   -5.996E+00   -5.941E+00   -5.886E+00   -5.831E+00   -5.776E+00   -5.721E+00   -5.666E+00
    -5.612E+00   -5.558E+00   -5.504E+00   -5.450E+00   -5.397E+00   -5.343E+00   -5.290E+00   -5.237E+00   -5.184E+00   -5.131E+00
    -5.078E+00   -5.026E+00   -4.974E+00   -4.921E+00   -4.870E+00   -4.818E+00   -4.766E+00   -4.715E+00   -4.664E+00   -4.613E+00
    -4.562E+00   -4.511E+00   -4.461E+00   -4.411E+00   -4.361E+00   -4.311E+00   -4.261E+00   -4.212E+00   -4.163E+00   -4.114E+00
    -4.065E+00   -4.017E+00   -3.969E+00   -3.921E+00   -3.873E+00   -3.826E+00   -3.779E+00   -3.732E+00   -3.685E+00   -3.639E+00
    -3.593E+00   -3.547E+00   -3.501E+00   -3.456E+00   -3.411E+00   -3.366E+00   -3.322E+00   -3.278E+00   -3.234E+00   -3.190E+00
    -3.147E+00   -3.104E+00   -3.061E+00   -3.019E+00   -2.977E+00   -2.935E+00   -2.894E+00   -2.853E+00   -2.812E+00   -2.771E+00
    -2.730E+00   -2.690E+00   -2.650E+00   -2.610E+00   -2.571E+00   -2.531E+00   -2.492E+00   -2.453E+00   -2.414E+00   -2.375E+00
    -2.337E+00   -2.298E+00   -2.260E+00   -2.222E+00   -2.183E+00   -2.145E+00   -2.107E+00   -2.069E+00   -2.031E+00   -1.994E+00
    -1.956E+00   -1.918E+00   -1.880E+00   -1.843E+00   -1.805E+00   -1.767E+00   -1.730E+00   -1.692E+00   -1.654E+00   -1.616E+00
    -1.578E+00   -1.540E+00   -1.502E+00   -1.464E+00   -1.426E+00   -1.388E+00   -1.349E+00   -1.311E+00   -1.272E+00   -1.233E+00
    -1.194E+00   -1.155E+00   -1.116E+00   -1.077E+00   -1.038E+00   -9.981E-01   -9.585E-01   -9.188E-01   -8.790E-01   -8.391E-01
    -7.991E-01   -7.590E-01   -7.189E-01   -6.786E-01   -6.383E-01   -5.978E-01   -5.573E-01   -5.168E-01   -4.761E-01   -4.354E-01
    -3.946E-01   -3.538E-01   -3.129E-01   -2.719E-01   -2.309E-01   -1.898E-01   -1.487E-01   -1.075E-01   -6.633E-02   -2.508E-02
     1.620E-02    5.752E-02    9.887E-02    1.403E-01    1.817E-01    2.231E-01    2.645E-01    3.060E-01    3.475E-01    3.890E-01
     4.305E-01    4.720E-01    5.135E-01    5.550E-01    5.965E-01    6.380E-01    6.796E-01    7.211E-01    7.626E-01    8.042E-01
     8.458E-01    8.873E-01    9.289E-01    9.705E-01    1.012E+00    1.054E+00    1.096E+00    1.137E+00    1.179E+00    1.221E+00
     1.262E+00    1.304E+00    1.346E+00    1.388E+00    1.430E+00    1.472E+00    1.514E+00    1.556E+00    1.598E+00    1.640E+00
     1.682E+00    1.724E+00    1.767E+00    1.809E+00    1.851E+00    1.894E+00    1.936E+00    1.979E+00    2.021E+00    2.064E+00
     2.106E+00    2.149E+00    2.192E+00    2.235E+00    2.278E+00    2.321E+00    2.364E+00    2.407E+00
 Asp      Conc. = 2.39E+02
