 LCModel (Version 6.3-1L) Copyright: S.W. Provencher.          Ref.: Magn. Reson. Med. 30:672-679 (1993).                
 Slice#3 Row#3 Col#13  PD_05_press_1_raw_act
 36 lines in following concentration table = NCONC+1
    Conc.  %SD /Cr+PCr  Metabolite                                         
 8.41E+03  21%  40.689 Ala                                                 
   65.887  67%   0.319 Asp                                                 
    0.000 999%   0.000 Cr                                                  
  206.811  31%   1.000 PCr                                                 
   27.928  95%   0.135 GABA                                                
   41.281  64%   0.200 Glc                                                 
  218.958 265%   1.059 Gln                                                 
 1.63E+03  44%   7.899 Glu                                                 
    0.000 999%   0.000 GPC                                                 
  128.238  18%   0.620 PCh                                                 
    0.000 999%   0.000 GSH                                                 
  875.153  30%   4.232 Ins                                                 
 4.10E+04  14% 198.303 Lac                                                 
  353.330  23%   1.708 NAA                                                 
    0.000 999%   0.000 NAAG                                                
   23.479  37%   0.114 Scyllo                                              
   95.342  46%   0.461 Tau                                                 
   55.692  88%   0.269 -CrCH2                                              
  128.238  18%   0.620 GPC+PCh                                             
  353.330  23%   1.708 NAA+NAAG                                            
  206.811  31%   1.000 Cr+PCr                                              
 1.85E+03  61%   8.958 Glu+Gln                                             
 3.15E+04  14% 152.403 Lip13a                                              
 1.20E+04  20%  58.101 Lip13b                                              
 9.47E+03  12%  45.784 Lip09                                               
    0.000 999%   0.000 MM09                                                
 5.22E+03  13%  25.235 Lip20                                               
  721.565  68%   3.489 MM20                                                
 1.66E+03  47%   8.014 MM12                                                
 2.28E+04  12% 110.134+MM14                                                
 3.14E+03  28%  15.164 MM17                                                
 4.35E+04   9% 210.504 Lip13a+Lip13b                                       
 6.80E+04   6% 328.652 MM14+Lip13a+Lip13b+MM12                             
 9.47E+03  12%  45.784 MM09+Lip09                                          
 5.94E+03   9%  28.724 MM20+Lip20                                          
   6 lines in following misc. output table
  FWHM = 0.138 ppm    S/N =  73                                            
  Data shift = 0.023 ppm                                                   
  Ph: -88 deg     -45.4 deg/ppm                                            
  alphaB,S = 8.7E+00,   2.0E+02                                            
    7 spline knots.   Ns = 9(2)                                            
  ( 7) 2 infls.   ( 1) 1 extrs.                                            
  498 points on ppm-axis = NY
      4.000000     3.992357     3.984714     3.977070     3.969427     3.961784     3.954141     3.946497     3.938854     3.931211
      3.923568     3.915925     3.908281     3.900638     3.892995     3.885352     3.877708     3.870065     3.862422     3.854779
      3.847136     3.839492     3.831849     3.824206     3.816563     3.808919     3.801276     3.793633     3.785990     3.778347
      3.770703     3.763060     3.755417     3.747774     3.740130     3.732487     3.724844     3.717201     3.709558     3.701914
      3.694271     3.686628     3.678985     3.671341     3.663698     3.656055     3.648412     3.640769     3.633125     3.625482
      3.617839     3.610196     3.602552     3.594909     3.587266     3.579623     3.571980     3.564336     3.556693     3.549050
      3.541407     3.533763     3.526120     3.518477     3.510834     3.503191     3.495547     3.487904     3.480261     3.472618
      3.464974     3.457331     3.449688     3.442045     3.434402     3.426758     3.419115     3.411472     3.403829     3.396185
      3.388542     3.380899     3.373256     3.365613     3.357969     3.350326     3.342683     3.335040     3.327396     3.319753
      3.312110     3.304467     3.296824     3.289180     3.281537     3.273894     3.266251     3.258607     3.250964     3.243321
      3.235678     3.228034     3.220391     3.212748     3.205105     3.197462     3.189818     3.182175     3.174532     3.166889
      3.159245     3.151602     3.143959     3.136316     3.128673     3.121029     3.113386     3.105743     3.098100     3.090456
      3.082813     3.075170     3.067527     3.059884     3.052240     3.044597     3.036954     3.029311     3.021667     3.014024
      3.006381     2.998738     2.991095     2.983451     2.975808     2.968165     2.960522     2.952878     2.945235     2.937592
      2.929949     2.922306     2.914662     2.907019     2.899376     2.891733     2.884089     2.876446     2.868803     2.861160
      2.853517     2.845873     2.838230     2.830587     2.822944     2.815300     2.807657     2.800014     2.792371     2.784728
      2.777084     2.769441     2.761798     2.754155     2.746511     2.738868     2.731225     2.723582     2.715939     2.708295
      2.700652     2.693009     2.685366     2.677722     2.670079     2.662436     2.654793     2.647150     2.639506     2.631863
      2.624220     2.616577     2.608933     2.601290     2.593647     2.586004     2.578361     2.570717     2.563074     2.555431
      2.547788     2.540144     2.532501     2.524858     2.517215     2.509572     2.501928     2.494285     2.486642     2.478999
      2.471355     2.463712     2.456069     2.448426     2.440783     2.433139     2.425496     2.417853     2.410210     2.402566
      2.394923     2.387280     2.379637     2.371994     2.364350     2.356707     2.349064     2.341421     2.333777     2.326134
      2.318491     2.310848     2.303205     2.295561     2.287918     2.280275     2.272632     2.264988     2.257345     2.249702
      2.242059     2.234416     2.226772     2.219129     2.211486     2.203843     2.196199     2.188556     2.180913     2.173270
      2.165627     2.157983     2.150340     2.142697     2.135054     2.127410     2.119767     2.112124     2.104481     2.096838
      2.089194     2.081551     2.073908     2.066265     2.058621     2.050978     2.043335     2.035692     2.028049     2.020405
      2.012762     2.005119     1.997476     1.989833     1.982190     1.974546     1.966903     1.959260     1.951617     1.943974
      1.936331     1.928688     1.921045     1.913402     1.905759     1.898115     1.890472     1.882829     1.875186     1.867543
      1.859900     1.852257     1.844614     1.836971     1.829327     1.821684     1.814041     1.806398     1.798755     1.791112
      1.783469     1.775826     1.768183     1.760540     1.752896     1.745253     1.737610     1.729967     1.722324     1.714681
      1.707038     1.699395     1.691752     1.684108     1.676465     1.668822     1.661179     1.653536     1.645893     1.638250
      1.630607     1.622964     1.615321     1.607677     1.600034     1.592391     1.584748     1.577105     1.569462     1.561819
      1.554176     1.546533     1.538890     1.531246     1.523603     1.515960     1.508317     1.500674     1.493031     1.485388
      1.477745     1.470102     1.462458     1.454815     1.447172     1.439529     1.431886     1.424243     1.416600     1.408957
      1.401314     1.393671     1.386027     1.378384     1.370741     1.363098     1.355455     1.347812     1.340169     1.332526
      1.324883     1.317240     1.309596     1.301953     1.294310     1.286667     1.279024     1.271381     1.263738     1.256095
      1.248452     1.240808     1.233165     1.225522     1.217879     1.210236     1.202593     1.194950     1.187307     1.179664
      1.172021     1.164377     1.156734     1.149091     1.141448     1.133805     1.126162     1.118519     1.110876     1.103233
      1.095590     1.087946     1.080303     1.072660     1.065017     1.057374     1.049731     1.042088     1.034445     1.026802
      1.019158     1.011515     1.003872     0.996229     0.988586     0.980943     0.973300     0.965657     0.958014     0.950371
      0.942727     0.935084     0.927441     0.919798     0.912155     0.904512     0.896869     0.889226     0.881583     0.873940
      0.866296     0.858653     0.851010     0.843367     0.835724     0.828081     0.820438     0.812795     0.805152     0.797508
      0.789865     0.782222     0.774579     0.766936     0.759293     0.751650     0.744007     0.736364     0.728721     0.721077
      0.713434     0.705791     0.698148     0.690505     0.682862     0.675219     0.667576     0.659933     0.652290     0.644646
      0.637003     0.629360     0.621717     0.614074     0.606431     0.598788     0.591145     0.583502     0.575858     0.568215
      0.560572     0.552929     0.545286     0.537643     0.530000     0.522357     0.514714     0.507071     0.499427     0.491784
      0.484141     0.476498     0.468855     0.461212     0.453569     0.445925     0.438282     0.430639     0.422996     0.415353
      0.407710     0.400067     0.392424     0.384780     0.377137     0.369494     0.361851     0.354208     0.346565     0.338922
      0.331278     0.323635     0.315992     0.308349     0.300706     0.293063     0.285420     0.277777     0.270133     0.262490
      0.254847     0.247204     0.239561     0.231918     0.224275     0.216631     0.208988     0.201345
 NY phased data points follow
   1.81416E+01  1.93577E+01  1.95326E+01  1.97354E+01  2.07786E+01  2.10480E+01  2.15003E+01  1.87553E+01  2.11652E+01  1.89275E+01
   1.97396E+01  1.82068E+01  2.00889E+01  2.21705E+01  2.09104E+01  1.95620E+01  1.91724E+01  2.06679E+01  2.10664E+01  2.29971E+01
   2.29508E+01  1.93756E+01  2.08925E+01  2.21083E+01  2.21474E+01  2.32808E+01  2.14651E+01  2.33986E+01  2.44671E+01  2.31061E+01
   2.32468E+01  2.17170E+01  2.21267E+01  2.19447E+01  2.23277E+01  2.26137E+01  2.23027E+01  2.19108E+01  2.26749E+01  2.31880E+01
   2.38277E+01  2.54204E+01  2.34470E+01  2.38833E+01  2.50453E+01  2.54550E+01  2.49476E+01  2.30288E+01  2.52769E+01  2.46359E+01
   2.56972E+01  2.37481E+01  2.32316E+01  2.40660E+01  2.53603E+01  2.64479E+01  2.57891E+01  2.27776E+01  2.50556E+01  2.52722E+01
   2.69934E+01  2.69860E+01  2.76823E+01  2.62857E+01  2.46945E+01  2.56946E+01  2.65050E+01  2.84162E+01  2.53190E+01  2.77848E+01
   2.90626E+01  2.63587E+01  2.82530E+01  2.92149E+01  2.92252E+01  2.86879E+01  2.94123E+01  2.89349E+01  2.70765E+01  2.80887E+01
   2.97363E+01  2.92721E+01  2.65170E+01  2.88390E+01  2.74148E+01  2.87862E+01  2.98492E+01  3.02366E+01  2.90150E+01  2.86063E+01
   2.81584E+01  2.96106E+01  2.88086E+01  3.05552E+01  3.03582E+01  3.04820E+01  2.94934E+01  3.22908E+01  3.02616E+01  3.20667E+01
   3.14974E+01  3.03204E+01  3.01226E+01  3.04738E+01  3.19747E+01  2.85681E+01  3.05796E+01  3.22744E+01  3.11324E+01  3.21220E+01
   3.04364E+01  3.10709E+01  3.20252E+01  3.01438E+01  3.04941E+01  3.08089E+01  3.18797E+01  3.07781E+01  3.11573E+01  3.38403E+01
   3.22092E+01  3.42763E+01  3.30266E+01  3.37826E+01  3.43398E+01  3.46990E+01  3.20003E+01  3.15256E+01  3.39697E+01  3.31774E+01
   3.33760E+01  3.31159E+01  3.26043E+01  3.12656E+01  3.30914E+01  3.39030E+01  3.29666E+01  3.53003E+01  3.20468E+01  3.26709E+01
   3.41741E+01  3.39632E+01  3.25733E+01  3.31333E+01  3.42086E+01  3.44410E+01  3.40047E+01  3.57836E+01  3.53390E+01  3.39287E+01
   3.47938E+01  3.42366E+01  3.48148E+01  3.55048E+01  3.56213E+01  3.48978E+01  3.42754E+01  3.52594E+01  3.62791E+01  3.38461E+01
   3.75618E+01  3.48029E+01  3.67958E+01  3.52145E+01  3.75791E+01  3.62959E+01  3.74822E+01  3.68956E+01  3.52103E+01  3.62482E+01
   3.58407E+01  3.61814E+01  3.73722E+01  3.62244E+01  3.66546E+01  3.85729E+01  3.81096E+01  3.63069E+01  3.63309E+01  3.83515E+01
   3.60500E+01  3.79002E+01  3.77590E+01  3.79731E+01  3.85665E+01  3.73028E+01  3.74815E+01  3.98940E+01  3.77069E+01  3.96241E+01
   3.75048E+01  3.92064E+01  3.93729E+01  3.90725E+01  3.98264E+01  3.79571E+01  3.83116E+01  4.05393E+01  4.01283E+01  3.92634E+01
   3.98861E+01  3.84831E+01  4.04886E+01  3.88302E+01  4.12218E+01  4.07016E+01  4.17653E+01  4.18615E+01  4.03272E+01  4.47648E+01
   4.29898E+01  4.24117E+01  4.47724E+01  4.23510E+01  4.33761E+01  4.47968E+01  4.34500E+01  4.43714E+01  4.27133E+01  4.46666E+01
   4.34192E+01  4.54520E+01  4.48762E+01  4.52344E+01  4.73516E+01  4.91379E+01  4.92366E+01  5.02932E+01  5.06219E+01  4.92171E+01
   5.05624E+01  5.22578E+01  5.34028E+01  5.29159E+01  5.35194E+01  5.64138E+01  5.23075E+01  5.52543E+01  5.58061E+01  5.62847E+01
   5.77462E+01  5.84342E+01  5.81052E+01  5.67721E+01  5.92493E+01  5.93179E+01  5.97848E+01  5.95453E+01  6.10531E+01  6.19699E+01
   6.03774E+01  6.26558E+01  6.29938E+01  6.33278E+01  6.40852E+01  6.37462E+01  6.55648E+01  6.56773E+01  6.89945E+01  6.65218E+01
   6.99228E+01  6.72570E+01  6.95320E+01  6.78067E+01  6.77997E+01  6.77817E+01  6.75541E+01  6.77632E+01  6.98122E+01  6.91307E+01
   6.84975E+01  6.96897E+01  6.81730E+01  6.77008E+01  6.70525E+01  6.89180E+01  6.88482E+01  7.02540E+01  6.57791E+01  6.79372E+01
   6.90624E+01  6.78596E+01  6.90551E+01  6.87861E+01  6.95513E+01  7.11311E+01  7.05237E+01  7.15691E+01  7.04566E+01  7.15997E+01
   7.13310E+01  7.44015E+01  7.55015E+01  7.52193E+01  7.32437E+01  7.66092E+01  8.03132E+01  7.99190E+01  7.98584E+01  8.32743E+01
   8.50170E+01  8.74496E+01  8.90694E+01  8.88591E+01  9.14389E+01  9.45777E+01  9.77887E+01  9.97356E+01  1.04876E+02  1.06909E+02
   1.10765E+02  1.14179E+02  1.17410E+02  1.21849E+02  1.29697E+02  1.35522E+02  1.41484E+02  1.46427E+02  1.51910E+02  1.59981E+02
   1.66052E+02  1.73756E+02  1.82554E+02  1.89477E+02  1.99323E+02  2.06977E+02  2.16047E+02  2.27744E+02  2.35243E+02  2.44314E+02
   2.56569E+02  2.66288E+02  2.74932E+02  2.80547E+02  2.91844E+02  3.01021E+02  3.10181E+02  3.16969E+02  3.24777E+02  3.31023E+02
   3.36448E+02  3.43926E+02  3.48157E+02  3.53042E+02  3.55594E+02  3.59244E+02  3.61566E+02  3.67511E+02  3.71215E+02  3.71577E+02
   3.73258E+02  3.74183E+02  3.76878E+02  3.77191E+02  3.79183E+02  3.76969E+02  3.74508E+02  3.69237E+02  3.67314E+02  3.58895E+02
   3.51062E+02  3.40884E+02  3.32262E+02  3.18611E+02  3.05950E+02  2.89219E+02  2.71425E+02  2.55159E+02  2.41236E+02  2.26499E+02
   2.13637E+02  1.98536E+02  1.88142E+02  1.79261E+02  1.72162E+02  1.62582E+02  1.54778E+02  1.47779E+02  1.43543E+02  1.38554E+02
   1.35365E+02  1.29791E+02  1.26118E+02  1.23346E+02  1.18318E+02  1.15778E+02  1.14611E+02  1.10307E+02  1.07907E+02  1.06573E+02
   1.04029E+02  1.02584E+02  9.83421E+01  9.75816E+01  9.77650E+01  9.68043E+01  9.48253E+01  9.58108E+01  9.25211E+01  8.95478E+01
   9.07225E+01  8.87093E+01  9.05524E+01  8.86318E+01  8.84092E+01  8.74517E+01  8.73849E+01  8.51692E+01  8.34649E+01  8.50894E+01
   8.40980E+01  8.11689E+01  8.00514E+01  8.13318E+01  7.96714E+01  7.82102E+01  7.87811E+01  7.79204E+01  7.60857E+01  7.69932E+01
   7.73629E+01  7.65063E+01  7.52335E+01  7.47164E+01  7.35996E+01  7.44819E+01  7.33202E+01  7.26075E+01  7.18407E+01  7.15188E+01
   6.97946E+01  7.05717E+01  7.12208E+01  7.04554E+01  6.77352E+01  6.64054E+01  6.65250E+01  6.68729E+01  6.58928E+01  6.52444E+01
   6.28653E+01  6.28015E+01  6.35005E+01  6.24079E+01  6.03850E+01  6.23158E+01  6.10805E+01  6.10927E+01  6.04838E+01  6.03467E+01
   6.07940E+01  5.79402E+01  5.71973E+01  5.78319E+01  5.85973E+01  5.70459E+01  5.75571E+01  5.88418E+01  5.54648E+01  5.68371E+01
   5.57804E+01  5.65771E+01  5.44030E+01  5.41818E+01  5.23598E+01  5.41057E+01  5.45826E+01  5.49619E+01  5.16981E+01  5.05426E+01
   4.95622E+01  5.16430E+01  5.16872E+01  5.02150E+01  4.90911E+01  5.12076E+01  4.81611E+01  5.26880E+01  5.04668E+01  5.03837E+01
   4.82902E+01  4.88154E+01  4.88948E+01  4.84266E+01  4.89378E+01  4.77685E+01  4.90644E+01  4.75585E+01  4.67908E+01  4.68209E+01
   4.65857E+01  4.48646E+01  4.67794E+01  4.60632E+01  4.54036E+01  4.52200E+01  4.58139E+01  4.40643E+01
 NY points of the fit to the data follow
   1.96826E+01  2.35812E+01  1.76130E+01  2.03864E+01  1.65444E+01  1.91873E+01  1.69767E+01  1.95288E+01  1.86571E+01  2.10442E+01
   2.04572E+01  2.16793E+01  2.10259E+01  2.22985E+01  2.13672E+01  2.25910E+01  2.14256E+01  2.28039E+01  2.17523E+01  2.31123E+01
   2.18250E+01  2.33733E+01  2.21162E+01  2.34775E+01  2.22423E+01  2.32731E+01  2.19422E+01  2.24318E+01  2.12663E+01  2.13832E+01
   2.08938E+01  2.09020E+01  2.11654E+01  2.11819E+01  2.23332E+01  2.22394E+01  2.39669E+01  2.36368E+01  2.53938E+01  2.46218E+01
   2.61565E+01  2.50107E+01  2.62433E+01  2.49207E+01  2.58032E+01  2.46182E+01  2.55142E+01  2.46862E+01  2.54653E+01  2.49165E+01
   2.55655E+01  2.52586E+01  2.57389E+01  2.53891E+01  2.56394E+01  2.54283E+01  2.56454E+01  2.54779E+01  2.56577E+01  2.55371E+01
   2.57983E+01  2.57322E+01  2.59651E+01  2.58757E+01  2.61128E+01  2.60264E+01  2.62624E+01  2.61608E+01  2.63780E+01  2.62784E+01
   2.64932E+01  2.63988E+01  2.66031E+01  2.65085E+01  2.67004E+01  2.65896E+01  2.67405E+01  2.65986E+01  2.67231E+01  2.65632E+01
   2.66537E+01  2.64866E+01  2.65589E+01  2.63997E+01  2.65140E+01  2.65292E+01  2.66681E+01  2.67632E+01  2.68859E+01  2.70691E+01
   2.72133E+01  2.76188E+01  2.77690E+01  2.83124E+01  2.84357E+01  2.90824E+01  2.91797E+01  2.99579E+01  3.00275E+01  3.08570E+01
   3.08510E+01  3.16141E+01  3.15437E+01  3.22077E+01  3.20389E+01  3.23961E+01  3.21140E+01  3.21647E+01  3.19347E+01  3.17777E+01
   3.15702E+01  3.12281E+01  3.10930E+01  3.07314E+01  3.07963E+01  3.05759E+01  3.07908E+01  3.06569E+01  3.10031E+01  3.09967E+01
   3.14802E+01  3.15643E+01  3.21109E+01  3.21489E+01  3.27135E+01  3.27869E+01  3.33414E+01  3.33490E+01  3.37616E+01  3.36921E+01
   3.39297E+01  3.38206E+01  3.39345E+01  3.38208E+01  3.38288E+01  3.37504E+01  3.37280E+01  3.37308E+01  3.37747E+01  3.38578E+01
   3.39501E+01  3.41019E+01  3.42607E+01  3.44601E+01  3.46707E+01  3.48831E+01  3.50816E+01  3.53067E+01  3.55326E+01  3.57512E+01
   3.59601E+01  3.61605E+01  3.63479E+01  3.65272E+01  3.66833E+01  3.68358E+01  3.69581E+01  3.70815E+01  3.71673E+01  3.72630E+01
   3.73159E+01  3.73853E+01  3.74080E+01  3.74516E+01  3.74459E+01  3.74703E+01  3.74437E+01  3.74485E+01  3.74060E+01  3.73857E+01
   3.73396E+01  3.73043E+01  3.72639E+01  3.72163E+01  3.71902E+01  3.71338E+01  3.71310E+01  3.70808E+01  3.71085E+01  3.70746E+01
   3.71300E+01  3.71176E+01  3.71957E+01  3.72192E+01  3.73255E+01  3.73958E+01  3.75261E+01  3.76454E+01  3.77984E+01  3.79549E+01
   3.81177E+01  3.83073E+01  3.84254E+01  3.86515E+01  3.87507E+01  3.90175E+01  3.91266E+01  3.94737E+01  3.96446E+01  4.00439E+01
   4.02209E+01  4.06461E+01  4.08226E+01  4.12452E+01  4.13837E+01  4.17459E+01  4.18591E+01  4.22170E+01  4.23101E+01  4.26768E+01
   4.27654E+01  4.31384E+01  4.33338E+01  4.37337E+01  4.40220E+01  4.44359E+01  4.47599E+01  4.51118E+01  4.53502E+01  4.56530E+01
   4.57985E+01  4.61559E+01  4.62360E+01  4.67147E+01  4.68578E+01  4.75405E+01  4.78377E+01  4.87358E+01  4.92041E+01  5.01531E+01
   5.07490E+01  5.16285E+01  5.22528E+01  5.29563E+01  5.35394E+01  5.40115E+01  5.45795E+01  5.48978E+01  5.55224E+01  5.56992E+01
   5.63708E+01  5.65019E+01  5.74292E+01  5.76089E+01  5.86024E+01  5.88158E+01  5.98350E+01  6.01490E+01  6.12033E+01  6.16807E+01
   6.26219E+01  6.32428E+01  6.39988E+01  6.47293E+01  6.53152E+01  6.61385E+01  6.65375E+01  6.73937E+01  6.75349E+01  6.83456E+01
   6.82788E+01  6.89944E+01  6.85707E+01  6.90942E+01  6.83349E+01  6.86403E+01  6.77143E+01  6.78718E+01  6.68623E+01  6.69082E+01
   6.60089E+01  6.60473E+01  6.54435E+01  6.55523E+01  6.52204E+01  6.54204E+01  6.53998E+01  6.57135E+01  6.59571E+01  6.63779E+01
   6.67494E+01  6.72486E+01  6.78209E+01  6.84325E+01  6.91088E+01  6.98163E+01  7.05944E+01  7.13840E+01  7.22384E+01  7.31071E+01
   7.40253E+01  7.49595E+01  7.59301E+01  7.69156E+01  7.79278E+01  7.89648E+01  8.00311E+01  8.11346E+01  8.22808E+01  8.34877E+01
   8.47667E+01  8.61443E+01  8.76398E+01  8.92925E+01  9.11388E+01  9.32367E+01  9.56578E+01  9.85292E+01  1.02104E+02  1.06533E+02
   1.10302E+02  1.15142E+02  1.19177E+02  1.24627E+02  1.29237E+02  1.35595E+02  1.39811E+02  1.47291E+02  1.52402E+02  1.60608E+02
   1.66485E+02  1.75223E+02  1.81257E+02  1.90692E+02  1.97497E+02  2.06825E+02  2.14673E+02  2.24259E+02  2.34396E+02  2.46924E+02
   2.56647E+02  2.65743E+02  2.75742E+02  2.82363E+02  2.93477E+02  2.99306E+02  3.09193E+02  3.15654E+02  3.26042E+02  3.30805E+02
   3.39091E+02  3.42058E+02  3.47215E+02  3.52107E+02  3.55750E+02  3.60079E+02  3.62937E+02  3.67559E+02  3.69126E+02  3.71460E+02
   3.73074E+02  3.74562E+02  3.77180E+02  3.77869E+02  3.77900E+02  3.76645E+02  3.74812E+02  3.70233E+02  3.66675E+02  3.59089E+02
   3.51658E+02  3.40316E+02  3.31840E+02  3.17273E+02  3.06208E+02  2.87853E+02  2.73312E+02  2.54478E+02  2.42014E+02  2.26657E+02
   2.14274E+02  2.00862E+02  1.90223E+02  1.80715E+02  1.72383E+02  1.62386E+02  1.54316E+02  1.47643E+02  1.41836E+02  1.36672E+02
   1.32025E+02  1.27822E+02  1.24006E+02  1.20539E+02  1.17385E+02  1.14518E+02  1.11909E+02  1.09537E+02  1.07377E+02  1.05412E+02
   1.03621E+02  1.01988E+02  1.00495E+02  9.91274E+01  9.78685E+01  9.67084E+01  9.56313E+01  9.46293E+01  9.36879E+01  9.28010E+01
   9.19564E+01  9.11500E+01  9.03713E+01  8.96172E+01  8.88785E+01  8.81538E+01  8.74355E+01  8.67239E+01  8.60124E+01  8.53018E+01
   8.45869E+01  8.38697E+01  8.31460E+01  8.24188E+01  8.16845E+01  8.09465E+01  8.02018E+01  7.94545E+01  7.87023E+01  7.79496E+01
   7.71941E+01  7.64402E+01  7.56858E+01  7.49359E+01  7.41882E+01  7.34475E+01  7.27114E+01  7.19844E+01  7.12643E+01  7.05555E+01
   6.98555E+01  6.91686E+01  6.84917E+01  6.78290E+01  6.71776E+01  6.65414E+01  6.59173E+01  6.53088E+01  6.47125E+01  6.41320E+01
   6.35641E+01  6.30120E+01  6.24722E+01  6.19479E+01  6.14353E+01  6.09379E+01  6.04519E+01  5.99806E+01  5.95200E+01  5.90732E+01
   5.86364E+01  5.82130E+01  5.77990E+01  5.73976E+01  5.70049E+01  5.66239E+01  5.62508E+01  5.58890E+01  5.55346E+01  5.51905E+01
   5.48531E+01  5.45254E+01  5.42038E+01  5.38914E+01  5.35845E+01  5.32862E+01  5.29928E+01  5.27073E+01  5.24264E+01  5.21531E+01
   5.18838E+01  5.16215E+01  5.13627E+01  5.11106E+01  5.08617E+01  5.06192E+01  5.03794E+01  5.01455E+01  4.99141E+01  4.96884E+01
   4.94648E+01  4.92467E+01  4.90304E+01  4.88192E+01  4.86097E+01  4.84051E+01  4.82020E+01  4.80037E+01  4.78066E+01  4.76141E+01
   4.74227E+01  4.72360E+01  4.70504E+01  4.68692E+01  4.66891E+01  4.65136E+01  4.63395E+01  4.61703E+01
 NY background values follow
     1.474E+01    1.487E+01    1.500E+01    1.512E+01    1.525E+01    1.537E+01    1.550E+01    1.562E+01    1.574E+01    1.586E+01
     1.597E+01    1.609E+01    1.621E+01    1.632E+01    1.643E+01    1.654E+01    1.665E+01    1.676E+01    1.687E+01    1.698E+01
     1.708E+01    1.719E+01    1.729E+01    1.739E+01    1.750E+01    1.760E+01    1.770E+01    1.779E+01    1.789E+01    1.799E+01
     1.808E+01    1.818E+01    1.827E+01    1.836E+01    1.845E+01    1.854E+01    1.863E+01    1.872E+01    1.881E+01    1.890E+01
     1.898E+01    1.907E+01    1.916E+01    1.924E+01    1.932E+01    1.941E+01    1.949E+01    1.957E+01    1.965E+01    1.973E+01
     1.981E+01    1.989E+01    1.996E+01    2.004E+01    2.012E+01    2.019E+01    2.027E+01    2.034E+01    2.042E+01    2.049E+01
     2.057E+01    2.064E+01    2.071E+01    2.078E+01    2.086E+01    2.093E+01    2.100E+01    2.107E+01    2.114E+01    2.121E+01
     2.128E+01    2.134E+01    2.141E+01    2.148E+01    2.155E+01    2.162E+01    2.168E+01    2.175E+01    2.182E+01    2.188E+01
     2.195E+01    2.202E+01    2.208E+01    2.215E+01    2.222E+01    2.228E+01    2.235E+01    2.241E+01    2.248E+01    2.254E+01
     2.261E+01    2.267E+01    2.274E+01    2.280E+01    2.287E+01    2.293E+01    2.300E+01    2.307E+01    2.313E+01    2.320E+01
     2.326E+01    2.333E+01    2.339E+01    2.346E+01    2.353E+01    2.359E+01    2.366E+01    2.373E+01    2.379E+01    2.386E+01
     2.393E+01    2.400E+01    2.406E+01    2.413E+01    2.420E+01    2.427E+01    2.434E+01    2.441E+01    2.448E+01    2.455E+01
     2.462E+01    2.469E+01    2.477E+01    2.484E+01    2.491E+01    2.498E+01    2.506E+01    2.513E+01    2.521E+01    2.528E+01
     2.536E+01    2.543E+01    2.551E+01    2.559E+01    2.567E+01    2.574E+01    2.582E+01    2.590E+01    2.598E+01    2.606E+01
     2.614E+01    2.622E+01    2.630E+01    2.639E+01    2.647E+01    2.655E+01    2.663E+01    2.672E+01    2.680E+01    2.689E+01
     2.697E+01    2.706E+01    2.714E+01    2.723E+01    2.731E+01    2.740E+01    2.749E+01    2.758E+01    2.766E+01    2.775E+01
     2.784E+01    2.793E+01    2.802E+01    2.811E+01    2.820E+01    2.829E+01    2.838E+01    2.847E+01    2.856E+01    2.866E+01
     2.875E+01    2.884E+01    2.893E+01    2.903E+01    2.912E+01    2.922E+01    2.931E+01    2.941E+01    2.950E+01    2.960E+01
     2.969E+01    2.979E+01    2.988E+01    2.998E+01    3.008E+01    3.018E+01    3.027E+01    3.037E+01    3.047E+01    3.057E+01
     3.067E+01    3.077E+01    3.087E+01    3.097E+01    3.107E+01    3.117E+01    3.127E+01    3.137E+01    3.147E+01    3.157E+01
     3.167E+01    3.177E+01    3.188E+01    3.198E+01    3.208E+01    3.218E+01    3.229E+01    3.239E+01    3.249E+01    3.260E+01
     3.270E+01    3.281E+01    3.291E+01    3.302E+01    3.312E+01    3.323E+01    3.333E+01    3.344E+01    3.354E+01    3.365E+01
     3.375E+01    3.386E+01    3.397E+01    3.407E+01    3.418E+01    3.429E+01    3.440E+01    3.450E+01    3.461E+01    3.472E+01
     3.483E+01    3.493E+01    3.504E+01    3.515E+01    3.526E+01    3.537E+01    3.548E+01    3.559E+01    3.570E+01    3.580E+01
     3.591E+01    3.602E+01    3.613E+01    3.624E+01    3.635E+01    3.646E+01    3.657E+01    3.668E+01    3.679E+01    3.691E+01
     3.702E+01    3.713E+01    3.724E+01    3.735E+01    3.746E+01    3.757E+01    3.768E+01    3.779E+01    3.790E+01    3.801E+01
     3.813E+01    3.824E+01    3.835E+01    3.846E+01    3.857E+01    3.868E+01    3.879E+01    3.890E+01    3.901E+01    3.912E+01
     3.923E+01    3.934E+01    3.945E+01    3.956E+01    3.967E+01    3.978E+01    3.988E+01    3.999E+01    4.010E+01    4.021E+01
     4.032E+01    4.042E+01    4.053E+01    4.064E+01    4.074E+01    4.085E+01    4.095E+01    4.106E+01    4.116E+01    4.127E+01
     4.137E+01    4.147E+01    4.158E+01    4.168E+01    4.178E+01    4.188E+01    4.198E+01    4.208E+01    4.218E+01    4.228E+01
     4.238E+01    4.248E+01    4.258E+01    4.267E+01    4.277E+01    4.287E+01    4.296E+01    4.306E+01    4.315E+01    4.324E+01
     4.333E+01    4.343E+01    4.352E+01    4.361E+01    4.370E+01    4.379E+01    4.387E+01    4.396E+01    4.405E+01    4.413E+01
     4.422E+01    4.430E+01    4.438E+01    4.447E+01    4.455E+01    4.463E+01    4.471E+01    4.478E+01    4.486E+01    4.494E+01
     4.501E+01    4.509E+01    4.516E+01    4.524E+01    4.531E+01    4.538E+01    4.545E+01    4.552E+01    4.558E+01    4.565E+01
     4.571E+01    4.578E+01    4.584E+01    4.590E+01    4.596E+01    4.602E+01    4.608E+01    4.614E+01    4.620E+01    4.625E+01
     4.630E+01    4.636E+01    4.641E+01    4.646E+01    4.651E+01    4.655E+01    4.660E+01    4.664E+01    4.669E+01    4.673E+01
     4.677E+01    4.681E+01    4.685E+01    4.688E+01    4.692E+01    4.695E+01    4.698E+01    4.702E+01    4.704E+01    4.707E+01
     4.710E+01    4.712E+01    4.715E+01    4.717E+01    4.719E+01    4.721E+01    4.722E+01    4.724E+01    4.725E+01    4.727E+01
     4.728E+01    4.729E+01    4.730E+01    4.730E+01    4.731E+01    4.731E+01    4.732E+01    4.732E+01    4.732E+01    4.731E+01
     4.731E+01    4.731E+01    4.730E+01    4.729E+01    4.729E+01    4.728E+01    4.727E+01    4.725E+01    4.724E+01    4.722E+01
     4.721E+01    4.719E+01    4.717E+01    4.715E+01    4.713E+01    4.711E+01    4.709E+01    4.706E+01    4.703E+01    4.701E+01
     4.698E+01    4.695E+01    4.692E+01    4.689E+01    4.685E+01    4.682E+01    4.678E+01    4.675E+01    4.671E+01    4.667E+01
     4.663E+01    4.659E+01    4.655E+01    4.651E+01    4.646E+01    4.642E+01    4.637E+01    4.633E+01    4.628E+01    4.623E+01
     4.618E+01    4.613E+01    4.608E+01    4.603E+01    4.597E+01    4.592E+01    4.586E+01    4.581E+01    4.575E+01    4.569E+01
     4.563E+01    4.558E+01    4.551E+01    4.545E+01    4.539E+01    4.533E+01    4.526E+01    4.520E+01    4.513E+01    4.507E+01
     4.500E+01    4.493E+01    4.487E+01    4.480E+01    4.473E+01    4.466E+01    4.459E+01    4.451E+01    4.444E+01    4.437E+01
     4.429E+01    4.422E+01    4.414E+01    4.407E+01    4.399E+01    4.392E+01    4.384E+01    4.376E+01    4.368E+01    4.360E+01
     4.352E+01    4.344E+01    4.336E+01    4.328E+01    4.320E+01    4.311E+01    4.303E+01    4.295E+01    4.286E+01    4.278E+01
     4.269E+01    4.261E+01    4.252E+01    4.244E+01    4.235E+01    4.226E+01    4.218E+01    4.209E+01    4.200E+01    4.191E+01
     4.182E+01    4.173E+01    4.164E+01    4.155E+01    4.146E+01    4.137E+01    4.128E+01    4.119E+01
 Ala      Conc. = 8.41E+03
