 LCModel (Version 6.3-1L) Copyright: S.W. Provencher.          Ref.: Magn. Reson. Med. 30:672-679 (1993).                
 Slice#2 Row#14 Col#1  PD_05_press_1_raw_act
 36 lines in following concentration table = NCONC+1
    Conc.  %SD /Cr+PCr  Metabolite                                         
    0.000 999%   0.000 Ala                                                 
    6.019  69%   0.219 Asp                                                 
   27.444  58%   1.000 Cr                                                  
    0.000 999%   0.000 PCr                                                 
    3.684  67%   0.134 GABA                                                
    3.680  68%   0.134 Glc                                                 
  178.300  54%   6.497 Gln                                                 
    0.000 999%   0.000 Glu                                                 
    0.000 999%   0.000 GPC                                                 
   20.891  31%   0.761 PCh                                                 
   85.568  29%   3.118 GSH                                                 
  281.281  30%  10.249 Ins                                                 
    0.000 999%   0.000 Lac                                                 
   27.361  86%   0.997 NAA                                                 
    3.318 727%   0.121 NAAG                                                
    1.332  62% 4.9E-02 Scyllo                                              
    6.597  62%   0.240 Tau                                                 
   13.584  66%   0.495 -CrCH2                                              
   20.891  31%   0.761 GPC+PCh                                             
   30.680  59%   1.118 NAA+NAAG                                            
   27.444  58%   1.000 Cr+PCr                                              
  178.300  54%   6.497 Glu+Gln                                             
    0.000 999%   0.000 Lip13a                                              
   15.127 156%   0.551 Lip13b                                              
    0.000 999%   0.000 Lip09                                               
    0.000 999%   0.000 MM09                                                
    7.025 287%   0.256 Lip20                                               
   42.945  95%   1.565 MM20                                                
    0.000 999%   0.000 MM12                                                
   73.154  51%   2.666 MM14                                                
    0.000 999%   0.000 MM17                                                
   15.127 156%   0.551 Lip13a+Lip13b                                       
   88.281  48%   3.217 MM14+Lip13a+Lip13b+MM12                             
    0.000 999%   0.000 MM09+Lip09                                          
   49.970  88%   1.821 MM20+Lip20                                          
   6 lines in following misc. output table
  FWHM = 0.069 ppm    S/N =   1                                            
  Data shift = 0.229 ppm                                                   
  Ph: -60 deg      19.6 deg/ppm                                            
  alphaB,S = 4.1E+01,   1.6E+01                                            
   14 spline knots.   Ns =11(1)                                            
  ( 5) 4 infls.   ( 4) 2 extrs.                                            
  498 points on ppm-axis = NY
      4.000000     3.992357     3.984714     3.977070     3.969427     3.961784     3.954141     3.946497     3.938854     3.931211
      3.923568     3.915925     3.908281     3.900638     3.892995     3.885352     3.877708     3.870065     3.862422     3.854779
      3.847136     3.839492     3.831849     3.824206     3.816563     3.808919     3.801276     3.793633     3.785990     3.778347
      3.770703     3.763060     3.755417     3.747774     3.740130     3.732487     3.724844     3.717201     3.709558     3.701914
      3.694271     3.686628     3.678985     3.671341     3.663698     3.656055     3.648412     3.640769     3.633125     3.625482
      3.617839     3.610196     3.602552     3.594909     3.587266     3.579623     3.571980     3.564336     3.556693     3.549050
      3.541407     3.533763     3.526120     3.518477     3.510834     3.503191     3.495547     3.487904     3.480261     3.472618
      3.464974     3.457331     3.449688     3.442045     3.434402     3.426758     3.419115     3.411472     3.403829     3.396185
      3.388542     3.380899     3.373256     3.365613     3.357969     3.350326     3.342683     3.335040     3.327396     3.319753
      3.312110     3.304467     3.296824     3.289180     3.281537     3.273894     3.266251     3.258607     3.250964     3.243321
      3.235678     3.228034     3.220391     3.212748     3.205105     3.197462     3.189818     3.182175     3.174532     3.166889
      3.159245     3.151602     3.143959     3.136316     3.128673     3.121029     3.113386     3.105743     3.098100     3.090456
      3.082813     3.075170     3.067527     3.059884     3.052240     3.044597     3.036954     3.029311     3.021667     3.014024
      3.006381     2.998738     2.991095     2.983451     2.975808     2.968165     2.960522     2.952878     2.945235     2.937592
      2.929949     2.922306     2.914662     2.907019     2.899376     2.891733     2.884089     2.876446     2.868803     2.861160
      2.853517     2.845873     2.838230     2.830587     2.822944     2.815300     2.807657     2.800014     2.792371     2.784728
      2.777084     2.769441     2.761798     2.754155     2.746511     2.738868     2.731225     2.723582     2.715939     2.708295
      2.700652     2.693009     2.685366     2.677722     2.670079     2.662436     2.654793     2.647150     2.639506     2.631863
      2.624220     2.616577     2.608933     2.601290     2.593647     2.586004     2.578361     2.570717     2.563074     2.555431
      2.547788     2.540144     2.532501     2.524858     2.517215     2.509572     2.501928     2.494285     2.486642     2.478999
      2.471355     2.463712     2.456069     2.448426     2.440783     2.433139     2.425496     2.417853     2.410210     2.402566
      2.394923     2.387280     2.379637     2.371994     2.364350     2.356707     2.349064     2.341421     2.333777     2.326134
      2.318491     2.310848     2.303205     2.295561     2.287918     2.280275     2.272632     2.264988     2.257345     2.249702
      2.242059     2.234416     2.226772     2.219129     2.211486     2.203843     2.196199     2.188556     2.180913     2.173270
      2.165627     2.157983     2.150340     2.142697     2.135054     2.127410     2.119767     2.112124     2.104481     2.096838
      2.089194     2.081551     2.073908     2.066265     2.058621     2.050978     2.043335     2.035692     2.028049     2.020405
      2.012762     2.005119     1.997476     1.989833     1.982190     1.974546     1.966903     1.959260     1.951617     1.943974
      1.936331     1.928688     1.921045     1.913402     1.905759     1.898115     1.890472     1.882829     1.875186     1.867543
      1.859900     1.852257     1.844614     1.836971     1.829327     1.821684     1.814041     1.806398     1.798755     1.791112
      1.783469     1.775826     1.768183     1.760540     1.752896     1.745253     1.737610     1.729967     1.722324     1.714681
      1.707038     1.699395     1.691752     1.684108     1.676465     1.668822     1.661179     1.653536     1.645893     1.638250
      1.630607     1.622964     1.615321     1.607677     1.600034     1.592391     1.584748     1.577105     1.569462     1.561819
      1.554176     1.546533     1.538890     1.531246     1.523603     1.515960     1.508317     1.500674     1.493031     1.485388
      1.477745     1.470102     1.462458     1.454815     1.447172     1.439529     1.431886     1.424243     1.416600     1.408957
      1.401314     1.393671     1.386027     1.378384     1.370741     1.363098     1.355455     1.347812     1.340169     1.332526
      1.324883     1.317240     1.309596     1.301953     1.294310     1.286667     1.279024     1.271381     1.263738     1.256095
      1.248452     1.240808     1.233165     1.225522     1.217879     1.210236     1.202593     1.194950     1.187307     1.179664
      1.172021     1.164377     1.156734     1.149091     1.141448     1.133805     1.126162     1.118519     1.110876     1.103233
      1.095590     1.087946     1.080303     1.072660     1.065017     1.057374     1.049731     1.042088     1.034445     1.026802
      1.019158     1.011515     1.003872     0.996229     0.988586     0.980943     0.973300     0.965657     0.958014     0.950371
      0.942727     0.935084     0.927441     0.919798     0.912155     0.904512     0.896869     0.889226     0.881583     0.873940
      0.866296     0.858653     0.851010     0.843367     0.835724     0.828081     0.820438     0.812795     0.805152     0.797508
      0.789865     0.782222     0.774579     0.766936     0.759293     0.751650     0.744007     0.736364     0.728721     0.721077
      0.713434     0.705791     0.698148     0.690505     0.682862     0.675219     0.667576     0.659933     0.652290     0.644646
      0.637003     0.629360     0.621717     0.614074     0.606431     0.598788     0.591145     0.583502     0.575858     0.568215
      0.560572     0.552929     0.545286     0.537643     0.530000     0.522357     0.514714     0.507071     0.499427     0.491784
      0.484141     0.476498     0.468855     0.461212     0.453569     0.445925     0.438282     0.430639     0.422996     0.415353
      0.407710     0.400067     0.392424     0.384780     0.377137     0.369494     0.361851     0.354208     0.346565     0.338922
      0.331278     0.323635     0.315992     0.308349     0.300706     0.293063     0.285420     0.277777     0.270133     0.262490
      0.254847     0.247204     0.239561     0.231918     0.224275     0.216631     0.208988     0.201345
 NY phased data points follow
  -7.55798E+00 -6.18631E+00 -8.24009E+00 -6.67560E+00 -6.70745E+00 -8.59460E+00 -9.26061E+00 -7.96195E+00 -8.13189E+00 -7.92877E+00
  -8.77948E+00 -7.74930E+00 -6.37249E+00 -7.30922E+00 -7.77533E+00 -7.52238E+00 -7.08881E+00 -6.09360E+00 -6.71844E+00 -7.61502E+00
  -6.09406E+00 -8.22169E+00 -5.81047E+00 -7.85683E+00 -7.34381E+00 -5.48475E+00 -8.14771E+00 -6.13354E+00 -7.19691E+00 -5.61425E+00
  -4.77949E+00 -5.41633E+00 -3.55307E+00 -4.83393E+00 -5.39506E+00 -5.88863E+00 -6.31474E+00 -7.09684E+00 -7.09104E+00 -6.31144E+00
  -7.17939E+00 -5.51057E+00 -5.80546E+00 -6.61474E+00 -5.70136E+00 -4.30806E+00 -4.48059E+00 -6.26996E+00 -5.31104E+00 -4.09154E+00
  -5.66883E+00 -4.63550E+00 -4.61408E+00 -4.34242E+00 -4.44202E+00 -5.46093E+00 -5.93991E+00 -4.63544E+00 -5.43962E+00 -4.59266E+00
  -4.39583E+00 -3.97052E+00 -5.89517E+00 -5.06965E+00 -5.28141E+00 -5.26273E+00 -4.00269E+00 -4.02851E+00 -3.50902E+00 -4.63926E+00
  -4.69540E+00 -3.77566E+00 -6.22820E+00 -4.72688E+00 -4.67957E+00 -4.86618E+00 -4.47070E+00 -5.26865E+00 -4.46822E+00 -4.71813E+00
  -4.42196E+00 -3.76716E+00 -4.80325E+00 -2.47617E+00 -4.40513E+00 -6.54302E+00 -4.44958E+00 -4.21070E+00 -5.00121E+00 -4.46742E+00
  -5.17284E+00 -4.40251E+00 -5.57917E+00 -5.23393E+00 -4.17092E+00 -5.71903E+00 -4.56511E+00 -6.03474E+00 -5.26575E+00 -5.57058E+00
  -4.49216E+00 -4.29658E+00 -3.93939E+00 -3.15784E+00 -3.69555E+00 -3.91387E+00 -4.76497E+00 -3.73300E+00 -4.05049E+00 -5.81743E+00
  -5.65144E+00 -3.83394E+00 -4.52012E+00 -3.51096E+00 -4.44075E+00 -4.59915E+00 -5.34667E+00 -3.88825E+00 -5.26188E+00 -2.74519E+00
  -5.88868E+00 -4.44858E+00 -3.84233E+00 -3.66645E+00 -3.46648E+00 -4.50066E+00 -3.29797E+00 -4.22367E+00 -5.13585E+00 -3.14023E+00
  -3.69878E+00 -3.51981E+00 -2.20555E+00 -3.51570E+00 -4.34825E+00 -4.47970E+00 -3.34473E+00 -3.22363E+00 -3.82269E+00 -3.96920E+00
  -3.60998E+00 -4.30223E+00 -2.50884E+00 -2.84037E+00 -3.68996E+00 -3.38847E+00 -3.71423E+00 -4.98418E+00 -3.96373E+00 -3.81892E+00
  -2.10816E+00 -3.33287E+00 -3.21056E+00 -3.40266E+00 -3.74417E+00 -2.33752E+00 -3.46356E+00 -3.69175E+00 -3.14159E+00 -4.24426E+00
  -2.56437E+00 -4.62850E+00 -2.98035E+00 -3.93631E+00 -4.31478E+00 -2.82714E+00 -5.11018E+00 -5.34255E+00 -4.75496E+00 -3.40999E+00
  -3.69829E+00 -4.90989E+00 -3.58831E+00 -4.30613E+00 -4.65713E+00 -5.75441E+00 -2.96465E+00 -3.95622E+00 -1.61101E+00 -4.27316E+00
  -4.01079E+00 -4.29150E+00 -4.24671E+00 -3.42986E+00 -3.94217E+00 -4.90034E+00 -5.46960E+00 -4.81360E+00 -3.82552E+00 -3.94700E+00
  -4.38646E+00 -4.24110E+00 -2.96152E+00 -3.09566E+00 -4.60667E+00 -4.03480E+00 -4.51648E+00 -3.56568E+00 -3.66655E+00 -4.09654E+00
  -2.82758E+00 -2.00010E+00 -3.26049E+00 -3.84862E+00 -2.67650E+00 -3.19658E+00 -3.52562E+00 -2.07269E+00 -4.84450E+00 -2.14666E+00
  -2.73801E+00 -4.15250E+00 -3.16013E+00 -5.06966E+00 -2.66556E+00 -3.45890E+00 -4.68158E+00 -4.02394E+00 -3.24626E+00 -3.35973E+00
  -4.77801E+00 -4.49674E+00 -3.86084E+00 -3.16951E+00 -3.21329E+00 -2.26199E+00 -2.68072E+00 -1.52971E+00 -2.61974E+00 -1.21740E+00
  -4.21046E+00 -3.63732E+00 -2.13693E+00 -2.07813E+00 -2.54077E+00 -3.22811E+00 -2.02819E+00 -1.35814E+00 -1.16697E+00 -3.32059E+00
  -2.86488E+00 -3.98092E+00 -1.66597E+00 -3.69399E+00 -2.29392E+00 -2.19803E+00 -2.56610E+00 -2.99825E+00 -3.26683E+00 -1.89731E+00
  -2.58538E+00 -2.34645E+00 -3.09290E+00 -1.65823E+00 -1.94860E+00 -2.74788E+00 -1.76604E+00 -2.41129E+00 -2.87293E+00 -3.44932E+00
  -2.75899E+00 -1.83026E+00 -2.26355E+00 -4.54556E-01 -1.72773E+00 -1.92009E+00 -2.26578E+00 -6.26798E-01 -1.99184E+00 -9.88808E-01
  -1.77618E+00 -1.27930E+00 -1.34609E+00 -2.08692E+00 -1.81854E+00 -3.86380E+00 -2.63850E+00 -2.19341E+00 -1.23765E+00 -1.83195E+00
  -3.46007E+00 -1.93290E+00 -2.55424E+00 -1.96845E+00 -1.76159E+00 -1.56441E+00 -4.67457E+00 -2.52518E+00 -1.66565E+00 -1.53460E+00
  -1.53438E+00 -2.03358E+00 -3.83090E+00 -3.92177E+00 -1.35182E+00 -3.18562E+00 -1.26913E+00 -3.71567E+00 -3.77164E+00 -1.10621E+00
  -1.80567E+00 -2.35261E+00 -2.37998E+00 -1.55813E+00 -1.33012E+00 -3.78675E+00 -2.71099E+00 -3.76791E+00 -1.40327E+00 -2.26773E+00
  -2.43196E+00 -2.61127E+00 -5.66319E-01 -2.95933E+00 -2.01328E+00 -1.86630E+00 -2.76480E+00 -2.04008E+00 -1.37535E+00 -2.57266E+00
  -1.62250E+00 -9.72529E-01 -2.86760E+00 -2.65434E+00 -2.22531E+00 -2.33740E+00 -5.06343E-01 -5.38011E-01 -1.98092E+00 -1.16727E-01
  -1.40485E+00 -8.33160E-01 -1.83701E+00 -1.62967E+00 -5.86473E-01  1.93351E-01 -1.35076E+00  1.28186E-02 -7.73396E-01 -5.53452E-01
  -1.43130E+00  9.70057E-01 -1.12425E+00 -1.33162E+00 -6.14486E-01 -1.70172E+00 -1.80819E+00 -1.68158E+00 -2.53283E+00 -1.56975E+00
  -1.20422E+00 -5.28425E-01 -1.12016E+00 -1.69423E+00 -1.35731E+00 -4.10169E-01 -1.81737E+00  3.88595E-01 -1.93109E+00 -1.07264E+00
  -1.28876E+00 -5.01503E-01 -1.07800E+00 -3.99716E-01  1.57979E-01 -1.71217E+00  8.41240E-01 -1.43410E+00 -1.48970E+00 -3.99188E-02
  -7.24802E-01 -6.26699E-01 -8.66113E-01 -1.27749E+00 -1.28088E+00 -9.52228E-01 -2.80343E+00 -8.70974E-01  2.23975E+00 -8.94744E-01
  -1.78380E+00  3.28614E-01 -1.33580E+00  4.17222E-01 -1.36305E+00 -2.72734E+00 -9.56875E-01 -7.56182E-01 -2.70556E+00 -1.34673E+00
   1.98139E-01 -3.65010E-01 -1.50630E+00 -1.38952E+00 -1.30917E+00 -1.08790E+00  5.77157E-01 -1.75043E+00 -2.10086E+00 -5.42291E-01
  -2.03128E+00 -5.70546E-01 -2.00235E+00 -1.16217E+00 -1.88163E+00 -1.22395E+00 -8.40814E-01 -1.91305E+00  1.45342E-01 -1.90945E+00
  -1.27517E+00 -4.75619E-01 -1.14419E+00  4.81267E-02 -8.76741E-01  1.64519E-01 -1.27488E+00 -1.06686E+00 -4.80700E-01 -1.45433E+00
  -8.56675E-01 -1.69689E-01 -1.33018E+00 -1.14434E+00 -2.06130E+00  2.96778E-01 -1.32261E+00 -6.95061E-01 -7.84365E-01 -1.04761E+00
  -4.90397E-01 -4.91749E-01 -4.13782E-02 -8.42826E-01 -8.10899E-03 -1.08653E+00 -2.14487E+00 -7.08134E-01 -1.79966E+00  1.49631E-01
  -1.51491E+00  5.38619E-01 -1.25154E+00 -5.48973E-01  4.62504E-01  1.71528E-01 -1.23650E+00 -1.14781E+00 -1.25595E+00 -1.34104E+00
  -5.74116E-01 -1.10234E+00 -1.95036E-01 -1.17679E+00 -8.70966E-01 -1.39962E+00 -1.63735E+00 -7.36823E-01 -1.14684E-01 -1.79785E-01
  -3.63451E-01 -3.47306E-01 -1.04336E-01 -8.75841E-01 -9.98217E-01 -1.47188E+00  9.87901E-02 -2.00179E+00 -2.20733E+00 -7.65378E-01
  -1.36781E+00 -2.93099E-01 -1.61867E+00 -9.35925E-01 -7.75550E-01 -7.22923E-01 -5.81229E-01 -6.52935E-01 -2.52548E+00  5.68837E-01
  -1.62444E+00 -1.67811E+00 -3.36295E-01  4.45078E-01 -2.38364E-01 -1.17782E+00 -7.08442E-01 -1.16955E+00 -2.39457E+00 -2.72433E-01
  -5.16533E-01 -1.93292E+00 -2.41505E+00 -1.05990E+00 -1.24672E+00 -1.30256E-01  2.65427E-01 -1.26249E+00
 NY points of the fit to the data follow
  -6.29663E+00 -6.37443E+00 -6.43111E+00 -6.46652E+00 -6.54273E+00 -6.67113E+00 -6.75503E+00 -6.77209E+00 -6.75252E+00 -6.72130E+00
  -6.70534E+00 -6.69550E+00 -6.67775E+00 -6.64549E+00 -6.62077E+00 -6.62794E+00 -6.65221E+00 -6.68083E+00 -6.71042E+00 -6.77492E+00
  -6.80695E+00 -6.75912E+00 -6.74478E+00 -6.84976E+00 -6.90867E+00 -6.77729E+00 -6.48907E+00 -6.09089E+00 -5.71794E+00 -5.39998E+00
  -5.14381E+00 -4.97981E+00 -4.88977E+00 -4.89178E+00 -4.98846E+00 -5.19931E+00 -5.47451E+00 -5.69348E+00 -5.73317E+00 -5.61394E+00
  -5.51832E+00 -5.55073E+00 -5.63615E+00 -5.56230E+00 -5.30735E+00 -5.02970E+00 -4.83357E+00 -4.73997E+00 -4.71791E+00 -4.76271E+00
  -4.86317E+00 -5.00689E+00 -5.19229E+00 -5.38406E+00 -5.48019E+00 -5.39580E+00 -5.15570E+00 -4.91473E+00 -4.80382E+00 -4.85278E+00
  -4.99182E+00 -5.11545E+00 -5.18778E+00 -5.21613E+00 -5.22589E+00 -5.25309E+00 -5.26754E+00 -5.22780E+00 -5.12398E+00 -4.98302E+00
  -4.85949E+00 -4.79816E+00 -4.79427E+00 -4.81181E+00 -4.83101E+00 -4.83556E+00 -4.81200E+00 -4.77132E+00 -4.73404E+00 -4.71367E+00
  -4.69250E+00 -4.67562E+00 -4.68461E+00 -4.75056E+00 -4.88201E+00 -5.03556E+00 -5.17689E+00 -5.28143E+00 -5.35060E+00 -5.39728E+00
  -5.41849E+00 -5.40105E+00 -5.38351E+00 -5.41233E+00 -5.40702E+00 -5.36518E+00 -5.39036E+00 -5.48960E+00 -5.47543E+00 -5.28229E+00
  -4.94485E+00 -4.59673E+00 -4.35745E+00 -4.18405E+00 -4.04344E+00 -3.93648E+00 -3.90971E+00 -3.97688E+00 -4.11404E+00 -4.28327E+00
  -4.37747E+00 -4.34433E+00 -4.23494E+00 -4.16677E+00 -4.19024E+00 -4.31977E+00 -4.51163E+00 -4.65780E+00 -4.72844E+00 -4.74183E+00
  -4.76057E+00 -4.78070E+00 -4.74311E+00 -4.64023E+00 -4.46701E+00 -4.27270E+00 -4.12825E+00 -4.02592E+00 -3.91977E+00 -3.80691E+00
  -3.72038E+00 -3.69966E+00 -3.76068E+00 -3.87256E+00 -3.96377E+00 -4.00441E+00 -3.99883E+00 -3.99233E+00 -4.00533E+00 -4.03936E+00
  -4.05120E+00 -3.98999E+00 -3.90313E+00 -3.84395E+00 -3.83531E+00 -3.88027E+00 -3.94565E+00 -3.98342E+00 -3.97768E+00 -3.94503E+00
  -3.90127E+00 -3.87511E+00 -3.87703E+00 -3.89276E+00 -3.91652E+00 -3.93120E+00 -3.93721E+00 -3.93907E+00 -3.93971E+00 -3.93810E+00
  -3.93439E+00 -3.93290E+00 -3.93418E+00 -3.93582E+00 -3.93179E+00 -3.91936E+00 -3.90290E+00 -3.88813E+00 -3.87726E+00 -3.86684E+00
  -3.85466E+00 -3.84458E+00 -3.83811E+00 -3.83530E+00 -3.82987E+00 -3.81951E+00 -3.81359E+00 -3.81830E+00 -3.82670E+00 -3.83759E+00
  -3.85494E+00 -3.87575E+00 -3.89797E+00 -3.91476E+00 -3.92125E+00 -3.91471E+00 -3.86690E+00 -3.76393E+00 -3.65293E+00 -3.57972E+00
  -3.53104E+00 -3.51411E+00 -3.55949E+00 -3.66367E+00 -3.80676E+00 -3.96614E+00 -4.08356E+00 -4.10946E+00 -4.03881E+00 -3.87435E+00
  -3.62816E+00 -3.41350E+00 -3.27508E+00 -3.15252E+00 -3.06845E+00 -3.13753E+00 -3.34414E+00 -3.59532E+00 -3.78558E+00 -3.84615E+00
  -3.82812E+00 -3.80010E+00 -3.76691E+00 -3.70037E+00 -3.60037E+00 -3.48557E+00 -3.37347E+00 -3.32291E+00 -3.35566E+00 -3.40174E+00
  -3.37810E+00 -3.27139E+00 -3.11897E+00 -2.98730E+00 -2.91986E+00 -2.86166E+00 -2.80423E+00 -2.81362E+00 -2.87707E+00 -2.91509E+00
  -2.92189E+00 -2.96344E+00 -2.99917E+00 -2.99326E+00 -2.96220E+00 -2.92158E+00 -2.85304E+00 -2.74810E+00 -2.65326E+00 -2.61757E+00
  -2.66367E+00 -2.74929E+00 -2.81458E+00 -2.86858E+00 -2.95027E+00 -3.05326E+00 -3.12552E+00 -3.14605E+00 -3.09987E+00 -3.02543E+00
  -2.99837E+00 -2.98261E+00 -2.94389E+00 -2.91974E+00 -2.93344E+00 -2.89350E+00 -2.77995E+00 -2.61926E+00 -2.44981E+00 -2.31272E+00
  -2.20199E+00 -2.10940E+00 -2.02931E+00 -1.97813E+00 -1.96702E+00 -1.99154E+00 -2.05120E+00 -2.10643E+00 -2.11436E+00 -2.07318E+00
  -2.03361E+00 -2.02529E+00 -2.06016E+00 -2.12298E+00 -2.16096E+00 -2.17826E+00 -2.18768E+00 -2.19361E+00 -2.19787E+00 -2.20095E+00
  -2.20286E+00 -2.20326E+00 -2.20222E+00 -2.20020E+00 -2.19721E+00 -2.19321E+00 -2.18861E+00 -2.18354E+00 -2.17806E+00 -2.17233E+00
  -2.16628E+00 -2.16005E+00 -2.15378E+00 -2.14726E+00 -2.14034E+00 -2.13323E+00 -2.12618E+00 -2.11914E+00 -2.11220E+00 -2.10526E+00
  -2.09822E+00 -2.09107E+00 -2.08385E+00 -2.07653E+00 -2.06909E+00 -2.06159E+00 -2.05395E+00 -2.04608E+00 -2.03794E+00 -2.02946E+00
  -2.02054E+00 -2.01111E+00 -2.00112E+00 -1.99051E+00 -1.97914E+00 -1.96686E+00 -1.95355E+00 -1.93907E+00 -1.92334E+00 -1.90625E+00
  -1.88772E+00 -1.86766E+00 -1.84604E+00 -1.82284E+00 -1.79810E+00 -1.77191E+00 -1.74437E+00 -1.71566E+00 -1.68598E+00 -1.65559E+00
  -1.62479E+00 -1.59389E+00 -1.56324E+00 -1.53319E+00 -1.50408E+00 -1.47628E+00 -1.45013E+00 -1.42592E+00 -1.40394E+00 -1.38441E+00
  -1.36751E+00 -1.35334E+00 -1.34187E+00 -1.33292E+00 -1.32614E+00 -1.32088E+00 -1.31623E+00 -1.31104E+00 -1.30392E+00 -1.29346E+00
  -1.27842E+00 -1.25799E+00 -1.23203E+00 -1.20124E+00 -1.16718E+00 -1.13208E+00 -1.09855E+00 -1.06911E+00 -1.04585E+00 -1.03000E+00
  -1.02185E+00 -1.02075E+00 -1.02535E+00 -1.03388E+00 -1.04452E+00 -1.05563E+00 -1.06594E+00 -1.07463E+00 -1.08128E+00 -1.08580E+00
  -1.08832E+00 -1.08907E+00 -1.08835E+00 -1.08643E+00 -1.08356E+00 -1.07993E+00 -1.07570E+00 -1.07097E+00 -1.06585E+00 -1.06038E+00
  -1.05463E+00 -1.04864E+00 -1.04245E+00 -1.03606E+00 -1.02951E+00 -1.02282E+00 -1.01600E+00 -1.00907E+00 -1.00204E+00 -9.94910E-01
  -9.87705E-01 -9.80425E-01 -9.73086E-01 -9.65687E-01 -9.58239E-01 -9.50740E-01 -9.43202E-01 -9.35625E-01 -9.28023E-01 -9.20391E-01
  -9.12735E-01 -9.05053E-01 -8.97357E-01 -8.89644E-01 -8.81924E-01 -8.74190E-01 -8.66449E-01 -8.58697E-01 -8.50945E-01 -8.43191E-01
  -8.35441E-01 -8.27687E-01 -8.19937E-01 -8.12188E-01 -8.04450E-01 -7.96719E-01 -7.88998E-01 -7.81282E-01 -7.73578E-01 -7.65883E-01
  -7.58207E-01 -7.50543E-01 -7.42894E-01 -7.35254E-01 -7.27633E-01 -7.20028E-01 -7.12446E-01 -7.04879E-01 -6.97332E-01 -6.89800E-01
  -6.82292E-01 -6.74805E-01 -6.67344E-01 -6.59900E-01 -6.52481E-01 -6.45080E-01 -6.37708E-01 -6.30360E-01 -6.23040E-01 -6.15740E-01
  -6.08466E-01 -6.01217E-01 -5.94000E-01 -5.86808E-01 -5.79645E-01 -5.72506E-01 -5.65396E-01 -5.58314E-01 -5.51267E-01 -5.44247E-01
  -5.37259E-01 -5.30296E-01 -5.23368E-01 -5.16472E-01 -5.09612E-01 -5.02780E-01 -4.95982E-01 -4.89214E-01 -4.82483E-01 -4.75787E-01
  -4.69129E-01 -4.62503E-01 -4.55912E-01 -4.49355E-01 -4.42840E-01 -4.36361E-01 -4.29922E-01 -4.23516E-01 -4.17149E-01 -4.10821E-01
  -4.04540E-01 -3.98298E-01 -3.92100E-01 -3.85938E-01 -3.79823E-01 -3.73752E-01 -3.67731E-01 -3.61755E-01 -3.55827E-01 -3.49942E-01
  -3.44112E-01 -3.38335E-01 -3.32615E-01 -3.26947E-01 -3.21335E-01 -3.15779E-01 -3.10288E-01 -3.04863E-01 -2.99507E-01 -2.94216E-01
  -2.88997E-01 -2.83853E-01 -2.78797E-01 -2.73827E-01 -2.68950E-01 -2.64164E-01 -2.59484E-01 -2.54917E-01
 NY background values follow
    -7.047E+00   -7.029E+00   -7.010E+00   -6.992E+00   -6.973E+00   -6.955E+00   -6.937E+00   -6.918E+00   -6.900E+00   -6.881E+00
    -6.863E+00   -6.844E+00   -6.826E+00   -6.808E+00   -6.789E+00   -6.771E+00   -6.752E+00   -6.734E+00   -6.716E+00   -6.697E+00
    -6.679E+00   -6.661E+00   -6.642E+00   -6.624E+00   -6.606E+00   -6.588E+00   -6.569E+00   -6.551E+00   -6.533E+00   -6.515E+00
    -6.496E+00   -6.478E+00   -6.460E+00   -6.442E+00   -6.424E+00   -6.405E+00   -6.387E+00   -6.369E+00   -6.351E+00   -6.333E+00
    -6.315E+00   -6.297E+00   -6.279E+00   -6.261E+00   -6.243E+00   -6.224E+00   -6.206E+00   -6.188E+00   -6.170E+00   -6.152E+00
    -6.134E+00   -6.116E+00   -6.098E+00   -6.081E+00   -6.063E+00   -6.045E+00   -6.027E+00   -6.009E+00   -5.991E+00   -5.973E+00
    -5.955E+00   -5.937E+00   -5.920E+00   -5.902E+00   -5.884E+00   -5.866E+00   -5.848E+00   -5.831E+00   -5.813E+00   -5.795E+00
    -5.777E+00   -5.760E+00   -5.742E+00   -5.724E+00   -5.707E+00   -5.689E+00   -5.671E+00   -5.654E+00   -5.636E+00   -5.619E+00
    -5.601E+00   -5.583E+00   -5.566E+00   -5.548E+00   -5.531E+00   -5.513E+00   -5.496E+00   -5.478E+00   -5.461E+00   -5.443E+00
    -5.426E+00   -5.409E+00   -5.391E+00   -5.374E+00   -5.357E+00   -5.339E+00   -5.322E+00   -5.305E+00   -5.287E+00   -5.270E+00
    -5.253E+00   -5.235E+00   -5.218E+00   -5.201E+00   -5.184E+00   -5.167E+00   -5.149E+00   -5.132E+00   -5.115E+00   -5.098E+00
    -5.081E+00   -5.064E+00   -5.047E+00   -5.030E+00   -5.013E+00   -4.996E+00   -4.979E+00   -4.962E+00   -4.945E+00   -4.928E+00
    -4.911E+00   -4.894E+00   -4.877E+00   -4.860E+00   -4.843E+00   -4.826E+00   -4.810E+00   -4.793E+00   -4.776E+00   -4.759E+00
    -4.743E+00   -4.726E+00   -4.709E+00   -4.692E+00   -4.676E+00   -4.659E+00   -4.642E+00   -4.626E+00   -4.609E+00   -4.593E+00
    -4.576E+00   -4.560E+00   -4.543E+00   -4.527E+00   -4.510E+00   -4.494E+00   -4.477E+00   -4.461E+00   -4.444E+00   -4.428E+00
    -4.412E+00   -4.395E+00   -4.379E+00   -4.363E+00   -4.346E+00   -4.330E+00   -4.314E+00   -4.298E+00   -4.281E+00   -4.265E+00
    -4.249E+00   -4.233E+00   -4.217E+00   -4.201E+00   -4.184E+00   -4.168E+00   -4.152E+00   -4.136E+00   -4.120E+00   -4.104E+00
    -4.088E+00   -4.072E+00   -4.057E+00   -4.041E+00   -4.025E+00   -4.009E+00   -3.993E+00   -3.977E+00   -3.962E+00   -3.946E+00
    -3.930E+00   -3.914E+00   -3.899E+00   -3.883E+00   -3.867E+00   -3.852E+00   -3.836E+00   -3.820E+00   -3.805E+00   -3.789E+00
    -3.774E+00   -3.758E+00   -3.743E+00   -3.727E+00   -3.712E+00   -3.696E+00   -3.681E+00   -3.666E+00   -3.650E+00   -3.635E+00
    -3.620E+00   -3.604E+00   -3.589E+00   -3.574E+00   -3.559E+00   -3.544E+00   -3.528E+00   -3.513E+00   -3.498E+00   -3.483E+00
    -3.468E+00   -3.453E+00   -3.438E+00   -3.423E+00   -3.408E+00   -3.393E+00   -3.378E+00   -3.363E+00   -3.348E+00   -3.333E+00
    -3.319E+00   -3.304E+00   -3.289E+00   -3.274E+00   -3.260E+00   -3.245E+00   -3.230E+00   -3.216E+00   -3.201E+00   -3.186E+00
    -3.172E+00   -3.157E+00   -3.143E+00   -3.128E+00   -3.114E+00   -3.099E+00   -3.085E+00   -3.070E+00   -3.056E+00   -3.042E+00
    -3.027E+00   -3.013E+00   -2.999E+00   -2.984E+00   -2.970E+00   -2.956E+00   -2.942E+00   -2.928E+00   -2.914E+00   -2.899E+00
    -2.885E+00   -2.871E+00   -2.857E+00   -2.843E+00   -2.829E+00   -2.815E+00   -2.801E+00   -2.788E+00   -2.774E+00   -2.760E+00
    -2.746E+00   -2.732E+00   -2.719E+00   -2.705E+00   -2.691E+00   -2.677E+00   -2.664E+00   -2.650E+00   -2.637E+00   -2.623E+00
    -2.609E+00   -2.596E+00   -2.582E+00   -2.569E+00   -2.556E+00   -2.542E+00   -2.529E+00   -2.515E+00   -2.502E+00   -2.489E+00
    -2.476E+00   -2.462E+00   -2.449E+00   -2.436E+00   -2.423E+00   -2.410E+00   -2.396E+00   -2.383E+00   -2.370E+00   -2.357E+00
    -2.344E+00   -2.331E+00   -2.318E+00   -2.306E+00   -2.293E+00   -2.280E+00   -2.267E+00   -2.254E+00   -2.241E+00   -2.229E+00
    -2.216E+00   -2.203E+00   -2.191E+00   -2.178E+00   -2.166E+00   -2.153E+00   -2.140E+00   -2.128E+00   -2.115E+00   -2.103E+00
    -2.091E+00   -2.078E+00   -2.066E+00   -2.054E+00   -2.041E+00   -2.029E+00   -2.017E+00   -2.005E+00   -1.992E+00   -1.980E+00
    -1.968E+00   -1.956E+00   -1.944E+00   -1.932E+00   -1.920E+00   -1.908E+00   -1.896E+00   -1.884E+00   -1.872E+00   -1.860E+00
    -1.849E+00   -1.837E+00   -1.825E+00   -1.813E+00   -1.802E+00   -1.790E+00   -1.778E+00   -1.767E+00   -1.755E+00   -1.744E+00
    -1.732E+00   -1.721E+00   -1.709E+00   -1.698E+00   -1.686E+00   -1.675E+00   -1.664E+00   -1.652E+00   -1.641E+00   -1.630E+00
    -1.619E+00   -1.608E+00   -1.596E+00   -1.585E+00   -1.574E+00   -1.563E+00   -1.552E+00   -1.541E+00   -1.530E+00   -1.519E+00
    -1.508E+00   -1.498E+00   -1.487E+00   -1.476E+00   -1.465E+00   -1.454E+00   -1.444E+00   -1.433E+00   -1.422E+00   -1.412E+00
    -1.401E+00   -1.391E+00   -1.380E+00   -1.370E+00   -1.359E+00   -1.349E+00   -1.339E+00   -1.328E+00   -1.318E+00   -1.308E+00
    -1.297E+00   -1.287E+00   -1.277E+00   -1.267E+00   -1.257E+00   -1.247E+00   -1.237E+00   -1.227E+00   -1.217E+00   -1.207E+00
    -1.197E+00   -1.187E+00   -1.177E+00   -1.167E+00   -1.158E+00   -1.148E+00   -1.138E+00   -1.128E+00   -1.119E+00   -1.109E+00
    -1.100E+00   -1.090E+00   -1.080E+00   -1.071E+00   -1.062E+00   -1.052E+00   -1.043E+00   -1.033E+00   -1.024E+00   -1.015E+00
    -1.006E+00   -9.964E-01   -9.872E-01   -9.781E-01   -9.689E-01   -9.599E-01   -9.508E-01   -9.418E-01   -9.329E-01   -9.239E-01
    -9.150E-01   -9.061E-01   -8.973E-01   -8.885E-01   -8.797E-01   -8.710E-01   -8.623E-01   -8.537E-01   -8.450E-01   -8.364E-01
    -8.279E-01   -8.194E-01   -8.109E-01   -8.024E-01   -7.940E-01   -7.856E-01   -7.773E-01   -7.689E-01   -7.607E-01   -7.524E-01
    -7.442E-01   -7.360E-01   -7.279E-01   -7.198E-01   -7.117E-01   -7.037E-01   -6.957E-01   -6.877E-01   -6.798E-01   -6.719E-01
    -6.640E-01   -6.562E-01   -6.484E-01   -6.407E-01   -6.330E-01   -6.253E-01   -6.176E-01   -6.100E-01   -6.024E-01   -5.949E-01
    -5.874E-01   -5.799E-01   -5.725E-01   -5.651E-01   -5.578E-01   -5.504E-01   -5.431E-01   -5.359E-01   -5.287E-01   -5.215E-01
    -5.143E-01   -5.072E-01   -5.002E-01   -4.931E-01   -4.861E-01   -4.792E-01   -4.722E-01   -4.653E-01   -4.585E-01   -4.517E-01
    -4.449E-01   -4.381E-01   -4.314E-01   -4.248E-01   -4.181E-01   -4.115E-01   -4.050E-01   -3.984E-01   -3.919E-01   -3.855E-01
    -3.791E-01   -3.727E-01   -3.663E-01   -3.600E-01   -3.538E-01   -3.475E-01   -3.413E-01   -3.352E-01
 Asp      Conc. = 6.02E+00
