 LCModel (Version 6.3-1L) Copyright: S.W. Provencher.          Ref.: Magn. Reson. Med. 30:672-679 (1993).                
 Slice#3 Row#5 Col#12  PD_05_press_1_raw_act
 36 lines in following concentration table = NCONC+1
    Conc.  %SD /Cr+PCr  Metabolite                                         
 6.58E+03  17%   0.000 Ala                                                 
   16.968  50%   0.000 Asp                                                 
    0.000 999%   0.000 Cr                                                  
    0.000 999%   0.000 PCr                                                 
   10.149  51%   0.000 GABA                                                
   10.522  49%   0.000 Glc                                                 
    0.000 999%   0.000 Gln                                                 
 1.77E+03  29%   0.000 Glu                                                 
    0.000 999%   0.000 GPC                                                 
  112.621  15%   0.000 PCh                                                 
    0.000 999%   0.000 GSH                                                 
  453.109  41%   0.000 Ins                                                 
  510.785 163%   0.000 Lac                                                 
    0.000 999%   0.000 NAA                                                 
    0.000 999%   0.000 NAAG                                                
    3.807  45%   0.000 Scyllo                                              
   18.389  46%   0.000 Tau                                                 
    0.000 999%   0.000 -CrCH2                                              
  112.621  15%   0.000 GPC+PCh                                             
    0.000 999%   0.000 NAA+NAAG                                            
    0.000 999%   0.000 Cr+PCr                                              
 1.77E+03  29%   0.000 Glu+Gln                                             
 1.82E+04  11%   0.000 Lip13a                                              
  156.379  91%   0.000 Lip13b                                              
 5.90E+03  10%   0.000 Lip09                                               
 2.25E+03  10%   0.000 MM09                                                
    0.000 999%   0.000-Lip20                                               
 2.73E+03   7%   0.000 MM20                                                
 1.21E+03  55%   0.000 MM12                                                
 1.30E+04   8%   0.000 MM14                                                
   19.987 999%   0.000 MM17                                                
 1.83E+04  10%   0.000 Lip13a+Lip13b                                       
 3.26E+04   5%   0.000 MM14+Lip13a+Lip13b+MM12                             
 8.15E+03   8%   0.000 MM09+Lip09                                          
 2.73E+03   7%   0.000 MM20+Lip20                                          
   6 lines in following misc. output table
  FWHM = 0.153 ppm    S/N =  29                                            
  Data shift = 0.153 ppm                                                   
  Ph: -11 deg     -41.1 deg/ppm                                            
  alphaB,S = 1.3E+01,   2.0E+02                                            
    6 spline knots.   Ns = 9(2)                                            
  ( 9) 2 infls.   ( 1) 1 extrs.                                            
  498 points on ppm-axis = NY
      4.000000     3.992357     3.984714     3.977070     3.969427     3.961784     3.954141     3.946497     3.938854     3.931211
      3.923568     3.915925     3.908281     3.900638     3.892995     3.885352     3.877708     3.870065     3.862422     3.854779
      3.847136     3.839492     3.831849     3.824206     3.816563     3.808919     3.801276     3.793633     3.785990     3.778347
      3.770703     3.763060     3.755417     3.747774     3.740130     3.732487     3.724844     3.717201     3.709558     3.701914
      3.694271     3.686628     3.678985     3.671341     3.663698     3.656055     3.648412     3.640769     3.633125     3.625482
      3.617839     3.610196     3.602552     3.594909     3.587266     3.579623     3.571980     3.564336     3.556693     3.549050
      3.541407     3.533763     3.526120     3.518477     3.510834     3.503191     3.495547     3.487904     3.480261     3.472618
      3.464974     3.457331     3.449688     3.442045     3.434402     3.426758     3.419115     3.411472     3.403829     3.396185
      3.388542     3.380899     3.373256     3.365613     3.357969     3.350326     3.342683     3.335040     3.327396     3.319753
      3.312110     3.304467     3.296824     3.289180     3.281537     3.273894     3.266251     3.258607     3.250964     3.243321
      3.235678     3.228034     3.220391     3.212748     3.205105     3.197462     3.189818     3.182175     3.174532     3.166889
      3.159245     3.151602     3.143959     3.136316     3.128673     3.121029     3.113386     3.105743     3.098100     3.090456
      3.082813     3.075170     3.067527     3.059884     3.052240     3.044597     3.036954     3.029311     3.021667     3.014024
      3.006381     2.998738     2.991095     2.983451     2.975808     2.968165     2.960522     2.952878     2.945235     2.937592
      2.929949     2.922306     2.914662     2.907019     2.899376     2.891733     2.884089     2.876446     2.868803     2.861160
      2.853517     2.845873     2.838230     2.830587     2.822944     2.815300     2.807657     2.800014     2.792371     2.784728
      2.777084     2.769441     2.761798     2.754155     2.746511     2.738868     2.731225     2.723582     2.715939     2.708295
      2.700652     2.693009     2.685366     2.677722     2.670079     2.662436     2.654793     2.647150     2.639506     2.631863
      2.624220     2.616577     2.608933     2.601290     2.593647     2.586004     2.578361     2.570717     2.563074     2.555431
      2.547788     2.540144     2.532501     2.524858     2.517215     2.509572     2.501928     2.494285     2.486642     2.478999
      2.471355     2.463712     2.456069     2.448426     2.440783     2.433139     2.425496     2.417853     2.410210     2.402566
      2.394923     2.387280     2.379637     2.371994     2.364350     2.356707     2.349064     2.341421     2.333777     2.326134
      2.318491     2.310848     2.303205     2.295561     2.287918     2.280275     2.272632     2.264988     2.257345     2.249702
      2.242059     2.234416     2.226772     2.219129     2.211486     2.203843     2.196199     2.188556     2.180913     2.173270
      2.165627     2.157983     2.150340     2.142697     2.135054     2.127410     2.119767     2.112124     2.104481     2.096838
      2.089194     2.081551     2.073908     2.066265     2.058621     2.050978     2.043335     2.035692     2.028049     2.020405
      2.012762     2.005119     1.997476     1.989833     1.982190     1.974546     1.966903     1.959260     1.951617     1.943974
      1.936331     1.928688     1.921045     1.913402     1.905759     1.898115     1.890472     1.882829     1.875186     1.867543
      1.859900     1.852257     1.844614     1.836971     1.829327     1.821684     1.814041     1.806398     1.798755     1.791112
      1.783469     1.775826     1.768183     1.760540     1.752896     1.745253     1.737610     1.729967     1.722324     1.714681
      1.707038     1.699395     1.691752     1.684108     1.676465     1.668822     1.661179     1.653536     1.645893     1.638250
      1.630607     1.622964     1.615321     1.607677     1.600034     1.592391     1.584748     1.577105     1.569462     1.561819
      1.554176     1.546533     1.538890     1.531246     1.523603     1.515960     1.508317     1.500674     1.493031     1.485388
      1.477745     1.470102     1.462458     1.454815     1.447172     1.439529     1.431886     1.424243     1.416600     1.408957
      1.401314     1.393671     1.386027     1.378384     1.370741     1.363098     1.355455     1.347812     1.340169     1.332526
      1.324883     1.317240     1.309596     1.301953     1.294310     1.286667     1.279024     1.271381     1.263738     1.256095
      1.248452     1.240808     1.233165     1.225522     1.217879     1.210236     1.202593     1.194950     1.187307     1.179664
      1.172021     1.164377     1.156734     1.149091     1.141448     1.133805     1.126162     1.118519     1.110876     1.103233
      1.095590     1.087946     1.080303     1.072660     1.065017     1.057374     1.049731     1.042088     1.034445     1.026802
      1.019158     1.011515     1.003872     0.996229     0.988586     0.980943     0.973300     0.965657     0.958014     0.950371
      0.942727     0.935084     0.927441     0.919798     0.912155     0.904512     0.896869     0.889226     0.881583     0.873940
      0.866296     0.858653     0.851010     0.843367     0.835724     0.828081     0.820438     0.812795     0.805152     0.797508
      0.789865     0.782222     0.774579     0.766936     0.759293     0.751650     0.744007     0.736364     0.728721     0.721077
      0.713434     0.705791     0.698148     0.690505     0.682862     0.675219     0.667576     0.659933     0.652290     0.644646
      0.637003     0.629360     0.621717     0.614074     0.606431     0.598788     0.591145     0.583502     0.575858     0.568215
      0.560572     0.552929     0.545286     0.537643     0.530000     0.522357     0.514714     0.507071     0.499427     0.491784
      0.484141     0.476498     0.468855     0.461212     0.453569     0.445925     0.438282     0.430639     0.422996     0.415353
      0.407710     0.400067     0.392424     0.384780     0.377137     0.369494     0.361851     0.354208     0.346565     0.338922
      0.331278     0.323635     0.315992     0.308349     0.300706     0.293063     0.285420     0.277777     0.270133     0.262490
      0.254847     0.247204     0.239561     0.231918     0.224275     0.216631     0.208988     0.201345
 NY phased data points follow
   1.51855E+01  1.57775E+01  1.20357E+01  1.47555E+01  1.56963E+01  1.37762E+01  1.38164E+01  1.80073E+01  1.55296E+01  1.56091E+01
   1.35270E+01  1.48788E+01  1.52495E+01  1.33683E+01  1.47490E+01  1.14154E+01  1.38019E+01  1.43210E+01  1.38362E+01  1.42541E+01
   1.42796E+01  1.51754E+01  1.22392E+01  1.22366E+01  1.52298E+01  1.41533E+01  1.48853E+01  1.37594E+01  1.38684E+01  1.37901E+01
   1.10916E+01  1.16386E+01  1.25961E+01  1.21030E+01  1.07203E+01  1.35387E+01  1.21436E+01  1.34875E+01  1.12502E+01  1.28057E+01
   1.12457E+01  1.26829E+01  1.33486E+01  1.14049E+01  1.17487E+01  1.20430E+01  1.41943E+01  1.18397E+01  1.29191E+01  1.34497E+01
   1.41989E+01  1.21065E+01  1.17292E+01  1.12630E+01  1.43316E+01  1.43720E+01  1.17694E+01  1.10018E+01  1.19513E+01  1.04771E+01
   1.16953E+01  1.25792E+01  1.23802E+01  1.16334E+01  1.19111E+01  1.13677E+01  1.05096E+01  1.10861E+01  1.25718E+01  1.28503E+01
   1.15924E+01  1.28222E+01  1.03597E+01  1.23018E+01  1.21129E+01  1.13972E+01  1.28415E+01  1.34044E+01  1.11155E+01  1.44128E+01
   1.19631E+01  1.38785E+01  1.28159E+01  1.14900E+01  1.23040E+01  1.15777E+01  1.01909E+01  9.60921E+00  1.22491E+01  1.19786E+01
   1.06838E+01  1.02845E+01  1.04061E+01  1.02342E+01  1.29995E+01  1.13109E+01  1.11453E+01  9.83851E+00  1.17390E+01  1.18751E+01
   1.33240E+01  1.36284E+01  1.09285E+01  1.31216E+01  1.38107E+01  1.38950E+01  1.43074E+01  1.47909E+01  1.44042E+01  1.08639E+01
   1.17844E+01  8.26542E+00  1.20414E+01  1.13582E+01  1.00974E+01  1.15345E+01  1.06997E+01  1.10324E+01  1.18424E+01  1.21251E+01
   1.04433E+01  9.57127E+00  8.75109E+00  9.57526E+00  9.54825E+00  9.88371E+00  8.43711E+00  8.62605E+00  1.17000E+01  9.90301E+00
   9.37166E+00  9.72979E+00  7.21226E+00  9.23199E+00  8.90207E+00  1.06952E+01  9.88809E+00  9.44693E+00  8.51033E+00  8.93474E+00
   7.76155E+00  9.40818E+00  8.54700E+00  9.62541E+00  8.90969E+00  8.00867E+00  7.65567E+00  8.16923E+00  6.36773E+00  7.55853E+00
   8.10174E+00  8.75039E+00  8.03420E+00  5.53850E+00  5.60615E+00  5.39145E+00  7.02749E+00  7.20872E+00  8.29516E+00  7.37526E+00
   7.85625E+00  6.80732E+00  4.23708E+00  6.28392E+00  5.65877E+00  5.93420E+00  7.30292E+00  5.10590E+00  8.31591E+00  6.76902E+00
   6.32465E+00  7.17455E+00  6.64502E+00  7.68285E+00  5.69030E+00  5.75087E+00  6.37965E+00  4.41204E+00  6.34628E+00  6.90066E+00
   7.29493E+00  6.88046E+00  6.55896E+00  7.81863E+00  7.27480E+00  5.49364E+00  7.39527E+00  7.60598E+00  9.61528E+00  6.94287E+00
   8.42230E+00  9.87402E+00  8.51754E+00  7.65266E+00  9.63717E+00  9.83846E+00  9.47582E+00  8.58901E+00  7.61383E+00  9.36964E+00
   8.25939E+00  8.36902E+00  8.62755E+00  7.79154E+00  9.89729E+00  9.72970E+00  1.12753E+01  9.47406E+00  9.69625E+00  9.70293E+00
   8.31268E+00  7.71117E+00  1.00050E+01  1.01693E+01  1.04675E+01  1.13647E+01  1.02015E+01  9.53710E+00  1.18424E+01  9.85864E+00
   1.22712E+01  1.17274E+01  1.10975E+01  1.16825E+01  1.13961E+01  1.05376E+01  1.15091E+01  1.36765E+01  1.18743E+01  1.22127E+01
   1.27446E+01  1.39426E+01  1.35858E+01  1.36561E+01  1.61566E+01  1.76217E+01  1.80456E+01  2.08307E+01  2.12245E+01  2.07059E+01
   2.50292E+01  2.64353E+01  2.55632E+01  2.76730E+01  2.42353E+01  2.39668E+01  2.47975E+01  2.35149E+01  2.23896E+01  2.33005E+01
   2.19911E+01  2.30158E+01  2.08799E+01  1.94553E+01  2.21686E+01  2.05184E+01  1.96569E+01  1.92108E+01  1.89892E+01  2.13790E+01
   2.09342E+01  1.79158E+01  1.93410E+01  1.83856E+01  1.76860E+01  1.94001E+01  1.92924E+01  2.02672E+01  1.87885E+01  1.88656E+01
   1.77410E+01  2.04639E+01  1.72293E+01  2.02744E+01  1.88331E+01  2.08706E+01  1.96484E+01  1.98146E+01  1.87234E+01  1.97308E+01
   1.99656E+01  1.80652E+01  1.83112E+01  2.05390E+01  1.93986E+01  1.89314E+01  2.19392E+01  2.10989E+01  2.05010E+01  2.20355E+01
   2.22785E+01  2.36720E+01  2.20632E+01  2.38603E+01  2.17906E+01  2.37335E+01  2.32767E+01  2.41640E+01  2.34091E+01  2.53501E+01
   2.44072E+01  2.49926E+01  2.77685E+01  2.81249E+01  3.13446E+01  3.25377E+01  3.59612E+01  3.63677E+01  3.74786E+01  4.10401E+01
   4.54935E+01  5.03400E+01  5.20079E+01  5.66512E+01  5.99682E+01  6.24683E+01  6.81360E+01  7.30758E+01  7.62611E+01  8.00277E+01
   8.36517E+01  8.62656E+01  9.18596E+01  9.50489E+01  9.77420E+01  1.01024E+02  1.06052E+02  1.08378E+02  1.09810E+02  1.12816E+02
   1.14381E+02  1.14328E+02  1.15388E+02  1.15969E+02  1.15979E+02  1.15351E+02  1.15887E+02  1.15435E+02  1.13601E+02  1.13133E+02
   1.12144E+02  1.11314E+02  1.11081E+02  1.06844E+02  1.06397E+02  1.03790E+02  1.02049E+02  9.88888E+01  9.95689E+01  9.99607E+01
   9.68556E+01  9.49600E+01  9.40262E+01  9.18001E+01  9.11261E+01  9.10717E+01  8.78775E+01  8.59090E+01  8.53949E+01  8.21111E+01
   7.89454E+01  7.97642E+01  8.06987E+01  7.69699E+01  7.81974E+01  7.52543E+01  7.41534E+01  7.43094E+01  7.15101E+01  7.18065E+01
   7.05248E+01  7.12573E+01  6.79092E+01  6.83762E+01  6.49005E+01  6.66307E+01  6.58194E+01  6.38438E+01  6.27863E+01  6.42361E+01
   6.21366E+01  6.37677E+01  6.11662E+01  6.10849E+01  6.10644E+01  5.96412E+01  6.07526E+01  5.87940E+01  6.03060E+01  5.86795E+01
   5.84507E+01  5.73916E+01  5.96182E+01  5.61758E+01  5.48753E+01  5.63166E+01  5.58431E+01  5.41742E+01  5.56541E+01  5.45363E+01
   5.32470E+01  5.42239E+01  5.14912E+01  5.22504E+01  5.01021E+01  5.13864E+01  4.82616E+01  4.89359E+01  4.92483E+01  4.76166E+01
   4.74570E+01  4.75231E+01  4.85354E+01  4.55180E+01  4.40877E+01  4.57877E+01  4.61432E+01  4.27859E+01  4.15277E+01  4.07284E+01
   4.12270E+01  3.95228E+01  4.14188E+01  3.98014E+01  3.83154E+01  4.01667E+01  4.34381E+01  3.90957E+01  3.90587E+01  3.92747E+01
   3.69342E+01  3.91692E+01  3.83475E+01  3.65993E+01  3.73056E+01  3.64692E+01  3.68623E+01  3.58538E+01  3.54693E+01  3.69181E+01
   3.42677E+01  3.43771E+01  3.15225E+01  3.52496E+01  3.32084E+01  3.36166E+01  3.29289E+01  3.15916E+01  3.36868E+01  3.23952E+01
   3.07124E+01  2.98118E+01  3.06748E+01  3.01647E+01  2.95598E+01  3.05011E+01  3.02545E+01  2.97653E+01  2.84878E+01  2.81770E+01
   2.81430E+01  2.92530E+01  3.04973E+01  2.85764E+01  2.85913E+01  2.75741E+01  2.72969E+01  2.57666E+01  2.68738E+01  2.58140E+01
   2.46951E+01  2.44895E+01  2.75121E+01  2.79773E+01  2.51010E+01  2.67635E+01  2.49720E+01  2.25788E+01  2.39961E+01  2.37252E+01
   2.23192E+01  2.24895E+01  2.52645E+01  2.42604E+01  2.52076E+01  2.18288E+01  2.17486E+01  2.21990E+01  2.03518E+01  2.04858E+01
   2.23112E+01  2.02070E+01  2.00534E+01  2.10571E+01  1.99154E+01  2.03344E+01  2.15728E+01  2.07703E+01
 NY points of the fit to the data follow
   1.52843E+01  1.52888E+01  1.49438E+01  1.49490E+01  1.46317E+01  1.47086E+01  1.44610E+01  1.46703E+01  1.43770E+01  1.46969E+01
   1.42904E+01  1.46582E+01  1.41013E+01  1.45268E+01  1.38071E+01  1.44606E+01  1.35487E+01  1.42983E+01  1.32722E+01  1.41162E+01
   1.30427E+01  1.39788E+01  1.28914E+01  1.39569E+01  1.29883E+01  1.39531E+01  1.30134E+01  1.37145E+01  1.28290E+01  1.33022E+01
   1.26307E+01  1.29205E+01  1.26131E+01  1.27642E+01  1.28921E+01  1.28982E+01  1.33463E+01  1.31145E+01  1.37246E+01  1.31712E+01
   1.37520E+01  1.29651E+01  1.35846E+01  1.27396E+01  1.34855E+01  1.27525E+01  1.36798E+01  1.31642E+01  1.38854E+01  1.32606E+01
   1.36896E+01  1.29898E+01  1.31568E+01  1.24334E+01  1.24466E+01  1.20763E+01  1.22601E+01  1.20467E+01  1.22245E+01  1.20884E+01
   1.22079E+01  1.20917E+01  1.21076E+01  1.19302E+01  1.19246E+01  1.17365E+01  1.17246E+01  1.15393E+01  1.15344E+01  1.13828E+01
   1.14097E+01  1.12661E+01  1.12745E+01  1.11120E+01  1.11021E+01  1.09289E+01  1.09017E+01  1.07173E+01  1.06734E+01  1.04886E+01
   1.04307E+01  1.02617E+01  1.02111E+01  1.00630E+01  1.00336E+01  9.97575E+00  9.99601E+00  1.00186E+01  1.00918E+01  1.01611E+01
   1.02917E+01  1.04028E+01  1.06105E+01  1.08036E+01  1.11027E+01  1.12624E+01  1.16022E+01  1.17008E+01  1.20654E+01  1.21061E+01
   1.24892E+01  1.24584E+01  1.28464E+01  1.27220E+01  1.30915E+01  1.28388E+01  1.31596E+01  1.27826E+01  1.30377E+01  1.25631E+01
   1.27360E+01  1.21959E+01  1.22996E+01  1.17815E+01  1.18434E+01  1.13812E+01  1.14139E+01  1.10176E+01  1.10230E+01  1.06905E+01
   1.06594E+01  1.03761E+01  1.03109E+01  1.00988E+01  1.00404E+01  1.00208E+01  1.00025E+01  9.97199E+00  9.93273E+00  9.87812E+00
   9.81401E+00  9.73413E+00  9.64597E+00  9.54378E+00  9.43597E+00  9.31671E+00  9.19497E+00  9.06461E+00  8.93430E+00  8.79920E+00
   8.66625E+00  8.53207E+00  8.40167E+00  8.27377E+00  8.15079E+00  8.03279E+00  7.92053E+00  7.81519E+00  7.71584E+00  7.62508E+00
   7.53951E+00  7.46392E+00  7.39231E+00  7.33141E+00  7.27244E+00  7.22486E+00  7.17743E+00  7.14226E+00  7.10560E+00  7.08117E+00
   7.05375E+00  7.03893E+00  7.01947E+00  7.01268E+00  6.99983E+00  7.00003E+00  6.99385E+00  7.00027E+00  7.00034E+00  7.01139E+00
   7.01653E+00  7.03143E+00  7.04164E+00  7.06000E+00  7.07512E+00  7.09657E+00  7.11656E+00  7.14096E+00  7.16657E+00  7.19472E+00
   7.22702E+00  7.26007E+00  7.29937E+00  7.33912E+00  7.38729E+00  7.43653E+00  7.49653E+00  7.56129E+00  7.63935E+00  7.71158E+00
   7.80696E+00  7.87767E+00  7.96655E+00  8.03728E+00  8.10887E+00  8.19589E+00  8.27410E+00  8.40462E+00  8.56143E+00  8.71936E+00
   8.94000E+00  9.08566E+00  9.35572E+00  9.44231E+00  9.72854E+00  9.72599E+00  1.00811E+01  9.95511E+00  1.03215E+01  1.01029E+01
   1.04711E+01  1.01846E+01  1.05498E+01  1.02228E+01  1.06665E+01  1.03633E+01  1.08488E+01  1.05612E+01  1.10238E+01  1.07603E+01
   1.11670E+01  1.09753E+01  1.13225E+01  1.12733E+01  1.16002E+01  1.17571E+01  1.21450E+01  1.25127E+01  1.29844E+01  1.34891E+01
   1.40300E+01  1.46038E+01  1.51314E+01  1.57100E+01  1.62690E+01  1.68921E+01  1.75571E+01  1.82480E+01  1.91069E+01  1.97124E+01
   2.05525E+01  2.09962E+01  2.17411E+01  2.19786E+01  2.25195E+01  2.25739E+01  2.30271E+01  2.30032E+01  2.32932E+01  2.32106E+01
   2.33237E+01  2.31998E+01  2.31240E+01  2.29545E+01  2.27097E+01  2.25361E+01  2.21641E+01  2.20347E+01  2.15961E+01  2.15341E+01
   2.10621E+01  2.10589E+01  2.05554E+01  2.05856E+01  2.00929E+01  2.01298E+01  1.96999E+01  1.97664E+01  1.93935E+01  1.94594E+01
   1.91547E+01  1.92067E+01  1.89399E+01  1.89672E+01  1.87705E+01  1.88142E+01  1.87066E+01  1.87672E+01  1.87343E+01  1.88072E+01
   1.88133E+01  1.89110E+01  1.89875E+01  1.91342E+01  1.92794E+01  1.94736E+01  1.96949E+01  1.99227E+01  2.01981E+01  2.04812E+01
   2.08097E+01  2.11477E+01  2.15329E+01  2.19342E+01  2.23859E+01  2.28774E+01  2.34294E+01  2.40344E+01  2.47100E+01  2.54589E+01
   2.62966E+01  2.72359E+01  2.82908E+01  2.94878E+01  3.08501E+01  3.24150E+01  3.42271E+01  3.63635E+01  3.89668E+01  4.21159E+01
   4.51955E+01  4.90576E+01  5.22566E+01  5.65035E+01  5.96712E+01  6.41405E+01  6.71546E+01  7.23433E+01  7.49822E+01  8.02524E+01
   8.27911E+01  8.79920E+01  9.04483E+01  9.54041E+01  9.75958E+01  1.02468E+02  1.04717E+02  1.08669E+02  1.10409E+02  1.12860E+02
   1.13957E+02  1.14947E+02  1.15704E+02  1.15494E+02  1.16183E+02  1.15003E+02  1.15974E+02  1.14166E+02  1.15113E+02  1.12592E+02
   1.13220E+02  1.10118E+02  1.10313E+02  1.06744E+02  1.06407E+02  1.02975E+02  1.02598E+02  9.98999E+01  9.99528E+01  9.84605E+01
   9.77537E+01  9.60458E+01  9.47554E+01  9.29149E+01  9.10006E+01  8.89725E+01  8.65240E+01  8.54859E+01  8.37900E+01  8.30061E+01
   8.15081E+01  8.07171E+01  7.93143E+01  7.84439E+01  7.71194E+01  7.61866E+01  7.49552E+01  7.39941E+01  7.28708E+01  7.19351E+01
   7.07981E+01  6.97713E+01  6.86616E+01  6.75957E+01  6.65521E+01  6.55055E+01  6.45852E+01  6.37645E+01  6.30326E+01  6.23861E+01
   6.18220E+01  6.13362E+01  6.09222E+01  6.05717E+01  6.02742E+01  6.00176E+01  5.97884E+01  5.95725E+01  5.93557E+01  5.91243E+01
   5.88658E+01  5.85693E+01  5.82263E+01  5.78307E+01  5.73790E+01  5.68706E+01  5.63078E+01  5.56951E+01  5.50391E+01  5.43481E+01
   5.36313E+01  5.28989E+01  5.21606E+01  5.14261E+01  5.07039E+01  5.00014E+01  4.93247E+01  4.86784E+01  4.80652E+01  4.74867E+01
   4.69429E+01  4.64325E+01  4.59534E+01  4.55025E+01  4.50763E+01  4.46708E+01  4.42821E+01  4.39059E+01  4.35384E+01  4.31760E+01
   4.28153E+01  4.24536E+01  4.20883E+01  4.17177E+01  4.13401E+01  4.09546E+01  4.05605E+01  4.01577E+01  3.97462E+01  3.93265E+01
   3.88992E+01  3.84654E+01  3.80259E+01  3.75820E+01  3.71351E+01  3.66862E+01  3.62369E+01  3.57884E+01  3.53420E+01  3.48989E+01
   3.44603E+01  3.40271E+01  3.36003E+01  3.31809E+01  3.27695E+01  3.23667E+01  3.19732E+01  3.15893E+01  3.12154E+01  3.08517E+01
   3.04985E+01  3.01558E+01  2.98235E+01  2.95018E+01  2.91905E+01  2.88895E+01  2.85986E+01  2.83175E+01  2.80462E+01  2.77842E+01
   2.75314E+01  2.72875E+01  2.70520E+01  2.68249E+01  2.66057E+01  2.63942E+01  2.61900E+01  2.59928E+01  2.58024E+01  2.56185E+01
   2.54407E+01  2.52688E+01  2.51026E+01  2.49417E+01  2.47859E+01  2.46350E+01  2.44888E+01  2.43470E+01  2.42094E+01  2.40758E+01
   2.39460E+01  2.38198E+01  2.36971E+01  2.35776E+01  2.34612E+01  2.33477E+01  2.32370E+01  2.31290E+01  2.30235E+01  2.29204E+01
   2.28195E+01  2.27208E+01  2.26241E+01  2.25294E+01  2.24365E+01  2.23454E+01  2.22561E+01  2.21683E+01
 NY background values follow
     1.331E+01    1.327E+01    1.323E+01    1.319E+01    1.315E+01    1.310E+01    1.306E+01    1.301E+01    1.297E+01    1.292E+01
     1.288E+01    1.283E+01    1.279E+01    1.274E+01    1.269E+01    1.264E+01    1.259E+01    1.254E+01    1.250E+01    1.245E+01
     1.240E+01    1.234E+01    1.229E+01    1.224E+01    1.219E+01    1.214E+01    1.209E+01    1.203E+01    1.198E+01    1.193E+01
     1.187E+01    1.182E+01    1.177E+01    1.171E+01    1.166E+01    1.160E+01    1.155E+01    1.149E+01    1.144E+01    1.138E+01
     1.133E+01    1.127E+01    1.121E+01    1.116E+01    1.110E+01    1.104E+01    1.099E+01    1.093E+01    1.087E+01    1.081E+01
     1.076E+01    1.070E+01    1.064E+01    1.058E+01    1.053E+01    1.047E+01    1.041E+01    1.035E+01    1.030E+01    1.024E+01
     1.018E+01    1.012E+01    1.006E+01    1.001E+01    9.949E+00    9.891E+00    9.833E+00    9.775E+00    9.718E+00    9.660E+00
     9.603E+00    9.545E+00    9.488E+00    9.431E+00    9.374E+00    9.317E+00    9.260E+00    9.204E+00    9.147E+00    9.091E+00
     9.035E+00    8.979E+00    8.923E+00    8.867E+00    8.812E+00    8.757E+00    8.702E+00    8.648E+00    8.593E+00    8.539E+00
     8.485E+00    8.432E+00    8.379E+00    8.326E+00    8.273E+00    8.221E+00    8.169E+00    8.117E+00    8.066E+00    8.015E+00
     7.964E+00    7.914E+00    7.865E+00    7.815E+00    7.766E+00    7.718E+00    7.669E+00    7.622E+00    7.574E+00    7.528E+00
     7.481E+00    7.435E+00    7.390E+00    7.345E+00    7.301E+00    7.257E+00    7.213E+00    7.171E+00    7.128E+00    7.086E+00
     7.045E+00    7.005E+00    6.964E+00    6.925E+00    6.886E+00    6.848E+00    6.810E+00    6.773E+00    6.737E+00    6.701E+00
     6.666E+00    6.631E+00    6.597E+00    6.564E+00    6.532E+00    6.500E+00    6.469E+00    6.439E+00    6.409E+00    6.380E+00
     6.352E+00    6.325E+00    6.298E+00    6.273E+00    6.248E+00    6.223E+00    6.200E+00    6.177E+00    6.155E+00    6.134E+00
     6.114E+00    6.095E+00    6.077E+00    6.059E+00    6.042E+00    6.027E+00    6.012E+00    5.998E+00    5.985E+00    5.973E+00
     5.961E+00    5.951E+00    5.942E+00    5.933E+00    5.926E+00    5.920E+00    5.914E+00    5.910E+00    5.906E+00    5.904E+00
     5.902E+00    5.902E+00    5.902E+00    5.904E+00    5.906E+00    5.909E+00    5.914E+00    5.919E+00    5.925E+00    5.932E+00
     5.940E+00    5.948E+00    5.958E+00    5.969E+00    5.980E+00    5.992E+00    6.005E+00    6.019E+00    6.034E+00    6.050E+00
     6.066E+00    6.084E+00    6.102E+00    6.121E+00    6.140E+00    6.161E+00    6.182E+00    6.204E+00    6.227E+00    6.251E+00
     6.275E+00    6.301E+00    6.326E+00    6.353E+00    6.380E+00    6.409E+00    6.437E+00    6.467E+00    6.497E+00    6.528E+00
     6.560E+00    6.592E+00    6.625E+00    6.659E+00    6.693E+00    6.728E+00    6.763E+00    6.800E+00    6.836E+00    6.874E+00
     6.912E+00    6.951E+00    6.990E+00    7.030E+00    7.070E+00    7.112E+00    7.153E+00    7.195E+00    7.238E+00    7.281E+00
     7.325E+00    7.370E+00    7.415E+00    7.460E+00    7.506E+00    7.553E+00    7.600E+00    7.647E+00    7.695E+00    7.744E+00
     7.793E+00    7.842E+00    7.892E+00    7.942E+00    7.993E+00    8.044E+00    8.096E+00    8.148E+00    8.200E+00    8.253E+00
     8.306E+00    8.360E+00    8.414E+00    8.469E+00    8.523E+00    8.579E+00    8.634E+00    8.690E+00    8.746E+00    8.803E+00
     8.860E+00    8.917E+00    8.975E+00    9.033E+00    9.091E+00    9.149E+00    9.208E+00    9.267E+00    9.326E+00    9.386E+00
     9.446E+00    9.506E+00    9.566E+00    9.627E+00    9.688E+00    9.749E+00    9.810E+00    9.871E+00    9.933E+00    9.995E+00
     1.006E+01    1.012E+01    1.018E+01    1.024E+01    1.031E+01    1.037E+01    1.043E+01    1.050E+01    1.056E+01    1.062E+01
     1.069E+01    1.075E+01    1.081E+01    1.088E+01    1.094E+01    1.101E+01    1.107E+01    1.113E+01    1.120E+01    1.126E+01
     1.133E+01    1.139E+01    1.146E+01    1.152E+01    1.158E+01    1.165E+01    1.171E+01    1.178E+01    1.184E+01    1.191E+01
     1.197E+01    1.204E+01    1.210E+01    1.216E+01    1.223E+01    1.229E+01    1.236E+01    1.242E+01    1.248E+01    1.255E+01
     1.261E+01    1.268E+01    1.274E+01    1.280E+01    1.287E+01    1.293E+01    1.299E+01    1.306E+01    1.312E+01    1.318E+01
     1.324E+01    1.331E+01    1.337E+01    1.343E+01    1.349E+01    1.355E+01    1.361E+01    1.367E+01    1.374E+01    1.380E+01
     1.386E+01    1.392E+01    1.398E+01    1.404E+01    1.410E+01    1.416E+01    1.421E+01    1.427E+01    1.433E+01    1.439E+01
     1.445E+01    1.451E+01    1.456E+01    1.462E+01    1.468E+01    1.474E+01    1.479E+01    1.485E+01    1.491E+01    1.496E+01
     1.502E+01    1.507E+01    1.513E+01    1.518E+01    1.524E+01    1.529E+01    1.534E+01    1.540E+01    1.545E+01    1.550E+01
     1.556E+01    1.561E+01    1.566E+01    1.571E+01    1.576E+01    1.581E+01    1.586E+01    1.591E+01    1.596E+01    1.601E+01
     1.606E+01    1.611E+01    1.616E+01    1.621E+01    1.626E+01    1.630E+01    1.635E+01    1.640E+01    1.644E+01    1.649E+01
     1.653E+01    1.658E+01    1.662E+01    1.667E+01    1.671E+01    1.676E+01    1.680E+01    1.684E+01    1.688E+01    1.693E+01
     1.697E+01    1.701E+01    1.705E+01    1.709E+01    1.713E+01    1.717E+01    1.721E+01    1.725E+01    1.728E+01    1.732E+01
     1.736E+01    1.739E+01    1.743E+01    1.747E+01    1.750E+01    1.754E+01    1.757E+01    1.760E+01    1.764E+01    1.767E+01
     1.770E+01    1.774E+01    1.777E+01    1.780E+01    1.783E+01    1.786E+01    1.789E+01    1.792E+01    1.794E+01    1.797E+01
     1.800E+01    1.803E+01    1.805E+01    1.808E+01    1.810E+01    1.813E+01    1.815E+01    1.818E+01    1.820E+01    1.822E+01
     1.824E+01    1.826E+01    1.828E+01    1.830E+01    1.832E+01    1.834E+01    1.836E+01    1.838E+01    1.840E+01    1.841E+01
     1.843E+01    1.844E+01    1.846E+01    1.847E+01    1.849E+01    1.850E+01    1.851E+01    1.852E+01    1.854E+01    1.855E+01
     1.856E+01    1.857E+01    1.857E+01    1.858E+01    1.859E+01    1.860E+01    1.860E+01    1.861E+01    1.861E+01    1.862E+01
     1.862E+01    1.862E+01    1.863E+01    1.863E+01    1.863E+01    1.863E+01    1.863E+01    1.863E+01    1.862E+01    1.862E+01
     1.862E+01    1.861E+01    1.861E+01    1.860E+01    1.860E+01    1.859E+01    1.858E+01    1.858E+01    1.857E+01    1.856E+01
     1.855E+01    1.853E+01    1.852E+01    1.851E+01    1.850E+01    1.848E+01    1.847E+01    1.845E+01
 Ala      Conc. = 6.58E+03
