 LCModel (Version 6.3-1L) Copyright: S.W. Provencher.          Ref.: Magn. Reson. Med. 30:672-679 (1993).                
 Slice#1 Row#10 Col#12  PD_05_press_1_raw_act
 36 lines in following concentration table = NCONC+1
    Conc.  %SD /Cr+PCr  Metabolite                                         
   12.445 270%   0.133 Ala                                                 
    0.000 999%   0.000 Asp                                                 
   70.184  63%   0.750 Cr                                                  
   23.387 199%   0.250 PCr                                                 
   27.695  90%   0.296 GABA                                                
   35.735  70%   0.382 Glc                                                 
  110.891  62%   1.185 Gln                                                 
  440.681  18%   4.710 Glu                                                 
   23.459  27%   0.251 GPC                                                 
    0.000 999%   0.000 PCh                                                 
   23.121 101%   0.247 GSH                                                 
   83.129  86%   0.888 Ins                                                 
   47.006  80%   0.502 Lac                                                 
  560.373   7%   5.989 NAA                                                 
  192.595  21%   2.058 NAAG                                                
   10.985  58%   0.117 Scyllo                                              
   59.019  66%   0.631 Tau                                                 
    3.614 525% 3.9E-02 -CrCH2                                              
   23.459  27%   0.251 GPC+PCh                                             
  752.968   4%   8.047 NAA+NAAG                                            
   93.571  18%   1.000 Cr+PCr                                              
  551.571  20%   5.895 Glu+Gln                                             
  175.164 138%   1.872 Lip13a                                              
   46.291 206%   0.495 Lip13b                                              
   60.842 106%   0.650 Lip09                                               
  490.072  17%   5.237 MM09                                                
   27.620 149%   0.295 Lip20                                               
  597.634  21%   6.387 MM20                                                
  147.560  45%   1.577 MM12                                                
  396.442  31%   4.237 MM14                                                
  215.529  33%   2.303 MM17                                                
  221.455  80%   2.367 Lip13a+Lip13b                                       
  765.457  15%   8.180 MM14+Lip13a+Lip13b+MM12                             
  550.914  11%   5.888 MM09+Lip09                                          
  625.255  20%   6.682 MM20+Lip20                                          
   6 lines in following misc. output table
  FWHM = 0.046 ppm    S/N =   9                                            
  Data shift = 0.000 ppm                                                   
  Ph:  17 deg       3.2 deg/ppm                                            
  alphaB,S = 8.5E+01,   1.0E+02                                            
   14 spline knots.   Ns = 6(1)                                            
   2 inflections.     1 extrema                                            
  498 points on ppm-axis = NY
      4.000000     3.992357     3.984714     3.977070     3.969427     3.961784     3.954141     3.946497     3.938854     3.931211
      3.923568     3.915925     3.908281     3.900638     3.892995     3.885352     3.877708     3.870065     3.862422     3.854779
      3.847136     3.839492     3.831849     3.824206     3.816563     3.808919     3.801276     3.793633     3.785990     3.778347
      3.770703     3.763060     3.755417     3.747774     3.740130     3.732487     3.724844     3.717201     3.709558     3.701914
      3.694271     3.686628     3.678985     3.671341     3.663698     3.656055     3.648412     3.640769     3.633125     3.625482
      3.617839     3.610196     3.602552     3.594909     3.587266     3.579623     3.571980     3.564336     3.556693     3.549050
      3.541407     3.533763     3.526120     3.518477     3.510834     3.503191     3.495547     3.487904     3.480261     3.472618
      3.464974     3.457331     3.449688     3.442045     3.434402     3.426758     3.419115     3.411472     3.403829     3.396185
      3.388542     3.380899     3.373256     3.365613     3.357969     3.350326     3.342683     3.335040     3.327396     3.319753
      3.312110     3.304467     3.296824     3.289180     3.281537     3.273894     3.266251     3.258607     3.250964     3.243321
      3.235678     3.228034     3.220391     3.212748     3.205105     3.197462     3.189818     3.182175     3.174532     3.166889
      3.159245     3.151602     3.143959     3.136316     3.128673     3.121029     3.113386     3.105743     3.098100     3.090456
      3.082813     3.075170     3.067527     3.059884     3.052240     3.044597     3.036954     3.029311     3.021667     3.014024
      3.006381     2.998738     2.991095     2.983451     2.975808     2.968165     2.960522     2.952878     2.945235     2.937592
      2.929949     2.922306     2.914662     2.907019     2.899376     2.891733     2.884089     2.876446     2.868803     2.861160
      2.853517     2.845873     2.838230     2.830587     2.822944     2.815300     2.807657     2.800014     2.792371     2.784728
      2.777084     2.769441     2.761798     2.754155     2.746511     2.738868     2.731225     2.723582     2.715939     2.708295
      2.700652     2.693009     2.685366     2.677722     2.670079     2.662436     2.654793     2.647150     2.639506     2.631863
      2.624220     2.616577     2.608933     2.601290     2.593647     2.586004     2.578361     2.570717     2.563074     2.555431
      2.547788     2.540144     2.532501     2.524858     2.517215     2.509572     2.501928     2.494285     2.486642     2.478999
      2.471355     2.463712     2.456069     2.448426     2.440783     2.433139     2.425496     2.417853     2.410210     2.402566
      2.394923     2.387280     2.379637     2.371994     2.364350     2.356707     2.349064     2.341421     2.333777     2.326134
      2.318491     2.310848     2.303205     2.295561     2.287918     2.280275     2.272632     2.264988     2.257345     2.249702
      2.242059     2.234416     2.226772     2.219129     2.211486     2.203843     2.196199     2.188556     2.180913     2.173270
      2.165627     2.157983     2.150340     2.142697     2.135054     2.127410     2.119767     2.112124     2.104481     2.096838
      2.089194     2.081551     2.073908     2.066265     2.058621     2.050978     2.043335     2.035692     2.028049     2.020405
      2.012762     2.005119     1.997476     1.989833     1.982190     1.974546     1.966903     1.959260     1.951617     1.943974
      1.936331     1.928688     1.921045     1.913402     1.905759     1.898115     1.890472     1.882829     1.875186     1.867543
      1.859900     1.852257     1.844614     1.836971     1.829327     1.821684     1.814041     1.806398     1.798755     1.791112
      1.783469     1.775826     1.768183     1.760540     1.752896     1.745253     1.737610     1.729967     1.722324     1.714681
      1.707038     1.699395     1.691752     1.684108     1.676465     1.668822     1.661179     1.653536     1.645893     1.638250
      1.630607     1.622964     1.615321     1.607677     1.600034     1.592391     1.584748     1.577105     1.569462     1.561819
      1.554176     1.546533     1.538890     1.531246     1.523603     1.515960     1.508317     1.500674     1.493031     1.485388
      1.477745     1.470102     1.462458     1.454815     1.447172     1.439529     1.431886     1.424243     1.416600     1.408957
      1.401314     1.393671     1.386027     1.378384     1.370741     1.363098     1.355455     1.347812     1.340169     1.332526
      1.324883     1.317240     1.309596     1.301953     1.294310     1.286667     1.279024     1.271381     1.263738     1.256095
      1.248452     1.240808     1.233165     1.225522     1.217879     1.210236     1.202593     1.194950     1.187307     1.179664
      1.172021     1.164377     1.156734     1.149091     1.141448     1.133805     1.126162     1.118519     1.110876     1.103233
      1.095590     1.087946     1.080303     1.072660     1.065017     1.057374     1.049731     1.042088     1.034445     1.026802
      1.019158     1.011515     1.003872     0.996229     0.988586     0.980943     0.973300     0.965657     0.958014     0.950371
      0.942727     0.935084     0.927441     0.919798     0.912155     0.904512     0.896869     0.889226     0.881583     0.873940
      0.866296     0.858653     0.851010     0.843367     0.835724     0.828081     0.820438     0.812795     0.805152     0.797508
      0.789865     0.782222     0.774579     0.766936     0.759293     0.751650     0.744007     0.736364     0.728721     0.721077
      0.713434     0.705791     0.698148     0.690505     0.682862     0.675219     0.667576     0.659933     0.652290     0.644646
      0.637003     0.629360     0.621717     0.614074     0.606431     0.598788     0.591145     0.583502     0.575858     0.568215
      0.560572     0.552929     0.545286     0.537643     0.530000     0.522357     0.514714     0.507071     0.499427     0.491784
      0.484141     0.476498     0.468855     0.461212     0.453569     0.445925     0.438282     0.430639     0.422996     0.415353
      0.407710     0.400067     0.392424     0.384780     0.377137     0.369494     0.361851     0.354208     0.346565     0.338922
      0.331278     0.323635     0.315992     0.308349     0.300706     0.293063     0.285420     0.277777     0.270133     0.262490
      0.254847     0.247204     0.239561     0.231918     0.224275     0.216631     0.208988     0.201345
 NY phased data points follow
   2.96508E+00  7.99793E-01  1.78980E+00  4.92987E-01  1.14239E+00  1.87361E+00  1.54936E+00  7.51661E-01  8.61736E-01  4.27855E+00
   9.84981E-01  1.76296E+00  2.27421E+00  1.93198E+00 -5.48343E-01  2.49355E+00  1.45951E+00  1.45365E+00  5.55232E-01 -2.19989E-01
   1.66287E+00 -4.64182E-01  1.00331E+00  1.69041E+00  1.40839E+00  1.84737E+00  1.52618E+00  1.39472E+00 -3.66769E-01  5.98393E-01
   1.90458E+00 -1.57817E-01  3.90141E-01  2.02986E+00  1.13819E+00  7.79323E-02  6.82173E-01 -1.46447E+00 -4.98582E-01 -2.10031E-01
  -1.11054E+00  1.24354E+00  3.59760E-01 -2.31103E-01  2.74271E+00 -7.99784E-01  1.06420E+00  1.00778E+00  1.73418E+00 -3.55365E-01
   2.28119E+00  3.23924E+00  1.30609E+00  1.26290E+00  3.20039E-01  6.42544E-01 -2.45924E-02 -1.23463E-02  1.04270E+00  1.21639E+00
  -1.20149E+00  1.18589E+00  1.30220E+00  8.02430E-01 -2.92211E-02  5.58720E-02  1.00705E+00 -1.47199E-01  3.83687E-01  5.32135E-01
   2.03728E+00  1.45627E+00 -1.29582E+00  2.92386E-01 -1.32290E+00  1.45985E+00  5.04182E-01  1.25016E+00  8.64929E-01  3.31920E-01
   2.47752E-01 -1.59450E+00 -1.67269E-02  1.42374E+00  1.51018E+00 -5.14341E-01  1.03337E+00  1.49687E+00  4.42817E-01  1.24227E+00
   1.13356E+00  2.51050E+00  3.59987E-01  2.03613E+00  8.70249E-01 -8.53122E-01  3.03333E-01  1.96064E+00  1.61005E+00  2.91817E+00
   1.53274E+00  1.96824E+00  4.01274E+00  4.12173E-01  5.04991E-01  3.85238E+00  2.17952E+00  3.82407E-01  1.11563E+00  2.90279E-01
  -1.67091E+00 -2.32922E-01 -1.99382E+00 -1.58415E+00 -6.32875E-01 -1.51790E+00  8.51302E-02  1.35928E+00  2.73526E+00  9.99719E-01
   2.44456E+00  2.18267E+00  2.36721E+00  1.92455E+00  7.95371E-01  1.53067E+00  3.09961E+00  3.37802E+00  4.28576E+00  4.52766E+00
   4.96966E+00  2.36870E+00  9.56363E-01 -3.32444E-01 -1.13004E+00  1.36535E+00  1.80334E+00 -5.12778E-01  7.17366E-01  1.14272E+00
   3.07175E+00  9.07096E-01 -1.62844E+00  3.78473E-01  1.13824E+00  1.06007E+00  3.29388E-01 -5.18328E-01 -2.15735E+00  5.60225E-01
  -1.15979E-02  2.22273E+00  1.74237E+00 -3.44589E-01  7.81775E-01  2.44233E+00  2.62627E+00  1.77082E+00  8.37840E-01 -1.10760E-01
  -3.30843E-01  2.14407E+00 -2.25234E-02 -1.93251E+00 -7.43143E-01  8.99849E-02 -6.08500E-01 -1.29230E+00 -1.97677E+00 -1.70130E+00
  -1.17607E+00 -2.30134E+00 -3.48701E+00 -4.26553E+00 -1.84667E+00 -2.02639E+00 -3.83725E+00 -1.93575E+00 -1.00775E+00 -1.86344E+00
  -1.22612E+00 -1.92461E+00 -1.26746E+00 -1.11299E+00 -3.16012E+00 -1.66670E+00 -1.08745E+00 -1.03084E+00  1.91855E-01 -6.29279E-01
  -7.71245E-01 -4.75538E-01 -2.01120E+00  2.54853E+00 -4.39199E-01 -9.55468E-01  8.68051E-01 -2.75580E+00 -4.37934E-01 -3.18610E+00
  -1.55069E+00 -1.77831E+00 -2.39377E+00  7.23844E-01  2.46047E+00  2.57019E+00  1.30970E-01 -1.93719E+00 -2.97576E-01 -7.35286E-01
  -5.96496E-01 -2.65893E-01 -5.09736E-01  1.03374E+00  2.37025E+00  5.38462E+00  4.78249E+00  2.73570E+00  1.52309E+00 -1.56737E+00
  -9.77957E-01 -3.07415E+00  5.96538E-02 -1.57979E+00  4.94566E-01  8.86386E-01 -7.44830E-01  1.60072E+00  2.20149E+00  2.48155E+00
   3.07438E+00  2.96470E+00 -1.01712E-01  2.14911E-01  3.13797E+00  1.32718E+00  2.39676E+00  2.11403E+00  1.51069E+00  8.94765E-01
   2.40301E+00  2.33779E+00  1.12917E+00  1.28324E+00  2.47999E+00  2.83594E+00  2.50032E+00  3.30453E+00  1.49998E+00  4.77424E+00
   5.34421E+00  5.21777E+00  7.67848E+00  8.57221E+00  1.36832E+01  1.51561E+01  1.75518E+01  2.02582E+01  2.33389E+01  2.46108E+01
   2.56998E+01  2.45757E+01  2.19095E+01  1.37361E+01  8.12533E+00  1.66554E+00  5.87853E-01  9.67358E-01 -1.89225E+00  1.31661E+00
   3.93360E-01  2.72584E+00  2.80084E+00  3.71225E+00  2.97282E+00  3.66868E+00  7.83863E-01  3.00529E+00  2.02712E+00  2.18933E+00
   3.21993E+00  8.30362E-01  9.65546E-01 -1.95471E+00  7.14085E-01  7.56454E-02  2.89578E+00  2.05794E+00  1.16550E+00  2.65912E+00
   1.21726E+00  2.90674E+00  1.80933E+00  8.89452E-01  1.08474E+00  1.86487E+00  1.72798E+00  3.07901E+00  3.02397E+00  1.03062E+00
   4.19399E-01  1.48610E+00  2.56411E+00  1.57793E+00  2.48463E+00 -1.73953E-02  5.67548E-01  1.25963E+00  3.72034E+00  6.73637E-01
   1.35790E+00  5.06904E+00  8.53474E-01  1.56960E+00  3.17087E+00  1.69256E+00 -9.19868E-01 -2.05248E-01  1.02282E+00  1.28240E+00
  -2.24167E-01  1.71229E+00  1.98065E+00  3.93021E-01  2.92876E+00  2.06410E+00  4.39007E+00  1.52525E+00  2.03503E+00  2.31410E+00
   2.01339E+00  3.64972E+00  7.77419E-01  1.76012E+00  1.01294E+00  4.07919E+00  2.81876E+00  3.34517E+00  2.66563E+00  2.04339E+00
   3.40439E+00  2.26494E-01  2.81972E+00  2.37527E+00  4.05970E+00  4.77431E+00  4.64664E+00  4.46260E+00  3.26892E+00  3.48420E+00
   3.72048E+00  1.92301E+00  1.97162E+00  2.64156E+00  1.70159E+00  4.09946E+00  3.89042E+00  3.98656E+00  2.20352E+00  2.93366E+00
   4.48682E+00  1.76351E+00  2.27302E+00  1.49711E+00  1.09802E+00  1.27322E+00  1.73328E+00  2.16415E-01  1.10652E+00  1.70433E+00
   2.67751E+00  1.92223E+00  3.28152E+00  3.31501E+00  2.99137E+00  2.45066E+00  2.63127E+00  2.02343E+00  2.58593E+00  9.03804E-01
   3.72196E+00  2.05145E+00  4.43990E-01 -5.53853E-01  3.66357E+00  3.34150E+00  1.47568E+00  2.06001E+00 -9.54494E-02  3.88579E+00
   4.70246E+00  4.60294E+00  1.45106E+00  3.63491E+00  3.36891E+00  4.04791E+00  5.45749E+00  3.78497E+00  6.57310E+00  5.81305E+00
   4.04071E+00  5.22488E+00  3.48532E+00  5.07400E+00  4.53378E+00  3.69995E+00  2.70226E+00  4.00620E+00  5.53951E+00  4.97317E+00
   5.33876E+00  3.57647E+00  3.19759E+00  3.43145E+00  1.76289E+00  1.56001E+00  3.18470E+00  3.55837E-01 -2.09343E-01  1.31281E+00
   2.08861E+00  4.29957E+00  4.07531E+00  9.98449E-03  1.75870E+00  2.86162E+00  1.50696E+00 -8.25792E-01  5.71243E-01  1.82656E+00
  -1.74120E-01  4.78303E-01  8.87749E-01 -6.99645E-02  1.77631E+00  4.67687E-01  4.25445E+00  3.04415E+00  1.00756E+00  2.86254E+00
   9.10433E-01  2.14410E+00 -1.27713E+00 -5.93271E-02  3.47887E+00  3.53664E-01  1.78348E-01  3.53022E-01  2.05751E+00  4.86229E-01
   4.79609E-01  1.89126E+00 -2.34289E-01  4.12710E-01  1.54408E+00  8.73630E-01  9.42985E-01  4.74010E-01  8.50574E-01  1.58956E-01
   8.40160E-01  1.38392E+00 -4.46789E-01  1.52879E-01 -1.76482E-01  7.61096E-01 -1.01764E+00  2.18741E+00  2.94010E+00  1.42383E-01
  -1.67380E+00  1.15322E+00 -1.26453E+00  8.08255E-01 -5.25523E-01  1.39504E+00  1.09721E+00  1.08839E+00  9.88496E-01  2.96506E+00
  -8.36132E-01 -1.30458E-01  1.02139E+00  1.34907E+00 -5.20026E-01  4.32561E-01 -8.50407E-01  1.44544E+00  1.14863E+00  6.02362E-01
   1.10091E+00  1.44747E+00 -3.46667E-01  2.84103E-01  9.24137E-01  1.05183E+00  5.87399E-01  1.64632E+00
 NY points of the fit to the data follow
   2.14386E-01  2.37778E-01  2.98318E-01  4.03533E-01  5.41729E-01  7.33005E-01  1.02694E+00  1.37240E+00  1.71393E+00  2.01110E+00
   2.21177E+00  2.25954E+00  2.11698E+00  1.79178E+00  1.34756E+00  8.92634E-01  5.38969E-01  3.53814E-01  3.42444E-01  4.40446E-01
   5.61156E-01  6.75982E-01  7.28426E-01  7.03853E-01  6.26063E-01  4.98368E-01  3.72920E-01  3.38793E-01  4.51649E-01  7.33012E-01
   1.13789E+00  1.56958E+00  1.86677E+00  1.87177E+00  1.54877E+00  9.79096E-01  3.49071E-01 -1.48857E-01 -3.81469E-01 -3.00657E-01
   9.92971E-03  3.93632E-01  7.20378E-01  9.18746E-01  9.97527E-01  1.00356E+00  9.91526E-01  9.72800E-01  9.08006E-01  7.77118E-01
   5.93132E-01  3.91878E-01  2.23123E-01  1.30260E-01  1.22443E-01  1.71374E-01  2.40551E-01  3.07714E-01  3.65074E-01  4.08133E-01
   4.32470E-01  4.34902E-01  4.10605E-01  3.70447E-01  3.25823E-01  2.92856E-01  2.90251E-01  3.12505E-01  3.42274E-01  3.83470E-01
   4.44487E-01  5.17382E-01  5.94418E-01  6.64567E-01  7.05463E-01  6.97593E-01  6.39170E-01  5.35985E-01  4.14697E-01  3.18246E-01
   3.02588E-01  3.87778E-01  5.36729E-01  6.95281E-01  8.16603E-01  8.75065E-01  8.57413E-01  7.59797E-01  5.97168E-01  4.05960E-01
   2.32942E-01  1.19175E-01  8.53537E-02  1.20079E-01  1.74830E-01  2.44823E-01  3.96377E-01  7.20777E-01  1.15826E+00  1.62670E+00
   2.07399E+00  2.44253E+00  2.66510E+00  2.66778E+00  2.41081E+00  1.92448E+00  1.32149E+00  7.66019E-01  4.04833E-01  2.74324E-01
   2.80838E-01  2.93183E-01  2.96165E-01  3.03073E-01  3.13143E-01  3.26373E-01  3.39736E-01  3.52850E-01  3.70328E-01  4.03365E-01
   4.85236E-01  7.19812E-01  1.17757E+00  1.77610E+00  2.45060E+00  3.13173E+00  3.69991E+00  4.00977E+00  3.94237E+00  3.45879E+00
   2.65758E+00  1.75586E+00  9.94327E-01  5.27477E-01  3.43318E-01  2.88591E-01  2.49711E-01  2.41371E-01  2.73013E-01  3.33538E-01
   4.01369E-01  4.50783E-01  4.65829E-01  4.47363E-01  4.04200E-01  3.52884E-01  3.08075E-01  2.71730E-01  2.33807E-01  1.89937E-01
   1.41774E-01  9.45524E-02  5.93533E-02  4.66066E-02  4.63419E-02  2.79274E-02 -8.98274E-03 -6.55213E-02 -1.44915E-01 -2.30982E-01
  -3.26865E-01 -4.05760E-01 -4.25656E-01 -3.87296E-01 -3.41407E-01 -3.45740E-01 -4.47171E-01 -6.41820E-01 -8.58501E-01 -1.02046E+00
  -1.11833E+00 -1.16356E+00 -1.17896E+00 -1.21204E+00 -1.25923E+00 -1.30911E+00 -1.32153E+00 -1.25880E+00 -1.12657E+00 -9.86974E-01
  -9.01600E-01 -8.95302E-01 -8.97417E-01 -8.19281E-01 -6.29945E-01 -3.64543E-01 -7.67435E-02  2.06796E-01  4.83815E-01  7.59840E-01
   9.95370E-01  1.12690E+00  1.09805E+00  9.45132E-01  7.56276E-01  6.08827E-01  5.28328E-01  5.33762E-01  6.41792E-01  8.30332E-01
   1.08047E+00  1.35375E+00  1.58349E+00  1.69016E+00  1.55656E+00  1.15188E+00  5.49509E-01 -1.71589E-01 -8.39127E-01 -1.25016E+00
  -1.21079E+00 -7.08178E-01  1.22080E-01  1.11876E+00  2.04918E+00  2.65034E+00  2.67373E+00  2.02650E+00  8.97310E-01 -3.90532E-01
  -1.50788E+00 -2.12945E+00 -2.10161E+00 -1.47708E+00 -4.83768E-01  6.18628E-01  1.58579E+00  2.20355E+00  2.39247E+00  2.25305E+00
   1.99395E+00  1.79650E+00  1.72300E+00  1.76173E+00  1.88709E+00  2.03683E+00  2.15204E+00  2.16471E+00  2.09625E+00  2.00727E+00
   1.93483E+00  1.89302E+00  1.91601E+00  2.03228E+00  2.23781E+00  2.48986E+00  2.72634E+00  2.90601E+00  3.04711E+00  3.35181E+00
   4.12162E+00  5.30184E+00  6.77840E+00  8.58531E+00  1.13277E+01  1.49178E+01  1.84507E+01  2.15181E+01  2.39033E+01  2.52956E+01
   2.52802E+01  2.35046E+01  1.98613E+01  1.47488E+01  9.25732E+00  4.90545E+00  2.58352E+00  2.00469E+00  1.95825E+00  1.81887E+00
   1.72071E+00  1.67970E+00  1.67403E+00  1.68518E+00  1.69376E+00  1.66680E+00  1.59356E+00  1.48663E+00  1.36923E+00  1.26668E+00
   1.20147E+00  1.17645E+00  1.17746E+00  1.19041E+00  1.20691E+00  1.22220E+00  1.23509E+00  1.24694E+00  1.26412E+00  1.29556E+00
   1.34378E+00  1.40516E+00  1.47392E+00  1.54072E+00  1.59775E+00  1.64106E+00  1.67166E+00  1.69475E+00  1.71704E+00  1.74155E+00
   1.76716E+00  1.79212E+00  1.81347E+00  1.82694E+00  1.82888E+00  1.81811E+00  1.79689E+00  1.76888E+00  1.73607E+00  1.70053E+00
   1.66433E+00  1.62918E+00  1.59664E+00  1.56826E+00  1.54553E+00  1.52993E+00  1.52289E+00  1.52565E+00  1.53928E+00  1.56495E+00
   1.60492E+00  1.66327E+00  1.73434E+00  1.80779E+00  1.87891E+00  1.94203E+00  1.99025E+00  2.01883E+00  2.02854E+00  2.03449E+00
   2.06045E+00  2.12024E+00  2.21956E+00  2.35293E+00  2.50295E+00  2.64751E+00  2.77282E+00  2.87083E+00  2.93588E+00  2.97360E+00
   3.00387E+00  3.06084E+00  3.15298E+00  3.23804E+00  3.29182E+00  3.29873E+00  3.23705E+00  3.08862E+00  2.85448E+00  2.59246E+00
   2.39028E+00  2.30700E+00  2.37763E+00  2.59245E+00  2.88772E+00  3.16900E+00  3.36567E+00  3.44879E+00  3.40081E+00  3.23935E+00
   3.01804E+00  2.80216E+00  2.63379E+00  2.50453E+00  2.39041E+00  2.28870E+00  2.19874E+00  2.11923E+00  2.04874E+00  1.98597E+00
   1.92995E+00  1.88015E+00  1.83648E+00  1.79915E+00  1.76867E+00  1.74574E+00  1.73128E+00  1.72639E+00  1.73222E+00  1.74994E+00
   1.78070E+00  1.82565E+00  1.88585E+00  1.96229E+00  2.05572E+00  2.16657E+00  2.29490E+00  2.44034E+00  2.60205E+00  2.77857E+00
   2.96778E+00  3.16683E+00  3.37226E+00  3.58001E+00  3.78554E+00  3.98393E+00  4.17006E+00  4.33877E+00  4.48522E+00  4.60506E+00
   4.69462E+00  4.75111E+00  4.77273E+00  4.75878E+00  4.70974E+00  4.62720E+00  4.51374E+00  4.37275E+00  4.20827E+00  4.02479E+00
   3.82706E+00  3.61982E+00  3.40763E+00  3.19465E+00  2.98456E+00  2.78051E+00  2.58505E+00  2.40015E+00  2.22713E+00  2.06676E+00
   1.91938E+00  1.78493E+00  1.66310E+00  1.55327E+00  1.45467E+00  1.36642E+00  1.28761E+00  1.21734E+00  1.15475E+00  1.09897E+00
   1.04922E+00  1.00475E+00  9.64937E-01  9.29236E-01  8.97151E-01  8.68224E-01  8.42044E-01  8.18275E-01  7.96647E-01  7.76932E-01
   7.58910E-01  7.42373E-01  7.27141E-01  7.13082E-01  7.00096E-01  6.88088E-01  6.76950E-01  6.66576E-01  6.56888E-01  6.47839E-01
   6.39394E-01  6.31505E-01  6.24106E-01  6.17139E-01  6.10575E-01  6.04403E-01  5.98607E-01  5.93152E-01  5.87988E-01  5.83087E-01
   5.78443E-01  5.74059E-01  5.69923E-01  5.66002E-01  5.62264E-01  5.58699E-01  5.55313E-01  5.52113E-01  5.49078E-01  5.46180E-01
   5.43399E-01  5.40740E-01  5.38217E-01  5.35829E-01  5.33554E-01  5.31367E-01  5.29260E-01  5.27247E-01  5.25338E-01  5.23524E-01
   5.21781E-01  5.20091E-01  5.18460E-01  5.16904E-01  5.15430E-01  5.14019E-01  5.12647E-01  5.11309E-01  5.10018E-01  5.08788E-01
   5.07615E-01  5.06475E-01  5.05351E-01  5.04248E-01  5.03182E-01  5.02160E-01  5.01169E-01  5.00184E-01
 NY background values follow
    -2.526E-01   -2.515E-01   -2.504E-01   -2.493E-01   -2.482E-01   -2.471E-01   -2.460E-01   -2.449E-01   -2.438E-01   -2.427E-01
    -2.416E-01   -2.405E-01   -2.394E-01   -2.383E-01   -2.372E-01   -2.361E-01   -2.350E-01   -2.339E-01   -2.328E-01   -2.317E-01
    -2.306E-01   -2.295E-01   -2.284E-01   -2.273E-01   -2.262E-01   -2.251E-01   -2.240E-01   -2.229E-01   -2.218E-01   -2.207E-01
    -2.196E-01   -2.185E-01   -2.174E-01   -2.163E-01   -2.151E-01   -2.140E-01   -2.129E-01   -2.118E-01   -2.107E-01   -2.096E-01
    -2.085E-01   -2.074E-01   -2.063E-01   -2.052E-01   -2.041E-01   -2.030E-01   -2.019E-01   -2.008E-01   -1.997E-01   -1.986E-01
    -1.975E-01   -1.964E-01   -1.952E-01   -1.941E-01   -1.930E-01   -1.919E-01   -1.908E-01   -1.897E-01   -1.886E-01   -1.875E-01
    -1.864E-01   -1.853E-01   -1.842E-01   -1.831E-01   -1.820E-01   -1.808E-01   -1.797E-01   -1.786E-01   -1.775E-01   -1.764E-01
    -1.753E-01   -1.742E-01   -1.731E-01   -1.720E-01   -1.709E-01   -1.697E-01   -1.686E-01   -1.675E-01   -1.664E-01   -1.653E-01
    -1.642E-01   -1.631E-01   -1.620E-01   -1.609E-01   -1.597E-01   -1.586E-01   -1.575E-01   -1.564E-01   -1.553E-01   -1.542E-01
    -1.531E-01   -1.520E-01   -1.508E-01   -1.497E-01   -1.486E-01   -1.475E-01   -1.464E-01   -1.453E-01   -1.442E-01   -1.430E-01
    -1.419E-01   -1.408E-01   -1.397E-01   -1.386E-01   -1.375E-01   -1.364E-01   -1.352E-01   -1.341E-01   -1.330E-01   -1.319E-01
    -1.308E-01   -1.297E-01   -1.286E-01   -1.274E-01   -1.263E-01   -1.252E-01   -1.241E-01   -1.230E-01   -1.219E-01   -1.207E-01
    -1.196E-01   -1.185E-01   -1.174E-01   -1.163E-01   -1.152E-01   -1.140E-01   -1.129E-01   -1.118E-01   -1.107E-01   -1.096E-01
    -1.085E-01   -1.073E-01   -1.062E-01   -1.051E-01   -1.040E-01   -1.029E-01   -1.017E-01   -1.006E-01   -9.951E-02   -9.839E-02
    -9.728E-02   -9.616E-02   -9.504E-02   -9.392E-02   -9.280E-02   -9.168E-02   -9.056E-02   -8.944E-02   -8.832E-02   -8.720E-02
    -8.608E-02   -8.496E-02   -8.384E-02   -8.272E-02   -8.160E-02   -8.048E-02   -7.936E-02   -7.824E-02   -7.712E-02   -7.600E-02
    -7.488E-02   -7.376E-02   -7.264E-02   -7.152E-02   -7.040E-02   -6.928E-02   -6.816E-02   -6.703E-02   -6.591E-02   -6.479E-02
    -6.367E-02   -6.255E-02   -6.143E-02   -6.031E-02   -5.918E-02   -5.806E-02   -5.694E-02   -5.582E-02   -5.470E-02   -5.357E-02
    -5.245E-02   -5.133E-02   -5.021E-02   -4.908E-02   -4.796E-02   -4.684E-02   -4.572E-02   -4.459E-02   -4.347E-02   -4.235E-02
    -4.122E-02   -4.010E-02   -3.898E-02   -3.785E-02   -3.673E-02   -3.561E-02   -3.448E-02   -3.336E-02   -3.224E-02   -3.111E-02
    -2.999E-02   -2.886E-02   -2.774E-02   -2.662E-02   -2.549E-02   -2.437E-02   -2.325E-02   -2.212E-02   -2.100E-02   -1.987E-02
    -1.875E-02   -1.762E-02   -1.650E-02   -1.537E-02   -1.425E-02   -1.313E-02   -1.200E-02   -1.088E-02   -9.752E-03   -8.627E-03
    -7.502E-03   -6.377E-03   -5.252E-03   -4.127E-03   -3.002E-03   -1.877E-03   -7.519E-04    3.732E-04    1.498E-03    2.624E-03
     3.749E-03    4.874E-03    6.000E-03    7.125E-03    8.250E-03    9.376E-03    1.050E-02    1.163E-02    1.275E-02    1.388E-02
     1.500E-02    1.613E-02    1.725E-02    1.838E-02    1.951E-02    2.063E-02    2.176E-02    2.288E-02    2.401E-02    2.514E-02
     2.626E-02    2.739E-02    2.851E-02    2.964E-02    3.076E-02    3.189E-02    3.302E-02    3.414E-02    3.527E-02    3.639E-02
     3.752E-02    3.865E-02    3.977E-02    4.090E-02    4.202E-02    4.315E-02    4.428E-02    4.540E-02    4.653E-02    4.766E-02
     4.878E-02    4.991E-02    5.103E-02    5.216E-02    5.329E-02    5.441E-02    5.554E-02    5.666E-02    5.779E-02    5.892E-02
     6.004E-02    6.117E-02    6.229E-02    6.342E-02    6.455E-02    6.567E-02    6.680E-02    6.793E-02    6.905E-02    7.018E-02
     7.130E-02    7.243E-02    7.356E-02    7.468E-02    7.581E-02    7.693E-02    7.806E-02    7.918E-02    8.031E-02    8.144E-02
     8.256E-02    8.369E-02    8.481E-02    8.594E-02    8.707E-02    8.819E-02    8.932E-02    9.044E-02    9.157E-02    9.269E-02
     9.382E-02    9.495E-02    9.607E-02    9.720E-02    9.832E-02    9.945E-02    1.006E-01    1.017E-01    1.028E-01    1.039E-01
     1.051E-01    1.062E-01    1.073E-01    1.084E-01    1.096E-01    1.107E-01    1.118E-01    1.129E-01    1.141E-01    1.152E-01
     1.163E-01    1.174E-01    1.186E-01    1.197E-01    1.208E-01    1.219E-01    1.231E-01    1.242E-01    1.253E-01    1.264E-01
     1.276E-01    1.287E-01    1.298E-01    1.309E-01    1.321E-01    1.332E-01    1.343E-01    1.354E-01    1.366E-01    1.377E-01
     1.388E-01    1.399E-01    1.411E-01    1.422E-01    1.433E-01    1.444E-01    1.455E-01    1.467E-01    1.478E-01    1.489E-01
     1.500E-01    1.512E-01    1.523E-01    1.534E-01    1.545E-01    1.557E-01    1.568E-01    1.579E-01    1.590E-01    1.601E-01
     1.613E-01    1.624E-01    1.635E-01    1.646E-01    1.658E-01    1.669E-01    1.680E-01    1.691E-01    1.702E-01    1.714E-01
     1.725E-01    1.736E-01    1.747E-01    1.758E-01    1.770E-01    1.781E-01    1.792E-01    1.803E-01    1.815E-01    1.826E-01
     1.837E-01    1.848E-01    1.859E-01    1.871E-01    1.882E-01    1.893E-01    1.904E-01    1.915E-01    1.927E-01    1.938E-01
     1.949E-01    1.960E-01    1.971E-01    1.982E-01    1.994E-01    2.005E-01    2.016E-01    2.027E-01    2.038E-01    2.050E-01
     2.061E-01    2.072E-01    2.083E-01    2.094E-01    2.106E-01    2.117E-01    2.128E-01    2.139E-01    2.150E-01    2.161E-01
     2.173E-01    2.184E-01    2.195E-01    2.206E-01    2.217E-01    2.228E-01    2.240E-01    2.251E-01    2.262E-01    2.273E-01
     2.284E-01    2.295E-01    2.306E-01    2.318E-01    2.329E-01    2.340E-01    2.351E-01    2.362E-01    2.373E-01    2.385E-01
     2.396E-01    2.407E-01    2.418E-01    2.429E-01    2.440E-01    2.451E-01    2.463E-01    2.474E-01    2.485E-01    2.496E-01
     2.507E-01    2.518E-01    2.529E-01    2.540E-01    2.552E-01    2.563E-01    2.574E-01    2.585E-01    2.596E-01    2.607E-01
     2.618E-01    2.629E-01    2.640E-01    2.652E-01    2.663E-01    2.674E-01    2.685E-01    2.696E-01    2.707E-01    2.718E-01
     2.729E-01    2.740E-01    2.751E-01    2.763E-01    2.774E-01    2.785E-01    2.796E-01    2.807E-01    2.818E-01    2.829E-01
     2.840E-01    2.851E-01    2.862E-01    2.873E-01    2.884E-01    2.896E-01    2.907E-01    2.918E-01    2.929E-01    2.940E-01
     2.951E-01    2.962E-01    2.973E-01    2.984E-01    2.995E-01    3.006E-01    3.017E-01    3.028E-01
 Ala      Conc. = 1.24E+01
