 LCModel (Version 6.3-1L) Copyright: S.W. Provencher.          Ref.: Magn. Reson. Med. 30:672-679 (1993).                
 Slice#2 Row#13 Col#14  PD_05_press_1_raw_act
 36 lines in following concentration table = NCONC+1
    Conc.  %SD /Cr+PCr  Metabolite                                         
   26.679  78%   0.757 Ala                                                 
    4.481  78%   0.127 Asp                                                 
    0.000 999%   0.000 Cr                                                  
   35.261  28%   1.000 PCr                                                 
    2.759  76% 7.8E-02 GABA                                                
    2.980  70% 8.5E-02 Glc                                                 
   48.397  83%   1.373 Gln                                                 
   49.590  88%   1.406 Glu                                                 
    9.228  40%   0.262 GPC                                                 
    0.000 999%   0.000 PCh                                                 
   27.861  49%   0.790 GSH                                                 
   46.265  89%   1.312 Ins                                                 
    0.000 999%   0.000 Lac                                                 
   30.323  35%   0.860 NAA                                                 
    0.000 999%   0.000 NAAG                                                
    1.046  67% 3.0E-02 Scyllo                                              
    5.009  69%   0.142 Tau                                                 
    0.291 999% 8.3E-03 -CrCH2                                              
    9.228  40%   0.262 GPC+PCh                                             
   30.323  35%   0.860 NAA+NAAG                                            
   35.261  28%   1.000 Cr+PCr                                              
   97.988  61%   2.779 Glu+Gln                                             
  314.477  32%   8.919 Lip13a                                              
    0.000 999%   0.000 Lip13b                                              
   81.379  38%   2.308 Lip09                                               
  190.697  19%   5.408 MM09                                                
   39.949  46%   1.133 Lip20                                               
    0.000 999%   0.000 MM20                                                
   62.189  43%   1.764 MM12                                                
  641.403  13%  18.190+MM14                                                
  275.477  22%   7.813 MM17                                                
  314.477  32%   8.919 Lip13a+Lip13b                                       
 1.02E+03   9%  28.873 MM14+Lip13a+Lip13b+MM12                             
  272.075  12%   7.716 MM09+Lip09                                          
   39.949  46%   1.133 MM20+Lip20                                          
   6 lines in following misc. output table
  FWHM = 0.046 ppm    S/N =   3                                            
  Data shift = 0.031 ppm                                                   
  Ph:  96 deg       5.8 deg/ppm                                            
  alphaB,S = 8.5E+01,   1.6E+01                                            
   14 spline knots.   Ns = 5(1)                                            
   2 inflections.     1 extrema                                            
  498 points on ppm-axis = NY
      4.000000     3.992357     3.984714     3.977070     3.969427     3.961784     3.954141     3.946497     3.938854     3.931211
      3.923568     3.915925     3.908281     3.900638     3.892995     3.885352     3.877708     3.870065     3.862422     3.854779
      3.847136     3.839492     3.831849     3.824206     3.816563     3.808919     3.801276     3.793633     3.785990     3.778347
      3.770703     3.763060     3.755417     3.747774     3.740130     3.732487     3.724844     3.717201     3.709558     3.701914
      3.694271     3.686628     3.678985     3.671341     3.663698     3.656055     3.648412     3.640769     3.633125     3.625482
      3.617839     3.610196     3.602552     3.594909     3.587266     3.579623     3.571980     3.564336     3.556693     3.549050
      3.541407     3.533763     3.526120     3.518477     3.510834     3.503191     3.495547     3.487904     3.480261     3.472618
      3.464974     3.457331     3.449688     3.442045     3.434402     3.426758     3.419115     3.411472     3.403829     3.396185
      3.388542     3.380899     3.373256     3.365613     3.357969     3.350326     3.342683     3.335040     3.327396     3.319753
      3.312110     3.304467     3.296824     3.289180     3.281537     3.273894     3.266251     3.258607     3.250964     3.243321
      3.235678     3.228034     3.220391     3.212748     3.205105     3.197462     3.189818     3.182175     3.174532     3.166889
      3.159245     3.151602     3.143959     3.136316     3.128673     3.121029     3.113386     3.105743     3.098100     3.090456
      3.082813     3.075170     3.067527     3.059884     3.052240     3.044597     3.036954     3.029311     3.021667     3.014024
      3.006381     2.998738     2.991095     2.983451     2.975808     2.968165     2.960522     2.952878     2.945235     2.937592
      2.929949     2.922306     2.914662     2.907019     2.899376     2.891733     2.884089     2.876446     2.868803     2.861160
      2.853517     2.845873     2.838230     2.830587     2.822944     2.815300     2.807657     2.800014     2.792371     2.784728
      2.777084     2.769441     2.761798     2.754155     2.746511     2.738868     2.731225     2.723582     2.715939     2.708295
      2.700652     2.693009     2.685366     2.677722     2.670079     2.662436     2.654793     2.647150     2.639506     2.631863
      2.624220     2.616577     2.608933     2.601290     2.593647     2.586004     2.578361     2.570717     2.563074     2.555431
      2.547788     2.540144     2.532501     2.524858     2.517215     2.509572     2.501928     2.494285     2.486642     2.478999
      2.471355     2.463712     2.456069     2.448426     2.440783     2.433139     2.425496     2.417853     2.410210     2.402566
      2.394923     2.387280     2.379637     2.371994     2.364350     2.356707     2.349064     2.341421     2.333777     2.326134
      2.318491     2.310848     2.303205     2.295561     2.287918     2.280275     2.272632     2.264988     2.257345     2.249702
      2.242059     2.234416     2.226772     2.219129     2.211486     2.203843     2.196199     2.188556     2.180913     2.173270
      2.165627     2.157983     2.150340     2.142697     2.135054     2.127410     2.119767     2.112124     2.104481     2.096838
      2.089194     2.081551     2.073908     2.066265     2.058621     2.050978     2.043335     2.035692     2.028049     2.020405
      2.012762     2.005119     1.997476     1.989833     1.982190     1.974546     1.966903     1.959260     1.951617     1.943974
      1.936331     1.928688     1.921045     1.913402     1.905759     1.898115     1.890472     1.882829     1.875186     1.867543
      1.859900     1.852257     1.844614     1.836971     1.829327     1.821684     1.814041     1.806398     1.798755     1.791112
      1.783469     1.775826     1.768183     1.760540     1.752896     1.745253     1.737610     1.729967     1.722324     1.714681
      1.707038     1.699395     1.691752     1.684108     1.676465     1.668822     1.661179     1.653536     1.645893     1.638250
      1.630607     1.622964     1.615321     1.607677     1.600034     1.592391     1.584748     1.577105     1.569462     1.561819
      1.554176     1.546533     1.538890     1.531246     1.523603     1.515960     1.508317     1.500674     1.493031     1.485388
      1.477745     1.470102     1.462458     1.454815     1.447172     1.439529     1.431886     1.424243     1.416600     1.408957
      1.401314     1.393671     1.386027     1.378384     1.370741     1.363098     1.355455     1.347812     1.340169     1.332526
      1.324883     1.317240     1.309596     1.301953     1.294310     1.286667     1.279024     1.271381     1.263738     1.256095
      1.248452     1.240808     1.233165     1.225522     1.217879     1.210236     1.202593     1.194950     1.187307     1.179664
      1.172021     1.164377     1.156734     1.149091     1.141448     1.133805     1.126162     1.118519     1.110876     1.103233
      1.095590     1.087946     1.080303     1.072660     1.065017     1.057374     1.049731     1.042088     1.034445     1.026802
      1.019158     1.011515     1.003872     0.996229     0.988586     0.980943     0.973300     0.965657     0.958014     0.950371
      0.942727     0.935084     0.927441     0.919798     0.912155     0.904512     0.896869     0.889226     0.881583     0.873940
      0.866296     0.858653     0.851010     0.843367     0.835724     0.828081     0.820438     0.812795     0.805152     0.797508
      0.789865     0.782222     0.774579     0.766936     0.759293     0.751650     0.744007     0.736364     0.728721     0.721077
      0.713434     0.705791     0.698148     0.690505     0.682862     0.675219     0.667576     0.659933     0.652290     0.644646
      0.637003     0.629360     0.621717     0.614074     0.606431     0.598788     0.591145     0.583502     0.575858     0.568215
      0.560572     0.552929     0.545286     0.537643     0.530000     0.522357     0.514714     0.507071     0.499427     0.491784
      0.484141     0.476498     0.468855     0.461212     0.453569     0.445925     0.438282     0.430639     0.422996     0.415353
      0.407710     0.400067     0.392424     0.384780     0.377137     0.369494     0.361851     0.354208     0.346565     0.338922
      0.331278     0.323635     0.315992     0.308349     0.300706     0.293063     0.285420     0.277777     0.270133     0.262490
      0.254847     0.247204     0.239561     0.231918     0.224275     0.216631     0.208988     0.201345
 NY phased data points follow
   5.64798E-01  6.48130E-01  1.18593E+00 -2.89360E-01  1.91646E+00  1.76663E+00  5.29576E-01  1.18872E+00  4.57654E-01  7.11090E-01
   2.52218E+00  7.73484E-01  2.04328E-01  9.14330E-02  7.69309E-01  7.24960E-01  1.92456E-01  4.13458E-01  3.97300E-01  1.93772E-01
   9.70345E-02  2.11978E-01  2.41174E-01  4.76910E-01  5.46604E-01  6.41075E-01  3.41302E-01  5.20732E-01  9.50059E-01  7.54474E-01
   8.95743E-01  1.26319E+00  1.42650E+00  4.12490E-01  6.87906E-01 -2.36662E-01  2.98740E-01 -8.04797E-02 -2.29451E-01 -4.05112E-02
   1.90643E+00 -9.44344E-02 -4.03179E-02  3.86593E-01  1.39116E+00  5.17016E-01  2.82869E-02  2.07071E-01  4.83201E-01 -2.82757E-01
  -2.63907E-01  8.93050E-03  1.87007E+00  7.77853E-02  3.25684E-01  1.82869E-01 -6.54147E-01  8.95157E-03  2.36309E-01 -4.93277E-02
  -3.43145E-01  1.01312E+00  4.36903E-01  2.66876E-01  5.44624E-01 -7.79620E-01  6.60682E-01  3.54395E-01  1.35473E+00  4.35043E-01
  -3.86831E-01  7.46118E-01  1.14553E+00  1.24609E+00 -3.95415E-02  1.83796E+00  3.56448E-01  1.20920E-01  1.57223E-01  7.84447E-01
  -3.06736E-02 -3.15063E-01 -3.14809E-02 -1.27248E-01  1.15188E+00  1.04960E+00  2.76653E-01  1.18889E-01  5.88416E-01  4.69773E-01
   1.33799E-02  1.28032E+00  3.71364E-02 -2.95908E-01 -3.35129E-01  1.33036E-01 -9.51302E-02 -7.13064E-01  7.84052E-01 -3.32033E-01
   6.19031E-01  1.64979E+00  6.89104E-01  1.14429E+00  1.39783E+00  1.01648E+00 -3.19431E-01 -4.63917E-02  6.66692E-01  1.74637E-01
  -5.59028E-01  6.45417E-02 -1.96304E-01  1.97286E+00 -1.72640E-01 -1.45214E-01 -4.64201E-02 -1.04412E+00  7.56355E-02  8.13610E-01
  -6.83502E-01  2.93391E-02  5.79742E-01 -7.22243E-01 -8.82748E-02  5.43294E-01  1.45761E+00  3.00562E+00  1.39837E+00 -1.49442E-01
   1.71104E+00  7.38384E-01  1.11925E+00 -6.91036E-01  4.69759E-01  7.82927E-01 -2.70750E-01  9.00813E-01  1.52077E-01  5.96344E-02
   3.99156E-01  6.84165E-02  1.02852E+00 -4.43852E-01  1.97238E-01 -6.22998E-02 -2.13666E-01 -4.07797E-02  9.99147E-01 -4.98583E-01
  -1.51802E-01  1.06588E+00  9.71259E-01 -1.18960E+00  5.58579E-01 -6.28691E-02  3.76325E-01  1.06368E+00 -1.80815E-02  1.29709E+00
   4.97408E-01  5.86269E-01  9.61963E-01  6.43939E-01  9.76176E-01 -7.55632E-01 -1.01778E+00 -1.29946E+00  4.06123E-01 -2.42634E-01
   9.15319E-01  5.56742E-01 -1.03463E+00 -5.67199E-01  4.15942E-02 -4.44073E-01  8.41761E-01 -1.16930E+00  1.39763E+00  6.18154E-01
   1.15005E+00 -1.72502E-01  4.75809E-01  6.41754E-01  6.00144E-01 -3.05346E-01  4.41114E-02  3.80669E-01  1.54722E+00  9.15529E-01
   8.02475E-01  2.44760E-01  1.05168E+00  3.08680E-01  6.29385E-01 -1.53696E-01  7.46186E-02  1.00458E+00 -1.00571E-01  3.98955E-01
   8.96785E-01 -1.36692E+00  1.07769E+00  2.37517E-01 -7.13709E-01 -1.41541E-01  7.98690E-01 -4.63265E-01 -5.46732E-01  1.01404E+00
  -5.24674E-01 -8.55100E-01  1.45217E-01 -1.44424E+00 -1.44972E-01  1.45537E+00  9.17190E-02 -2.67105E-02  1.15996E+00  2.69115E-01
   1.40118E-01  2.10555E-01 -3.85411E-01  4.30160E-02 -9.25554E-01  4.20913E-02  1.25510E+00 -4.66627E-02 -3.70405E-01 -1.84081E+00
   5.25436E-01  1.50687E-01  1.37045E+00  4.33885E-01  7.07998E-01 -2.19835E-01 -1.67182E-01  1.65319E+00  1.55655E-02  4.36955E-01
   1.87743E-01  3.48498E-01  9.32254E-01  5.69480E-01 -4.12192E-01 -3.52624E-01 -8.89092E-02  4.29861E-01 -3.28641E-01 -5.89116E-01
   5.00088E-01  8.14057E-02 -1.01580E-01 -3.39970E-02  4.38861E-01 -6.58576E-01 -3.63389E-01  1.83968E+00  6.96977E-01  1.58528E+00
   1.55787E+00  1.93517E+00  1.15742E+00  2.27329E+00  1.39471E+00  8.75311E-01  5.85397E-01  9.26134E-01 -6.03229E-01  5.91312E-01
  -2.29183E-01  2.16612E+00  3.03880E-01  1.63520E+00  7.30900E-01  1.31182E+00 -5.66697E-01  1.33893E+00  7.47981E-01  6.26137E-01
   4.70660E-01  1.73546E+00  1.51893E+00  3.42376E-01  1.12980E+00  1.48341E+00  6.84848E-01  1.09709E+00  5.65519E-01  1.92943E+00
   6.74586E-02  1.39680E+00  1.74775E+00  1.09557E+00  1.78052E+00  1.13859E+00  1.65735E+00  2.79384E+00  1.54480E+00  1.49588E+00
   1.52289E+00  2.85310E+00  1.52896E+00  1.66366E+00  2.19035E+00  1.81851E+00  2.91467E+00  2.50436E+00  2.05128E+00  2.15936E+00
   3.60436E+00  2.36889E+00  3.27469E+00  2.83219E+00  3.78493E+00  3.41091E+00  4.51320E+00  5.28964E+00  5.02321E+00  4.71238E+00
   5.07274E+00  4.87675E+00  4.68896E+00  5.44768E+00  4.96741E+00  5.22356E+00  5.35186E+00  5.37861E+00  4.35884E+00  5.68698E+00
   3.85462E+00  4.90994E+00  5.48925E+00  5.30113E+00  4.78555E+00  3.63492E+00  3.56102E+00  4.90884E+00  5.11989E+00  4.84864E+00
   3.11684E+00  4.57485E+00  4.11397E+00  2.63744E+00  3.56048E+00  4.11043E+00  3.39372E+00  3.94776E+00  2.71764E+00  2.32738E+00
   4.05033E+00  2.79982E+00  2.20210E+00  3.25629E+00  3.43370E+00  3.38630E+00  2.18826E+00  1.61703E+00  1.09595E+00  7.16319E-01
   1.65421E+00  1.64450E+00  1.27175E+00  1.18706E+00  2.45666E+00  2.58115E+00  1.97006E+00  9.27774E-01  2.06584E+00  2.64121E+00
   2.55504E+00  1.74549E+00  1.84661E+00  2.36593E+00  5.46892E-01  2.96295E+00  2.45272E+00  2.21765E+00  2.32079E+00  1.03490E+00
   2.55097E+00  2.80859E+00  1.71975E+00  2.30194E+00  3.79012E+00  3.00608E+00  1.86508E+00  3.08591E+00  2.84541E+00  2.45735E+00
   2.21996E+00  2.16659E+00  3.14019E+00  1.88681E+00  1.25679E+00  2.23203E+00  1.68240E+00  3.83364E+00  2.68911E+00  3.25338E+00
   3.65511E+00  1.46884E+00  2.03463E+00  2.39000E+00  1.56112E+00  1.25130E+00  2.45237E+00  2.01107E+00  1.52726E+00  4.82853E-01
   2.05367E+00  2.20901E+00  1.31472E+00  2.61521E+00  1.06517E+00  2.03396E+00  1.79894E+00  3.36394E-01  2.04610E+00  2.21054E+00
   5.07592E-01  1.43113E+00  8.69667E-01  1.70957E+00  1.10367E+00  2.02099E+00  1.40109E+00  1.15419E+00  2.07082E+00  1.89839E+00
   6.62278E-01  9.00406E-01  1.04462E+00  1.67625E+00 -2.80953E-01  1.12978E+00  1.39151E+00  5.50500E-01  1.55174E+00  8.20522E-01
   1.83392E+00  7.02416E-03  2.52292E-01  9.75116E-01  1.20833E+00  1.76966E+00  1.81842E+00  1.10978E+00  2.56716E+00  7.42647E-01
   1.37533E+00  2.38588E+00  1.17806E+00  1.57773E+00  1.28329E-01  1.98339E+00  1.38032E+00  1.47827E+00  1.67304E+00  5.99432E-01
   1.65703E+00  6.23147E-01  8.72520E-02  1.00093E+00  1.47007E+00  2.22995E+00  1.57364E-01  7.73499E-01  3.42322E-01  9.47355E-01
   1.83339E+00  1.46061E+00  2.33087E-01  4.32387E-01  6.58899E-01  1.65066E+00  6.04683E-01  2.15833E-01 -4.47473E-01  6.30255E-03
   4.30267E-01  7.50873E-01  1.18949E+00  8.37866E-02  9.55298E-01  2.15890E-01  2.09165E-01  1.17484E+00 -3.96450E-01  5.13474E-01
  -5.15205E-01  1.28674E+00  3.56702E-01  7.51121E-01  1.01939E+00  2.72281E-01  9.78522E-01  3.73993E-01
 NY points of the fit to the data follow
   1.80787E-01  1.74410E-01  1.80799E-01  2.17246E-01  3.08306E-01  4.45003E-01  6.06346E-01  7.76815E-01  9.30872E-01  1.02227E+00
   9.92495E-01  8.44603E-01  6.53160E-01  4.76655E-01  3.22410E-01  1.95261E-01  1.47901E-01  1.49334E-01  1.61406E-01  1.83115E-01
   2.16488E-01  2.50609E-01  2.71541E-01  2.72806E-01  2.66321E-01  2.80820E-01  3.18175E-01  3.89284E-01  5.16822E-01  6.96625E-01
   8.70089E-01  9.48391E-01  9.20613E-01  8.19242E-01  6.65099E-01  4.66952E-01  2.68273E-01  1.53655E-01  1.00030E-01  8.55881E-02
   1.02692E-01  1.40728E-01  1.94919E-01  2.60440E-01  3.33678E-01  4.06176E-01  4.74938E-01  5.27840E-01  5.34487E-01  4.81330E-01
   3.86964E-01  2.83422E-01  1.93524E-01  1.26707E-01  9.43056E-02  1.03084E-01  1.38155E-01  1.81710E-01  2.23472E-01  2.59858E-01
   2.83183E-01  2.84294E-01  2.63471E-01  2.30302E-01  1.96974E-01  1.70318E-01  1.58451E-01  1.66347E-01  1.87400E-01  2.14819E-01
   2.41002E-01  2.63404E-01  2.79884E-01  2.86239E-01  2.82760E-01  2.72761E-01  2.60360E-01  2.44302E-01  2.25392E-01  2.12360E-01
   2.06464E-01  2.06540E-01  2.10138E-01  2.12778E-01  2.08940E-01  1.97016E-01  1.77025E-01  1.49048E-01  1.20450E-01  1.05181E-01
   1.09632E-01  1.29240E-01  1.56064E-01  1.87667E-01  2.17097E-01  2.38826E-01  2.55823E-01  2.89100E-01  3.75949E-01  5.11727E-01
   6.80548E-01  8.69004E-01  1.04605E+00  1.15254E+00  1.11639E+00  9.47597E-01  7.36664E-01  5.43278E-01  3.69756E-01  2.29273E-01
   1.82151E-01  1.79155E-01  1.83064E-01  1.89279E-01  1.95477E-01  2.01361E-01  2.06521E-01  2.11476E-01  2.17042E-01  2.25798E-01
   2.44866E-01  2.99163E-01  4.34798E-01  6.40804E-01  8.90747E-01  1.16318E+00  1.41718E+00  1.57530E+00  1.54962E+00  1.35337E+00
   1.09384E+00  8.48429E-01  6.17913E-01  4.06555E-01  2.88215E-01  2.09715E-01  1.44879E-01  1.14841E-01  1.25512E-01  1.69422E-01
   2.37593E-01  3.12955E-01  3.66213E-01  3.87188E-01  3.83146E-01  3.62559E-01  3.37581E-01  3.14263E-01  2.95791E-01  2.85712E-01
   2.77320E-01  2.69331E-01  2.62995E-01  2.59645E-01  2.59011E-01  2.60498E-01  2.63795E-01  2.66049E-01  2.65027E-01  2.60867E-01
   2.56117E-01  2.52593E-01  2.52101E-01  2.56718E-01  2.63957E-01  2.69553E-01  2.71161E-01  2.69482E-01  2.65487E-01  2.60726E-01
   2.55690E-01  2.49457E-01  2.43378E-01  2.36677E-01  2.28473E-01  2.19692E-01  2.11781E-01  2.07539E-01  2.07937E-01  2.09491E-01
   2.07808E-01  2.03217E-01  1.98465E-01  1.94340E-01  1.91510E-01  1.95725E-01  2.13704E-01  2.50544E-01  3.01794E-01  3.56853E-01
   4.03282E-01  4.26039E-01  4.09274E-01  3.51676E-01  2.70183E-01  1.88755E-01  1.29694E-01  1.11644E-01  1.48732E-01  2.41411E-01
   3.67391E-01  4.92947E-01  5.94792E-01  6.54840E-01  6.57360E-01  5.89692E-01  4.70979E-01  3.25388E-01  1.79352E-01  6.70748E-02
   1.92458E-02  6.63033E-02  2.05289E-01  3.84914E-01  5.54065E-01  6.91042E-01  7.75034E-01  7.53826E-01  6.38949E-01  4.93969E-01
   3.56375E-01  2.44200E-01  1.76600E-01  1.88590E-01  2.74429E-01  3.91921E-01  4.96665E-01  5.66711E-01  6.02876E-01  6.00671E-01
   5.61214E-01  5.06365E-01  4.70654E-01  4.68859E-01  4.92649E-01  5.25215E-01  5.62923E-01  6.09122E-01  6.36739E-01  6.19030E-01
   5.67050E-01  5.05566E-01  4.43000E-01  3.75987E-01  3.37022E-01  3.48673E-01  3.85713E-01  4.23211E-01  4.62552E-01  5.07725E-01
   5.39423E-01  5.63143E-01  5.88645E-01  6.16217E-01  6.43009E-01  7.01005E-01  8.19646E-01  9.82895E-01  1.18316E+00  1.40906E+00
   1.62200E+00  1.73546E+00  1.67728E+00  1.48741E+00  1.26379E+00  1.04940E+00  8.38335E-01  6.83029E-01  6.27767E-01  6.04919E-01
   5.91515E-01  5.87729E-01  5.92636E-01  6.02275E-01  6.16480E-01  6.31517E-01  6.43740E-01  6.52185E-01  6.57717E-01  6.60565E-01
   6.62789E-01  6.67565E-01  6.76452E-01  6.89848E-01  7.07702E-01  7.29673E-01  7.55576E-01  7.85166E-01  8.18025E-01  8.54880E-01
   8.96516E-01  9.43354E-01  9.95973E-01  1.05516E+00  1.12142E+00  1.19493E+00  1.27586E+00  1.36436E+00  1.46020E+00  1.56295E+00
   1.67212E+00  1.78698E+00  1.90667E+00  2.03027E+00  2.15680E+00  2.28528E+00  2.41486E+00  2.54487E+00  2.67482E+00  2.80446E+00
   2.93382E+00  3.06321E+00  3.19308E+00  3.32409E+00  3.45696E+00  3.59240E+00  3.73101E+00  3.87320E+00  4.01922E+00  4.16922E+00
   4.32371E+00  4.48520E+00  4.65993E+00  4.83815E+00  4.99754E+00  5.12379E+00  5.20112E+00  5.20858E+00  5.12713E+00  4.96952E+00
   4.79636E+00  4.66208E+00  4.56965E+00  4.51525E+00  4.52003E+00  4.56880E+00  4.60242E+00  4.57356E+00  4.46691E+00  4.30682E+00
   4.11811E+00  3.90226E+00  3.67959E+00  3.48883E+00  3.32338E+00  3.17665E+00  3.04644E+00  2.93164E+00  2.83128E+00  2.74428E+00
   2.66941E+00  2.60524E+00  2.55025E+00  2.50285E+00  2.46147E+00  2.42462E+00  2.39090E+00  2.35908E+00  2.32813E+00  2.29719E+00
   2.26563E+00  2.23302E+00  2.19913E+00  2.16391E+00  2.12748E+00  2.09011E+00  2.05220E+00  2.01424E+00  1.97681E+00  1.94056E+00
   1.90618E+00  1.87440E+00  1.84593E+00  1.82150E+00  1.80180E+00  1.78751E+00  1.77923E+00  1.77748E+00  1.78272E+00  1.79524E+00
   1.81525E+00  1.84276E+00  1.87759E+00  1.91940E+00  1.96759E+00  2.02136E+00  2.07968E+00  2.14133E+00  2.20489E+00  2.26881E+00
   2.33142E+00  2.39104E+00  2.44598E+00  2.49467E+00  2.53568E+00  2.56778E+00  2.59003E+00  2.60177E+00  2.60266E+00  2.59269E+00
   2.57216E+00  2.54165E+00  2.50198E+00  2.45416E+00  2.39933E+00  2.33873E+00  2.27361E+00  2.20519E+00  2.13464E+00  2.06303E+00
   1.99132E+00  1.92033E+00  1.85077E+00  1.78319E+00  1.71803E+00  1.65563E+00  1.59623E+00  1.53996E+00  1.48691E+00  1.43709E+00
   1.39049E+00  1.34702E+00  1.30661E+00  1.26914E+00  1.23447E+00  1.20245E+00  1.17295E+00  1.14580E+00  1.12085E+00  1.09795E+00
   1.07694E+00  1.05767E+00  1.04002E+00  1.02384E+00  1.00901E+00  9.95418E-01  9.82949E-01  9.71506E-01  9.60996E-01  9.51337E-01
   9.42452E-01  9.34271E-01  9.26733E-01  9.19780E-01  9.13363E-01  9.07435E-01  9.01954E-01  8.96884E-01  8.92190E-01  8.87843E-01
   8.83815E-01  8.80081E-01  8.76619E-01  8.73408E-01  8.70432E-01  8.67673E-01  8.65116E-01  8.62747E-01  8.60553E-01  8.58523E-01
   8.56645E-01  8.54911E-01  8.53312E-01  8.51838E-01  8.50483E-01  8.49239E-01  8.48102E-01  8.47063E-01  8.46117E-01  8.45259E-01
   8.44484E-01  8.43788E-01  8.43168E-01  8.42617E-01  8.42134E-01  8.41715E-01  8.41356E-01  8.41055E-01  8.40809E-01  8.40614E-01
   8.40469E-01  8.40370E-01  8.40317E-01  8.40306E-01  8.40335E-01  8.40403E-01  8.40508E-01  8.40648E-01  8.40821E-01  8.41026E-01
   8.41261E-01  8.41525E-01  8.41815E-01  8.42132E-01  8.42473E-01  8.42837E-01  8.43222E-01  8.43627E-01
 NY background values follow
    -9.646E-02   -9.485E-02   -9.324E-02   -9.163E-02   -9.001E-02   -8.840E-02   -8.679E-02   -8.517E-02   -8.356E-02   -8.195E-02
    -8.033E-02   -7.872E-02   -7.710E-02   -7.548E-02   -7.387E-02   -7.225E-02   -7.063E-02   -6.901E-02   -6.739E-02   -6.578E-02
    -6.416E-02   -6.254E-02   -6.092E-02   -5.930E-02   -5.767E-02   -5.605E-02   -5.443E-02   -5.281E-02   -5.119E-02   -4.956E-02
    -4.794E-02   -4.632E-02   -4.469E-02   -4.307E-02   -4.144E-02   -3.982E-02   -3.819E-02   -3.656E-02   -3.494E-02   -3.331E-02
    -3.168E-02   -3.005E-02   -2.843E-02   -2.680E-02   -2.517E-02   -2.354E-02   -2.191E-02   -2.028E-02   -1.865E-02   -1.702E-02
    -1.538E-02   -1.375E-02   -1.212E-02   -1.049E-02   -8.856E-03   -7.223E-03   -5.589E-03   -3.956E-03   -2.321E-03   -6.869E-04
     9.480E-04    2.583E-03    4.219E-03    5.855E-03    7.491E-03    9.127E-03    1.076E-02    1.240E-02    1.404E-02    1.568E-02
     1.732E-02    1.895E-02    2.059E-02    2.223E-02    2.387E-02    2.551E-02    2.715E-02    2.879E-02    3.043E-02    3.207E-02
     3.371E-02    3.536E-02    3.700E-02    3.864E-02    4.028E-02    4.193E-02    4.357E-02    4.521E-02    4.686E-02    4.850E-02
     5.014E-02    5.179E-02    5.343E-02    5.508E-02    5.672E-02    5.837E-02    6.002E-02    6.166E-02    6.331E-02    6.495E-02
     6.660E-02    6.825E-02    6.990E-02    7.154E-02    7.319E-02    7.484E-02    7.649E-02    7.814E-02    7.979E-02    8.143E-02
     8.308E-02    8.473E-02    8.638E-02    8.803E-02    8.968E-02    9.133E-02    9.299E-02    9.464E-02    9.629E-02    9.794E-02
     9.959E-02    1.012E-01    1.029E-01    1.045E-01    1.062E-01    1.079E-01    1.095E-01    1.112E-01    1.128E-01    1.145E-01
     1.161E-01    1.178E-01    1.194E-01    1.211E-01    1.227E-01    1.244E-01    1.260E-01    1.277E-01    1.294E-01    1.310E-01
     1.327E-01    1.343E-01    1.360E-01    1.376E-01    1.393E-01    1.409E-01    1.426E-01    1.443E-01    1.459E-01    1.476E-01
     1.492E-01    1.509E-01    1.525E-01    1.542E-01    1.559E-01    1.575E-01    1.592E-01    1.608E-01    1.625E-01    1.642E-01
     1.658E-01    1.675E-01    1.691E-01    1.708E-01    1.724E-01    1.741E-01    1.758E-01    1.774E-01    1.791E-01    1.807E-01
     1.824E-01    1.841E-01    1.857E-01    1.874E-01    1.890E-01    1.907E-01    1.924E-01    1.940E-01    1.957E-01    1.973E-01
     1.990E-01    2.007E-01    2.023E-01    2.040E-01    2.056E-01    2.073E-01    2.090E-01    2.106E-01    2.123E-01    2.140E-01
     2.156E-01    2.173E-01    2.189E-01    2.206E-01    2.223E-01    2.239E-01    2.256E-01    2.272E-01    2.289E-01    2.306E-01
     2.322E-01    2.339E-01    2.356E-01    2.372E-01    2.389E-01    2.405E-01    2.422E-01    2.439E-01    2.455E-01    2.472E-01
     2.489E-01    2.505E-01    2.522E-01    2.538E-01    2.555E-01    2.572E-01    2.588E-01    2.605E-01    2.621E-01    2.638E-01
     2.655E-01    2.671E-01    2.688E-01    2.705E-01    2.721E-01    2.738E-01    2.754E-01    2.771E-01    2.788E-01    2.804E-01
     2.821E-01    2.838E-01    2.854E-01    2.871E-01    2.887E-01    2.904E-01    2.921E-01    2.937E-01    2.954E-01    2.971E-01
     2.987E-01    3.004E-01    3.020E-01    3.037E-01    3.054E-01    3.070E-01    3.087E-01    3.103E-01    3.120E-01    3.137E-01
     3.153E-01    3.170E-01    3.187E-01    3.203E-01    3.220E-01    3.236E-01    3.253E-01    3.270E-01    3.286E-01    3.303E-01
     3.319E-01    3.336E-01    3.353E-01    3.369E-01    3.386E-01    3.402E-01    3.419E-01    3.436E-01    3.452E-01    3.469E-01
     3.485E-01    3.502E-01    3.519E-01    3.535E-01    3.552E-01    3.568E-01    3.585E-01    3.601E-01    3.618E-01    3.635E-01
     3.651E-01    3.668E-01    3.684E-01    3.701E-01    3.718E-01    3.734E-01    3.751E-01    3.767E-01    3.784E-01    3.800E-01
     3.817E-01    3.833E-01    3.850E-01    3.867E-01    3.883E-01    3.900E-01    3.916E-01    3.933E-01    3.949E-01    3.966E-01
     3.982E-01    3.999E-01    4.016E-01    4.032E-01    4.049E-01    4.065E-01    4.082E-01    4.098E-01    4.115E-01    4.131E-01
     4.148E-01    4.164E-01    4.181E-01    4.197E-01    4.214E-01    4.230E-01    4.247E-01    4.263E-01    4.280E-01    4.297E-01
     4.313E-01    4.330E-01    4.346E-01    4.363E-01    4.379E-01    4.396E-01    4.412E-01    4.428E-01    4.445E-01    4.461E-01
     4.478E-01    4.494E-01    4.511E-01    4.527E-01    4.544E-01    4.560E-01    4.577E-01    4.593E-01    4.610E-01    4.626E-01
     4.643E-01    4.659E-01    4.676E-01    4.692E-01    4.708E-01    4.725E-01    4.741E-01    4.758E-01    4.774E-01    4.791E-01
     4.807E-01    4.823E-01    4.840E-01    4.856E-01    4.873E-01    4.889E-01    4.906E-01    4.922E-01    4.938E-01    4.955E-01
     4.971E-01    4.988E-01    5.004E-01    5.020E-01    5.037E-01    5.053E-01    5.069E-01    5.086E-01    5.102E-01    5.119E-01
     5.135E-01    5.151E-01    5.168E-01    5.184E-01    5.200E-01    5.217E-01    5.233E-01    5.249E-01    5.266E-01    5.282E-01
     5.298E-01    5.315E-01    5.331E-01    5.347E-01    5.364E-01    5.380E-01    5.396E-01    5.413E-01    5.429E-01    5.445E-01
     5.461E-01    5.478E-01    5.494E-01    5.510E-01    5.527E-01    5.543E-01    5.559E-01    5.575E-01    5.592E-01    5.608E-01
     5.624E-01    5.640E-01    5.657E-01    5.673E-01    5.689E-01    5.705E-01    5.722E-01    5.738E-01    5.754E-01    5.770E-01
     5.786E-01    5.803E-01    5.819E-01    5.835E-01    5.851E-01    5.867E-01    5.884E-01    5.900E-01    5.916E-01    5.932E-01
     5.948E-01    5.964E-01    5.981E-01    5.997E-01    6.013E-01    6.029E-01    6.045E-01    6.061E-01    6.077E-01    6.094E-01
     6.110E-01    6.126E-01    6.142E-01    6.158E-01    6.174E-01    6.190E-01    6.206E-01    6.222E-01    6.239E-01    6.255E-01
     6.271E-01    6.287E-01    6.303E-01    6.319E-01    6.335E-01    6.351E-01    6.367E-01    6.383E-01    6.399E-01    6.415E-01
     6.431E-01    6.447E-01    6.463E-01    6.479E-01    6.495E-01    6.511E-01    6.527E-01    6.543E-01    6.559E-01    6.575E-01
     6.591E-01    6.607E-01    6.623E-01    6.639E-01    6.655E-01    6.671E-01    6.687E-01    6.703E-01    6.719E-01    6.734E-01
     6.750E-01    6.766E-01    6.782E-01    6.798E-01    6.814E-01    6.830E-01    6.846E-01    6.862E-01    6.878E-01    6.893E-01
     6.909E-01    6.925E-01    6.941E-01    6.957E-01    6.973E-01    6.988E-01    7.004E-01    7.020E-01    7.036E-01    7.052E-01
     7.067E-01    7.083E-01    7.099E-01    7.115E-01    7.131E-01    7.146E-01    7.162E-01    7.178E-01
 Ala      Conc. = 2.67E+01
