 LCModel (Version 6.3-1L) Copyright: S.W. Provencher.          Ref.: Magn. Reson. Med. 30:672-679 (1993).                
 Slice#2 Row#9 Col#5  PD_05_press_1_raw_act
 36 lines in following concentration table = NCONC+1
    Conc.  %SD /Cr+PCr  Metabolite                                         
   70.122  95% 5.6E-02 Ala                                                 
    0.000 999%   0.000 Asp                                                 
  204.691  70%   0.163 Cr                                                  
 1.05E+03  15%   0.837 PCr                                                 
    0.000 999%   0.000 GABA                                                
    0.000 999%   0.000 Glc                                                 
  497.462  28%   0.396 Gln                                                 
 1.54E+03  10%   1.229 Glu                                                 
  520.115   3%   0.414 GPC                                                 
    0.000 999%   0.000 PCh                                                 
  349.683  14%   0.278 GSH                                                 
 1.11E+03  15%   0.886 Ins                                                 
    0.000 999%   0.000 Lac                                                 
 2.19E+03   4%   1.745 NAA                                                 
  439.071  19%   0.350 NAAG                                                
  121.152  17% 9.6E-02 Scyllo                                              
  162.513  98%   0.129 Tau                                                 
  243.895  31%   0.194 -CrCH2                                              
  520.115   3%   0.414 GPC+PCh                                             
 2.63E+03   2%   2.094 NAA+NAAG                                            
 1.26E+03   3%   1.000 Cr+PCr                                              
 2.04E+03  11%   1.625 Glu+Gln                                             
 1.27E+03  36%   1.010 Lip13a                                              
    0.000 999%   0.000 Lip13b                                              
  182.266 131%   0.145 Lip09                                               
 1.41E+03  20%   1.121 MM09                                                
  156.710 102%   0.125 Lip20                                               
 2.68E+03  13%   2.133 MM20                                                
  687.209  29%   0.547 MM12                                                
  563.945  51%   0.449 MM14                                                
  789.077  28%   0.628 MM17                                                
 1.27E+03  36%   1.010 Lip13a+Lip13b                                       
 2.52E+03  16%   2.006 MM14+Lip13a+Lip13b+MM12                             
 1.59E+03  13%   1.266 MM09+Lip09                                          
 2.84E+03  12%   2.257 MM20+Lip20                                          
   6 lines in following misc. output table
  FWHM = 0.038 ppm    S/N =  20                                            
  Data shift = 0.008 ppm                                                   
  Ph: -40 deg     -15.3 deg/ppm                                            
  alphaB,S = 1.1E+00,   1.0E+02                                            
   14 spline knots.   Ns = 6(1)                                            
  (10) 4 infls.   ( 3) 1 extrs.                                            
  498 points on ppm-axis = NY
      4.000000     3.992357     3.984714     3.977070     3.969427     3.961784     3.954141     3.946497     3.938854     3.931211
      3.923568     3.915925     3.908281     3.900638     3.892995     3.885352     3.877708     3.870065     3.862422     3.854779
      3.847136     3.839492     3.831849     3.824206     3.816563     3.808919     3.801276     3.793633     3.785990     3.778347
      3.770703     3.763060     3.755417     3.747774     3.740130     3.732487     3.724844     3.717201     3.709558     3.701914
      3.694271     3.686628     3.678985     3.671341     3.663698     3.656055     3.648412     3.640769     3.633125     3.625482
      3.617839     3.610196     3.602552     3.594909     3.587266     3.579623     3.571980     3.564336     3.556693     3.549050
      3.541407     3.533763     3.526120     3.518477     3.510834     3.503191     3.495547     3.487904     3.480261     3.472618
      3.464974     3.457331     3.449688     3.442045     3.434402     3.426758     3.419115     3.411472     3.403829     3.396185
      3.388542     3.380899     3.373256     3.365613     3.357969     3.350326     3.342683     3.335040     3.327396     3.319753
      3.312110     3.304467     3.296824     3.289180     3.281537     3.273894     3.266251     3.258607     3.250964     3.243321
      3.235678     3.228034     3.220391     3.212748     3.205105     3.197462     3.189818     3.182175     3.174532     3.166889
      3.159245     3.151602     3.143959     3.136316     3.128673     3.121029     3.113386     3.105743     3.098100     3.090456
      3.082813     3.075170     3.067527     3.059884     3.052240     3.044597     3.036954     3.029311     3.021667     3.014024
      3.006381     2.998738     2.991095     2.983451     2.975808     2.968165     2.960522     2.952878     2.945235     2.937592
      2.929949     2.922306     2.914662     2.907019     2.899376     2.891733     2.884089     2.876446     2.868803     2.861160
      2.853517     2.845873     2.838230     2.830587     2.822944     2.815300     2.807657     2.800014     2.792371     2.784728
      2.777084     2.769441     2.761798     2.754155     2.746511     2.738868     2.731225     2.723582     2.715939     2.708295
      2.700652     2.693009     2.685366     2.677722     2.670079     2.662436     2.654793     2.647150     2.639506     2.631863
      2.624220     2.616577     2.608933     2.601290     2.593647     2.586004     2.578361     2.570717     2.563074     2.555431
      2.547788     2.540144     2.532501     2.524858     2.517215     2.509572     2.501928     2.494285     2.486642     2.478999
      2.471355     2.463712     2.456069     2.448426     2.440783     2.433139     2.425496     2.417853     2.410210     2.402566
      2.394923     2.387280     2.379637     2.371994     2.364350     2.356707     2.349064     2.341421     2.333777     2.326134
      2.318491     2.310848     2.303205     2.295561     2.287918     2.280275     2.272632     2.264988     2.257345     2.249702
      2.242059     2.234416     2.226772     2.219129     2.211486     2.203843     2.196199     2.188556     2.180913     2.173270
      2.165627     2.157983     2.150340     2.142697     2.135054     2.127410     2.119767     2.112124     2.104481     2.096838
      2.089194     2.081551     2.073908     2.066265     2.058621     2.050978     2.043335     2.035692     2.028049     2.020405
      2.012762     2.005119     1.997476     1.989833     1.982190     1.974546     1.966903     1.959260     1.951617     1.943974
      1.936331     1.928688     1.921045     1.913402     1.905759     1.898115     1.890472     1.882829     1.875186     1.867543
      1.859900     1.852257     1.844614     1.836971     1.829327     1.821684     1.814041     1.806398     1.798755     1.791112
      1.783469     1.775826     1.768183     1.760540     1.752896     1.745253     1.737610     1.729967     1.722324     1.714681
      1.707038     1.699395     1.691752     1.684108     1.676465     1.668822     1.661179     1.653536     1.645893     1.638250
      1.630607     1.622964     1.615321     1.607677     1.600034     1.592391     1.584748     1.577105     1.569462     1.561819
      1.554176     1.546533     1.538890     1.531246     1.523603     1.515960     1.508317     1.500674     1.493031     1.485388
      1.477745     1.470102     1.462458     1.454815     1.447172     1.439529     1.431886     1.424243     1.416600     1.408957
      1.401314     1.393671     1.386027     1.378384     1.370741     1.363098     1.355455     1.347812     1.340169     1.332526
      1.324883     1.317240     1.309596     1.301953     1.294310     1.286667     1.279024     1.271381     1.263738     1.256095
      1.248452     1.240808     1.233165     1.225522     1.217879     1.210236     1.202593     1.194950     1.187307     1.179664
      1.172021     1.164377     1.156734     1.149091     1.141448     1.133805     1.126162     1.118519     1.110876     1.103233
      1.095590     1.087946     1.080303     1.072660     1.065017     1.057374     1.049731     1.042088     1.034445     1.026802
      1.019158     1.011515     1.003872     0.996229     0.988586     0.980943     0.973300     0.965657     0.958014     0.950371
      0.942727     0.935084     0.927441     0.919798     0.912155     0.904512     0.896869     0.889226     0.881583     0.873940
      0.866296     0.858653     0.851010     0.843367     0.835724     0.828081     0.820438     0.812795     0.805152     0.797508
      0.789865     0.782222     0.774579     0.766936     0.759293     0.751650     0.744007     0.736364     0.728721     0.721077
      0.713434     0.705791     0.698148     0.690505     0.682862     0.675219     0.667576     0.659933     0.652290     0.644646
      0.637003     0.629360     0.621717     0.614074     0.606431     0.598788     0.591145     0.583502     0.575858     0.568215
      0.560572     0.552929     0.545286     0.537643     0.530000     0.522357     0.514714     0.507071     0.499427     0.491784
      0.484141     0.476498     0.468855     0.461212     0.453569     0.445925     0.438282     0.430639     0.422996     0.415353
      0.407710     0.400067     0.392424     0.384780     0.377137     0.369494     0.361851     0.354208     0.346565     0.338922
      0.331278     0.323635     0.315992     0.308349     0.300706     0.293063     0.285420     0.277777     0.270133     0.262490
      0.254847     0.247204     0.239561     0.231918     0.224275     0.216631     0.208988     0.201345
 NY phased data points follow
  -2.74144E+01 -2.54612E+01 -2.20740E+01 -2.03326E+01 -1.80236E+01 -1.39716E+01 -1.03501E+01 -5.71647E+00 -3.11121E+00  6.81122E+00
   3.80914E+00  1.84263E+00 -1.12001E+00 -4.27371E+00 -1.09104E+01 -1.61688E+01 -1.92924E+01 -1.84323E+01 -2.12475E+01 -1.80886E+01
  -2.19995E+01 -1.97921E+01 -2.01779E+01 -1.62092E+01 -1.80024E+01 -1.48260E+01 -1.31631E+01 -9.83139E+00 -1.32716E+01 -1.30075E+01
  -7.97303E+00 -1.16669E+01 -8.68178E+00 -9.66135E+00 -1.19976E+01 -1.14689E+01 -1.59084E+01 -1.40269E+01 -1.11789E+01 -1.02053E+01
  -1.13243E+01 -9.62299E+00 -1.29464E+01 -8.78034E+00 -9.21389E+00 -5.54026E+00 -2.84268E+00 -2.10374E+00 -1.03393E+00 -5.51309E+00
  -9.06226E+00 -8.46943E+00 -1.13223E+01 -1.20987E+01 -1.19165E+01 -1.22960E+01 -1.29314E+01 -8.84223E+00 -8.34880E+00 -9.62912E+00
  -1.18227E+01 -1.32980E+01 -1.57543E+01 -1.27798E+01 -1.33950E+01 -1.64487E+01 -1.29662E+01 -1.29895E+01 -1.06524E+01 -9.79466E+00
  -1.31442E+01 -1.32190E+01 -1.07222E+01 -1.17975E+01 -9.43552E+00 -7.34092E+00 -1.07509E+01 -7.77589E+00 -1.15266E+01 -1.24549E+01
  -1.05745E+01 -9.23588E+00 -7.92859E+00 -5.71958E+00 -8.70361E+00 -4.99286E+00 -5.94718E+00 -2.58008E+00 -4.86290E+00 -2.22184E+00
  -5.83804E+00 -4.05268E+00 -5.84069E+00 -6.70479E-01  2.68193E-01  8.67565E-01 -8.53960E-01  1.94344E+00  2.76837E+00  9.19032E+00
   2.08655E+01  3.60458E+01  4.45894E+01  4.55630E+01  3.46749E+01  2.92510E+01  1.75835E+01  1.54161E+01  1.06188E+01  4.21931E+00
  -8.76893E-01 -6.15608E-01 -4.68233E+00 -8.33790E-01 -2.84417E+00 -3.27096E+00 -8.12148E-01 -1.04338E+00 -1.03645E+00 -3.61583E+00
  -2.59150E+00  9.03494E-01  1.63145E+00  1.05416E+01  1.70274E+01  2.94017E+01  3.74636E+01  4.32398E+01  3.84846E+01  3.07480E+01
   2.28571E+01  1.60791E+01  1.06139E+01  3.96612E+00 -3.63546E-01 -2.26681E+00 -3.37137E+00 -5.94877E+00 -5.09293E+00 -3.55080E+00
  -4.55060E+00 -3.74563E+00 -3.47165E+00 -2.81207E+00 -3.97935E+00 -1.97372E+00 -4.70738E+00 -3.40076E+00 -2.57907E+00 -3.70819E+00
  -4.50892E+00 -4.94881E+00 -3.58461E+00 -2.19836E+00 -4.99188E+00 -4.01303E+00 -3.46072E+00  2.13631E+00 -2.07696E+00 -3.53032E-01
  -4.71238E+00 -8.71963E+00 -9.28839E+00 -9.04451E+00 -3.80428E+00 -1.03801E+00 -1.63135E+00 -7.19576E+00 -8.24818E+00 -7.76437E+00
  -1.03452E+01 -8.50818E+00 -1.02149E+01 -1.07481E+01 -1.38985E+01 -1.42558E+01 -1.07643E+01 -1.38798E+01 -1.04188E+01 -6.30657E+00
  -1.10577E+01 -1.39836E+01 -1.45139E+01 -1.17884E+01 -9.76611E+00 -8.60554E+00 -9.38484E+00 -4.83969E+00 -4.70423E+00 -6.38557E-01
   2.15819E+00  3.62467E+00  6.12812E+00  4.92821E+00  2.01821E+00  2.67768E+00  3.95270E-01 -2.51650E+00 -2.23704E+00 -3.49741E+00
  -3.76221E+00 -1.00267E+00  4.27033E+00  4.81615E+00  3.12565E+00  3.02357E+00 -6.60423E-01  2.50697E+00 -6.51921E+00 -4.58453E+00
  -5.73849E+00 -2.95228E+00 -1.34914E+00  5.02716E+00  8.95122E+00  1.23120E+01  1.34834E+01  1.50106E+01  8.75417E+00  3.47497E+00
   1.83053E+00 -6.41104E+00 -4.19510E+00 -3.52060E+00 -3.00040E-01  3.84230E+00  3.25588E+00  7.26862E+00  9.01438E+00  6.55576E+00
   7.65412E+00  6.91483E+00  8.08285E+00  1.02870E+01  6.89863E+00  7.67278E+00  8.65868E+00  7.14606E+00  9.25997E+00  1.19231E+01
   8.05381E+00  3.01308E+00  4.40663E+00  3.97771E+00  6.53666E+00  1.07714E+01  9.30869E+00  1.38063E+01  1.46631E+01  1.56723E+01
   1.31728E+01  1.78758E+01  1.79778E+01  2.08883E+01  3.07186E+01  3.96778E+01  4.67879E+01  5.66929E+01  6.97306E+01  8.87316E+01
   1.01420E+02  1.03964E+02  8.61669E+01  6.18160E+01  4.27901E+01  3.66638E+01  3.04691E+01  2.04463E+01  1.28449E+01  1.12771E+01
   7.68616E+00  1.12341E+01  1.07104E+01  1.01873E+01  9.40882E+00  8.20351E+00  6.35426E+00  7.15653E+00  6.28804E+00  7.65386E+00
   9.27444E+00  6.80866E+00  8.11198E+00  6.21845E+00  3.22332E+00  5.35418E+00  7.99149E+00  4.06579E+00  6.63377E+00  2.20431E+00
   7.51717E+00  7.02591E+00  7.19603E+00  1.02216E+01  6.59398E+00  7.08932E+00  6.28242E+00  6.41136E+00  3.14927E+00  8.03305E+00
   8.17629E+00  6.14287E+00  9.94892E+00  8.87220E+00  1.00811E+01  6.14490E+00  8.81349E+00  1.17116E+01  9.19098E+00  1.25520E+01
   1.04933E+01  9.84513E+00  1.03752E+01  1.11617E+01  1.09670E+01  1.36902E+01  1.25237E+01  1.16546E+01  1.12462E+01  1.37174E+01
   1.75114E+01  9.70418E+00  8.94776E+00  1.11282E+01  8.62950E+00  1.32147E+01  1.09424E+01  1.33011E+01  8.77446E+00  1.15644E+01
   1.12696E+01  8.35149E+00  9.31896E+00  1.13857E+01  1.08915E+01  1.21679E+01  1.36974E+01  1.22439E+01  1.33248E+01  1.51574E+01
   1.03259E+01  1.28222E+01  1.14041E+01  1.07464E+01  1.05255E+01  1.35395E+01  9.27972E+00  1.45594E+01  1.29321E+01  1.34885E+01
   1.37203E+01  1.18015E+01  1.54281E+01  1.43463E+01  1.31102E+01  1.90186E+01  1.56170E+01  1.64247E+01  1.37368E+01  1.56937E+01
   1.68217E+01  1.52362E+01  1.57054E+01  1.49790E+01  1.49571E+01  1.57237E+01  1.85972E+01  1.46153E+01  1.58603E+01  1.70504E+01
   1.67641E+01  1.81628E+01  1.46394E+01  1.47822E+01  1.43834E+01  1.63768E+01  1.31323E+01  1.48805E+01  1.29833E+01  1.55818E+01
   1.45774E+01  1.21437E+01  1.19720E+01  1.16277E+01  1.42036E+01  1.22842E+01  1.29973E+01  1.24639E+01  1.43292E+01  1.21721E+01
   1.12072E+01  1.32947E+01  1.34876E+01  1.51832E+01  1.24995E+01  1.75854E+01  1.73298E+01  1.70121E+01  1.58689E+01  1.78258E+01
   1.66572E+01  1.74283E+01  2.11759E+01  1.81740E+01  1.97723E+01  1.80858E+01  1.91160E+01  2.03710E+01  2.12191E+01  2.36269E+01
   2.07028E+01  1.99108E+01  1.97263E+01  2.16284E+01  1.74044E+01  1.98373E+01  1.46610E+01  1.75822E+01  1.59051E+01  1.45944E+01
   1.38633E+01  1.62926E+01  1.11074E+01  1.28632E+01  1.28707E+01  1.26485E+01  1.34277E+01  1.36818E+01  1.03535E+01  1.10462E+01
   1.22394E+01  1.06770E+01  1.30693E+01  1.17062E+01  1.10172E+01  1.15061E+01  1.12850E+01  1.30221E+01  7.86813E+00  9.28064E+00
   1.21580E+01  1.15003E+01  1.11405E+01  1.11733E+01  9.53959E+00  1.19494E+01  8.52752E+00  1.03836E+01  8.02605E+00  9.60183E+00
   9.54863E+00  9.32174E+00  1.06650E+01  1.12715E+01  1.01510E+01  9.56697E+00  1.12237E+01  1.08794E+01  6.92291E+00  9.02222E+00
   9.99397E+00  8.75916E+00  9.61852E+00  1.23602E+01  9.69936E+00  9.31352E+00  7.66261E+00  8.80855E+00  9.13453E+00  8.24325E+00
   1.04445E+01  1.26282E+01  8.49865E+00  1.29835E+01  9.07365E+00  9.73844E+00  1.01066E+01  7.21887E+00  8.99539E+00  1.19452E+01
   8.08022E+00  9.83171E+00  9.06400E+00  8.48702E+00  1.05255E+01  1.12467E+01  9.83803E+00  8.52156E+00  9.03184E+00  8.30654E+00
   9.18519E+00  1.13239E+01  8.78251E+00  1.00259E+01  6.13825E+00  1.10183E+01  9.62414E+00  8.96938E+00
 NY points of the fit to the data follow
  -2.24950E+01 -2.22803E+01 -2.17454E+01 -2.03989E+01 -1.80677E+01 -1.49798E+01 -1.07257E+01 -5.28017E+00  2.95277E-01  4.08459E+00
   4.49716E+00  1.56126E+00 -2.99490E+00 -7.13607E+00 -1.00541E+01 -1.23344E+01 -1.45895E+01 -1.63172E+01 -1.71748E+01 -1.75381E+01
  -1.75967E+01 -1.75572E+01 -1.76021E+01 -1.75507E+01 -1.71936E+01 -1.67147E+01 -1.58790E+01 -1.43807E+01 -1.22831E+01 -1.00513E+01
  -8.37342E+00 -7.60785E+00 -7.65941E+00 -8.29414E+00 -9.40244E+00 -1.10355E+01 -1.31334E+01 -1.48786E+01 -1.56775E+01 -1.57790E+01
  -1.51809E+01 -1.39655E+01 -1.24467E+01 -1.07976E+01 -8.91244E+00 -6.69002E+00 -4.70048E+00 -3.94920E+00 -4.90489E+00 -7.09850E+00
  -9.45345E+00 -1.11505E+01 -1.22060E+01 -1.29321E+01 -1.33625E+01 -1.32627E+01 -1.26405E+01 -1.17515E+01 -1.07965E+01 -1.00340E+01
  -9.75658E+00 -1.00793E+01 -1.08261E+01 -1.15602E+01 -1.19738E+01 -1.20075E+01 -1.17445E+01 -1.13032E+01 -1.08014E+01 -1.02426E+01
  -9.64831E+00 -9.14909E+00 -8.82882E+00 -8.70784E+00 -8.73429E+00 -8.82741E+00 -8.98637E+00 -9.21959E+00 -9.51097E+00 -9.67416E+00
  -9.54985E+00 -9.06602E+00 -8.35967E+00 -7.60228E+00 -6.57460E+00 -5.23071E+00 -3.91854E+00 -3.22074E+00 -3.51014E+00 -4.54564E+00
  -5.58195E+00 -6.11846E+00 -6.20754E+00 -6.23038E+00 -6.34855E+00 -6.03072E+00 -4.37894E+00 -7.03324E-01  4.41554E+00  1.17091E+01
   2.21825E+01  3.42402E+01  4.35203E+01  4.56662E+01  3.96947E+01  2.90961E+01  1.89846E+01  1.19631E+01  6.81967E+00  1.57208E+00
  -3.07679E+00 -5.15605E+00 -5.69748E+00 -5.81998E+00 -5.79892E+00 -5.71540E+00 -5.57540E+00 -5.38556E+00 -5.11354E+00 -4.65544E+00
  -3.58444E+00 -7.33332E-01  3.57049E+00  9.33721E+00  1.78592E+01  2.86954E+01  3.84843E+01  4.28613E+01  3.96238E+01  3.09087E+01
   2.15534E+01  1.48537E+01  1.02574E+01  5.38167E+00 -6.08637E-02 -3.49393E+00 -4.66511E+00 -4.80471E+00 -4.34127E+00 -3.65346E+00
  -3.03845E+00 -2.61189E+00 -2.45121E+00 -2.54676E+00 -2.75168E+00 -2.96697E+00 -3.18126E+00 -3.38777E+00 -3.62419E+00 -3.83674E+00
  -4.01266E+00 -4.18518E+00 -4.33903E+00 -4.42263E+00 -4.40691E+00 -4.34418E+00 -4.25095E+00 -4.22189E+00 -4.46276E+00 -4.97384E+00
  -5.58140E+00 -5.93083E+00 -5.71079E+00 -5.06110E+00 -4.52149E+00 -4.56578E+00 -5.19569E+00 -5.96898E+00 -6.47404E+00 -6.72019E+00
  -6.90375E+00 -7.18165E+00 -7.53490E+00 -7.95459E+00 -8.45000E+00 -8.84710E+00 -8.77545E+00 -8.17243E+00 -7.49344E+00 -7.24381E+00
  -7.45393E+00 -7.72709E+00 -7.55079E+00 -6.89792E+00 -6.32369E+00 -6.01929E+00 -5.44034E+00 -4.15600E+00 -2.20849E+00 -2.32576E-01
   1.04534E+00  1.42008E+00  1.05588E+00  3.93135E-01 -2.26790E-01 -7.55387E-01 -1.08750E+00 -1.02494E+00 -4.93887E-01  4.37360E-01
   1.65536E+00  2.97230E+00  4.13426E+00  4.90543E+00  4.88392E+00  3.95052E+00  2.08535E+00 -4.25782E-01 -2.82745E+00 -4.37065E+00
  -4.69128E+00 -3.76952E+00 -1.81064E+00  1.11640E+00  4.68853E+00  7.96600E+00  9.55490E+00  8.58852E+00  5.44516E+00  1.58774E+00
  -1.99569E+00 -4.87737E+00 -6.44771E+00 -6.01443E+00 -3.40743E+00  3.62550E-01  3.62528E+00  5.73733E+00  6.90846E+00  7.54269E+00
   7.72027E+00  7.53521E+00  7.40622E+00  7.72316E+00  8.38666E+00  9.11752E+00  9.69778E+00  9.95366E+00  9.81637E+00  9.21627E+00
   8.26569E+00  7.36685E+00  7.01645E+00  7.47249E+00  8.63901E+00  1.01569E+01  1.14404E+01  1.22057E+01  1.26352E+01  1.31777E+01
   1.43436E+01  1.59405E+01  1.84082E+01  2.25015E+01  2.94467E+01  3.88679E+01  4.74380E+01  5.75391E+01  7.23395E+01  8.96485E+01
   1.01576E+02  1.00371E+02  8.52487E+01  6.45097E+01  4.79714E+01  3.79108E+01  2.98326E+01  2.02932E+01  1.26192E+01  1.01709E+01
   9.28037E+00  8.73664E+00  8.47112E+00  8.41503E+00  8.35877E+00  8.20803E+00  7.94304E+00  7.61902E+00  7.31626E+00  7.07120E+00
   6.86005E+00  6.67286E+00  6.54761E+00  6.49171E+00  6.44916E+00  6.37591E+00  6.28977E+00  6.22088E+00  6.18004E+00  6.16508E+00
   6.19486E+00  6.28735E+00  6.42568E+00  6.57385E+00  6.72011E+00  6.86816E+00  7.02745E+00  7.20407E+00  7.39993E+00  7.62349E+00
   7.88898E+00  8.19188E+00  8.51684E+00  8.84971E+00  9.18314E+00  9.51356E+00  9.83337E+00  1.01323E+01  1.04087E+01  1.06593E+01
   1.08789E+01  1.10640E+01  1.12135E+01  1.13274E+01  1.14070E+01  1.14548E+01  1.14742E+01  1.14707E+01  1.14519E+01  1.14279E+01
   1.14139E+01  1.14313E+01  1.14624E+01  1.14965E+01  1.15508E+01  1.15806E+01  1.14888E+01  1.12095E+01  1.07767E+01  1.03500E+01
   1.00895E+01  1.00154E+01  1.01000E+01  1.03373E+01  1.07465E+01  1.12948E+01  1.18088E+01  1.21306E+01  1.22809E+01  1.23698E+01
   1.24805E+01  1.26027E+01  1.26880E+01  1.27660E+01  1.28955E+01  1.30615E+01  1.32507E+01  1.34577E+01  1.36783E+01  1.39088E+01
   1.41452E+01  1.43843E+01  1.46224E+01  1.48557E+01  1.50795E+01  1.52890E+01  1.54795E+01  1.56473E+01  1.57887E+01  1.59004E+01
   1.59790E+01  1.60220E+01  1.60280E+01  1.59969E+01  1.59291E+01  1.58259E+01  1.56888E+01  1.55206E+01  1.53252E+01  1.51074E+01
   1.48718E+01  1.46236E+01  1.43677E+01  1.41097E+01  1.38553E+01  1.36102E+01  1.33793E+01  1.31671E+01  1.29777E+01  1.28153E+01
   1.26839E+01  1.25869E+01  1.25270E+01  1.25066E+01  1.25278E+01  1.25932E+01  1.27045E+01  1.28634E+01  1.30702E+01  1.33254E+01
   1.36285E+01  1.39788E+01  1.43741E+01  1.48110E+01  1.52843E+01  1.57877E+01  1.63137E+01  1.68533E+01  1.73961E+01  1.79303E+01
   1.84431E+01  1.89221E+01  1.93548E+01  1.97296E+01  2.00356E+01  2.02636E+01  2.04065E+01  2.04603E+01  2.04235E+01  2.02973E+01
   2.00852E+01  1.97934E+01  1.94301E+01  1.90058E+01  1.85319E+01  1.80202E+01  1.74824E+01  1.69301E+01  1.63741E+01  1.58243E+01
   1.52892E+01  1.47755E+01  1.42880E+01  1.38308E+01  1.34063E+01  1.30159E+01  1.26597E+01  1.23368E+01  1.20456E+01  1.17843E+01
   1.15510E+01  1.13435E+01  1.11593E+01  1.09958E+01  1.08507E+01  1.07221E+01  1.06083E+01  1.05075E+01  1.04180E+01  1.03382E+01
   1.02670E+01  1.02035E+01  1.01469E+01  1.00964E+01  1.00509E+01  1.00099E+01  9.97284E+00  9.93963E+00  9.90979E+00  9.88291E+00
   9.85837E+00  9.83604E+00  9.81579E+00  9.79766E+00  9.78132E+00  9.76650E+00  9.75285E+00  9.74044E+00  9.72927E+00  9.71941E+00
   9.71051E+00  9.70241E+00  9.69492E+00  9.68825E+00  9.68241E+00  9.67741E+00  9.67292E+00  9.66884E+00  9.66513E+00  9.66204E+00
   9.65953E+00  9.65756E+00  9.65580E+00  9.65430E+00  9.65307E+00  9.65238E+00  9.65209E+00  9.65213E+00  9.65222E+00  9.65249E+00
   9.65302E+00  9.65401E+00  9.65527E+00  9.65668E+00  9.65806E+00  9.65966E+00  9.66152E+00  9.66377E+00  9.66615E+00  9.66859E+00
   9.67100E+00  9.67366E+00  9.67659E+00  9.67983E+00  9.68308E+00  9.68636E+00  9.68965E+00  9.69325E+00
 NY background values follow
    -2.665E+01   -2.646E+01   -2.627E+01   -2.607E+01   -2.588E+01   -2.569E+01   -2.550E+01   -2.531E+01   -2.512E+01   -2.492E+01
    -2.473E+01   -2.454E+01   -2.435E+01   -2.416E+01   -2.397E+01   -2.378E+01   -2.359E+01   -2.340E+01   -2.321E+01   -2.301E+01
    -2.282E+01   -2.264E+01   -2.245E+01   -2.226E+01   -2.207E+01   -2.188E+01   -2.169E+01   -2.150E+01   -2.131E+01   -2.113E+01
    -2.094E+01   -2.075E+01   -2.057E+01   -2.038E+01   -2.020E+01   -2.001E+01   -1.983E+01   -1.964E+01   -1.946E+01   -1.928E+01
    -1.910E+01   -1.891E+01   -1.873E+01   -1.855E+01   -1.837E+01   -1.819E+01   -1.801E+01   -1.784E+01   -1.766E+01   -1.748E+01
    -1.731E+01   -1.713E+01   -1.696E+01   -1.678E+01   -1.661E+01   -1.644E+01   -1.626E+01   -1.609E+01   -1.592E+01   -1.575E+01
    -1.559E+01   -1.542E+01   -1.525E+01   -1.509E+01   -1.492E+01   -1.476E+01   -1.460E+01   -1.443E+01   -1.427E+01   -1.411E+01
    -1.396E+01   -1.380E+01   -1.364E+01   -1.349E+01   -1.333E+01   -1.318E+01   -1.303E+01   -1.288E+01   -1.273E+01   -1.258E+01
    -1.243E+01   -1.229E+01   -1.214E+01   -1.200E+01   -1.186E+01   -1.172E+01   -1.158E+01   -1.144E+01   -1.130E+01   -1.117E+01
    -1.103E+01   -1.090E+01   -1.077E+01   -1.064E+01   -1.051E+01   -1.039E+01   -1.026E+01   -1.014E+01   -1.002E+01   -9.895E+00
    -9.775E+00   -9.657E+00   -9.540E+00   -9.424E+00   -9.310E+00   -9.197E+00   -9.085E+00   -8.975E+00   -8.866E+00   -8.758E+00
    -8.651E+00   -8.546E+00   -8.442E+00   -8.339E+00   -8.238E+00   -8.138E+00   -8.039E+00   -7.941E+00   -7.845E+00   -7.749E+00
    -7.655E+00   -7.563E+00   -7.471E+00   -7.380E+00   -7.291E+00   -7.203E+00   -7.116E+00   -7.030E+00   -6.945E+00   -6.862E+00
    -6.779E+00   -6.698E+00   -6.618E+00   -6.539E+00   -6.461E+00   -6.384E+00   -6.308E+00   -6.233E+00   -6.160E+00   -6.087E+00
    -6.015E+00   -5.944E+00   -5.874E+00   -5.805E+00   -5.737E+00   -5.670E+00   -5.603E+00   -5.537E+00   -5.472E+00   -5.407E+00
    -5.343E+00   -5.279E+00   -5.216E+00   -5.154E+00   -5.092E+00   -5.031E+00   -4.970E+00   -4.909E+00   -4.849E+00   -4.789E+00
    -4.729E+00   -4.669E+00   -4.610E+00   -4.551E+00   -4.492E+00   -4.433E+00   -4.375E+00   -4.316E+00   -4.257E+00   -4.198E+00
    -4.140E+00   -4.081E+00   -4.022E+00   -3.963E+00   -3.903E+00   -3.844E+00   -3.784E+00   -3.724E+00   -3.663E+00   -3.602E+00
    -3.541E+00   -3.479E+00   -3.417E+00   -3.354E+00   -3.291E+00   -3.228E+00   -3.164E+00   -3.100E+00   -3.035E+00   -2.971E+00
    -2.905E+00   -2.840E+00   -2.774E+00   -2.708E+00   -2.642E+00   -2.576E+00   -2.509E+00   -2.442E+00   -2.375E+00   -2.308E+00
    -2.241E+00   -2.174E+00   -2.106E+00   -2.039E+00   -1.971E+00   -1.903E+00   -1.836E+00   -1.768E+00   -1.700E+00   -1.633E+00
    -1.565E+00   -1.498E+00   -1.431E+00   -1.363E+00   -1.296E+00   -1.229E+00   -1.162E+00   -1.096E+00   -1.029E+00   -9.629E-01
    -8.969E-01   -8.311E-01   -7.656E-01   -7.004E-01   -6.355E-01   -5.710E-01   -5.068E-01   -4.429E-01   -3.794E-01   -3.162E-01
    -2.534E-01   -1.909E-01   -1.287E-01   -6.687E-02   -5.330E-03    5.590E-02    1.168E-01    1.775E-01    2.378E-01    2.979E-01
     3.577E-01    4.173E-01    4.765E-01    5.356E-01    5.944E-01    6.529E-01    7.112E-01    7.693E-01    8.272E-01    8.848E-01
     9.423E-01    9.996E-01    1.057E+00    1.114E+00    1.170E+00    1.227E+00    1.283E+00    1.339E+00    1.395E+00    1.451E+00
     1.507E+00    1.563E+00    1.618E+00    1.674E+00    1.729E+00    1.784E+00    1.839E+00    1.894E+00    1.949E+00    2.004E+00
     2.059E+00    2.113E+00    2.168E+00    2.223E+00    2.277E+00    2.332E+00    2.386E+00    2.440E+00    2.495E+00    2.549E+00
     2.603E+00    2.657E+00    2.711E+00    2.765E+00    2.819E+00    2.872E+00    2.926E+00    2.979E+00    3.033E+00    3.086E+00
     3.139E+00    3.192E+00    3.245E+00    3.298E+00    3.351E+00    3.403E+00    3.456E+00    3.508E+00    3.560E+00    3.612E+00
     3.664E+00    3.716E+00    3.768E+00    3.819E+00    3.871E+00    3.922E+00    3.973E+00    4.024E+00    4.075E+00    4.125E+00
     4.176E+00    4.226E+00    4.276E+00    4.326E+00    4.376E+00    4.425E+00    4.475E+00    4.524E+00    4.573E+00    4.622E+00
     4.671E+00    4.719E+00    4.767E+00    4.815E+00    4.863E+00    4.911E+00    4.958E+00    5.006E+00    5.053E+00    5.099E+00
     5.146E+00    5.192E+00    5.238E+00    5.284E+00    5.330E+00    5.375E+00    5.420E+00    5.465E+00    5.509E+00    5.554E+00
     5.598E+00    5.641E+00    5.685E+00    5.728E+00    5.771E+00    5.813E+00    5.856E+00    5.898E+00    5.940E+00    5.981E+00
     6.022E+00    6.063E+00    6.103E+00    6.144E+00    6.183E+00    6.223E+00    6.262E+00    6.301E+00    6.340E+00    6.378E+00
     6.416E+00    6.453E+00    6.490E+00    6.527E+00    6.564E+00    6.600E+00    6.636E+00    6.671E+00    6.706E+00    6.741E+00
     6.775E+00    6.809E+00    6.843E+00    6.877E+00    6.910E+00    6.942E+00    6.975E+00    7.007E+00    7.039E+00    7.070E+00
     7.101E+00    7.132E+00    7.163E+00    7.193E+00    7.223E+00    7.253E+00    7.282E+00    7.311E+00    7.340E+00    7.368E+00
     7.397E+00    7.424E+00    7.452E+00    7.479E+00    7.506E+00    7.533E+00    7.559E+00    7.586E+00    7.612E+00    7.637E+00
     7.663E+00    7.688E+00    7.712E+00    7.737E+00    7.761E+00    7.785E+00    7.809E+00    7.833E+00    7.856E+00    7.879E+00
     7.902E+00    7.924E+00    7.947E+00    7.969E+00    7.990E+00    8.012E+00    8.033E+00    8.054E+00    8.075E+00    8.096E+00
     8.116E+00    8.136E+00    8.156E+00    8.176E+00    8.195E+00    8.214E+00    8.233E+00    8.252E+00    8.271E+00    8.289E+00
     8.307E+00    8.325E+00    8.343E+00    8.360E+00    8.377E+00    8.394E+00    8.411E+00    8.428E+00    8.444E+00    8.460E+00
     8.476E+00    8.492E+00    8.508E+00    8.523E+00    8.538E+00    8.553E+00    8.568E+00    8.583E+00    8.597E+00    8.611E+00
     8.625E+00    8.639E+00    8.653E+00    8.666E+00    8.680E+00    8.693E+00    8.706E+00    8.718E+00    8.731E+00    8.744E+00
     8.756E+00    8.768E+00    8.780E+00    8.792E+00    8.804E+00    8.816E+00    8.827E+00    8.838E+00    8.850E+00    8.861E+00
     8.872E+00    8.883E+00    8.894E+00    8.905E+00    8.915E+00    8.926E+00    8.936E+00    8.947E+00    8.957E+00    8.968E+00
     8.978E+00    8.988E+00    8.998E+00    9.008E+00    9.018E+00    9.028E+00    9.038E+00    9.048E+00    9.058E+00    9.068E+00
     9.078E+00    9.088E+00    9.098E+00    9.108E+00    9.118E+00    9.128E+00    9.137E+00    9.147E+00
 Ala      Conc. = 7.01E+01
