 LCModel (Version 6.3-1L) Copyright: S.W. Provencher.          Ref.: Magn. Reson. Med. 30:672-679 (1993).                
 Slice#3 Row#12 Col#10  PD_05_press_1_raw_act
 36 lines in following concentration table = NCONC+1
    Conc.  %SD /Cr+PCr  Metabolite                                         
    0.000 999%   0.000 Ala                                                 
   14.331 587% 2.3E-02 Asp                                                 
    0.000 999%   0.000 Cr                                                  
  610.749   3%   1.000 PCr                                                 
   53.560 117% 8.8E-02 GABA                                                
    0.000 999%   0.000 Glc                                                 
  921.449  20%   1.509 Gln                                                 
 1.17E+03  19%   1.908 Glu                                                 
  170.929   4%   0.280 GPC                                                 
    0.000 999%   0.000 PCh                                                 
  158.491  23%   0.260 GSH                                                 
  462.571  19%   0.757 Ins                                                 
  438.018  29%   0.717 Lac                                                 
  948.527   3%   1.553 NAA                                                 
    0.000 999%   0.000 NAAG                                                
   39.454  24% 6.5E-02 Scyllo                                              
    0.000 999%   0.000 Tau                                                 
    0.000 999%   0.000 -CrCH2                                              
  170.929   4%   0.280 GPC+PCh                                             
  948.527   3%   1.553 NAA+NAAG                                            
  610.749   3%   1.000 Cr+PCr                                              
 2.09E+03  17%   3.416 Glu+Gln                                             
  246.383  71%   0.403 Lip13a                                              
   94.724  64%   0.155 Lip13b                                              
   60.113  88% 9.8E-02 Lip09                                               
  328.576  18%   0.538 MM09                                                
   56.405  63% 9.2E-02 Lip20                                               
  564.628  17%   0.924 MM20                                                
  103.956  42%   0.170 MM12                                                
  549.489  12%   0.900 MM14                                                
  166.231  29%   0.272 MM17                                                
  341.107  37%   0.559 Lip13a+Lip13b                                       
  994.552  11%   1.628 MM14+Lip13a+Lip13b+MM12                             
  388.689  10%   0.636 MM09+Lip09                                          
  621.033  15%   1.017 MM20+Lip20                                          
   6 lines in following misc. output table
  FWHM = 0.107 ppm    S/N =  10                                            
  Data shift = 0.046 ppm                                                   
  Ph: -31 deg     -18.5 deg/ppm                                            
  alphaB,S = 8.5E+01,   1.0E+02                                            
   14 spline knots.   Ns = 6(2)                                            
   2 inflections.     1 extrema                                            
  498 points on ppm-axis = NY
      4.000000     3.992357     3.984714     3.977070     3.969427     3.961784     3.954141     3.946497     3.938854     3.931211
      3.923568     3.915925     3.908281     3.900638     3.892995     3.885352     3.877708     3.870065     3.862422     3.854779
      3.847136     3.839492     3.831849     3.824206     3.816563     3.808919     3.801276     3.793633     3.785990     3.778347
      3.770703     3.763060     3.755417     3.747774     3.740130     3.732487     3.724844     3.717201     3.709558     3.701914
      3.694271     3.686628     3.678985     3.671341     3.663698     3.656055     3.648412     3.640769     3.633125     3.625482
      3.617839     3.610196     3.602552     3.594909     3.587266     3.579623     3.571980     3.564336     3.556693     3.549050
      3.541407     3.533763     3.526120     3.518477     3.510834     3.503191     3.495547     3.487904     3.480261     3.472618
      3.464974     3.457331     3.449688     3.442045     3.434402     3.426758     3.419115     3.411472     3.403829     3.396185
      3.388542     3.380899     3.373256     3.365613     3.357969     3.350326     3.342683     3.335040     3.327396     3.319753
      3.312110     3.304467     3.296824     3.289180     3.281537     3.273894     3.266251     3.258607     3.250964     3.243321
      3.235678     3.228034     3.220391     3.212748     3.205105     3.197462     3.189818     3.182175     3.174532     3.166889
      3.159245     3.151602     3.143959     3.136316     3.128673     3.121029     3.113386     3.105743     3.098100     3.090456
      3.082813     3.075170     3.067527     3.059884     3.052240     3.044597     3.036954     3.029311     3.021667     3.014024
      3.006381     2.998738     2.991095     2.983451     2.975808     2.968165     2.960522     2.952878     2.945235     2.937592
      2.929949     2.922306     2.914662     2.907019     2.899376     2.891733     2.884089     2.876446     2.868803     2.861160
      2.853517     2.845873     2.838230     2.830587     2.822944     2.815300     2.807657     2.800014     2.792371     2.784728
      2.777084     2.769441     2.761798     2.754155     2.746511     2.738868     2.731225     2.723582     2.715939     2.708295
      2.700652     2.693009     2.685366     2.677722     2.670079     2.662436     2.654793     2.647150     2.639506     2.631863
      2.624220     2.616577     2.608933     2.601290     2.593647     2.586004     2.578361     2.570717     2.563074     2.555431
      2.547788     2.540144     2.532501     2.524858     2.517215     2.509572     2.501928     2.494285     2.486642     2.478999
      2.471355     2.463712     2.456069     2.448426     2.440783     2.433139     2.425496     2.417853     2.410210     2.402566
      2.394923     2.387280     2.379637     2.371994     2.364350     2.356707     2.349064     2.341421     2.333777     2.326134
      2.318491     2.310848     2.303205     2.295561     2.287918     2.280275     2.272632     2.264988     2.257345     2.249702
      2.242059     2.234416     2.226772     2.219129     2.211486     2.203843     2.196199     2.188556     2.180913     2.173270
      2.165627     2.157983     2.150340     2.142697     2.135054     2.127410     2.119767     2.112124     2.104481     2.096838
      2.089194     2.081551     2.073908     2.066265     2.058621     2.050978     2.043335     2.035692     2.028049     2.020405
      2.012762     2.005119     1.997476     1.989833     1.982190     1.974546     1.966903     1.959260     1.951617     1.943974
      1.936331     1.928688     1.921045     1.913402     1.905759     1.898115     1.890472     1.882829     1.875186     1.867543
      1.859900     1.852257     1.844614     1.836971     1.829327     1.821684     1.814041     1.806398     1.798755     1.791112
      1.783469     1.775826     1.768183     1.760540     1.752896     1.745253     1.737610     1.729967     1.722324     1.714681
      1.707038     1.699395     1.691752     1.684108     1.676465     1.668822     1.661179     1.653536     1.645893     1.638250
      1.630607     1.622964     1.615321     1.607677     1.600034     1.592391     1.584748     1.577105     1.569462     1.561819
      1.554176     1.546533     1.538890     1.531246     1.523603     1.515960     1.508317     1.500674     1.493031     1.485388
      1.477745     1.470102     1.462458     1.454815     1.447172     1.439529     1.431886     1.424243     1.416600     1.408957
      1.401314     1.393671     1.386027     1.378384     1.370741     1.363098     1.355455     1.347812     1.340169     1.332526
      1.324883     1.317240     1.309596     1.301953     1.294310     1.286667     1.279024     1.271381     1.263738     1.256095
      1.248452     1.240808     1.233165     1.225522     1.217879     1.210236     1.202593     1.194950     1.187307     1.179664
      1.172021     1.164377     1.156734     1.149091     1.141448     1.133805     1.126162     1.118519     1.110876     1.103233
      1.095590     1.087946     1.080303     1.072660     1.065017     1.057374     1.049731     1.042088     1.034445     1.026802
      1.019158     1.011515     1.003872     0.996229     0.988586     0.980943     0.973300     0.965657     0.958014     0.950371
      0.942727     0.935084     0.927441     0.919798     0.912155     0.904512     0.896869     0.889226     0.881583     0.873940
      0.866296     0.858653     0.851010     0.843367     0.835724     0.828081     0.820438     0.812795     0.805152     0.797508
      0.789865     0.782222     0.774579     0.766936     0.759293     0.751650     0.744007     0.736364     0.728721     0.721077
      0.713434     0.705791     0.698148     0.690505     0.682862     0.675219     0.667576     0.659933     0.652290     0.644646
      0.637003     0.629360     0.621717     0.614074     0.606431     0.598788     0.591145     0.583502     0.575858     0.568215
      0.560572     0.552929     0.545286     0.537643     0.530000     0.522357     0.514714     0.507071     0.499427     0.491784
      0.484141     0.476498     0.468855     0.461212     0.453569     0.445925     0.438282     0.430639     0.422996     0.415353
      0.407710     0.400067     0.392424     0.384780     0.377137     0.369494     0.361851     0.354208     0.346565     0.338922
      0.331278     0.323635     0.315992     0.308349     0.300706     0.293063     0.285420     0.277777     0.270133     0.262490
      0.254847     0.247204     0.239561     0.231918     0.224275     0.216631     0.208988     0.201345
 NY phased data points follow
   1.58943E+00  2.84946E+00  3.20169E+00  3.39415E+00  5.36372E+00  5.48097E+00  6.76618E+00  5.46501E+00  7.50538E+00  8.08762E+00
   9.48942E+00  6.98586E+00  8.30557E+00  6.74146E+00  6.35095E+00  4.05946E+00  5.80434E+00  4.05800E+00  2.07025E+00  2.27827E+00
   2.79580E+00  2.67353E+00  2.29327E+00  2.71955E+00  3.65989E+00  1.22430E+00  1.83702E+00  2.32831E+00  8.82398E-01  1.65750E+00
   1.03619E+00  2.01666E+00  3.00159E+00  2.57393E+00  3.44623E+00  3.51174E+00  3.06347E+00  2.59291E+00  2.33858E+00  4.00399E+00
   3.90857E+00  1.32516E+00  1.52781E+00  3.81640E+00  2.64139E+00  3.08294E+00  3.31454E+00  1.11529E+00  3.28580E+00  2.60174E+00
   2.07760E+00  3.37914E+00  7.55648E-01  2.02848E+00  2.29449E+00  3.22817E+00  7.62089E-01 -6.17826E-01  1.07564E+00 -1.07968E+00
  -7.61925E-01 -1.31141E+00  3.92906E-01  2.28534E-02 -1.47939E+00 -1.95586E+00 -3.17910E-01 -7.31566E-01  2.10367E-01  1.31433E-01
  -1.96609E+00 -8.88219E-01 -1.08339E-01 -1.39735E+00  7.64430E-03  3.62967E-01 -1.74184E+00  4.16829E-01 -9.09243E-01 -9.93116E-01
  -8.17860E-01 -8.26672E-01  5.15519E-01  8.48429E-02  9.86594E-01  1.70478E-01  1.48084E+00  7.19839E-01  1.56126E+00 -1.00464E-01
   7.55716E-01  8.15330E-01  1.24125E+00  2.76771E-01  1.24658E+00  1.31233E+00  3.05041E+00  3.07373E+00  5.39353E+00  5.74875E+00
   5.98615E+00  6.32959E+00  8.28851E+00  7.69681E+00  9.52652E+00  7.30285E+00  7.89974E+00  5.17953E+00  6.06213E+00  4.56573E+00
   5.80835E+00  2.36591E+00  4.21834E+00  4.52237E+00  1.78083E+00  1.25843E+00  2.70413E-01  1.88342E+00  1.76861E+00  2.97111E+00
   3.49956E+00  5.07100E+00  5.79797E+00  7.45703E+00  7.89626E+00  8.52323E+00  1.13383E+01  1.16462E+01  1.20724E+01  1.12487E+01
   1.02996E+01  9.52733E+00  7.90357E+00  6.84856E+00  6.21719E+00  3.37013E+00  3.69159E+00  2.52583E+00  2.16777E+00  3.05362E-01
   8.86665E-01 -1.14040E+00  1.13481E+00  1.41062E+00  7.50169E-01  7.75437E-01 -2.45584E-01 -7.55799E-01  1.06614E+00 -1.21686E+00
  -5.80853E-01 -2.90399E-01 -8.76496E-01 -3.03219E-01 -1.29390E+00 -7.03888E-01  4.20690E-01  6.32299E-02 -2.58491E+00 -9.26551E-01
  -1.42275E+00 -1.62428E+00 -1.49333E+00 -6.51399E-01 -1.50780E+00 -5.49137E-01 -1.67498E+00  4.40998E-02 -1.39878E+00 -1.95979E+00
  -2.65434E+00 -2.87063E+00 -3.08142E+00 -3.96444E+00 -3.02258E+00 -2.57225E+00 -3.31454E+00 -4.19089E-01 -4.34475E+00 -2.39379E+00
  -2.93893E+00 -1.76393E+00 -2.94785E+00 -3.13976E+00 -2.65807E+00 -2.98223E+00 -1.66048E+00 -3.52123E+00 -1.17021E+00  1.47723E-02
   4.89582E-01  5.24868E-01 -1.59783E+00 -1.20130E+00  4.09704E-01  4.67504E-01 -1.59351E+00  1.09436E-01  3.01824E-01  1.40167E+00
   4.74445E-01  9.94501E-01  1.16931E+00  2.67549E-01  4.38486E-01  6.00788E-01  1.21409E+00  1.57554E+00 -5.80294E-01  3.32050E-01
  -4.72939E-01  1.48453E-01  1.66829E+00 -2.14953E-01  8.62625E-01 -4.58032E-01  1.88083E+00  1.87332E+00  1.41925E-01  1.42061E+00
  -1.48857E+00  2.51497E-01  1.39731E+00  7.94949E-01  2.87126E-01  4.09636E-01  1.77199E+00  1.87560E-01  2.58715E+00  1.31436E+00
   2.27419E+00  1.82129E+00  2.66851E+00  2.08211E+00  1.93446E+00  3.31718E+00  2.58100E+00  2.79278E+00  1.78187E+00 -2.24216E-01
   2.61944E+00  7.96569E-01  2.15372E+00  2.81778E+00  4.82804E-01  3.03484E+00  2.54143E+00  3.30124E+00  5.12487E+00  4.34130E+00
   3.56305E+00  4.66242E+00  7.08454E+00  7.42812E+00  1.05631E+01  1.29771E+01  1.60849E+01  1.81256E+01  1.79464E+01  1.97177E+01
   2.05996E+01  2.03301E+01  2.06276E+01  1.88755E+01  1.75365E+01  1.40574E+01  1.45225E+01  1.20708E+01  9.18640E+00  7.25886E+00
   5.11128E+00  4.07848E+00  3.81124E+00  4.23360E+00  2.33908E+00  1.92689E+00  2.77775E+00  1.70636E+00  1.94965E+00  2.26989E+00
   1.19398E+00  1.93116E+00 -8.51066E-01  1.24931E-01  1.73887E+00  1.92359E+00  2.24245E+00  1.10738E+00  1.11437E+00  1.51641E+00
   7.21620E-01  7.39798E-01  2.89454E+00  1.52135E+00  2.04231E+00  9.33866E-02  2.31903E+00  2.79436E+00  3.54788E+00  9.53419E-01
   6.84059E-01  1.18441E+00  1.72356E+00  1.80715E+00  2.63230E+00  1.96700E+00  1.95443E+00  1.48730E+00  3.06339E+00  2.38705E+00
   9.16495E-01  1.95980E+00  1.80368E+00  2.29370E+00  3.40571E+00  2.20921E+00  1.63994E+00  2.60509E+00  4.44465E-01  3.32937E+00
   1.52735E+00  3.45535E+00  9.03193E-01  2.09197E+00  2.36018E+00  4.23794E+00  2.69912E+00  5.01530E+00  2.89739E+00  3.55138E+00
   3.69219E+00  6.16300E+00  4.79853E+00  4.91393E+00  7.20160E+00  6.50150E+00  6.59965E+00  7.02367E+00  5.76593E+00  5.35332E+00
   6.69971E+00  5.37711E+00  6.21935E+00  6.15673E+00  5.45120E+00  3.02470E+00  4.85434E+00  5.55440E+00  4.52093E+00  2.86756E+00
   3.99135E+00  4.43258E+00  3.12933E+00  4.48569E+00  5.09099E+00  5.52870E+00  4.28737E+00  4.19152E+00  5.49994E+00  4.44989E+00
   4.20358E+00  5.15652E+00  2.99604E+00  4.59076E+00  4.97438E+00  3.92086E+00  3.95756E+00  3.49726E+00  4.54468E+00  4.90948E+00
   2.78339E+00  2.86227E+00  2.97366E+00  2.26070E+00  1.97089E+00  2.67777E+00  2.70473E+00  1.40477E+00  2.20486E+00  3.92939E-01
   5.95939E-01 -2.60038E-01  2.06739E+00  1.94104E+00  2.29381E+00  8.88722E-01 -3.00469E-01  4.88328E-01  2.04792E+00  1.54407E+00
   9.83041E-01  2.14852E+00  1.56739E+00  2.24115E+00  1.25988E+00  3.75204E+00  2.81546E+00  1.79451E+00  2.72465E+00  3.62194E+00
   2.80143E+00  1.35826E+00  5.62183E+00  3.96143E+00  3.44756E+00  5.59024E+00  3.14884E+00  4.64745E+00  4.72883E+00  3.34041E+00
   4.55289E+00  3.29863E+00  3.05544E+00  4.69754E+00  4.56488E+00  3.76419E+00  2.78597E+00  4.45614E+00  2.32956E+00  3.57034E+00
   2.84194E+00  1.59764E+00  2.46140E+00  2.80841E+00 -3.09771E-01  2.12186E+00  1.85200E+00  1.42713E+00  2.52928E+00  2.27466E+00
   2.24912E+00  2.91685E+00  3.60437E+00  3.44300E-01  2.41414E+00  1.98378E+00  2.26339E-01  2.32075E+00  3.34992E+00  2.74502E+00
   1.99738E+00  1.61751E+00  3.40282E+00  4.27609E-01  3.13550E+00  2.53550E+00  2.08403E+00  2.78847E+00  2.49437E+00  3.72490E+00
   1.52029E+00  1.38772E+00  1.61956E+00  1.02729E+00  1.07617E+00  3.02860E+00  1.81608E+00  6.37251E-01  3.91282E-01  6.63818E-01
   7.01425E-01 -1.25223E-01  8.85521E-01  8.35286E-01  1.19777E+00  1.98570E-01  1.12943E+00  2.91243E+00  1.23861E+00  1.43012E+00
   1.44927E+00  2.09203E+00  1.84535E+00  1.31738E+00  1.55447E+00 -2.27578E-01  2.14055E+00  8.31054E-01  8.86594E-01  2.74653E+00
   1.32500E+00 -5.19215E-01  1.99547E+00  2.72032E+00  1.45035E+00 -2.75143E-01  6.08417E-01  1.51462E+00  1.40602E+00  1.16422E+00
   2.78540E+00  9.19379E-01 -1.32513E-02  1.88041E+00  2.97562E+00  1.72486E+00  7.95815E-01  2.10638E+00
 NY points of the fit to the data follow
   1.90434E+00  2.41987E+00  2.99456E+00  3.61606E+00  4.53852E+00  5.06567E+00  6.22886E+00  6.38374E+00  7.59959E+00  7.31495E+00
   8.36416E+00  7.35209E+00  8.01801E+00  6.56226E+00  6.82131E+00  5.37298E+00  5.33522E+00  4.00860E+00  3.82570E+00  2.87861E+00
   2.65130E+00  2.07978E+00  1.84445E+00  1.61585E+00  1.51739E+00  1.77302E+00  1.90902E+00  2.23820E+00  2.46655E+00  2.76251E+00
   2.95744E+00  3.16478E+00  3.20864E+00  3.19078E+00  2.98050E+00  2.84590E+00  2.55915E+00  2.35653E+00  2.13406E+00  2.03829E+00
   2.00581E+00  1.99417E+00  2.04840E+00  2.04015E+00  2.07116E+00  2.05875E+00  2.12263E+00  2.13489E+00  2.17009E+00  2.10489E+00
   1.98331E+00  1.79096E+00  1.54119E+00  1.32796E+00  1.05992E+00  8.77796E-01  6.94954E-01  5.45446E-01  4.27001E-01  3.04216E-01
   2.54711E-01  1.19099E-01  1.18433E-01  1.68964E-02  6.26738E-02 -3.76675E-02  2.54442E-02 -6.46300E-02  1.48097E-02 -7.20716E-02
   1.03283E-02 -7.34440E-02  1.40874E-02 -4.87246E-02  7.80021E-02  7.25447E-03  1.20259E-01  5.38520E-02  2.23002E-01  1.32103E-01
   3.44780E-01  2.00346E-01  4.50448E-01  2.37044E-01  4.95870E-01  2.27565E-01  4.74690E-01  1.52943E-01  3.39919E-01  3.48504E-02
   2.34212E-01  3.45464E-01  7.90816E-01  8.99137E-01  1.47092E+00  1.87477E+00  2.82184E+00  3.37211E+00  4.70552E+00  5.10101E+00
   6.71318E+00  6.60419E+00  8.30795E+00  7.58344E+00  9.09751E+00  7.46167E+00  8.46397E+00  6.31101E+00  6.81364E+00  4.78219E+00
   4.98333E+00  3.13578E+00  3.07473E+00  1.72747E+00  1.68634E+00  1.31363E+00  1.41403E+00  1.49112E+00  1.81969E+00  2.89104E+00
   3.67847E+00  5.16143E+00  6.16900E+00  7.67851E+00  8.68283E+00  9.74323E+00  1.05576E+01  1.09941E+01  1.14209E+01  1.06865E+01
   1.05970E+01  8.99228E+00  8.58027E+00  6.82362E+00  6.30188E+00  4.44198E+00  3.91720E+00  2.36588E+00  1.98304E+00  8.17711E-01
   6.15067E-01 -1.72975E-01 -1.69273E-01 -3.57190E-01 -2.30717E-01 -3.71351E-01 -2.78934E-01 -3.94156E-01 -3.53919E-01 -4.65246E-01
  -4.53421E-01 -5.59494E-01 -5.70892E-01 -6.77288E-01 -7.22242E-01 -8.35550E-01 -8.61536E-01 -9.60965E-01 -9.67682E-01 -1.05110E+00
  -1.07049E+00 -1.14201E+00 -1.18600E+00 -1.23285E+00 -1.32772E+00 -1.33570E+00 -1.47486E+00 -1.49991E+00 -1.68090E+00 -1.72868E+00
  -1.88845E+00 -1.93374E+00 -2.05823E+00 -2.12988E+00 -2.19352E+00 -2.30004E+00 -2.26431E+00 -2.39114E+00 -2.23222E+00 -2.36339E+00
  -2.09421E+00 -2.22616E+00 -1.91556E+00 -1.99612E+00 -1.64325E+00 -1.67167E+00 -1.37587E+00 -1.34597E+00 -1.11040E+00 -9.70991E-01
  -8.47421E-01 -6.24029E-01 -6.57484E-01 -3.06838E-01 -3.96257E-01  5.85584E-02 -4.44545E-02  4.43473E-01  2.34812E-01  7.92479E-01
   5.90584E-01  1.01891E+00  6.44150E-01  9.18958E-01  4.41022E-01  5.04797E-01 -5.14350E-02 -4.85038E-02 -3.49411E-01 -3.98153E-01
  -4.33452E-01 -4.50194E-01  5.55342E-02 -8.80189E-02  5.95515E-01  1.96447E-01  8.11356E-01  2.25039E-01  6.58566E-01  4.67978E-02
   2.92107E-01 -3.56011E-02  1.55921E-01  7.92385E-02  2.08739E-01  4.64016E-01  4.94903E-01  9.67864E-01  8.75716E-01  1.46397E+00
   1.32985E+00  1.91638E+00  1.81500E+00  2.34805E+00  2.21099E+00  2.55339E+00  2.41961E+00  2.47698E+00  2.38109E+00  2.14291E+00
   2.28857E+00  1.84428E+00  2.13988E+00  1.55391E+00  2.05346E+00  1.51739E+00  2.13312E+00  1.99614E+00  3.43433E+00  3.65589E+00
   5.13822E+00  5.74499E+00  7.87016E+00  8.90396E+00  1.16271E+01  1.28179E+01  1.56598E+01  1.66159E+01  1.88460E+01  1.92352E+01
   2.06411E+01  2.02614E+01  1.99357E+01  1.87787E+01  1.70746E+01  1.55819E+01  1.35116E+01  1.20073E+01  9.65606E+00  8.34800E+00
   6.34604E+00  5.36441E+00  3.81595E+00  3.16370E+00  2.10566E+00  1.84567E+00  1.69907E+00  1.65190E+00  1.57872E+00  1.54136E+00
   1.50716E+00  1.45563E+00  1.43388E+00  1.39273E+00  1.38285E+00  1.35374E+00  1.35284E+00  1.33821E+00  1.34617E+00  1.35657E+00
   1.38299E+00  1.41392E+00  1.45229E+00  1.49714E+00  1.54008E+00  1.59110E+00  1.63390E+00  1.68296E+00  1.72401E+00  1.76838E+00
   1.80401E+00  1.84036E+00  1.86851E+00  1.89419E+00  1.91218E+00  1.92668E+00  1.93588E+00  1.94122E+00  1.94459E+00  1.94665E+00
   1.95021E+00  1.95641E+00  1.96835E+00  1.98734E+00  2.01634E+00  2.05668E+00  2.11076E+00  2.17953E+00  2.26457E+00  2.36638E+00
   2.48530E+00  2.62107E+00  2.77296E+00  2.93957E+00  3.11921E+00  3.30959E+00  3.50828E+00  3.71241E+00  3.91921E+00  4.12597E+00
   4.33070E+00  4.53246E+00  4.73269E+00  4.93791E+00  5.17037E+00  5.46103E+00  5.61025E+00  5.79450E+00  5.91293E+00  6.10268E+00
   6.11917E+00  6.17939E+00  6.02213E+00  6.02938E+00  5.74605E+00  5.50642E+00  5.09930E+00  4.81056E+00  4.37688E+00  4.09246E+00
   3.82512E+00  3.76765E+00  3.76603E+00  3.98506E+00  4.11642E+00  4.45355E+00  4.65566E+00  4.88309E+00  4.97277E+00  4.95341E+00
   4.89131E+00  4.76816E+00  4.66336E+00  4.48007E+00  4.25887E+00  3.95380E+00  3.70484E+00  3.37666E+00  3.13578E+00  2.81668E+00
   2.60134E+00  2.44561E+00  2.32192E+00  2.21935E+00  2.13245E+00  2.05823E+00  1.99493E+00  1.94158E+00  1.89760E+00  1.86268E+00
   1.83666E+00  1.81951E+00  1.81134E+00  1.81232E+00  1.82271E+00  1.84282E+00  1.87303E+00  1.91372E+00  1.96533E+00  2.02824E+00
   2.10276E+00  2.18909E+00  2.28720E+00  2.39686E+00  2.51751E+00  2.64822E+00  2.78761E+00  2.93387E+00  3.08473E+00  3.23745E+00
   3.38895E+00  3.53579E+00  3.67436E+00  3.80098E+00  3.91209E+00  4.00440E+00  4.07506E+00  4.12183E+00  4.14314E+00  4.13826E+00
   4.10730E+00  4.05121E+00  3.97171E+00  3.87123E+00  3.75271E+00  3.61954E+00  3.47531E+00  3.32367E+00  3.16817E+00  3.01211E+00
   2.85844E+00  2.70968E+00  2.56787E+00  2.43457E+00  2.31086E+00  2.19735E+00  2.09432E+00  2.00167E+00  1.91909E+00  1.84602E+00
   1.78182E+00  1.72572E+00  1.67697E+00  1.63478E+00  1.59841E+00  1.56715E+00  1.54036E+00  1.51745E+00  1.49791E+00  1.48130E+00
   1.46721E+00  1.45530E+00  1.44528E+00  1.43691E+00  1.42996E+00  1.42427E+00  1.41967E+00  1.41603E+00  1.41323E+00  1.41120E+00
   1.40983E+00  1.40906E+00  1.40882E+00  1.40907E+00  1.40974E+00  1.41082E+00  1.41225E+00  1.41401E+00  1.41606E+00  1.41839E+00
   1.42096E+00  1.42377E+00  1.42679E+00  1.43001E+00  1.43340E+00  1.43696E+00  1.44069E+00  1.44456E+00  1.44856E+00  1.45269E+00
   1.45694E+00  1.46130E+00  1.46577E+00  1.47034E+00  1.47500E+00  1.47975E+00  1.48459E+00  1.48951E+00  1.49451E+00  1.49958E+00
   1.50472E+00  1.50992E+00  1.51519E+00  1.52053E+00  1.52594E+00  1.53140E+00  1.53692E+00  1.54250E+00  1.54814E+00  1.55384E+00
   1.55961E+00  1.56543E+00  1.57132E+00  1.57727E+00  1.58331E+00  1.58941E+00  1.59560E+00  1.60188E+00
 NY background values follow
    -1.801E+00   -1.794E+00   -1.787E+00   -1.780E+00   -1.774E+00   -1.767E+00   -1.760E+00   -1.754E+00   -1.747E+00   -1.740E+00
    -1.734E+00   -1.727E+00   -1.720E+00   -1.713E+00   -1.707E+00   -1.700E+00   -1.693E+00   -1.687E+00   -1.680E+00   -1.673E+00
    -1.666E+00   -1.660E+00   -1.653E+00   -1.646E+00   -1.640E+00   -1.633E+00   -1.626E+00   -1.619E+00   -1.613E+00   -1.606E+00
    -1.599E+00   -1.593E+00   -1.586E+00   -1.579E+00   -1.572E+00   -1.566E+00   -1.559E+00   -1.552E+00   -1.546E+00   -1.539E+00
    -1.532E+00   -1.526E+00   -1.519E+00   -1.512E+00   -1.505E+00   -1.499E+00   -1.492E+00   -1.485E+00   -1.479E+00   -1.472E+00
    -1.465E+00   -1.458E+00   -1.452E+00   -1.445E+00   -1.438E+00   -1.432E+00   -1.425E+00   -1.418E+00   -1.411E+00   -1.405E+00
    -1.398E+00   -1.391E+00   -1.385E+00   -1.378E+00   -1.371E+00   -1.364E+00   -1.358E+00   -1.351E+00   -1.344E+00   -1.338E+00
    -1.331E+00   -1.324E+00   -1.318E+00   -1.311E+00   -1.304E+00   -1.297E+00   -1.291E+00   -1.284E+00   -1.277E+00   -1.271E+00
    -1.264E+00   -1.257E+00   -1.250E+00   -1.244E+00   -1.237E+00   -1.230E+00   -1.224E+00   -1.217E+00   -1.210E+00   -1.203E+00
    -1.197E+00   -1.190E+00   -1.183E+00   -1.177E+00   -1.170E+00   -1.163E+00   -1.156E+00   -1.150E+00   -1.143E+00   -1.136E+00
    -1.130E+00   -1.123E+00   -1.116E+00   -1.110E+00   -1.103E+00   -1.096E+00   -1.089E+00   -1.083E+00   -1.076E+00   -1.069E+00
    -1.063E+00   -1.056E+00   -1.049E+00   -1.042E+00   -1.036E+00   -1.029E+00   -1.022E+00   -1.016E+00   -1.009E+00   -1.002E+00
    -9.954E-01   -9.887E-01   -9.820E-01   -9.753E-01   -9.686E-01   -9.619E-01   -9.552E-01   -9.484E-01   -9.417E-01   -9.350E-01
    -9.283E-01   -9.216E-01   -9.149E-01   -9.082E-01   -9.015E-01   -8.948E-01   -8.880E-01   -8.813E-01   -8.746E-01   -8.679E-01
    -8.612E-01   -8.545E-01   -8.478E-01   -8.411E-01   -8.344E-01   -8.276E-01   -8.209E-01   -8.142E-01   -8.075E-01   -8.008E-01
    -7.941E-01   -7.874E-01   -7.807E-01   -7.739E-01   -7.672E-01   -7.605E-01   -7.538E-01   -7.471E-01   -7.404E-01   -7.337E-01
    -7.270E-01   -7.203E-01   -7.135E-01   -7.068E-01   -7.001E-01   -6.934E-01   -6.867E-01   -6.800E-01   -6.733E-01   -6.666E-01
    -6.598E-01   -6.531E-01   -6.464E-01   -6.397E-01   -6.330E-01   -6.263E-01   -6.196E-01   -6.129E-01   -6.061E-01   -5.994E-01
    -5.927E-01   -5.860E-01   -5.793E-01   -5.726E-01   -5.659E-01   -5.592E-01   -5.525E-01   -5.457E-01   -5.390E-01   -5.323E-01
    -5.256E-01   -5.189E-01   -5.122E-01   -5.055E-01   -4.988E-01   -4.920E-01   -4.853E-01   -4.786E-01   -4.719E-01   -4.652E-01
    -4.585E-01   -4.518E-01   -4.450E-01   -4.383E-01   -4.316E-01   -4.249E-01   -4.182E-01   -4.115E-01   -4.048E-01   -3.981E-01
    -3.913E-01   -3.846E-01   -3.779E-01   -3.712E-01   -3.645E-01   -3.578E-01   -3.511E-01   -3.444E-01   -3.376E-01   -3.309E-01
    -3.242E-01   -3.175E-01   -3.108E-01   -3.041E-01   -2.974E-01   -2.907E-01   -2.839E-01   -2.772E-01   -2.705E-01   -2.638E-01
    -2.571E-01   -2.504E-01   -2.437E-01   -2.370E-01   -2.302E-01   -2.235E-01   -2.168E-01   -2.101E-01   -2.034E-01   -1.967E-01
    -1.900E-01   -1.832E-01   -1.765E-01   -1.698E-01   -1.631E-01   -1.564E-01   -1.497E-01   -1.430E-01   -1.363E-01   -1.295E-01
    -1.228E-01   -1.161E-01   -1.094E-01   -1.027E-01   -9.597E-02   -8.926E-02   -8.255E-02   -7.583E-02   -6.912E-02   -6.241E-02
    -5.569E-02   -4.898E-02   -4.227E-02   -3.555E-02   -2.884E-02   -2.213E-02   -1.541E-02   -8.700E-03   -1.987E-03    4.727E-03
     1.144E-02    1.815E-02    2.487E-02    3.158E-02    3.829E-02    4.501E-02    5.172E-02    5.843E-02    6.515E-02    7.186E-02
     7.858E-02    8.529E-02    9.200E-02    9.872E-02    1.054E-01    1.121E-01    1.189E-01    1.256E-01    1.323E-01    1.390E-01
     1.457E-01    1.524E-01    1.591E-01    1.659E-01    1.726E-01    1.793E-01    1.860E-01    1.927E-01    1.994E-01    2.061E-01
     2.129E-01    2.196E-01    2.263E-01    2.330E-01    2.397E-01    2.464E-01    2.531E-01    2.598E-01    2.666E-01    2.733E-01
     2.800E-01    2.867E-01    2.934E-01    3.001E-01    3.068E-01    3.136E-01    3.203E-01    3.270E-01    3.337E-01    3.404E-01
     3.471E-01    3.538E-01    3.606E-01    3.673E-01    3.740E-01    3.807E-01    3.874E-01    3.941E-01    4.008E-01    4.076E-01
     4.143E-01    4.210E-01    4.277E-01    4.344E-01    4.411E-01    4.478E-01    4.546E-01    4.613E-01    4.680E-01    4.747E-01
     4.814E-01    4.881E-01    4.948E-01    5.016E-01    5.083E-01    5.150E-01    5.217E-01    5.284E-01    5.351E-01    5.418E-01
     5.486E-01    5.553E-01    5.620E-01    5.687E-01    5.754E-01    5.821E-01    5.888E-01    5.956E-01    6.023E-01    6.090E-01
     6.157E-01    6.224E-01    6.291E-01    6.358E-01    6.426E-01    6.493E-01    6.560E-01    6.627E-01    6.694E-01    6.761E-01
     6.829E-01    6.896E-01    6.963E-01    7.030E-01    7.097E-01    7.164E-01    7.231E-01    7.299E-01    7.366E-01    7.433E-01
     7.500E-01    7.567E-01    7.634E-01    7.701E-01    7.769E-01    7.836E-01    7.903E-01    7.970E-01    8.037E-01    8.104E-01
     8.171E-01    8.239E-01    8.306E-01    8.373E-01    8.440E-01    8.507E-01    8.574E-01    8.642E-01    8.709E-01    8.776E-01
     8.843E-01    8.910E-01    8.977E-01    9.044E-01    9.112E-01    9.179E-01    9.246E-01    9.313E-01    9.380E-01    9.447E-01
     9.514E-01    9.582E-01    9.649E-01    9.716E-01    9.783E-01    9.850E-01    9.917E-01    9.985E-01    1.005E+00    1.012E+00
     1.019E+00    1.025E+00    1.032E+00    1.039E+00    1.045E+00    1.052E+00    1.059E+00    1.066E+00    1.072E+00    1.079E+00
     1.086E+00    1.092E+00    1.099E+00    1.106E+00    1.113E+00    1.119E+00    1.126E+00    1.133E+00    1.139E+00    1.146E+00
     1.153E+00    1.160E+00    1.166E+00    1.173E+00    1.180E+00    1.186E+00    1.193E+00    1.200E+00    1.207E+00    1.213E+00
     1.220E+00    1.227E+00    1.233E+00    1.240E+00    1.247E+00    1.254E+00    1.260E+00    1.267E+00    1.274E+00    1.281E+00
     1.287E+00    1.294E+00    1.301E+00    1.307E+00    1.314E+00    1.321E+00    1.328E+00    1.334E+00    1.341E+00    1.348E+00
     1.354E+00    1.361E+00    1.368E+00    1.375E+00    1.381E+00    1.388E+00    1.395E+00    1.401E+00    1.408E+00    1.415E+00
     1.422E+00    1.428E+00    1.435E+00    1.442E+00    1.448E+00    1.455E+00    1.462E+00    1.469E+00    1.475E+00    1.482E+00
     1.489E+00    1.495E+00    1.502E+00    1.509E+00    1.516E+00    1.522E+00    1.529E+00    1.536E+00
 Asp      Conc. = 1.43E+01
