 LCModel (Version 6.3-1L) Copyright: S.W. Provencher.          Ref.: Magn. Reson. Med. 30:672-679 (1993).                
 Slice#2 Row#6 Col#5  PD_05_press_1_raw_act
 36 lines in following concentration table = NCONC+1
    Conc.  %SD /Cr+PCr  Metabolite                                         
   22.338 363% 1.7E-02 Ala                                                 
    0.000 999%   0.000 Asp                                                 
  485.757  35%   0.366 Cr                                                  
  841.105  21%   0.634 PCr                                                 
    0.000 999%   0.000 GABA                                                
   62.384 231% 4.7E-02 Glc                                                 
  498.809  34%   0.376 Gln                                                 
 1.72E+03  11%   1.295 Glu                                                 
  609.339   3%   0.459 GPC                                                 
    0.000 999%   0.000 PCh                                                 
  495.376  12%   0.373 GSH                                                 
 1.43E+03  16%   1.081 Ins                                                 
    0.000 999%   0.000 Lac                                                 
 2.30E+03   5%   1.733 NAA                                                 
  427.359  24%   0.322 NAAG                                                
  135.924  18%   0.102 Scyllo                                              
    0.000 999%   0.000 Tau                                                 
  118.499  77% 8.9E-02 -CrCH2                                              
  609.339   3%   0.459 GPC+PCh                                             
 2.73E+03   3%   2.056 NAA+NAAG                                            
 1.33E+03   4%   1.000 Cr+PCr                                              
 2.22E+03  12%   1.671 Glu+Gln                                             
 1.37E+03  37%   1.034 Lip13a                                              
    0.000 999%   0.000 Lip13b                                              
   40.798 622% 3.1E-02 Lip09                                               
 1.28E+03  20%   0.965 MM09                                                
  143.544 119%   0.108 Lip20                                               
 2.46E+03  15%   1.853 MM20                                                
  454.206  33%   0.342 MM12                                                
 1.01E+03  32%   0.764 MM14                                                
  686.533  31%   0.517 MM17                                                
 1.37E+03  37%   1.034 Lip13a+Lip13b                                       
 2.84E+03  18%   2.140 MM14+Lip13a+Lip13b+MM12                             
 1.32E+03  17%   0.996 MM09+Lip09                                          
 2.60E+03  14%   1.961 MM20+Lip20                                          
   6 lines in following misc. output table
  FWHM = 0.054 ppm    S/N =  17                                            
  Data shift = 0.000 ppm                                                   
  Ph: -49 deg     -11.5 deg/ppm                                            
  alphaB,S = 6.5E-01,   2.0E+02                                            
   14 spline knots.   Ns = 7(1)                                            
  (13) 2 infls.   ( 9) 1 extrs.                                            
  498 points on ppm-axis = NY
      4.000000     3.992357     3.984714     3.977070     3.969427     3.961784     3.954141     3.946497     3.938854     3.931211
      3.923568     3.915925     3.908281     3.900638     3.892995     3.885352     3.877708     3.870065     3.862422     3.854779
      3.847136     3.839492     3.831849     3.824206     3.816563     3.808919     3.801276     3.793633     3.785990     3.778347
      3.770703     3.763060     3.755417     3.747774     3.740130     3.732487     3.724844     3.717201     3.709558     3.701914
      3.694271     3.686628     3.678985     3.671341     3.663698     3.656055     3.648412     3.640769     3.633125     3.625482
      3.617839     3.610196     3.602552     3.594909     3.587266     3.579623     3.571980     3.564336     3.556693     3.549050
      3.541407     3.533763     3.526120     3.518477     3.510834     3.503191     3.495547     3.487904     3.480261     3.472618
      3.464974     3.457331     3.449688     3.442045     3.434402     3.426758     3.419115     3.411472     3.403829     3.396185
      3.388542     3.380899     3.373256     3.365613     3.357969     3.350326     3.342683     3.335040     3.327396     3.319753
      3.312110     3.304467     3.296824     3.289180     3.281537     3.273894     3.266251     3.258607     3.250964     3.243321
      3.235678     3.228034     3.220391     3.212748     3.205105     3.197462     3.189818     3.182175     3.174532     3.166889
      3.159245     3.151602     3.143959     3.136316     3.128673     3.121029     3.113386     3.105743     3.098100     3.090456
      3.082813     3.075170     3.067527     3.059884     3.052240     3.044597     3.036954     3.029311     3.021667     3.014024
      3.006381     2.998738     2.991095     2.983451     2.975808     2.968165     2.960522     2.952878     2.945235     2.937592
      2.929949     2.922306     2.914662     2.907019     2.899376     2.891733     2.884089     2.876446     2.868803     2.861160
      2.853517     2.845873     2.838230     2.830587     2.822944     2.815300     2.807657     2.800014     2.792371     2.784728
      2.777084     2.769441     2.761798     2.754155     2.746511     2.738868     2.731225     2.723582     2.715939     2.708295
      2.700652     2.693009     2.685366     2.677722     2.670079     2.662436     2.654793     2.647150     2.639506     2.631863
      2.624220     2.616577     2.608933     2.601290     2.593647     2.586004     2.578361     2.570717     2.563074     2.555431
      2.547788     2.540144     2.532501     2.524858     2.517215     2.509572     2.501928     2.494285     2.486642     2.478999
      2.471355     2.463712     2.456069     2.448426     2.440783     2.433139     2.425496     2.417853     2.410210     2.402566
      2.394923     2.387280     2.379637     2.371994     2.364350     2.356707     2.349064     2.341421     2.333777     2.326134
      2.318491     2.310848     2.303205     2.295561     2.287918     2.280275     2.272632     2.264988     2.257345     2.249702
      2.242059     2.234416     2.226772     2.219129     2.211486     2.203843     2.196199     2.188556     2.180913     2.173270
      2.165627     2.157983     2.150340     2.142697     2.135054     2.127410     2.119767     2.112124     2.104481     2.096838
      2.089194     2.081551     2.073908     2.066265     2.058621     2.050978     2.043335     2.035692     2.028049     2.020405
      2.012762     2.005119     1.997476     1.989833     1.982190     1.974546     1.966903     1.959260     1.951617     1.943974
      1.936331     1.928688     1.921045     1.913402     1.905759     1.898115     1.890472     1.882829     1.875186     1.867543
      1.859900     1.852257     1.844614     1.836971     1.829327     1.821684     1.814041     1.806398     1.798755     1.791112
      1.783469     1.775826     1.768183     1.760540     1.752896     1.745253     1.737610     1.729967     1.722324     1.714681
      1.707038     1.699395     1.691752     1.684108     1.676465     1.668822     1.661179     1.653536     1.645893     1.638250
      1.630607     1.622964     1.615321     1.607677     1.600034     1.592391     1.584748     1.577105     1.569462     1.561819
      1.554176     1.546533     1.538890     1.531246     1.523603     1.515960     1.508317     1.500674     1.493031     1.485388
      1.477745     1.470102     1.462458     1.454815     1.447172     1.439529     1.431886     1.424243     1.416600     1.408957
      1.401314     1.393671     1.386027     1.378384     1.370741     1.363098     1.355455     1.347812     1.340169     1.332526
      1.324883     1.317240     1.309596     1.301953     1.294310     1.286667     1.279024     1.271381     1.263738     1.256095
      1.248452     1.240808     1.233165     1.225522     1.217879     1.210236     1.202593     1.194950     1.187307     1.179664
      1.172021     1.164377     1.156734     1.149091     1.141448     1.133805     1.126162     1.118519     1.110876     1.103233
      1.095590     1.087946     1.080303     1.072660     1.065017     1.057374     1.049731     1.042088     1.034445     1.026802
      1.019158     1.011515     1.003872     0.996229     0.988586     0.980943     0.973300     0.965657     0.958014     0.950371
      0.942727     0.935084     0.927441     0.919798     0.912155     0.904512     0.896869     0.889226     0.881583     0.873940
      0.866296     0.858653     0.851010     0.843367     0.835724     0.828081     0.820438     0.812795     0.805152     0.797508
      0.789865     0.782222     0.774579     0.766936     0.759293     0.751650     0.744007     0.736364     0.728721     0.721077
      0.713434     0.705791     0.698148     0.690505     0.682862     0.675219     0.667576     0.659933     0.652290     0.644646
      0.637003     0.629360     0.621717     0.614074     0.606431     0.598788     0.591145     0.583502     0.575858     0.568215
      0.560572     0.552929     0.545286     0.537643     0.530000     0.522357     0.514714     0.507071     0.499427     0.491784
      0.484141     0.476498     0.468855     0.461212     0.453569     0.445925     0.438282     0.430639     0.422996     0.415353
      0.407710     0.400067     0.392424     0.384780     0.377137     0.369494     0.361851     0.354208     0.346565     0.338922
      0.331278     0.323635     0.315992     0.308349     0.300706     0.293063     0.285420     0.277777     0.270133     0.262490
      0.254847     0.247204     0.239561     0.231918     0.224275     0.216631     0.208988     0.201345
 NY phased data points follow
  -1.18910E+02 -1.09709E+02 -1.06743E+02 -1.01065E+02 -9.89853E+01 -9.28860E+01 -9.07777E+01 -8.20372E+01 -7.76676E+01 -7.44333E+01
  -7.15070E+01 -7.26817E+01 -7.89574E+01 -8.08456E+01 -8.58209E+01 -9.25744E+01 -9.44972E+01 -9.78553E+01 -9.39069E+01 -9.35389E+01
  -8.93559E+01 -9.36902E+01 -8.55349E+01 -8.34939E+01 -8.60254E+01 -8.66396E+01 -7.76208E+01 -8.07916E+01 -7.96151E+01 -7.35106E+01
  -7.54214E+01 -7.33685E+01 -7.73001E+01 -7.78462E+01 -7.56828E+01 -7.76262E+01 -7.80197E+01 -7.91469E+01 -7.52755E+01 -7.46441E+01
  -7.17667E+01 -6.87656E+01 -7.01913E+01 -7.01243E+01 -6.55351E+01 -6.27373E+01 -6.17565E+01 -6.21326E+01 -6.42956E+01 -6.49869E+01
  -6.44958E+01 -6.56869E+01 -6.74846E+01 -6.83930E+01 -6.77901E+01 -6.64209E+01 -6.66266E+01 -6.26159E+01 -6.46310E+01 -6.57789E+01
  -6.67680E+01 -6.51153E+01 -6.68441E+01 -6.93258E+01 -6.95851E+01 -6.82923E+01 -6.84635E+01 -6.47130E+01 -6.49923E+01 -6.34944E+01
  -6.12862E+01 -6.12578E+01 -6.02444E+01 -5.97451E+01 -6.08896E+01 -5.85839E+01 -5.95317E+01 -5.75857E+01 -5.46879E+01 -6.03615E+01
  -5.37190E+01 -5.47288E+01 -5.53276E+01 -5.11471E+01 -5.50369E+01 -5.37094E+01 -5.36142E+01 -4.70758E+01 -4.72141E+01 -4.75626E+01
  -5.02154E+01 -4.77292E+01 -5.03544E+01 -4.31004E+01 -4.52244E+01 -4.06453E+01 -3.69112E+01 -3.11015E+01 -2.73530E+01 -1.60723E+01
  -9.63248E+00  3.15005E+00  4.62589E+00  4.96691E+00 -3.24661E+00 -1.60372E+01 -2.61773E+01 -3.27254E+01 -3.75525E+01 -3.95701E+01
  -4.17451E+01 -4.21654E+01 -4.56737E+01 -4.14446E+01 -4.29289E+01 -4.42877E+01 -4.27144E+01 -4.04774E+01 -4.05219E+01 -3.65078E+01
  -3.54463E+01 -3.17951E+01 -2.56491E+01 -2.42414E+01 -1.20072E+01 -6.31233E+00 -1.10608E+00  6.17667E+00  1.89658E+00 -6.90250E+00
  -1.52617E+01 -2.60316E+01 -2.94711E+01 -3.50259E+01 -3.85101E+01 -3.85715E+01 -3.91424E+01 -4.04002E+01 -4.01746E+01 -3.85324E+01
  -3.86589E+01 -3.94562E+01 -3.73781E+01 -3.38897E+01 -3.80962E+01 -3.60781E+01 -4.27332E+01 -3.36680E+01 -3.94772E+01 -3.50508E+01
  -3.82513E+01 -3.64935E+01 -3.91414E+01 -3.68329E+01 -3.74304E+01 -3.92399E+01 -4.09779E+01 -3.78836E+01 -3.58705E+01 -3.52967E+01
  -3.99024E+01 -3.91186E+01 -4.18080E+01 -3.95755E+01 -3.89312E+01 -3.94849E+01 -3.88395E+01 -3.49188E+01 -3.63475E+01 -3.69389E+01
  -4.01200E+01 -4.02576E+01 -4.01021E+01 -3.92496E+01 -4.23714E+01 -4.51883E+01 -4.28703E+01 -3.91640E+01 -3.94261E+01 -3.95409E+01
  -4.24595E+01 -3.89785E+01 -4.10469E+01 -3.97627E+01 -3.85830E+01 -3.42450E+01 -3.52226E+01 -3.12133E+01 -3.08537E+01 -2.77306E+01
  -2.71577E+01 -2.33910E+01 -2.03031E+01 -2.32009E+01 -2.22123E+01 -2.44956E+01 -2.72207E+01 -2.80479E+01 -2.66046E+01 -2.63767E+01
  -2.69256E+01 -2.45045E+01 -2.68420E+01 -2.10647E+01 -2.67339E+01 -1.99827E+01 -2.14514E+01 -2.63944E+01 -2.80332E+01 -2.70523E+01
  -2.61735E+01 -2.91036E+01 -2.24618E+01 -2.13059E+01 -1.73001E+01 -1.31198E+01 -1.03623E+01 -1.04600E+01 -1.08542E+01 -1.64343E+01
  -2.41938E+01 -2.60088E+01 -2.64762E+01 -2.78372E+01 -2.37559E+01 -1.97295E+01 -1.54580E+01 -1.61039E+01 -1.04308E+01 -1.33811E+01
  -1.19170E+01 -1.57222E+01 -1.45537E+01 -1.26459E+01 -1.03316E+01 -1.43135E+01 -1.04043E+01 -1.18535E+01 -1.34595E+01 -1.35338E+01
  -1.33915E+01 -1.44598E+01 -1.39238E+01 -9.39070E+00 -1.06518E+01 -1.04884E+01 -9.68575E+00 -8.46659E+00 -2.53501E+00  5.18392E-01
  -6.66898E-02  2.72321E+00  7.03443E+00  1.20607E+01  1.78011E+01  2.78670E+01  3.77353E+01  4.80299E+01  5.54623E+01  6.57386E+01
   7.51137E+01  7.38256E+01  6.71673E+01  4.93957E+01  3.01510E+01  1.34014E+01  5.73777E+00 -4.92379E-01 -4.48428E+00 -7.99526E+00
  -6.39981E+00 -3.28076E+00 -5.74564E+00 -5.62083E+00 -7.03801E+00 -5.62464E+00 -6.95048E+00 -8.53278E+00 -8.99386E+00 -9.72400E+00
  -9.90129E+00 -7.32074E+00 -1.36558E+01 -9.53981E+00 -8.64473E+00 -8.86696E+00 -7.53875E+00 -1.04836E+01 -9.37654E+00 -9.19361E+00
  -1.34141E+01 -1.14922E+01 -9.79512E+00 -1.19972E+01 -1.01109E+01 -1.04548E+01 -1.02097E+01 -5.42594E+00 -7.33441E+00 -6.83906E+00
  -8.56170E+00 -7.91882E+00 -9.67467E+00 -4.70379E+00 -5.24448E+00 -6.20448E+00 -6.17540E+00 -3.55619E+00 -2.51644E+00 -4.35247E+00
  -3.69202E-01 -4.44756E+00  2.71477E+00 -4.15044E+00 -1.77746E+00 -1.14391E+00 -2.49243E+00  4.59241E-01 -3.68528E+00 -2.26789E+00
  -1.03738E+00 -2.39252E+00 -8.12179E-02 -1.24048E+00 -5.16521E-01 -1.61541E+00 -2.12850E+00 -6.39388E-01 -3.77722E+00  1.89965E+00
  -2.78547E+00 -1.30263E-01 -2.12952E+00 -7.31350E-01  9.14645E-01  4.26273E-01  1.22497E+00 -6.89171E-01  3.15588E-01 -4.62444E-01
   1.32628E+00  1.58231E-01  1.70354E+00 -1.34163E+00  1.72392E+00 -1.46934E+00  2.61125E+00  3.96206E+00  4.19640E+00  3.97084E+00
   5.82236E+00  5.65576E+00  3.39780E+00  2.68416E+00  2.74953E+00  4.55728E+00  3.95843E+00  4.78373E+00  2.70316E+00  1.98856E+00
  -1.27250E+00  3.54013E+00 -3.75501E+00 -8.77024E-01  3.16854E+00  3.63451E+00  2.56393E+00 -7.39452E-02  2.49232E+00  1.56523E+00
   4.72373E+00  1.50942E+00  1.57968E+00  3.49419E+00  4.02343E+00  3.31137E+00  1.45011E+00 -1.56527E+00 -6.51819E-01 -1.31555E+00
  -1.55709E+00 -5.30457E-01 -2.32221E-01 -5.25538E+00 -7.66149E-01 -1.58960E+00 -3.74708E+00  6.82779E-01 -2.15260E+00  1.86521E-01
  -2.01541E+00 -1.57911E+00 -1.99040E+00  2.01425E-01  1.90898E+00  1.90880E+00 -8.43145E-02  1.00044E+00  2.60929E-01  2.57446E+00
   2.70236E+00  3.68438E+00  4.34020E+00  6.34454E+00  5.50672E+00  7.82149E+00  3.51280E+00  6.44759E+00  8.64029E+00  7.66524E+00
   4.84049E+00  6.50241E+00  5.43397E+00  6.16790E+00  7.71986E+00  4.98772E+00  6.71132E+00  9.18559E-02  3.09883E+00  8.60476E-01
   1.97867E+00 -1.41853E+00  1.50839E+00  9.05256E-01 -3.34838E+00 -6.98251E-01  8.17544E-01 -4.98603E-01  7.43003E-01  4.66788E-01
   7.31556E-01 -2.80890E+00 -1.26037E+00 -2.60917E+00 -3.34134E+00 -3.66099E-01 -2.31570E+00 -4.59576E+00 -2.86534E+00 -3.78004E+00
   1.51762E+00 -3.83266E+00 -2.52709E+00 -3.54365E+00 -1.05578E+00 -1.36319E+00 -4.78378E+00  1.12863E+00 -4.88661E+00 -1.96491E+00
   2.07844E-01  1.82529E+00  8.59080E-01 -3.46083E+00 -9.03461E-01 -2.15422E+00 -1.80552E+00  3.86727E-01 -3.32450E+00 -2.13019E+00
  -1.10569E+00 -2.25429E+00 -3.26836E+00 -3.84452E+00 -2.00630E+00 -5.61115E-01  3.53036E-01 -5.51951E+00 -9.30531E-01 -1.19743E+00
  -2.77883E+00 -5.01328E-01 -1.09793E+00  2.98881E+00 -1.33479E+00  1.27999E+00 -3.59121E-01 -2.25050E+00 -1.36995E+00 -2.72570E+00
   2.07263E-01 -7.49286E-01  3.83997E-01  9.44784E-01  3.57684E-01  1.69476E+00 -1.68112E+00  9.61031E-01 -4.77177E-01 -1.33844E+00
  -6.15139E-01  7.68578E-01  6.99704E-01 -4.65802E-01 -1.22924E+00 -2.25555E+00 -1.09866E+00  4.56125E-01
 NY points of the fit to the data follow
  -1.07810E+02 -1.06639E+02 -1.04434E+02 -1.01225E+02 -9.72424E+01 -9.28268E+01 -8.80575E+01 -8.30269E+01 -7.82347E+01 -7.46153E+01
  -7.31700E+01 -7.43634E+01 -7.77332E+01 -8.20899E+01 -8.61444E+01 -8.91318E+01 -9.10049E+01 -9.20240E+01 -9.23643E+01 -9.22589E+01
  -9.18357E+01 -9.12330E+01 -9.02293E+01 -8.88051E+01 -8.72089E+01 -8.53304E+01 -8.30286E+01 -8.03858E+01 -7.76827E+01 -7.53781E+01
  -7.38342E+01 -7.32301E+01 -7.34799E+01 -7.42694E+01 -7.52324E+01 -7.62722E+01 -7.74489E+01 -7.86551E+01 -7.93476E+01 -7.89770E+01
  -7.74685E+01 -7.51612E+01 -7.24727E+01 -6.97210E+01 -6.71420E+01 -6.50036E+01 -6.36418E+01 -6.33939E+01 -6.43530E+01 -6.61984E+01
  -6.82606E+01 -6.98270E+01 -7.05502E+01 -7.04968E+01 -6.98586E+01 -6.88461E+01 -6.76434E+01 -6.64393E+01 -6.54024E+01 -6.46684E+01
  -6.43508E+01 -6.44513E+01 -6.48202E+01 -6.51648E+01 -6.51694E+01 -6.47406E+01 -6.39489E+01 -6.29209E+01 -6.18071E+01 -6.07447E+01
  -5.98345E+01 -5.91452E+01 -5.86904E+01 -5.84296E+01 -5.82764E+01 -5.81258E+01 -5.79074E+01 -5.76071E+01 -5.72704E+01 -5.68973E+01
  -5.62419E+01 -5.53922E+01 -5.45411E+01 -5.36564E+01 -5.26480E+01 -5.15080E+01 -5.03643E+01 -4.94785E+01 -4.90535E+01 -4.91278E+01
  -4.95197E+01 -4.98827E+01 -4.99178E+01 -4.94550E+01 -4.79805E+01 -4.41507E+01 -3.85092E+01 -3.21797E+01 -2.49566E+01 -1.64182E+01
  -7.10467E+00  1.11494E+00  5.57716E+00  4.25596E+00 -2.85895E+00 -1.35515E+01 -2.45885E+01 -3.34922E+01 -3.95113E+01 -4.31883E+01
  -4.52087E+01 -4.58756E+01 -4.58218E+01 -4.55675E+01 -4.52405E+01 -4.48697E+01 -4.44460E+01 -4.39193E+01 -4.31269E+01 -4.12430E+01
  -3.72087E+01 -3.20908E+01 -2.65170E+01 -2.01580E+01 -1.28530E+01 -5.31379E+00  7.52317E-01  3.15868E+00  6.44295E-01 -6.15727E+00
  -1.50243E+01 -2.34337E+01 -2.98956E+01 -3.43842E+01 -3.74770E+01 -3.94627E+01 -4.02866E+01 -4.02868E+01 -3.97010E+01 -3.87666E+01
  -3.77962E+01 -3.70460E+01 -3.66483E+01 -3.66119E+01 -3.68163E+01 -3.70972E+01 -3.73508E+01 -3.75524E+01 -3.76953E+01 -3.77866E+01
  -3.78336E+01 -3.78464E+01 -3.78147E+01 -3.77463E+01 -3.77038E+01 -3.76685E+01 -3.75927E+01 -3.75043E+01 -3.74411E+01 -3.75088E+01
  -3.77179E+01 -3.78957E+01 -3.78720E+01 -3.76197E+01 -3.72539E+01 -3.69955E+01 -3.70229E+01 -3.73379E+01 -3.77972E+01 -3.82498E+01
  -3.85940E+01 -3.87278E+01 -3.87480E+01 -3.87957E+01 -3.89381E+01 -3.90835E+01 -3.90106E+01 -3.86382E+01 -3.80890E+01 -3.75728E+01
  -3.72739E+01 -3.70999E+01 -3.67684E+01 -3.61437E+01 -3.52394E+01 -3.41375E+01 -3.28898E+01 -3.14463E+01 -2.98126E+01 -2.82035E+01
  -2.69517E+01 -2.63183E+01 -2.63448E+01 -2.68576E+01 -2.75259E+01 -2.80163E+01 -2.80971E+01 -2.75990E+01 -2.65740E+01 -2.52264E+01
  -2.37729E+01 -2.24633E+01 -2.14716E+01 -2.10090E+01 -2.11309E+01 -2.18481E+01 -2.32174E+01 -2.49987E+01 -2.66689E+01 -2.76650E+01
  -2.75457E+01 -2.64519E+01 -2.45130E+01 -2.18834E+01 -1.89620E+01 -1.64528E+01 -1.51850E+01 -1.55795E+01 -1.74713E+01 -2.04276E+01
  -2.37034E+01 -2.63893E+01 -2.77883E+01 -2.75335E+01 -2.56750E+01 -2.26400E+01 -1.91657E+01 -1.61392E+01 -1.40942E+01 -1.30546E+01
  -1.26252E+01 -1.24701E+01 -1.23442E+01 -1.20141E+01 -1.14458E+01 -1.08571E+01 -1.05334E+01 -1.05544E+01 -1.08173E+01 -1.12427E+01
  -1.17417E+01 -1.20947E+01 -1.20195E+01 -1.13630E+01 -1.01887E+01 -8.70345E+00 -7.16066E+00 -5.79325E+00 -4.51046E+00 -2.93001E+00
  -1.19000E+00  7.95556E-01  3.61524E+00  9.40142E+00  1.90308E+01  2.94102E+01  3.92084E+01  4.88061E+01  5.85621E+01  6.75443E+01
   7.32664E+01  7.26602E+01  6.42028E+01  4.94386E+01  3.25066E+01  1.76451E+01  6.82889E+00 -2.54137E-01 -4.76027E+00 -7.22459E+00
  -8.13513E+00 -8.52649E+00 -8.71312E+00 -8.76664E+00 -8.75430E+00 -8.75698E+00 -8.81242E+00 -8.93260E+00 -9.10142E+00 -9.27692E+00
  -9.42154E+00 -9.52120E+00 -9.57723E+00 -9.59484E+00 -9.58423E+00 -9.56172E+00 -9.54082E+00 -9.51942E+00 -9.48436E+00 -9.42156E+00
  -9.32243E+00 -9.18393E+00 -9.01109E+00 -8.81363E+00 -8.60316E+00 -8.38591E+00 -8.15975E+00 -7.91638E+00 -7.64699E+00 -7.34481E+00
  -7.00549E+00 -6.62957E+00 -6.22480E+00 -5.80234E+00 -5.37330E+00 -4.94680E+00 -4.53014E+00 -4.13007E+00 -3.75258E+00 -3.40188E+00
  -3.08253E+00 -2.79890E+00 -2.55400E+00 -2.34893E+00 -2.18285E+00 -2.05308E+00 -1.95529E+00 -1.88368E+00 -1.83076E+00 -1.78653E+00
  -1.73907E+00 -1.69119E+00 -1.64702E+00 -1.59904E+00 -1.54279E+00 -1.48251E+00 -1.42867E+00 -1.39049E+00 -1.35645E+00 -1.30166E+00
  -1.20983E+00 -1.06679E+00 -8.65780E-01 -6.11799E-01 -3.19220E-01 -8.45268E-03  2.95888E-01  5.67811E-01  7.94074E-01  9.80997E-01
   1.14526E+00  1.30267E+00  1.46097E+00  1.62136E+00  1.78535E+00  1.95325E+00  2.12158E+00  2.28780E+00  2.44979E+00  2.60509E+00
   2.75085E+00  2.88396E+00  3.00128E+00  3.09970E+00  3.17616E+00  3.22763E+00  3.25142E+00  3.24543E+00  3.20835E+00  3.13956E+00
   3.03912E+00  2.90768E+00  2.74666E+00  2.55831E+00  2.34564E+00  2.11211E+00  1.86145E+00  1.59761E+00  1.32474E+00  1.04717E+00
   7.69260E-01  4.95075E-01  2.28364E-01 -2.74376E-02 -2.69078E-01 -4.93543E-01 -6.98142E-01 -8.80622E-01 -1.03907E+00 -1.17177E+00
  -1.27701E+00 -1.35318E+00 -1.39874E+00 -1.41232E+00 -1.39252E+00 -1.33783E+00 -1.24657E+00 -1.11709E+00 -9.47893E-01 -7.37781E-01
  -4.85835E-01 -1.91552E-01  1.44961E-01  5.22600E-01  9.39029E-01  1.39052E+00  1.87197E+00  2.37674E+00  2.89670E+00  3.42206E+00
   3.94170E+00  4.44350E+00  4.91487E+00  5.34324E+00  5.71652E+00  6.02357E+00  6.25488E+00  6.40313E+00  6.46367E+00  6.43464E+00
   6.31708E+00  6.11477E+00  5.83418E+00  5.48414E+00  5.07536E+00  4.61977E+00  4.12987E+00  3.61815E+00  3.09667E+00  2.57663E+00
   2.06798E+00  1.57908E+00  1.11652E+00  6.85152E-01  2.88305E-01 -7.21270E-02 -3.95534E-01 -6.82487E-01 -9.34452E-01 -1.15351E+00
  -1.34204E+00 -1.50262E+00 -1.63796E+00 -1.75082E+00 -1.84388E+00 -1.91958E+00 -1.98006E+00 -2.02724E+00 -2.06288E+00 -2.08859E+00
  -2.10576E+00 -2.11553E+00 -2.11879E+00 -2.11637E+00 -2.10899E+00 -2.09738E+00 -2.08208E+00 -2.06348E+00 -2.04191E+00 -2.01768E+00
  -1.99114E+00 -1.96262E+00 -1.93231E+00 -1.90034E+00 -1.86680E+00 -1.83187E+00 -1.79575E+00 -1.75859E+00 -1.72044E+00 -1.68133E+00
  -1.64131E+00 -1.60053E+00 -1.55909E+00 -1.51707E+00 -1.47445E+00 -1.43123E+00 -1.38745E+00 -1.34326E+00 -1.29871E+00 -1.25383E+00
  -1.20856E+00 -1.16291E+00 -1.11694E+00 -1.07077E+00 -1.02441E+00 -9.77836E-01 -9.31004E-01 -8.83952E-01 -8.36752E-01 -7.89488E-01
  -7.42141E-01 -6.94669E-01 -6.47036E-01 -5.99309E-01 -5.51553E-01 -5.03816E-01 -4.56046E-01 -4.08201E-01 -3.60272E-01 -3.12343E-01
  -2.64463E-01 -2.16641E-01 -1.68799E-01 -1.20912E-01 -7.29932E-02 -2.51260E-02  2.26760E-02  7.04460E-02
 NY background values follow
    -1.126E+02   -1.118E+02   -1.110E+02   -1.103E+02   -1.095E+02   -1.087E+02   -1.080E+02   -1.072E+02   -1.064E+02   -1.057E+02
    -1.049E+02   -1.041E+02   -1.034E+02   -1.026E+02   -1.018E+02   -1.011E+02   -1.003E+02   -9.957E+01   -9.882E+01   -9.807E+01
    -9.732E+01   -9.657E+01   -9.583E+01   -9.509E+01   -9.435E+01   -9.361E+01   -9.288E+01   -9.215E+01   -9.142E+01   -9.070E+01
    -8.998E+01   -8.927E+01   -8.855E+01   -8.784E+01   -8.714E+01   -8.644E+01   -8.574E+01   -8.504E+01   -8.436E+01   -8.367E+01
    -8.299E+01   -8.231E+01   -8.164E+01   -8.097E+01   -8.031E+01   -7.965E+01   -7.900E+01   -7.835E+01   -7.771E+01   -7.707E+01
    -7.644E+01   -7.581E+01   -7.519E+01   -7.458E+01   -7.396E+01   -7.336E+01   -7.276E+01   -7.216E+01   -7.157E+01   -7.098E+01
    -7.040E+01   -6.983E+01   -6.926E+01   -6.869E+01   -6.813E+01   -6.758E+01   -6.703E+01   -6.649E+01   -6.595E+01   -6.542E+01
    -6.489E+01   -6.437E+01   -6.386E+01   -6.335E+01   -6.284E+01   -6.234E+01   -6.185E+01   -6.136E+01   -6.088E+01   -6.040E+01
    -5.993E+01   -5.947E+01   -5.901E+01   -5.855E+01   -5.811E+01   -5.766E+01   -5.723E+01   -5.680E+01   -5.637E+01   -5.595E+01
    -5.554E+01   -5.513E+01   -5.473E+01   -5.433E+01   -5.394E+01   -5.356E+01   -5.318E+01   -5.280E+01   -5.243E+01   -5.207E+01
    -5.171E+01   -5.136E+01   -5.101E+01   -5.067E+01   -5.033E+01   -5.000E+01   -4.967E+01   -4.935E+01   -4.903E+01   -4.872E+01
    -4.841E+01   -4.810E+01   -4.780E+01   -4.751E+01   -4.721E+01   -4.693E+01   -4.664E+01   -4.636E+01   -4.609E+01   -4.582E+01
    -4.555E+01   -4.529E+01   -4.503E+01   -4.477E+01   -4.452E+01   -4.427E+01   -4.402E+01   -4.378E+01   -4.354E+01   -4.330E+01
    -4.307E+01   -4.284E+01   -4.261E+01   -4.239E+01   -4.216E+01   -4.195E+01   -4.173E+01   -4.152E+01   -4.131E+01   -4.110E+01
    -4.089E+01   -4.069E+01   -4.048E+01   -4.028E+01   -4.009E+01   -3.989E+01   -3.969E+01   -3.950E+01   -3.931E+01   -3.912E+01
    -3.893E+01   -3.874E+01   -3.855E+01   -3.836E+01   -3.817E+01   -3.798E+01   -3.780E+01   -3.761E+01   -3.742E+01   -3.724E+01
    -3.705E+01   -3.686E+01   -3.668E+01   -3.649E+01   -3.630E+01   -3.611E+01   -3.592E+01   -3.573E+01   -3.553E+01   -3.534E+01
    -3.514E+01   -3.495E+01   -3.475E+01   -3.455E+01   -3.434E+01   -3.414E+01   -3.393E+01   -3.372E+01   -3.351E+01   -3.330E+01
    -3.308E+01   -3.286E+01   -3.264E+01   -3.241E+01   -3.218E+01   -3.195E+01   -3.172E+01   -3.149E+01   -3.125E+01   -3.101E+01
    -3.077E+01   -3.053E+01   -3.029E+01   -3.004E+01   -2.979E+01   -2.955E+01   -2.930E+01   -2.905E+01   -2.880E+01   -2.854E+01
    -2.829E+01   -2.804E+01   -2.779E+01   -2.753E+01   -2.728E+01   -2.703E+01   -2.677E+01   -2.652E+01   -2.627E+01   -2.602E+01
    -2.576E+01   -2.551E+01   -2.526E+01   -2.501E+01   -2.477E+01   -2.452E+01   -2.428E+01   -2.403E+01   -2.379E+01   -2.355E+01
    -2.331E+01   -2.307E+01   -2.284E+01   -2.261E+01   -2.238E+01   -2.215E+01   -2.193E+01   -2.171E+01   -2.149E+01   -2.127E+01
    -2.106E+01   -2.084E+01   -2.064E+01   -2.043E+01   -2.023E+01   -2.002E+01   -1.983E+01   -1.963E+01   -1.943E+01   -1.924E+01
    -1.905E+01   -1.887E+01   -1.868E+01   -1.850E+01   -1.832E+01   -1.814E+01   -1.796E+01   -1.779E+01   -1.762E+01   -1.745E+01
    -1.728E+01   -1.711E+01   -1.695E+01   -1.678E+01   -1.662E+01   -1.646E+01   -1.631E+01   -1.615E+01   -1.600E+01   -1.585E+01
    -1.570E+01   -1.555E+01   -1.540E+01   -1.525E+01   -1.511E+01   -1.497E+01   -1.483E+01   -1.469E+01   -1.455E+01   -1.441E+01
    -1.427E+01   -1.414E+01   -1.401E+01   -1.388E+01   -1.374E+01   -1.361E+01   -1.349E+01   -1.336E+01   -1.323E+01   -1.311E+01
    -1.299E+01   -1.286E+01   -1.274E+01   -1.262E+01   -1.250E+01   -1.238E+01   -1.227E+01   -1.215E+01   -1.204E+01   -1.192E+01
    -1.181E+01   -1.170E+01   -1.159E+01   -1.148E+01   -1.137E+01   -1.126E+01   -1.115E+01   -1.105E+01   -1.094E+01   -1.084E+01
    -1.074E+01   -1.063E+01   -1.053E+01   -1.043E+01   -1.033E+01   -1.023E+01   -1.014E+01   -1.004E+01   -9.942E+00   -9.846E+00
    -9.752E+00   -9.658E+00   -9.564E+00   -9.472E+00   -9.380E+00   -9.289E+00   -9.199E+00   -9.109E+00   -9.021E+00   -8.932E+00
    -8.845E+00   -8.758E+00   -8.672E+00   -8.587E+00   -8.503E+00   -8.419E+00   -8.337E+00   -8.255E+00   -8.173E+00   -8.093E+00
    -8.014E+00   -7.935E+00   -7.857E+00   -7.780E+00   -7.704E+00   -7.629E+00   -7.555E+00   -7.482E+00   -7.409E+00   -7.338E+00
    -7.267E+00   -7.198E+00   -7.129E+00   -7.062E+00   -6.995E+00   -6.930E+00   -6.866E+00   -6.802E+00   -6.740E+00   -6.678E+00
    -6.618E+00   -6.559E+00   -6.501E+00   -6.444E+00   -6.388E+00   -6.334E+00   -6.280E+00   -6.228E+00   -6.176E+00   -6.126E+00
    -6.077E+00   -6.030E+00   -5.983E+00   -5.938E+00   -5.894E+00   -5.851E+00   -5.809E+00   -5.768E+00   -5.728E+00   -5.689E+00
    -5.651E+00   -5.613E+00   -5.577E+00   -5.541E+00   -5.506E+00   -5.472E+00   -5.438E+00   -5.405E+00   -5.373E+00   -5.341E+00
    -5.309E+00   -5.278E+00   -5.247E+00   -5.217E+00   -5.187E+00   -5.157E+00   -5.127E+00   -5.098E+00   -5.068E+00   -5.039E+00
    -5.010E+00   -4.981E+00   -4.952E+00   -4.922E+00   -4.893E+00   -4.863E+00   -4.833E+00   -4.803E+00   -4.773E+00   -4.742E+00
    -4.711E+00   -4.680E+00   -4.648E+00   -4.615E+00   -4.582E+00   -4.549E+00   -4.514E+00   -4.479E+00   -4.444E+00   -4.407E+00
    -4.370E+00   -4.333E+00   -4.294E+00   -4.256E+00   -4.216E+00   -4.176E+00   -4.135E+00   -4.094E+00   -4.052E+00   -4.010E+00
    -3.967E+00   -3.923E+00   -3.879E+00   -3.835E+00   -3.790E+00   -3.744E+00   -3.699E+00   -3.652E+00   -3.606E+00   -3.558E+00
    -3.511E+00   -3.463E+00   -3.415E+00   -3.366E+00   -3.317E+00   -3.268E+00   -3.219E+00   -3.169E+00   -3.119E+00   -3.068E+00
    -3.017E+00   -2.967E+00   -2.915E+00   -2.864E+00   -2.813E+00   -2.761E+00   -2.709E+00   -2.657E+00   -2.605E+00   -2.553E+00
    -2.500E+00   -2.448E+00   -2.395E+00   -2.342E+00   -2.290E+00   -2.237E+00   -2.184E+00   -2.131E+00   -2.078E+00   -2.025E+00
    -1.972E+00   -1.919E+00   -1.866E+00   -1.813E+00   -1.760E+00   -1.707E+00   -1.654E+00   -1.601E+00   -1.549E+00   -1.496E+00
    -1.443E+00   -1.390E+00   -1.337E+00   -1.284E+00   -1.232E+00   -1.179E+00   -1.127E+00   -1.074E+00   -1.022E+00   -9.695E-01
    -9.173E-01   -8.653E-01   -8.134E-01   -7.615E-01   -7.098E-01   -6.583E-01   -6.069E-01   -5.556E-01   -5.045E-01   -4.535E-01
    -4.027E-01   -3.521E-01   -3.016E-01   -2.514E-01   -2.013E-01   -1.514E-01   -1.018E-01   -5.230E-02
 Ala      Conc. = 2.23E+01
