 LCModel (Version 6.3-1L) Copyright: S.W. Provencher.          Ref.: Magn. Reson. Med. 30:672-679 (1993).                
 Slice#1 Row#11 Col#1  PD_05_press_1_raw_act
 36 lines in following concentration table = NCONC+1
    Conc.  %SD /Cr+PCr  Metabolite                                         
    0.000 999%   0.000 Ala                                                 
    5.376  82%   0.180 Asp                                                 
    0.000 999%   0.000 Cr                                                  
   29.949  39%   1.000 PCr                                                 
    2.954  90% 9.9E-02 GABA                                                
    3.058  87%   0.102 Glc                                                 
   99.830  62%   3.333 Gln                                                 
  204.837  34%   6.840 Glu                                                 
    4.604 103%   0.154 GPC                                                 
    0.000 999%   0.000 PCh                                                 
    8.893 206%   0.297 GSH                                                 
    5.908 999%   0.197 Ins                                                 
    0.000 999%   0.000 Lac                                                 
   57.802  24%   1.930 NAA                                                 
    0.000 999%   0.000 NAAG                                                
    0.839 106% 2.8E-02 Scyllo                                              
    4.040 109%   0.135 Tau                                                 
    0.000 999%   0.000 -CrCH2                                              
    4.604 103%   0.154 GPC+PCh                                             
   57.802  24%   1.930 NAA+NAAG                                            
   29.949  39%   1.000 Cr+PCr                                              
  304.667  33%  10.173 Glu+Gln                                             
    0.000 999%   0.000 Lip13a                                              
   87.541  33%   2.923 Lip13b                                              
   23.221  44%   0.775 Lip09                                               
   26.333 132%   0.879 MM09                                                
   13.147  48%   0.439 Lip20                                               
   35.318 154%   1.179 MM20                                                
    6.899 184%   0.230 MM12                                                
   42.275  90%   1.412 MM14                                                
    7.824 309%   0.261 MM17                                                
   87.541  33%   2.923 Lip13a+Lip13b                                       
  136.716  39%   4.565 MM14+Lip13a+Lip13b+MM12                             
   49.553  71%   1.655 MM09+Lip09                                          
   48.465 113%   1.618 MM20+Lip20                                          
   6 lines in following misc. output table
  FWHM = 0.061 ppm    S/N =   1                                            
  Data shift = 0.008 ppm                                                   
  Ph: 142 deg      -2.0 deg/ppm                                            
  alphaB,S = 7.3E-01,   1.0E+02                                            
   14 spline knots.   Ns = 6(1)                                            
  ( 8) 2 infls.   ( 9) 1 extrs.                                            
  498 points on ppm-axis = NY
      4.000000     3.992357     3.984714     3.977070     3.969427     3.961784     3.954141     3.946497     3.938854     3.931211
      3.923568     3.915925     3.908281     3.900638     3.892995     3.885352     3.877708     3.870065     3.862422     3.854779
      3.847136     3.839492     3.831849     3.824206     3.816563     3.808919     3.801276     3.793633     3.785990     3.778347
      3.770703     3.763060     3.755417     3.747774     3.740130     3.732487     3.724844     3.717201     3.709558     3.701914
      3.694271     3.686628     3.678985     3.671341     3.663698     3.656055     3.648412     3.640769     3.633125     3.625482
      3.617839     3.610196     3.602552     3.594909     3.587266     3.579623     3.571980     3.564336     3.556693     3.549050
      3.541407     3.533763     3.526120     3.518477     3.510834     3.503191     3.495547     3.487904     3.480261     3.472618
      3.464974     3.457331     3.449688     3.442045     3.434402     3.426758     3.419115     3.411472     3.403829     3.396185
      3.388542     3.380899     3.373256     3.365613     3.357969     3.350326     3.342683     3.335040     3.327396     3.319753
      3.312110     3.304467     3.296824     3.289180     3.281537     3.273894     3.266251     3.258607     3.250964     3.243321
      3.235678     3.228034     3.220391     3.212748     3.205105     3.197462     3.189818     3.182175     3.174532     3.166889
      3.159245     3.151602     3.143959     3.136316     3.128673     3.121029     3.113386     3.105743     3.098100     3.090456
      3.082813     3.075170     3.067527     3.059884     3.052240     3.044597     3.036954     3.029311     3.021667     3.014024
      3.006381     2.998738     2.991095     2.983451     2.975808     2.968165     2.960522     2.952878     2.945235     2.937592
      2.929949     2.922306     2.914662     2.907019     2.899376     2.891733     2.884089     2.876446     2.868803     2.861160
      2.853517     2.845873     2.838230     2.830587     2.822944     2.815300     2.807657     2.800014     2.792371     2.784728
      2.777084     2.769441     2.761798     2.754155     2.746511     2.738868     2.731225     2.723582     2.715939     2.708295
      2.700652     2.693009     2.685366     2.677722     2.670079     2.662436     2.654793     2.647150     2.639506     2.631863
      2.624220     2.616577     2.608933     2.601290     2.593647     2.586004     2.578361     2.570717     2.563074     2.555431
      2.547788     2.540144     2.532501     2.524858     2.517215     2.509572     2.501928     2.494285     2.486642     2.478999
      2.471355     2.463712     2.456069     2.448426     2.440783     2.433139     2.425496     2.417853     2.410210     2.402566
      2.394923     2.387280     2.379637     2.371994     2.364350     2.356707     2.349064     2.341421     2.333777     2.326134
      2.318491     2.310848     2.303205     2.295561     2.287918     2.280275     2.272632     2.264988     2.257345     2.249702
      2.242059     2.234416     2.226772     2.219129     2.211486     2.203843     2.196199     2.188556     2.180913     2.173270
      2.165627     2.157983     2.150340     2.142697     2.135054     2.127410     2.119767     2.112124     2.104481     2.096838
      2.089194     2.081551     2.073908     2.066265     2.058621     2.050978     2.043335     2.035692     2.028049     2.020405
      2.012762     2.005119     1.997476     1.989833     1.982190     1.974546     1.966903     1.959260     1.951617     1.943974
      1.936331     1.928688     1.921045     1.913402     1.905759     1.898115     1.890472     1.882829     1.875186     1.867543
      1.859900     1.852257     1.844614     1.836971     1.829327     1.821684     1.814041     1.806398     1.798755     1.791112
      1.783469     1.775826     1.768183     1.760540     1.752896     1.745253     1.737610     1.729967     1.722324     1.714681
      1.707038     1.699395     1.691752     1.684108     1.676465     1.668822     1.661179     1.653536     1.645893     1.638250
      1.630607     1.622964     1.615321     1.607677     1.600034     1.592391     1.584748     1.577105     1.569462     1.561819
      1.554176     1.546533     1.538890     1.531246     1.523603     1.515960     1.508317     1.500674     1.493031     1.485388
      1.477745     1.470102     1.462458     1.454815     1.447172     1.439529     1.431886     1.424243     1.416600     1.408957
      1.401314     1.393671     1.386027     1.378384     1.370741     1.363098     1.355455     1.347812     1.340169     1.332526
      1.324883     1.317240     1.309596     1.301953     1.294310     1.286667     1.279024     1.271381     1.263738     1.256095
      1.248452     1.240808     1.233165     1.225522     1.217879     1.210236     1.202593     1.194950     1.187307     1.179664
      1.172021     1.164377     1.156734     1.149091     1.141448     1.133805     1.126162     1.118519     1.110876     1.103233
      1.095590     1.087946     1.080303     1.072660     1.065017     1.057374     1.049731     1.042088     1.034445     1.026802
      1.019158     1.011515     1.003872     0.996229     0.988586     0.980943     0.973300     0.965657     0.958014     0.950371
      0.942727     0.935084     0.927441     0.919798     0.912155     0.904512     0.896869     0.889226     0.881583     0.873940
      0.866296     0.858653     0.851010     0.843367     0.835724     0.828081     0.820438     0.812795     0.805152     0.797508
      0.789865     0.782222     0.774579     0.766936     0.759293     0.751650     0.744007     0.736364     0.728721     0.721077
      0.713434     0.705791     0.698148     0.690505     0.682862     0.675219     0.667576     0.659933     0.652290     0.644646
      0.637003     0.629360     0.621717     0.614074     0.606431     0.598788     0.591145     0.583502     0.575858     0.568215
      0.560572     0.552929     0.545286     0.537643     0.530000     0.522357     0.514714     0.507071     0.499427     0.491784
      0.484141     0.476498     0.468855     0.461212     0.453569     0.445925     0.438282     0.430639     0.422996     0.415353
      0.407710     0.400067     0.392424     0.384780     0.377137     0.369494     0.361851     0.354208     0.346565     0.338922
      0.331278     0.323635     0.315992     0.308349     0.300706     0.293063     0.285420     0.277777     0.270133     0.262490
      0.254847     0.247204     0.239561     0.231918     0.224275     0.216631     0.208988     0.201345
 NY phased data points follow
   1.39443E+01  1.18265E+01  1.39269E+01  1.31409E+01  1.51845E+01  1.23010E+01  1.42198E+01  1.25546E+01  1.34451E+01  1.25202E+01
   1.23038E+01  1.34415E+01  1.42962E+01  1.12217E+01  1.30618E+01  1.25670E+01  9.27571E+00  1.04268E+01  1.08241E+01  1.14641E+01
   1.27925E+01  1.14292E+01  1.18479E+01  1.15701E+01  1.05200E+01  1.17498E+01  1.16895E+01  1.18067E+01  1.08556E+01  1.09736E+01
   9.54484E+00  9.60732E+00  1.15341E+01  1.02429E+01  1.01445E+01  1.01892E+01  9.64991E+00  9.43654E+00  8.70886E+00  8.56521E+00
   8.49985E+00  1.08394E+01  9.91529E+00  1.05883E+01  9.57611E+00  9.90331E+00  9.18048E+00  8.88878E+00  8.56050E+00  9.84159E+00
   1.04191E+01  9.09525E+00  7.46585E+00  9.67111E+00  7.96934E+00  9.31180E+00  9.50850E+00  7.66383E+00  7.69524E+00  7.13165E+00
   9.87130E+00  7.84845E+00  7.93240E+00  9.84362E+00  7.96699E+00  8.99815E+00  7.79380E+00  7.46210E+00  8.17664E+00  7.88963E+00
   7.42779E+00  7.66656E+00  7.36874E+00  6.94985E+00  8.13692E+00  7.24282E+00  6.95692E+00  7.82673E+00  8.47256E+00  7.16324E+00
   7.23969E+00  7.49775E+00  6.96501E+00  6.51430E+00  7.47732E+00  7.67963E+00  7.37014E+00  7.47757E+00  6.17770E+00  6.40001E+00
   6.63454E+00  6.20464E+00  5.13323E+00  5.78151E+00  6.86609E+00  5.26568E+00  6.50010E+00  5.06905E+00  6.40344E+00  6.82351E+00
   7.73743E+00  6.18449E+00  7.04421E+00  6.66823E+00  6.03050E+00  6.90285E+00  8.23754E+00  8.22295E+00  6.59773E+00  5.47100E+00
   6.43594E+00  5.14604E+00  7.31336E+00  6.80457E+00  5.18846E+00  6.67920E+00  6.16261E+00  4.72250E+00  6.07167E+00  5.58812E+00
   5.73660E+00  5.42902E+00  6.05051E+00  6.47987E+00  4.91050E+00  5.81570E+00  6.90853E+00  4.93325E+00  7.75572E+00  6.60089E+00
   6.42209E+00  3.19277E+00  5.06706E+00  4.54415E+00  5.53249E+00  5.07834E+00  5.86346E+00  6.02994E+00  5.74084E+00  5.44615E+00
   5.11965E+00  4.50693E+00  5.97656E+00  4.82774E+00  6.45455E+00  5.94169E+00  5.11584E+00  4.20456E+00  4.92350E+00  3.36726E+00
   5.59587E+00  5.74214E+00  5.61784E+00  5.46422E+00  5.92683E+00  5.57350E+00  5.25383E+00  4.87979E+00  5.89895E+00  5.48456E+00
   3.38327E+00  3.60498E+00  5.02560E+00  4.94380E+00  4.72730E+00  5.07115E+00  3.90124E+00  6.32518E+00  4.02546E+00  4.78896E+00
   5.68489E+00  5.74967E+00  6.49543E+00  4.59413E+00  2.89085E+00  4.01775E+00  5.84679E+00  4.67280E+00  5.31971E+00  2.47940E+00
   4.48036E+00  4.00756E+00  6.39065E+00  5.41795E+00  6.29522E+00  3.16233E+00  5.92746E+00  5.05955E+00  4.41171E+00  6.18173E+00
   4.89530E+00  5.34460E+00  4.99762E+00  3.86963E+00  5.23330E+00  4.57120E+00  4.88141E+00  3.53235E+00  5.33385E+00  4.75626E+00
   4.77536E+00  4.49498E+00  6.07500E+00  6.37695E+00  6.19799E+00  4.57208E+00  5.33581E+00  5.03203E+00  4.78152E+00  5.26260E+00
   4.92930E+00  4.02628E+00  3.24919E+00  5.08240E+00  5.09500E+00  3.61246E+00  5.77409E+00  4.82096E+00  5.00202E+00  4.46268E+00
   4.45483E+00  5.21636E+00  4.76725E+00  2.65393E+00  2.35802E+00  3.30780E+00  4.33787E+00  3.89579E+00  4.48135E+00  4.52809E+00
   4.40851E+00  3.12641E+00  6.63863E+00  4.16386E+00  4.85016E+00  5.05784E+00  5.18811E+00  3.97976E+00  5.75005E+00  3.76432E+00
   3.54973E+00  4.14705E+00  4.79470E+00  4.17007E+00  5.33365E+00  4.53060E+00  2.62943E+00  4.22949E+00  3.27620E+00  3.31152E+00
   4.38340E+00  4.32584E+00  3.78047E+00  4.37634E+00  3.61328E+00  4.13913E+00  3.14110E+00  3.91641E+00  5.80030E+00  5.78600E+00
   4.85535E+00  5.42971E+00  5.65662E+00  5.95791E+00  6.60609E+00  5.60236E+00  4.85820E+00  2.71062E+00  3.91962E+00  2.76632E+00
   4.75317E+00  3.59395E+00  4.17782E+00  5.16375E+00  3.39151E+00  4.63447E+00  4.19316E+00  3.70562E+00  2.95491E+00  4.50616E+00
   3.60795E+00  3.58092E+00  3.60425E+00  4.07541E+00  5.55950E+00  3.54840E+00  1.73098E+00  3.71239E+00  1.99937E+00  3.37673E+00
   4.02883E+00  3.96730E+00  2.82382E+00  3.43099E+00  3.57780E+00  3.47630E+00  4.12233E+00  3.86422E+00  2.80560E+00  3.24663E+00
   3.17715E+00  4.49339E+00  2.92646E+00  3.53691E+00  2.64364E+00  3.06003E+00  2.41054E+00  3.35601E+00  3.60881E+00  1.76275E+00
   3.30885E+00  4.39829E+00  3.28322E+00  1.64089E+00  3.49830E+00  4.43116E+00  4.16600E+00  3.01372E+00  3.82969E+00  3.20568E+00
   3.59047E+00  1.77572E+00  3.40905E+00  1.82547E+00  1.68828E+00  2.29893E+00  1.76996E+00  2.88038E+00  2.90351E+00  4.22532E+00
   4.34560E+00  4.38615E+00  4.00110E+00  3.39799E+00  4.81112E+00  3.33082E+00  3.52173E+00  3.45377E+00  3.90591E+00  4.64931E+00
   2.83776E+00  4.08131E+00  3.22206E+00  2.44217E+00  3.19055E+00  2.36775E+00  3.22457E+00  1.88923E+00  2.97092E+00  4.00181E+00
   4.15234E+00  4.32369E+00  5.54030E+00  3.41639E+00  3.21233E+00  3.45052E+00  4.38710E+00  2.89612E+00  3.37662E+00  3.74051E+00
   2.72275E+00  3.51332E+00  2.38959E+00  2.71183E+00  3.52558E+00  2.88452E+00  3.39089E+00  3.06638E+00  1.18672E+00  2.10352E+00
   2.23708E+00  3.15076E+00  1.00942E+00  2.17313E+00  9.04696E-01  2.45540E+00  2.70898E+00  2.41451E+00  3.27132E+00  1.63584E+00
   6.89110E-01  1.01588E+00  1.70907E+00  2.89972E+00  2.33157E+00  2.79073E+00  1.67728E+00  3.64524E+00  1.72943E+00  2.19280E+00
   2.81959E+00  2.10769E+00  2.64293E+00  3.21781E+00  2.11361E+00  3.18293E+00  3.79206E+00  3.35375E+00  2.67830E+00  1.52350E+00
   3.91337E+00  2.32129E+00  3.08031E+00  1.88495E+00  1.65465E+00  2.62439E+00  2.56853E+00  3.54779E+00  2.47669E+00  3.26640E+00
   1.97518E+00  1.29821E+00  3.04646E+00  1.48711E+00  2.43276E+00  2.17051E+00  2.33152E+00  3.28087E+00  1.78617E+00  2.56997E+00
   2.25056E+00  2.39188E+00  4.73575E-01  2.25273E+00  7.96823E-01  2.92114E+00  2.42525E+00  2.96063E+00  2.07590E+00  3.57469E+00
   1.70426E+00  2.30685E+00  9.67603E-01  7.97210E-01  2.41620E+00  1.95081E+00  2.09622E+00  1.12691E+00  2.01036E+00  2.85045E+00
   1.23668E+00  2.13753E+00  4.99424E-01  1.60626E+00  2.62110E+00  4.62105E+00  1.91624E+00  3.40888E-01  2.93580E+00  1.62354E+00
   3.29378E+00  1.45297E+00  1.55293E+00  1.40598E+00  3.13687E+00  6.20096E-01  2.33194E+00  2.42196E+00  1.75781E+00  1.75233E+00
   3.47741E+00  5.85307E-01  1.15517E+00  1.90650E+00  2.89768E+00  2.38344E+00  1.44077E+00  2.25501E+00  7.48947E-01  2.46283E+00
   1.77339E+00  2.45437E+00  2.99858E+00  4.17759E-01  2.09264E+00  2.20723E+00  1.55219E+00  2.92745E+00  2.64092E+00  1.74120E+00
   1.86242E+00  9.27394E-01  2.30255E+00  1.11154E+00  6.95729E-01  1.71119E+00  1.68459E+00  1.25333E+00  1.00015E+00  4.73910E-01
   2.04179E+00  1.69468E+00  1.19987E+00  1.34732E+00  2.92354E+00  2.76862E+00  8.31242E-01  7.20123E-01
 NY points of the fit to the data follow
   1.20248E+01  1.19773E+01  1.19461E+01  1.19478E+01  1.19759E+01  1.20167E+01  1.20592E+01  1.20944E+01  1.21143E+01  1.21101E+01
   1.20703E+01  1.19840E+01  1.18479E+01  1.16721E+01  1.14803E+01  1.13058E+01  1.11829E+01  1.11192E+01  1.10799E+01  1.10519E+01
   1.10308E+01  1.10060E+01  1.09593E+01  1.08856E+01  1.07934E+01  1.06923E+01  1.06027E+01  1.05426E+01  1.05158E+01  1.05219E+01
   1.05536E+01  1.06022E+01  1.06516E+01  1.06795E+01  1.06574E+01  1.05510E+01  1.03444E+01  1.00760E+01  9.80824E+00  9.59953E+00
   9.50304E+00  9.51883E+00  9.59921E+00  9.68575E+00  9.72647E+00  9.70126E+00  9.61673E+00  9.50711E+00  9.40645E+00  9.31852E+00
   9.23749E+00  9.16023E+00  9.08466E+00  9.01110E+00  8.94205E+00  8.87889E+00  8.82078E+00  8.76590E+00  8.71301E+00  8.66094E+00
   8.60911E+00  8.55719E+00  8.50491E+00  8.45246E+00  8.39960E+00  8.34618E+00  8.29304E+00  8.24142E+00  8.19176E+00  8.14420E+00
   8.09863E+00  8.05404E+00  8.00968E+00  7.96515E+00  7.92017E+00  7.87442E+00  7.82758E+00  7.77965E+00  7.73013E+00  7.67977E+00
   7.63117E+00  7.58542E+00  7.54256E+00  7.50298E+00  7.46558E+00  7.42793E+00  7.38863E+00  7.34655E+00  7.30069E+00  7.25124E+00
   7.19967E+00  7.14790E+00  7.09850E+00  7.05446E+00  7.01704E+00  6.98433E+00  6.95831E+00  6.95150E+00  6.96582E+00  6.99255E+00
   7.02305E+00  7.04951E+00  7.06633E+00  7.06859E+00  7.04969E+00  7.00194E+00  6.92102E+00  6.81002E+00  6.68073E+00  6.55372E+00
   6.45324E+00  6.39377E+00  6.35700E+00  6.32510E+00  6.29467E+00  6.26531E+00  6.23744E+00  6.21122E+00  6.18797E+00  6.17254E+00
   6.18492E+00  6.24701E+00  6.34535E+00  6.46057E+00  6.57703E+00  6.68223E+00  6.76520E+00  6.81184E+00  6.80289E+00  6.71992E+00
   6.55803E+00  6.33425E+00  6.08686E+00  5.86817E+00  5.72783E+00  5.66395E+00  5.62269E+00  5.58675E+00  5.55573E+00  5.53143E+00
   5.51520E+00  5.50636E+00  5.50026E+00  5.49034E+00  5.47353E+00  5.44954E+00  5.42007E+00  5.38875E+00  5.35819E+00  5.32931E+00
   5.30228E+00  5.27629E+00  5.25157E+00  5.22832E+00  5.20600E+00  5.18235E+00  5.15650E+00  5.12959E+00  5.10285E+00  5.07804E+00
   5.05505E+00  5.03291E+00  5.01179E+00  4.99264E+00  4.97665E+00  4.96356E+00  4.95125E+00  4.93641E+00  4.91554E+00  4.88688E+00
   4.85303E+00  4.81855E+00  4.78848E+00  4.76479E+00  4.74433E+00  4.72392E+00  4.70350E+00  4.68489E+00  4.66993E+00  4.65906E+00
   4.65072E+00  4.64179E+00  4.63100E+00  4.61964E+00  4.60952E+00  4.60474E+00  4.60878E+00  4.61776E+00  4.62481E+00  4.62611E+00
   4.62041E+00  4.60667E+00  4.58232E+00  4.54579E+00  4.49925E+00  4.45342E+00  4.42651E+00  4.43168E+00  4.47253E+00  4.55027E+00
   4.65757E+00  4.77218E+00  4.86686E+00  4.91597E+00  4.87919E+00  4.74958E+00  4.55189E+00  4.31562E+00  4.08136E+00  3.90048E+00
   3.83207E+00  3.89654E+00  4.08235E+00  4.36697E+00  4.69659E+00  4.98930E+00  5.15556E+00  5.12283E+00  4.87432E+00  4.49014E+00
   4.05723E+00  3.64939E+00  3.35109E+00  3.23387E+00  3.33043E+00  3.58171E+00  3.91006E+00  4.25507E+00  4.54867E+00  4.72403E+00
   4.74011E+00  4.63591E+00  4.49894E+00  4.38330E+00  4.29893E+00  4.25548E+00  4.25048E+00  4.25955E+00  4.27045E+00  4.27479E+00
   4.26660E+00  4.24212E+00  4.19644E+00  4.12237E+00  4.02279E+00  3.93130E+00  3.87511E+00  3.86400E+00  3.89496E+00  3.95528E+00
   4.01968E+00  4.06332E+00  4.10138E+00  4.14938E+00  4.24850E+00  4.43753E+00  4.68863E+00  4.95516E+00  5.20195E+00  5.41389E+00
   5.58427E+00  5.70208E+00  5.73191E+00  5.63001E+00  5.37431E+00  4.98587E+00  4.52992E+00  4.11679E+00  3.86107E+00  3.75968E+00
   3.71093E+00  3.68515E+00  3.67755E+00  3.67927E+00  3.68417E+00  3.69388E+00  3.70286E+00  3.70481E+00  3.69553E+00  3.67391E+00
   3.64248E+00  3.60904E+00  3.58011E+00  3.55697E+00  3.53908E+00  3.52572E+00  3.51547E+00  3.50648E+00  3.49668E+00  3.48508E+00
   3.47275E+00  3.46029E+00  3.44801E+00  3.43620E+00  3.42503E+00  3.41440E+00  3.40404E+00  3.39393E+00  3.38420E+00  3.37467E+00
   3.36517E+00  3.35570E+00  3.34617E+00  3.33653E+00  3.32679E+00  3.31692E+00  3.30691E+00  3.29675E+00  3.28645E+00  3.27610E+00
   3.26583E+00  3.25582E+00  3.24619E+00  3.23699E+00  3.22828E+00  3.22013E+00  3.21259E+00  3.20572E+00  3.19952E+00  3.19402E+00
   3.18919E+00  3.18499E+00  3.18137E+00  3.17826E+00  3.17555E+00  3.17312E+00  3.17085E+00  3.16859E+00  3.16621E+00  3.16356E+00
   3.16050E+00  3.15691E+00  3.15270E+00  3.14781E+00  3.14225E+00  3.13607E+00  3.12944E+00  3.12266E+00  3.11623E+00  3.11088E+00
   3.10767E+00  3.10805E+00  3.11389E+00  3.12743E+00  3.15117E+00  3.18756E+00  3.23854E+00  3.30497E+00  3.38601E+00  3.47857E+00
   3.57710E+00  3.67376E+00  3.75913E+00  3.82346E+00  3.85808E+00  3.85696E+00  3.81779E+00  3.74246E+00  3.63675E+00  3.50939E+00
   3.37055E+00  3.23031E+00  3.09730E+00  2.97780E+00  2.87541E+00  2.79125E+00  2.72449E+00  2.67298E+00  2.63399E+00  2.60469E+00
   2.58253E+00  2.56543E+00  2.55181E+00  2.54057E+00  2.53096E+00  2.52253E+00  2.51501E+00  2.50828E+00  2.50229E+00  2.49706E+00
   2.49261E+00  2.48901E+00  2.48632E+00  2.48460E+00  2.48394E+00  2.48440E+00  2.48602E+00  2.48883E+00  2.49286E+00  2.49807E+00
   2.50442E+00  2.51181E+00  2.52007E+00  2.52902E+00  2.53841E+00  2.54794E+00  2.55725E+00  2.56598E+00  2.57372E+00  2.58007E+00
   2.58463E+00  2.58703E+00  2.58694E+00  2.58412E+00  2.57837E+00  2.56961E+00  2.55783E+00  2.54313E+00  2.52570E+00  2.50578E+00
   2.48370E+00  2.45985E+00  2.43462E+00  2.40843E+00  2.38171E+00  2.35482E+00  2.32814E+00  2.30196E+00  2.27656E+00  2.25212E+00
   2.22881E+00  2.20671E+00  2.18589E+00  2.16634E+00  2.14806E+00  2.13098E+00  2.11503E+00  2.10014E+00  2.08623E+00  2.07318E+00
   2.06093E+00  2.04937E+00  2.03842E+00  2.02802E+00  2.01809E+00  2.00857E+00  1.99940E+00  1.99055E+00  1.98196E+00  1.97361E+00
   1.96547E+00  1.95749E+00  1.94968E+00  1.94199E+00  1.93442E+00  1.92696E+00  1.91959E+00  1.91230E+00  1.90507E+00  1.89791E+00
   1.89080E+00  1.88374E+00  1.87671E+00  1.86973E+00  1.86278E+00  1.85585E+00  1.84896E+00  1.84209E+00  1.83523E+00  1.82840E+00
   1.82159E+00  1.81479E+00  1.80801E+00  1.80124E+00  1.79448E+00  1.78773E+00  1.78099E+00  1.77426E+00  1.76754E+00  1.76083E+00
   1.75413E+00  1.74743E+00  1.74074E+00  1.73405E+00  1.72737E+00  1.72069E+00  1.71402E+00  1.70735E+00  1.70069E+00  1.69403E+00
   1.68738E+00  1.68073E+00  1.67408E+00  1.66743E+00  1.66079E+00  1.65415E+00  1.64752E+00  1.64089E+00  1.63426E+00  1.62764E+00
   1.62102E+00  1.61441E+00  1.60780E+00  1.60120E+00  1.59460E+00  1.58801E+00  1.58143E+00  1.57486E+00
 NY background values follow
     1.193E+01    1.187E+01    1.181E+01    1.176E+01    1.170E+01    1.164E+01    1.158E+01    1.152E+01    1.146E+01    1.141E+01
     1.135E+01    1.129E+01    1.123E+01    1.117E+01    1.111E+01    1.106E+01    1.100E+01    1.094E+01    1.088E+01    1.082E+01
     1.077E+01    1.071E+01    1.065E+01    1.059E+01    1.053E+01    1.048E+01    1.042E+01    1.036E+01    1.030E+01    1.025E+01
     1.019E+01    1.013E+01    1.008E+01    1.002E+01    9.964E+00    9.908E+00    9.852E+00    9.796E+00    9.740E+00    9.684E+00
     9.628E+00    9.573E+00    9.518E+00    9.463E+00    9.408E+00    9.353E+00    9.299E+00    9.244E+00    9.190E+00    9.137E+00
     9.083E+00    9.029E+00    8.976E+00    8.923E+00    8.870E+00    8.818E+00    8.766E+00    8.714E+00    8.662E+00    8.610E+00
     8.559E+00    8.508E+00    8.457E+00    8.407E+00    8.356E+00    8.306E+00    8.257E+00    8.207E+00    8.158E+00    8.109E+00
     8.061E+00    8.012E+00    7.964E+00    7.917E+00    7.869E+00    7.822E+00    7.776E+00    7.729E+00    7.683E+00    7.637E+00
     7.592E+00    7.547E+00    7.502E+00    7.458E+00    7.414E+00    7.370E+00    7.327E+00    7.284E+00    7.241E+00    7.199E+00
     7.157E+00    7.116E+00    7.074E+00    7.034E+00    6.993E+00    6.953E+00    6.914E+00    6.875E+00    6.836E+00    6.797E+00
     6.759E+00    6.721E+00    6.684E+00    6.647E+00    6.610E+00    6.574E+00    6.538E+00    6.502E+00    6.467E+00    6.432E+00
     6.398E+00    6.364E+00    6.330E+00    6.297E+00    6.264E+00    6.231E+00    6.199E+00    6.167E+00    6.135E+00    6.104E+00
     6.073E+00    6.042E+00    6.012E+00    5.982E+00    5.952E+00    5.923E+00    5.894E+00    5.866E+00    5.838E+00    5.810E+00
     5.782E+00    5.755E+00    5.728E+00    5.702E+00    5.676E+00    5.650E+00    5.624E+00    5.599E+00    5.575E+00    5.550E+00
     5.526E+00    5.502E+00    5.478E+00    5.455E+00    5.432E+00    5.410E+00    5.387E+00    5.365E+00    5.343E+00    5.322E+00
     5.300E+00    5.279E+00    5.259E+00    5.238E+00    5.218E+00    5.198E+00    5.178E+00    5.158E+00    5.139E+00    5.120E+00
     5.101E+00    5.082E+00    5.064E+00    5.046E+00    5.028E+00    5.010E+00    4.992E+00    4.975E+00    4.957E+00    4.940E+00
     4.923E+00    4.906E+00    4.890E+00    4.873E+00    4.857E+00    4.841E+00    4.825E+00    4.809E+00    4.793E+00    4.778E+00
     4.762E+00    4.747E+00    4.731E+00    4.716E+00    4.701E+00    4.686E+00    4.671E+00    4.656E+00    4.642E+00    4.627E+00
     4.613E+00    4.598E+00    4.584E+00    4.570E+00    4.556E+00    4.542E+00    4.528E+00    4.514E+00    4.500E+00    4.486E+00
     4.473E+00    4.459E+00    4.446E+00    4.432E+00    4.419E+00    4.405E+00    4.392E+00    4.379E+00    4.366E+00    4.353E+00
     4.340E+00    4.327E+00    4.314E+00    4.301E+00    4.288E+00    4.275E+00    4.262E+00    4.250E+00    4.237E+00    4.224E+00
     4.211E+00    4.199E+00    4.186E+00    4.173E+00    4.161E+00    4.148E+00    4.136E+00    4.123E+00    4.111E+00    4.098E+00
     4.086E+00    4.073E+00    4.061E+00    4.048E+00    4.036E+00    4.023E+00    4.011E+00    3.998E+00    3.986E+00    3.973E+00
     3.961E+00    3.949E+00    3.936E+00    3.924E+00    3.911E+00    3.899E+00    3.887E+00    3.875E+00    3.862E+00    3.850E+00
     3.838E+00    3.825E+00    3.813E+00    3.801E+00    3.789E+00    3.776E+00    3.764E+00    3.752E+00    3.740E+00    3.728E+00
     3.716E+00    3.704E+00    3.691E+00    3.679E+00    3.667E+00    3.655E+00    3.643E+00    3.631E+00    3.619E+00    3.607E+00
     3.595E+00    3.583E+00    3.571E+00    3.559E+00    3.547E+00    3.535E+00    3.523E+00    3.512E+00    3.500E+00    3.488E+00
     3.476E+00    3.464E+00    3.452E+00    3.441E+00    3.429E+00    3.417E+00    3.405E+00    3.394E+00    3.382E+00    3.370E+00
     3.358E+00    3.347E+00    3.335E+00    3.324E+00    3.312E+00    3.300E+00    3.289E+00    3.277E+00    3.266E+00    3.254E+00
     3.243E+00    3.231E+00    3.220E+00    3.208E+00    3.197E+00    3.185E+00    3.174E+00    3.163E+00    3.151E+00    3.140E+00
     3.128E+00    3.117E+00    3.106E+00    3.095E+00    3.083E+00    3.072E+00    3.061E+00    3.050E+00    3.038E+00    3.027E+00
     3.016E+00    3.005E+00    2.994E+00    2.983E+00    2.972E+00    2.961E+00    2.950E+00    2.939E+00    2.928E+00    2.917E+00
     2.906E+00    2.895E+00    2.884E+00    2.873E+00    2.862E+00    2.851E+00    2.841E+00    2.830E+00    2.819E+00    2.809E+00
     2.798E+00    2.788E+00    2.777E+00    2.766E+00    2.756E+00    2.746E+00    2.735E+00    2.725E+00    2.715E+00    2.704E+00
     2.694E+00    2.684E+00    2.674E+00    2.664E+00    2.654E+00    2.644E+00    2.634E+00    2.624E+00    2.614E+00    2.604E+00
     2.594E+00    2.584E+00    2.575E+00    2.565E+00    2.556E+00    2.546E+00    2.537E+00    2.527E+00    2.518E+00    2.509E+00
     2.499E+00    2.490E+00    2.481E+00    2.472E+00    2.463E+00    2.454E+00    2.445E+00    2.436E+00    2.427E+00    2.418E+00
     2.409E+00    2.401E+00    2.392E+00    2.383E+00    2.375E+00    2.366E+00    2.358E+00    2.349E+00    2.341E+00    2.332E+00
     2.324E+00    2.316E+00    2.307E+00    2.299E+00    2.291E+00    2.283E+00    2.275E+00    2.267E+00    2.259E+00    2.251E+00
     2.243E+00    2.236E+00    2.228E+00    2.220E+00    2.212E+00    2.205E+00    2.197E+00    2.190E+00    2.182E+00    2.175E+00
     2.167E+00    2.160E+00    2.152E+00    2.145E+00    2.138E+00    2.131E+00    2.123E+00    2.116E+00    2.109E+00    2.102E+00
     2.095E+00    2.088E+00    2.081E+00    2.074E+00    2.067E+00    2.060E+00    2.053E+00    2.046E+00    2.039E+00    2.032E+00
     2.025E+00    2.019E+00    2.012E+00    2.005E+00    1.998E+00    1.992E+00    1.985E+00    1.978E+00    1.972E+00    1.965E+00
     1.958E+00    1.952E+00    1.945E+00    1.938E+00    1.932E+00    1.925E+00    1.918E+00    1.912E+00    1.905E+00    1.899E+00
     1.892E+00    1.885E+00    1.879E+00    1.872E+00    1.866E+00    1.859E+00    1.852E+00    1.846E+00    1.839E+00    1.832E+00
     1.826E+00    1.819E+00    1.813E+00    1.806E+00    1.799E+00    1.793E+00    1.786E+00    1.779E+00    1.773E+00    1.766E+00
     1.760E+00    1.753E+00    1.746E+00    1.740E+00    1.733E+00    1.726E+00    1.720E+00    1.713E+00    1.706E+00    1.700E+00
     1.693E+00    1.686E+00    1.680E+00    1.673E+00    1.666E+00    1.660E+00    1.653E+00    1.646E+00    1.640E+00    1.633E+00
     1.626E+00    1.620E+00    1.613E+00    1.606E+00    1.600E+00    1.593E+00    1.586E+00    1.580E+00
 Asp      Conc. = 5.38E+00
