 LCModel (Version 6.3-1L) Copyright: S.W. Provencher.          Ref.: Magn. Reson. Med. 30:672-679 (1993).                
 Slice#1 Row#11 Col#13  PD_05_press_1_raw_act
 36 lines in following concentration table = NCONC+1
    Conc.  %SD /Cr+PCr  Metabolite                                         
    0.000 999%   0.000 Ala                                                 
    1.624  96% 4.9E-02 Asp                                                 
    0.000 999%   0.000 Cr                                                  
   33.075  36%   1.000 PCr                                                 
    0.986  94% 3.0E-02 GABA                                                
    0.982  95% 3.0E-02 Glc                                                 
    0.000 999%   0.000 Gln                                                 
    0.000 999%   0.000 Glu                                                 
    0.000 999%   0.000 GPC                                                 
    0.000 999%   0.000 PCh                                                 
   19.115  86%   0.578 GSH                                                 
   27.285 180%   0.825 Ins                                                 
    0.000 999%   0.000 Lac                                                 
    0.000 999%   0.000 NAA                                                 
    0.000 999%   0.000 NAAG                                                
    0.325  96% 9.8E-03 Scyllo                                              
    1.645  95% 5.0E-02 Tau                                                 
    0.637 999% 1.9E-02 -CrCH2                                              
    0.000 999%   0.000 GPC+PCh                                             
    0.000 999%   0.000 NAA+NAAG                                            
   33.075  36%   1.000 Cr+PCr                                              
    0.000 999%   0.000 Glu+Gln                                             
 2.33E+03   8%  70.355 Lip13a                                              
    0.000 999%   0.000 Lip13b                                              
  273.232  24%   8.261 Lip09                                               
    0.000 999%   0.000 MM09                                                
    2.303 999% 7.0E-02 Lip20                                               
    0.000 999%   0.000 MM20                                                
    2.068 999% 6.3E-02 MM12                                                
  106.298  78%   3.214 MM14                                                
    0.000 999%   0.000 MM17                                                
 2.33E+03   8%  70.355 Lip13a+Lip13b                                       
 2.44E+03   6%  73.632 MM14+Lip13a+Lip13b+MM12                             
  273.232  24%   8.261 MM09+Lip09                                          
    2.303 999% 7.0E-02 MM20+Lip20                                          
   6 lines in following misc. output table
  FWHM = 0.054 ppm    S/N =   4                                            
  Data shift = 0.122 ppm                                                   
  Ph:  71 deg     -44.5 deg/ppm                                            
  alphaB,S = 8.5E+01,   1.3E+01                                            
   14 spline knots.   Ns = 5(1)                                            
   2 inflections.     1 extrema                                            
  498 points on ppm-axis = NY
      4.000000     3.992357     3.984714     3.977070     3.969427     3.961784     3.954141     3.946497     3.938854     3.931211
      3.923568     3.915925     3.908281     3.900638     3.892995     3.885352     3.877708     3.870065     3.862422     3.854779
      3.847136     3.839492     3.831849     3.824206     3.816563     3.808919     3.801276     3.793633     3.785990     3.778347
      3.770703     3.763060     3.755417     3.747774     3.740130     3.732487     3.724844     3.717201     3.709558     3.701914
      3.694271     3.686628     3.678985     3.671341     3.663698     3.656055     3.648412     3.640769     3.633125     3.625482
      3.617839     3.610196     3.602552     3.594909     3.587266     3.579623     3.571980     3.564336     3.556693     3.549050
      3.541407     3.533763     3.526120     3.518477     3.510834     3.503191     3.495547     3.487904     3.480261     3.472618
      3.464974     3.457331     3.449688     3.442045     3.434402     3.426758     3.419115     3.411472     3.403829     3.396185
      3.388542     3.380899     3.373256     3.365613     3.357969     3.350326     3.342683     3.335040     3.327396     3.319753
      3.312110     3.304467     3.296824     3.289180     3.281537     3.273894     3.266251     3.258607     3.250964     3.243321
      3.235678     3.228034     3.220391     3.212748     3.205105     3.197462     3.189818     3.182175     3.174532     3.166889
      3.159245     3.151602     3.143959     3.136316     3.128673     3.121029     3.113386     3.105743     3.098100     3.090456
      3.082813     3.075170     3.067527     3.059884     3.052240     3.044597     3.036954     3.029311     3.021667     3.014024
      3.006381     2.998738     2.991095     2.983451     2.975808     2.968165     2.960522     2.952878     2.945235     2.937592
      2.929949     2.922306     2.914662     2.907019     2.899376     2.891733     2.884089     2.876446     2.868803     2.861160
      2.853517     2.845873     2.838230     2.830587     2.822944     2.815300     2.807657     2.800014     2.792371     2.784728
      2.777084     2.769441     2.761798     2.754155     2.746511     2.738868     2.731225     2.723582     2.715939     2.708295
      2.700652     2.693009     2.685366     2.677722     2.670079     2.662436     2.654793     2.647150     2.639506     2.631863
      2.624220     2.616577     2.608933     2.601290     2.593647     2.586004     2.578361     2.570717     2.563074     2.555431
      2.547788     2.540144     2.532501     2.524858     2.517215     2.509572     2.501928     2.494285     2.486642     2.478999
      2.471355     2.463712     2.456069     2.448426     2.440783     2.433139     2.425496     2.417853     2.410210     2.402566
      2.394923     2.387280     2.379637     2.371994     2.364350     2.356707     2.349064     2.341421     2.333777     2.326134
      2.318491     2.310848     2.303205     2.295561     2.287918     2.280275     2.272632     2.264988     2.257345     2.249702
      2.242059     2.234416     2.226772     2.219129     2.211486     2.203843     2.196199     2.188556     2.180913     2.173270
      2.165627     2.157983     2.150340     2.142697     2.135054     2.127410     2.119767     2.112124     2.104481     2.096838
      2.089194     2.081551     2.073908     2.066265     2.058621     2.050978     2.043335     2.035692     2.028049     2.020405
      2.012762     2.005119     1.997476     1.989833     1.982190     1.974546     1.966903     1.959260     1.951617     1.943974
      1.936331     1.928688     1.921045     1.913402     1.905759     1.898115     1.890472     1.882829     1.875186     1.867543
      1.859900     1.852257     1.844614     1.836971     1.829327     1.821684     1.814041     1.806398     1.798755     1.791112
      1.783469     1.775826     1.768183     1.760540     1.752896     1.745253     1.737610     1.729967     1.722324     1.714681
      1.707038     1.699395     1.691752     1.684108     1.676465     1.668822     1.661179     1.653536     1.645893     1.638250
      1.630607     1.622964     1.615321     1.607677     1.600034     1.592391     1.584748     1.577105     1.569462     1.561819
      1.554176     1.546533     1.538890     1.531246     1.523603     1.515960     1.508317     1.500674     1.493031     1.485388
      1.477745     1.470102     1.462458     1.454815     1.447172     1.439529     1.431886     1.424243     1.416600     1.408957
      1.401314     1.393671     1.386027     1.378384     1.370741     1.363098     1.355455     1.347812     1.340169     1.332526
      1.324883     1.317240     1.309596     1.301953     1.294310     1.286667     1.279024     1.271381     1.263738     1.256095
      1.248452     1.240808     1.233165     1.225522     1.217879     1.210236     1.202593     1.194950     1.187307     1.179664
      1.172021     1.164377     1.156734     1.149091     1.141448     1.133805     1.126162     1.118519     1.110876     1.103233
      1.095590     1.087946     1.080303     1.072660     1.065017     1.057374     1.049731     1.042088     1.034445     1.026802
      1.019158     1.011515     1.003872     0.996229     0.988586     0.980943     0.973300     0.965657     0.958014     0.950371
      0.942727     0.935084     0.927441     0.919798     0.912155     0.904512     0.896869     0.889226     0.881583     0.873940
      0.866296     0.858653     0.851010     0.843367     0.835724     0.828081     0.820438     0.812795     0.805152     0.797508
      0.789865     0.782222     0.774579     0.766936     0.759293     0.751650     0.744007     0.736364     0.728721     0.721077
      0.713434     0.705791     0.698148     0.690505     0.682862     0.675219     0.667576     0.659933     0.652290     0.644646
      0.637003     0.629360     0.621717     0.614074     0.606431     0.598788     0.591145     0.583502     0.575858     0.568215
      0.560572     0.552929     0.545286     0.537643     0.530000     0.522357     0.514714     0.507071     0.499427     0.491784
      0.484141     0.476498     0.468855     0.461212     0.453569     0.445925     0.438282     0.430639     0.422996     0.415353
      0.407710     0.400067     0.392424     0.384780     0.377137     0.369494     0.361851     0.354208     0.346565     0.338922
      0.331278     0.323635     0.315992     0.308349     0.300706     0.293063     0.285420     0.277777     0.270133     0.262490
      0.254847     0.247204     0.239561     0.231918     0.224275     0.216631     0.208988     0.201345
 NY phased data points follow
  -1.09048E+00 -9.03635E-01 -4.59377E-01  5.63982E-01  1.77849E-01  3.17135E-01 -5.77334E-01  4.64195E-02 -3.74747E-01  6.28640E-01
   7.09141E-01  2.14010E+00  7.62267E-01 -5.27426E-01 -9.45624E-01 -2.51271E-01 -1.15214E+00 -2.51018E+00  9.82679E-01 -9.37774E-02
   2.20810E+00 -1.28865E+00 -1.44645E+00 -9.91203E-01 -6.45765E-01 -5.45808E-01 -2.55940E-01 -8.50062E-01  1.30559E+00  1.16885E+00
  -4.67140E-01 -1.98487E-01 -1.54777E-01 -1.52078E+00 -2.78068E-01 -1.35336E+00  1.53061E-02  1.60264E-01 -4.51467E-01  6.49964E-01
   9.57892E-02 -1.17584E+00  8.02489E-01 -8.41109E-01 -4.41168E-01 -1.59172E+00  4.57404E-01 -2.85427E-01  1.05865E+00  9.35484E-02
  -1.02925E+00  3.54481E-01 -9.28221E-01 -1.66301E+00  4.84897E-01  1.02935E-01 -6.98226E-01 -1.50862E-01 -1.49659E+00 -8.38937E-01
  -8.64565E-01 -9.42955E-01  1.58448E+00  1.56083E-01  8.28708E-01 -1.05372E-01 -1.14086E+00  5.02390E-01 -1.36698E+00  9.25948E-01
  -2.78431E-01 -6.46163E-01 -1.07770E+00 -1.50800E+00  1.49380E-01 -5.09054E-01  8.63283E-01 -5.91689E-01 -6.28098E-02 -6.93350E-01
  -9.74615E-01 -1.30025E+00 -6.05881E-01 -1.21367E+00 -3.71242E-01 -5.03474E-01 -1.82849E+00 -1.53230E+00  1.28931E+00  1.33545E-01
   1.78452E-01  1.12777E+00  1.72493E-01 -4.36701E-01 -7.43033E-02  4.25983E-01  1.79650E-01  4.14272E-01 -1.12572E+00 -1.51174E+00
  -5.66819E-01 -7.92906E-01 -1.27606E+00 -2.00068E-01 -1.08315E+00 -8.21858E-01  3.35709E-01  1.22093E+00  5.89438E-01 -1.53969E+00
  -1.48399E-01 -3.35420E-01 -1.41906E+00 -9.56240E-01  1.56111E-01  2.34330E-01  7.81247E-01 -3.85382E-01 -1.06260E+00 -1.05294E+00
  -9.76720E-01 -2.91831E-01  4.70108E-01  1.22918E+00  6.78752E-01  4.90776E-01  4.51234E-01  1.64100E-01  6.26559E-01 -1.48707E-01
   1.53575E+00 -7.70000E-01 -8.03908E-01  2.66098E-01 -1.12138E+00 -1.82488E+00  8.91526E-01 -1.01850E+00 -5.52196E-01 -1.88770E-01
   1.66203E-01 -4.83436E-01  2.86042E-01  3.04112E-01 -1.64392E+00 -2.46912E-01  5.72627E-01  1.47605E-01  6.70236E-01 -4.96961E-01
  -3.58011E-01 -4.78024E-01  1.24578E-01 -9.84748E-01 -8.64171E-01  2.03894E-01  1.34474E+00  7.90689E-01 -8.68396E-03 -2.09787E-01
   4.03521E-02 -1.73279E+00 -5.31867E-01  9.65532E-02  6.20460E-01 -7.25381E-01  2.51767E-01 -6.22342E-02  1.74470E-02 -1.13773E+00
  -1.24325E+00  5.61782E-01  3.08502E-01 -2.87027E+00 -6.94666E-01 -8.64663E-01  4.71756E-02 -2.04730E+00 -4.89220E-01  1.96105E-01
  -7.27961E-01 -1.07219E+00  6.87040E-01  1.07843E-01 -1.03524E-01  5.39285E-01  2.65483E-01 -1.39241E-01 -4.56919E-01 -5.86613E-01
   3.02574E-01  8.60682E-01  3.55654E-01 -1.01225E-01  1.04899E+00  1.56129E+00  8.15286E-01 -6.40149E-02 -1.96538E+00 -4.24616E-01
  -7.99075E-01 -1.33602E+00  3.29827E-01 -1.18256E+00 -1.41863E+00  3.97781E-01  1.13532E+00 -2.66098E-01  5.12160E-01  4.54377E-01
   1.95589E+00  9.71402E-02  1.34196E+00 -1.15154E+00  2.89752E-01  1.57062E+00 -9.05735E-01  8.18016E-01 -7.40262E-01  1.98735E-01
  -1.68832E-01  8.56531E-01  1.77974E-01 -8.46373E-01 -5.24168E-01 -1.85067E-03  1.45894E+00 -6.53129E-01 -7.64068E-01  1.67895E+00
  -6.78260E-01  3.85210E-01  3.69940E-01  1.08925E+00  1.00393E-01 -3.84009E-01  8.06475E-01  2.08507E+00 -1.50849E+00  2.33680E-01
   6.38765E-01  1.00334E+00 -2.01309E-01  3.61843E-01  1.22992E-01 -1.40028E+00 -2.90839E-01  1.86796E-01  1.16184E+00 -1.35953E+00
  -8.22589E-01 -4.28387E-01  2.51428E-01  3.98885E-01 -3.43838E-01 -1.60720E+00 -2.03999E-01 -2.05541E+00 -1.00207E+00 -1.27853E+00
  -5.77453E-01  3.33293E+00  8.15828E-01 -1.56494E-01 -2.15196E+00 -9.95145E-01  8.90017E-01  8.10423E-01 -7.61245E-01 -4.22045E-01
   1.76462E-01 -7.07408E-01 -7.42718E-02  5.06166E-01  4.47785E-01  1.60617E+00 -4.70877E-01  6.25961E-01  9.72172E-01  7.57920E-01
   5.54077E-01  2.22419E+00 -3.93848E-01 -6.96766E-01  1.30221E+00  4.87289E-01 -1.32505E+00 -2.36073E-01 -1.28166E+00 -5.94604E-01
   3.41972E-01 -1.62863E+00  4.53774E-01  3.74947E-01  2.10100E+00  2.53261E-01  1.37073E+00  2.76001E-01 -2.22764E-02  2.23740E-01
  -1.22400E+00 -3.81008E-02  1.25867E+00  6.61569E-01 -1.07714E+00  1.95094E+00 -6.69114E-01  8.03163E-01 -4.86321E-01 -3.57991E-01
   7.70051E-01  2.34260E-01  2.63701E+00  1.81995E+00 -3.40116E-02  1.11537E+00  1.31750E+00  1.88950E+00  2.96354E+00  1.84462E+00
   2.12984E+00  2.10065E+00  1.80116E+00  2.08824E+00  1.01577E+00  3.02774E+00  2.44638E+00  2.81806E+00  1.55165E+00  2.67841E+00
   3.75543E+00  1.77699E+00  5.29001E+00  4.43518E+00  5.79754E+00  5.10027E+00  4.28930E+00  5.12691E+00  5.91270E+00  5.29358E+00
   6.12906E+00  6.46399E+00  6.30199E+00  7.95399E+00  8.62595E+00  9.31640E+00  7.19222E+00  7.36193E+00  9.70138E+00  9.22592E+00
   1.01341E+01  9.26587E+00  9.36837E+00  8.28471E+00  9.46447E+00  8.84993E+00  9.19089E+00  9.88109E+00  7.09903E+00  7.43602E+00
   7.23282E+00  7.88238E+00  5.85220E+00  7.23902E+00  4.98923E+00  6.67732E+00  5.71779E+00  7.11128E+00  5.67805E+00  5.02896E+00
   5.83878E+00  3.90380E+00  4.15593E+00  5.99612E+00  4.10877E+00  4.22293E+00  4.71918E+00  3.70385E+00  2.04314E+00  4.01345E+00
   3.13348E+00  4.62970E+00  4.39044E+00  3.32012E+00  4.52516E+00  3.69907E+00  6.22079E-01  3.65509E+00  2.13904E+00  2.78893E+00
   3.29131E+00  3.43744E+00  2.28271E+00  2.93136E+00  1.98169E+00  2.70921E+00  2.25906E+00  2.73131E+00  3.05290E+00  4.28137E+00
   1.14415E+00  2.62154E+00  3.21244E+00  2.15081E+00  3.64437E+00  2.11566E+00  8.22864E-01  1.76974E+00  2.07326E+00  3.84343E-01
   1.91858E+00  1.26752E+00  1.58058E+00  7.20325E-01  6.58586E-01  4.23201E-01  2.54724E-01  4.76379E-01 -3.06204E-01  1.16818E+00
   5.35230E-01  4.44161E-01 -7.90048E-01 -8.00151E-01  1.40737E+00  8.13150E-02 -2.00856E-01  3.20093E-01  9.08239E-01 -3.78602E-01
   1.13929E+00  2.26499E-01 -1.31694E+00  1.44020E-01  1.66174E-01 -2.29570E-02  1.32339E+00  2.17881E+00  5.13248E-01  2.47512E-01
   9.76533E-01 -1.19249E+00  1.32467E+00  1.23880E+00 -7.16157E-02  2.74848E-01 -1.21311E+00  1.35607E+00  6.66135E-01  6.79145E-01
  -3.43639E-01  1.63342E+00  1.06008E+00 -7.06702E-01  4.89542E-02 -4.94736E-02 -2.21803E-01  6.39483E-01 -1.00041E-01  1.71245E+00
   1.91404E-01 -1.22232E-01  6.56134E-01  1.38503E+00 -3.99285E-01  1.74217E+00  1.16285E-02  4.68861E-01  8.42818E-01  5.00562E-01
   8.93304E-01  1.36123E+00 -6.53970E-01  1.21124E+00 -4.11630E-01  3.44379E-01  8.18219E-01  9.81463E-01  2.21667E+00  1.21159E+00
   7.32607E-01 -3.51388E-01 -1.38564E-01  5.07821E-01 -5.73746E-01  3.10529E-01  3.57332E-01  5.33695E-01  1.87181E+00 -2.87270E-01
   2.10542E+00 -1.81556E-01  7.47141E-01  1.03492E+00 -7.79492E-02  4.16625E-01  4.88306E-01 -9.00900E-01
 NY points of the fit to the data follow
  -5.22265E-01 -5.37126E-01 -5.40615E-01 -5.06608E-01 -3.59487E-01 -1.54629E-01  1.46692E-02  1.26783E-01  1.90978E-01  2.18850E-01
   2.06346E-01  1.25418E-01 -3.84683E-02 -2.37492E-01 -3.79250E-01 -4.31817E-01 -4.46833E-01 -4.52879E-01 -4.53613E-01 -4.58790E-01
  -4.70635E-01 -4.84302E-01 -4.96153E-01 -5.03767E-01 -4.91304E-01 -4.02816E-01 -2.60387E-01 -1.32463E-01 -4.02760E-02  1.65274E-02
   4.07067E-02  3.08778E-02 -2.27633E-02 -1.26780E-01 -2.59285E-01 -3.62042E-01 -4.02881E-01 -4.12938E-01 -4.17190E-01 -4.19412E-01
  -4.25106E-01 -4.33713E-01 -4.24686E-01 -3.79225E-01 -3.15530E-01 -2.65903E-01 -2.40849E-01 -2.34272E-01 -2.40733E-01 -2.62011E-01
  -3.04079E-01 -3.63367E-01 -4.19609E-01 -4.50406E-01 -4.48412E-01 -4.24409E-01 -3.93524E-01 -3.62750E-01 -3.39058E-01 -3.26138E-01
  -3.23055E-01 -3.27634E-01 -3.37890E-01 -3.53759E-01 -3.71155E-01 -3.83204E-01 -3.86219E-01 -3.76199E-01 -3.57555E-01 -3.39199E-01
  -3.25009E-01 -3.15688E-01 -3.11076E-01 -3.10145E-01 -3.12508E-01 -3.18673E-01 -3.27609E-01 -3.34984E-01 -3.38723E-01 -3.41111E-01
  -3.42456E-01 -3.41046E-01 -3.41951E-01 -3.50365E-01 -3.65779E-01 -3.83092E-01 -3.98161E-01 -4.09039E-01 -4.15633E-01 -4.17028E-01
  -4.11196E-01 -3.95436E-01 -3.73566E-01 -3.56280E-01 -3.48202E-01 -3.48765E-01 -3.54885E-01 -3.63892E-01 -3.74896E-01 -3.86909E-01
  -3.96869E-01 -4.01250E-01 -3.99852E-01 -3.94628E-01 -3.88055E-01 -3.80957E-01 -3.73586E-01 -3.66077E-01 -3.59594E-01 -3.55200E-01
  -3.52431E-01 -3.50079E-01 -3.47605E-01 -3.45024E-01 -3.42705E-01 -3.42703E-01 -3.44565E-01 -3.46503E-01 -3.47281E-01 -3.44223E-01
  -3.26800E-01 -2.33927E-01  3.43717E-02  3.52911E-01  5.96689E-01  7.49694E-01  8.31336E-01  8.60625E-01  8.30326E-01  6.97945E-01
   4.39606E-01  1.38122E-01 -6.72246E-02 -1.55247E-01 -2.07007E-01 -2.46538E-01 -2.76236E-01 -2.89983E-01 -2.83827E-01 -2.54942E-01
  -2.12541E-01 -1.73619E-01 -1.48148E-01 -1.41148E-01 -1.51393E-01 -1.71328E-01 -1.92405E-01 -2.07784E-01 -2.16326E-01 -2.22937E-01
  -2.29502E-01 -2.35030E-01 -2.38487E-01 -2.40220E-01 -2.40115E-01 -2.38480E-01 -2.35963E-01 -2.32610E-01 -2.28865E-01 -2.26124E-01
  -2.25566E-01 -2.26630E-01 -2.26926E-01 -2.25523E-01 -2.23169E-01 -2.20543E-01 -2.17767E-01 -2.14423E-01 -2.10018E-01 -2.05028E-01
  -2.01172E-01 -1.99531E-01 -1.99573E-01 -2.00299E-01 -2.01409E-01 -2.03152E-01 -2.05765E-01 -2.08683E-01 -2.11019E-01 -2.11288E-01
  -2.13091E-01 -2.18155E-01 -2.23710E-01 -2.27826E-01 -2.27855E-01 -2.18455E-01 -1.96967E-01 -1.66186E-01 -1.33605E-01 -1.06867E-01
  -9.01063E-02 -8.70758E-02 -1.03293E-01 -1.42339E-01 -1.86474E-01 -2.18234E-01 -2.31918E-01 -2.28139E-01 -2.11174E-01 -1.85016E-01
  -1.50997E-01 -1.14234E-01 -8.72543E-02 -7.88955E-02 -8.21969E-02 -8.46920E-02 -8.40661E-02 -8.21104E-02 -7.96866E-02 -7.77798E-02
  -7.75291E-02 -7.83771E-02 -7.97853E-02 -8.12076E-02 -8.16377E-02 -8.06315E-02 -7.81998E-02 -7.39738E-02 -6.77540E-02 -6.02804E-02
  -5.30280E-02 -4.67908E-02 -4.13519E-02 -3.66334E-02 -3.27686E-02 -3.12478E-02 -3.80856E-02 -5.58043E-02 -7.32991E-02 -8.16196E-02
  -7.94801E-02 -6.71273E-02 -4.14871E-02 -1.80509E-03  3.57231E-02  5.81195E-02  6.09200E-02  4.34427E-02  1.11586E-02 -2.94925E-02
  -6.96183E-02 -9.41460E-02 -9.33489E-02 -6.62963E-02 -2.53394E-02  1.38817E-02  4.63753E-02  6.94162E-02  7.90509E-02  7.32262E-02
   5.85842E-02  4.62038E-02  4.06051E-02  3.97522E-02  4.25395E-02  4.90083E-02  5.85965E-02  6.92968E-02  7.90634E-02  8.74387E-02
   9.48767E-02  1.02064E-01  1.09163E-01  1.16267E-01  1.23192E-01  1.29600E-01  1.35628E-01  1.41605E-01  1.47834E-01  1.54595E-01
   1.61976E-01  1.70061E-01  1.78939E-01  1.88407E-01  1.98101E-01  2.07749E-01  2.17217E-01  2.26558E-01  2.35840E-01  2.45117E-01
   2.54642E-01  2.64800E-01  2.75797E-01  2.87552E-01  2.99974E-01  3.13092E-01  3.26863E-01  3.41167E-01  3.55939E-01  3.71127E-01
   3.86785E-01  4.03073E-01  4.20093E-01  4.37883E-01  4.56521E-01  4.76109E-01  4.96716E-01  5.18404E-01  5.41270E-01  5.65419E-01
   5.90945E-01  6.17957E-01  6.46583E-01  6.76978E-01  7.09314E-01  7.43775E-01  7.80562E-01  8.19902E-01  8.62049E-01  9.07278E-01
   9.55893E-01  1.00821E+00  1.06459E+00  1.12542E+00  1.19110E+00  1.26210E+00  1.33887E+00  1.42190E+00  1.51172E+00  1.60886E+00
   1.71387E+00  1.82734E+00  1.94982E+00  2.08192E+00  2.22421E+00  2.37729E+00  2.54171E+00  2.71802E+00  2.90673E+00  3.10828E+00
   3.32306E+00  3.55134E+00  3.79327E+00  4.04880E+00  4.31770E+00  4.59947E+00  4.89329E+00  5.19800E+00  5.51204E+00  5.83340E+00
   6.15965E+00  6.48784E+00  6.81461E+00  7.13615E+00  7.44829E+00  7.74656E+00  8.02634E+00  8.28293E+00  8.51175E+00  8.70845E+00
   8.86909E+00  8.99028E+00  9.06932E+00  9.10435E+00  9.09438E+00  9.03935E+00  8.94020E+00  8.79878E+00  8.61780E+00  8.40077E+00
   8.15182E+00  7.87559E+00  7.57706E+00  7.26140E+00  6.93380E+00  6.59930E+00  6.26274E+00  5.92856E+00  5.60079E+00  5.28298E+00
   4.97813E+00  4.68876E+00  4.41686E+00  4.16395E+00  3.93112E+00  3.71907E+00  3.52815E+00  3.35842E+00  3.20970E+00  3.08157E+00
   2.97344E+00  2.88453E+00  2.81388E+00  2.76039E+00  2.72274E+00  2.69945E+00  2.68887E+00  2.68913E+00  2.69819E+00  2.71385E+00
   2.73377E+00  2.75553E+00  2.77670E+00  2.79486E+00  2.80772E+00  2.81320E+00  2.80948E+00  2.79508E+00  2.76896E+00  2.73046E+00
   2.67944E+00  2.61617E+00  2.54138E+00  2.45614E+00  2.36188E+00  2.26024E+00  2.15301E+00  2.04205E+00  1.92922E+00  1.81625E+00
   1.70477E+00  1.59616E+00  1.49160E+00  1.39204E+00  1.29815E+00  1.21041E+00  1.12903E+00  1.05410E+00  9.85506E-01  9.23034E-01
   8.66375E-01  8.15153E-01  7.68957E-01  7.27358E-01  6.89930E-01  6.56257E-01  6.25949E-01  5.98639E-01  5.73993E-01  5.51710E-01
   5.31522E-01  5.13191E-01  4.96507E-01  4.81284E-01  4.67361E-01  4.54598E-01  4.42873E-01  4.32079E-01  4.22122E-01  4.12920E-01
   4.04402E-01  3.96505E-01  3.89175E-01  3.82362E-01  3.76022E-01  3.70117E-01  3.64612E-01  3.59478E-01  3.54686E-01  3.50212E-01
   3.46032E-01  3.42125E-01  3.38475E-01  3.35064E-01  3.31878E-01  3.28901E-01  3.26121E-01  3.23525E-01  3.21104E-01  3.18848E-01
   3.16747E-01  3.14791E-01  3.12974E-01  3.11287E-01  3.09725E-01  3.08281E-01  3.06949E-01  3.05723E-01  3.04598E-01  3.03569E-01
   3.02632E-01  3.01783E-01  3.01017E-01  3.00331E-01  2.99720E-01  2.99183E-01  2.98716E-01  2.98316E-01  2.97980E-01  2.97704E-01
   2.97488E-01  2.97328E-01  2.97224E-01  2.97171E-01  2.97168E-01  2.97213E-01  2.97306E-01  2.97444E-01  2.97625E-01  2.97847E-01
   2.98110E-01  2.98412E-01  2.98753E-01  2.99131E-01  2.99544E-01  2.99991E-01  3.00472E-01  3.00987E-01
 NY background values follow
    -4.473E-01   -4.458E-01   -4.443E-01   -4.429E-01   -4.414E-01   -4.399E-01   -4.384E-01   -4.369E-01   -4.355E-01   -4.340E-01
    -4.325E-01   -4.310E-01   -4.295E-01   -4.281E-01   -4.266E-01   -4.251E-01   -4.236E-01   -4.221E-01   -4.206E-01   -4.191E-01
    -4.177E-01   -4.162E-01   -4.147E-01   -4.132E-01   -4.117E-01   -4.102E-01   -4.087E-01   -4.072E-01   -4.058E-01   -4.043E-01
    -4.028E-01   -4.013E-01   -3.998E-01   -3.983E-01   -3.968E-01   -3.953E-01   -3.938E-01   -3.923E-01   -3.908E-01   -3.893E-01
    -3.878E-01   -3.863E-01   -3.849E-01   -3.834E-01   -3.819E-01   -3.804E-01   -3.789E-01   -3.774E-01   -3.759E-01   -3.744E-01
    -3.729E-01   -3.714E-01   -3.699E-01   -3.684E-01   -3.669E-01   -3.654E-01   -3.639E-01   -3.624E-01   -3.609E-01   -3.594E-01
    -3.579E-01   -3.564E-01   -3.549E-01   -3.534E-01   -3.518E-01   -3.503E-01   -3.488E-01   -3.473E-01   -3.458E-01   -3.443E-01
    -3.428E-01   -3.413E-01   -3.398E-01   -3.383E-01   -3.368E-01   -3.353E-01   -3.338E-01   -3.323E-01   -3.307E-01   -3.292E-01
    -3.277E-01   -3.262E-01   -3.247E-01   -3.232E-01   -3.217E-01   -3.202E-01   -3.187E-01   -3.171E-01   -3.156E-01   -3.141E-01
    -3.126E-01   -3.111E-01   -3.096E-01   -3.081E-01   -3.065E-01   -3.050E-01   -3.035E-01   -3.020E-01   -3.005E-01   -2.990E-01
    -2.974E-01   -2.959E-01   -2.944E-01   -2.929E-01   -2.914E-01   -2.899E-01   -2.883E-01   -2.868E-01   -2.853E-01   -2.838E-01
    -2.823E-01   -2.807E-01   -2.792E-01   -2.777E-01   -2.762E-01   -2.747E-01   -2.731E-01   -2.716E-01   -2.701E-01   -2.686E-01
    -2.670E-01   -2.655E-01   -2.640E-01   -2.625E-01   -2.609E-01   -2.594E-01   -2.579E-01   -2.564E-01   -2.548E-01   -2.533E-01
    -2.518E-01   -2.503E-01   -2.487E-01   -2.472E-01   -2.457E-01   -2.442E-01   -2.426E-01   -2.411E-01   -2.396E-01   -2.381E-01
    -2.365E-01   -2.350E-01   -2.335E-01   -2.319E-01   -2.304E-01   -2.289E-01   -2.273E-01   -2.258E-01   -2.243E-01   -2.228E-01
    -2.212E-01   -2.197E-01   -2.182E-01   -2.166E-01   -2.151E-01   -2.136E-01   -2.120E-01   -2.105E-01   -2.090E-01   -2.074E-01
    -2.059E-01   -2.044E-01   -2.028E-01   -2.013E-01   -1.998E-01   -1.982E-01   -1.967E-01   -1.952E-01   -1.936E-01   -1.921E-01
    -1.905E-01   -1.890E-01   -1.875E-01   -1.859E-01   -1.844E-01   -1.829E-01   -1.813E-01   -1.798E-01   -1.783E-01   -1.767E-01
    -1.752E-01   -1.736E-01   -1.721E-01   -1.706E-01   -1.690E-01   -1.675E-01   -1.659E-01   -1.644E-01   -1.629E-01   -1.613E-01
    -1.598E-01   -1.582E-01   -1.567E-01   -1.552E-01   -1.536E-01   -1.521E-01   -1.505E-01   -1.490E-01   -1.475E-01   -1.459E-01
    -1.444E-01   -1.428E-01   -1.413E-01   -1.398E-01   -1.382E-01   -1.367E-01   -1.351E-01   -1.336E-01   -1.320E-01   -1.305E-01
    -1.290E-01   -1.274E-01   -1.259E-01   -1.243E-01   -1.228E-01   -1.212E-01   -1.197E-01   -1.182E-01   -1.166E-01   -1.151E-01
    -1.135E-01   -1.120E-01   -1.104E-01   -1.089E-01   -1.073E-01   -1.058E-01   -1.042E-01   -1.027E-01   -1.012E-01   -9.961E-02
    -9.807E-02   -9.652E-02   -9.497E-02   -9.343E-02   -9.188E-02   -9.033E-02   -8.879E-02   -8.724E-02   -8.569E-02   -8.415E-02
    -8.260E-02   -8.105E-02   -7.951E-02   -7.796E-02   -7.641E-02   -7.486E-02   -7.332E-02   -7.177E-02   -7.022E-02   -6.867E-02
    -6.713E-02   -6.558E-02   -6.403E-02   -6.248E-02   -6.093E-02   -5.939E-02   -5.784E-02   -5.629E-02   -5.474E-02   -5.319E-02
    -5.164E-02   -5.009E-02   -4.855E-02   -4.700E-02   -4.545E-02   -4.390E-02   -4.235E-02   -4.080E-02   -3.925E-02   -3.770E-02
    -3.615E-02   -3.460E-02   -3.305E-02   -3.150E-02   -2.996E-02   -2.841E-02   -2.686E-02   -2.531E-02   -2.376E-02   -2.221E-02
    -2.066E-02   -1.911E-02   -1.756E-02   -1.601E-02   -1.446E-02   -1.291E-02   -1.136E-02   -9.808E-03   -8.258E-03   -6.708E-03
    -5.157E-03   -3.607E-03   -2.057E-03   -5.070E-04    1.043E-03    2.593E-03    4.144E-03    5.694E-03    7.244E-03    8.794E-03
     1.034E-02    1.190E-02    1.345E-02    1.500E-02    1.655E-02    1.810E-02    1.965E-02    2.120E-02    2.275E-02    2.430E-02
     2.585E-02    2.740E-02    2.895E-02    3.050E-02    3.205E-02    3.360E-02    3.515E-02    3.670E-02    3.825E-02    3.980E-02
     4.135E-02    4.290E-02    4.445E-02    4.600E-02    4.755E-02    4.910E-02    5.065E-02    5.220E-02    5.375E-02    5.530E-02
     5.685E-02    5.840E-02    5.995E-02    6.150E-02    6.305E-02    6.460E-02    6.615E-02    6.770E-02    6.925E-02    7.080E-02
     7.235E-02    7.389E-02    7.544E-02    7.699E-02    7.854E-02    8.009E-02    8.164E-02    8.319E-02    8.474E-02    8.629E-02
     8.784E-02    8.938E-02    9.093E-02    9.248E-02    9.403E-02    9.558E-02    9.713E-02    9.867E-02    1.002E-01    1.018E-01
     1.033E-01    1.049E-01    1.064E-01    1.080E-01    1.095E-01    1.111E-01    1.126E-01    1.142E-01    1.157E-01    1.172E-01
     1.188E-01    1.203E-01    1.219E-01    1.234E-01    1.250E-01    1.265E-01    1.281E-01    1.296E-01    1.312E-01    1.327E-01
     1.343E-01    1.358E-01    1.373E-01    1.389E-01    1.404E-01    1.420E-01    1.435E-01    1.451E-01    1.466E-01    1.482E-01
     1.497E-01    1.513E-01    1.528E-01    1.543E-01    1.559E-01    1.574E-01    1.590E-01    1.605E-01    1.621E-01    1.636E-01
     1.651E-01    1.667E-01    1.682E-01    1.698E-01    1.713E-01    1.729E-01    1.744E-01    1.759E-01    1.775E-01    1.790E-01
     1.806E-01    1.821E-01    1.836E-01    1.852E-01    1.867E-01    1.883E-01    1.898E-01    1.914E-01    1.929E-01    1.944E-01
     1.960E-01    1.975E-01    1.991E-01    2.006E-01    2.021E-01    2.037E-01    2.052E-01    2.067E-01    2.083E-01    2.098E-01
     2.114E-01    2.129E-01    2.144E-01    2.160E-01    2.175E-01    2.190E-01    2.206E-01    2.221E-01    2.237E-01    2.252E-01
     2.267E-01    2.283E-01    2.298E-01    2.313E-01    2.329E-01    2.344E-01    2.359E-01    2.375E-01    2.390E-01    2.405E-01
     2.421E-01    2.436E-01    2.451E-01    2.467E-01    2.482E-01    2.497E-01    2.513E-01    2.528E-01    2.543E-01    2.559E-01
     2.574E-01    2.589E-01    2.605E-01    2.620E-01    2.635E-01    2.650E-01    2.666E-01    2.681E-01    2.696E-01    2.712E-01
     2.727E-01    2.742E-01    2.757E-01    2.773E-01    2.788E-01    2.803E-01    2.819E-01    2.834E-01    2.849E-01    2.864E-01
     2.880E-01    2.895E-01    2.910E-01    2.925E-01    2.941E-01    2.956E-01    2.971E-01    2.986E-01    3.002E-01    3.017E-01
     3.032E-01    3.047E-01    3.062E-01    3.078E-01    3.093E-01    3.108E-01    3.123E-01    3.139E-01
 Asp      Conc. = 1.62E+00
