 LCModel (Version 6.3-1L) Copyright: S.W. Provencher.          Ref.: Magn. Reson. Med. 30:672-679 (1993).                
 Slice#3 Row#7 Col#13  PD_05_press_1_raw_act
 36 lines in following concentration table = NCONC+1
    Conc.  %SD /Cr+PCr  Metabolite                                         
 5.88E+03  25%  60.858 Ala                                                 
    8.758 439% 9.1E-02 Asp                                                 
    0.000 999%   0.000 Cr                                                  
   96.692  52%   1.000 PCr                                                 
    8.704 266% 9.0E-02 GABA                                                
   13.918 167%   0.144 Glc                                                 
  506.075  85%   5.234 Gln                                                 
 2.05E+03  28%  21.188 Glu                                                 
    0.000 999%   0.000 GPC                                                 
   39.711  44%   0.411 PCh                                                 
    0.000 999%   0.000 GSH                                                 
  244.418  81%   2.528 Ins                                                 
  294.261 292%   3.043 Lac                                                 
    0.000 999%   0.000 NAA                                                 
    0.000 999%   0.000 NAAG                                                
    9.362  80% 9.7E-02 Scyllo                                              
   36.945 103%   0.382 Tau                                                 
   26.659 136%   0.276 -CrCH2                                              
   39.711  44%   0.411 GPC+PCh                                             
    0.000 999%   0.000 NAA+NAAG                                            
   96.692  52%   1.000 Cr+PCr                                              
 2.55E+03  34%  26.422 Glu+Gln                                             
 3.06E+04  11% 316.132 Lip13a                                              
    0.000 999%   0.000 Lip13b                                              
 8.14E+03  14%  84.210 Lip09                                               
 2.70E+03  24%  27.917 MM09                                                
  336.435 116%   3.479-Lip20                                               
  114.930 303%   1.189 MM20                                                
  891.820  59%   9.223 MM12                                                
 1.66E+04  11% 171.364+MM14                                                
 8.99E+03  14%  92.924+MM17                                                
 3.06E+04  11% 316.132 Lip13a+Lip13b                                       
 4.80E+04   7% 496.719 MM14+Lip13a+Lip13b+MM12                             
 1.08E+04  11% 112.127 MM09+Lip09                                          
  451.365  50%   4.668 MM20+Lip20                                          
   6 lines in following misc. output table
  FWHM = 0.153 ppm    S/N =  49                                            
  Data shift = 0.183 ppm                                                   
  Ph: -42 deg     -38.9 deg/ppm                                            
  alphaB,S = 1.4E+01,   1.9E+02                                            
    6 spline knots.   Ns = 9(2)                                            
  ( 9) 2 infls.   ( 1) 1 extrs.                                            
  498 points on ppm-axis = NY
      4.000000     3.992357     3.984714     3.977070     3.969427     3.961784     3.954141     3.946497     3.938854     3.931211
      3.923568     3.915925     3.908281     3.900638     3.892995     3.885352     3.877708     3.870065     3.862422     3.854779
      3.847136     3.839492     3.831849     3.824206     3.816563     3.808919     3.801276     3.793633     3.785990     3.778347
      3.770703     3.763060     3.755417     3.747774     3.740130     3.732487     3.724844     3.717201     3.709558     3.701914
      3.694271     3.686628     3.678985     3.671341     3.663698     3.656055     3.648412     3.640769     3.633125     3.625482
      3.617839     3.610196     3.602552     3.594909     3.587266     3.579623     3.571980     3.564336     3.556693     3.549050
      3.541407     3.533763     3.526120     3.518477     3.510834     3.503191     3.495547     3.487904     3.480261     3.472618
      3.464974     3.457331     3.449688     3.442045     3.434402     3.426758     3.419115     3.411472     3.403829     3.396185
      3.388542     3.380899     3.373256     3.365613     3.357969     3.350326     3.342683     3.335040     3.327396     3.319753
      3.312110     3.304467     3.296824     3.289180     3.281537     3.273894     3.266251     3.258607     3.250964     3.243321
      3.235678     3.228034     3.220391     3.212748     3.205105     3.197462     3.189818     3.182175     3.174532     3.166889
      3.159245     3.151602     3.143959     3.136316     3.128673     3.121029     3.113386     3.105743     3.098100     3.090456
      3.082813     3.075170     3.067527     3.059884     3.052240     3.044597     3.036954     3.029311     3.021667     3.014024
      3.006381     2.998738     2.991095     2.983451     2.975808     2.968165     2.960522     2.952878     2.945235     2.937592
      2.929949     2.922306     2.914662     2.907019     2.899376     2.891733     2.884089     2.876446     2.868803     2.861160
      2.853517     2.845873     2.838230     2.830587     2.822944     2.815300     2.807657     2.800014     2.792371     2.784728
      2.777084     2.769441     2.761798     2.754155     2.746511     2.738868     2.731225     2.723582     2.715939     2.708295
      2.700652     2.693009     2.685366     2.677722     2.670079     2.662436     2.654793     2.647150     2.639506     2.631863
      2.624220     2.616577     2.608933     2.601290     2.593647     2.586004     2.578361     2.570717     2.563074     2.555431
      2.547788     2.540144     2.532501     2.524858     2.517215     2.509572     2.501928     2.494285     2.486642     2.478999
      2.471355     2.463712     2.456069     2.448426     2.440783     2.433139     2.425496     2.417853     2.410210     2.402566
      2.394923     2.387280     2.379637     2.371994     2.364350     2.356707     2.349064     2.341421     2.333777     2.326134
      2.318491     2.310848     2.303205     2.295561     2.287918     2.280275     2.272632     2.264988     2.257345     2.249702
      2.242059     2.234416     2.226772     2.219129     2.211486     2.203843     2.196199     2.188556     2.180913     2.173270
      2.165627     2.157983     2.150340     2.142697     2.135054     2.127410     2.119767     2.112124     2.104481     2.096838
      2.089194     2.081551     2.073908     2.066265     2.058621     2.050978     2.043335     2.035692     2.028049     2.020405
      2.012762     2.005119     1.997476     1.989833     1.982190     1.974546     1.966903     1.959260     1.951617     1.943974
      1.936331     1.928688     1.921045     1.913402     1.905759     1.898115     1.890472     1.882829     1.875186     1.867543
      1.859900     1.852257     1.844614     1.836971     1.829327     1.821684     1.814041     1.806398     1.798755     1.791112
      1.783469     1.775826     1.768183     1.760540     1.752896     1.745253     1.737610     1.729967     1.722324     1.714681
      1.707038     1.699395     1.691752     1.684108     1.676465     1.668822     1.661179     1.653536     1.645893     1.638250
      1.630607     1.622964     1.615321     1.607677     1.600034     1.592391     1.584748     1.577105     1.569462     1.561819
      1.554176     1.546533     1.538890     1.531246     1.523603     1.515960     1.508317     1.500674     1.493031     1.485388
      1.477745     1.470102     1.462458     1.454815     1.447172     1.439529     1.431886     1.424243     1.416600     1.408957
      1.401314     1.393671     1.386027     1.378384     1.370741     1.363098     1.355455     1.347812     1.340169     1.332526
      1.324883     1.317240     1.309596     1.301953     1.294310     1.286667     1.279024     1.271381     1.263738     1.256095
      1.248452     1.240808     1.233165     1.225522     1.217879     1.210236     1.202593     1.194950     1.187307     1.179664
      1.172021     1.164377     1.156734     1.149091     1.141448     1.133805     1.126162     1.118519     1.110876     1.103233
      1.095590     1.087946     1.080303     1.072660     1.065017     1.057374     1.049731     1.042088     1.034445     1.026802
      1.019158     1.011515     1.003872     0.996229     0.988586     0.980943     0.973300     0.965657     0.958014     0.950371
      0.942727     0.935084     0.927441     0.919798     0.912155     0.904512     0.896869     0.889226     0.881583     0.873940
      0.866296     0.858653     0.851010     0.843367     0.835724     0.828081     0.820438     0.812795     0.805152     0.797508
      0.789865     0.782222     0.774579     0.766936     0.759293     0.751650     0.744007     0.736364     0.728721     0.721077
      0.713434     0.705791     0.698148     0.690505     0.682862     0.675219     0.667576     0.659933     0.652290     0.644646
      0.637003     0.629360     0.621717     0.614074     0.606431     0.598788     0.591145     0.583502     0.575858     0.568215
      0.560572     0.552929     0.545286     0.537643     0.530000     0.522357     0.514714     0.507071     0.499427     0.491784
      0.484141     0.476498     0.468855     0.461212     0.453569     0.445925     0.438282     0.430639     0.422996     0.415353
      0.407710     0.400067     0.392424     0.384780     0.377137     0.369494     0.361851     0.354208     0.346565     0.338922
      0.331278     0.323635     0.315992     0.308349     0.300706     0.293063     0.285420     0.277777     0.270133     0.262490
      0.254847     0.247204     0.239561     0.231918     0.224275     0.216631     0.208988     0.201345
 NY phased data points follow
   1.45850E+01  1.53624E+01  1.50891E+01  1.70172E+01  1.53387E+01  1.74452E+01  1.62992E+01  1.50037E+01  1.57954E+01  1.40069E+01
   1.68838E+01  1.50764E+01  1.41993E+01  1.54307E+01  1.59800E+01  1.57184E+01  1.65000E+01  1.55330E+01  1.69058E+01  1.59382E+01
   1.60887E+01  1.56753E+01  1.41048E+01  1.61367E+01  1.66190E+01  1.50413E+01  1.49182E+01  1.46673E+01  1.60648E+01  1.67701E+01
   1.51665E+01  1.59531E+01  1.62881E+01  1.68027E+01  1.48815E+01  1.55363E+01  1.70640E+01  1.53321E+01  1.54182E+01  1.44417E+01
   1.40337E+01  1.59097E+01  1.50494E+01  1.56223E+01  1.50133E+01  1.71917E+01  1.62450E+01  1.46897E+01  1.50338E+01  1.53303E+01
   1.48866E+01  1.69350E+01  1.47716E+01  1.56338E+01  1.57851E+01  1.57641E+01  1.46859E+01  1.58236E+01  1.57447E+01  1.50454E+01
   1.38380E+01  1.41408E+01  1.64447E+01  1.42297E+01  1.53832E+01  1.49478E+01  1.55820E+01  1.49661E+01  1.45948E+01  1.55941E+01
   1.57934E+01  1.45572E+01  1.59879E+01  1.48183E+01  1.33978E+01  1.32853E+01  1.58431E+01  1.66476E+01  1.46849E+01  1.69059E+01
   1.52356E+01  1.70189E+01  1.48301E+01  1.32550E+01  1.42748E+01  1.43296E+01  1.41172E+01  1.38462E+01  1.46074E+01  1.53324E+01
   1.55699E+01  1.51933E+01  1.56155E+01  1.30100E+01  1.39931E+01  1.41608E+01  1.26579E+01  1.34152E+01  1.20417E+01  1.30300E+01
   1.58400E+01  1.41322E+01  1.56729E+01  1.65426E+01  1.49062E+01  1.45458E+01  1.36968E+01  1.29549E+01  1.28542E+01  1.42827E+01
   1.41261E+01  1.50834E+01  1.51691E+01  1.44855E+01  1.35953E+01  1.14738E+01  1.35860E+01  1.28062E+01  1.39370E+01  1.32826E+01
   1.40769E+01  1.40044E+01  1.39454E+01  1.38384E+01  1.38894E+01  1.42962E+01  1.47438E+01  1.31383E+01  1.47938E+01  1.33632E+01
   1.22398E+01  1.36337E+01  1.17676E+01  1.36370E+01  1.38704E+01  1.39095E+01  1.44382E+01  1.36762E+01  1.22173E+01  1.20570E+01
   1.34582E+01  1.17144E+01  1.25211E+01  1.32030E+01  1.35529E+01  1.21184E+01  1.26795E+01  1.24265E+01  1.30565E+01  1.37712E+01
   1.40737E+01  1.37698E+01  1.28322E+01  1.35558E+01  1.24388E+01  1.23463E+01  1.26921E+01  1.25102E+01  1.19313E+01  1.21323E+01
   1.24569E+01  1.28288E+01  1.19146E+01  1.23375E+01  1.14182E+01  1.25219E+01  1.34399E+01  1.36432E+01  1.17472E+01  1.13333E+01
   1.10319E+01  1.14408E+01  1.24716E+01  1.32376E+01  1.26494E+01  1.33432E+01  1.33037E+01  1.40095E+01  1.28236E+01  1.38295E+01
   1.19811E+01  1.35739E+01  1.37603E+01  1.25593E+01  1.30842E+01  1.25626E+01  1.41951E+01  1.22029E+01  1.40050E+01  1.37704E+01
   1.56379E+01  1.34988E+01  1.30148E+01  1.38969E+01  1.40397E+01  1.46009E+01  1.44505E+01  1.29893E+01  1.32166E+01  1.32932E+01
   1.28125E+01  1.37673E+01  1.47078E+01  1.45681E+01  1.44073E+01  1.36231E+01  1.35724E+01  1.33875E+01  1.56179E+01  1.52221E+01
   1.35843E+01  1.57764E+01  1.52605E+01  1.42452E+01  1.35663E+01  1.32130E+01  1.57786E+01  1.57202E+01  1.42545E+01  1.47884E+01
   1.51478E+01  1.48655E+01  1.52561E+01  1.64991E+01  1.63740E+01  1.61820E+01  1.65207E+01  1.66363E+01  1.54261E+01  1.61094E+01
   1.64180E+01  1.79292E+01  1.74059E+01  1.91464E+01  1.97039E+01  2.06639E+01  2.30507E+01  2.27610E+01  2.22470E+01  2.19886E+01
   1.84668E+01  1.87647E+01  1.91152E+01  1.93916E+01  2.03653E+01  2.04019E+01  2.14581E+01  2.25823E+01  2.23759E+01  2.37148E+01
   2.24676E+01  2.35690E+01  2.26872E+01  2.42885E+01  2.41782E+01  2.52894E+01  2.44314E+01  2.56537E+01  2.38464E+01  2.54562E+01
   2.58015E+01  2.71655E+01  2.75388E+01  2.72791E+01  2.71310E+01  2.83746E+01  2.85811E+01  3.06263E+01  3.09780E+01  2.90354E+01
   3.13348E+01  3.27976E+01  3.41202E+01  3.47537E+01  3.43732E+01  3.63206E+01  3.52161E+01  3.63844E+01  3.71760E+01  3.93578E+01
   4.05216E+01  4.20032E+01  4.22499E+01  4.36190E+01  4.32607E+01  4.54682E+01  4.62555E+01  4.89617E+01  4.79851E+01  4.99392E+01
   5.23209E+01  5.43153E+01  5.63514E+01  5.73110E+01  5.79695E+01  5.85278E+01  6.41825E+01  6.30631E+01  6.68407E+01  6.67128E+01
   6.95962E+01  7.08678E+01  7.31820E+01  7.69257E+01  7.92292E+01  8.13970E+01  8.33113E+01  8.78340E+01  8.92338E+01  9.18773E+01
   9.43080E+01  1.00242E+02  1.03805E+02  1.06372E+02  1.12136E+02  1.16347E+02  1.22493E+02  1.25169E+02  1.28865E+02  1.36334E+02
   1.39948E+02  1.43377E+02  1.47368E+02  1.51977E+02  1.55056E+02  1.58089E+02  1.58571E+02  1.62787E+02  1.64338E+02  1.67717E+02
   1.70658E+02  1.70057E+02  1.70540E+02  1.70983E+02  1.69142E+02  1.69909E+02  1.69699E+02  1.67072E+02  1.63697E+02  1.61260E+02
   1.60399E+02  1.57668E+02  1.53976E+02  1.50651E+02  1.47836E+02  1.44324E+02  1.41265E+02  1.37508E+02  1.33703E+02  1.30328E+02
   1.27782E+02  1.24847E+02  1.22131E+02  1.17726E+02  1.16072E+02  1.16143E+02  1.13471E+02  1.11631E+02  1.09568E+02  1.07344E+02
   1.06305E+02  1.06868E+02  1.04533E+02  1.00752E+02  1.01524E+02  9.97473E+01  9.94549E+01  9.72824E+01  9.62425E+01  9.53975E+01
   9.56176E+01  9.29219E+01  9.38869E+01  9.38909E+01  9.16476E+01  9.13341E+01  9.06293E+01  9.07613E+01  8.78291E+01  8.80073E+01
   8.64469E+01  8.71960E+01  8.55647E+01  8.57913E+01  8.36498E+01  8.31701E+01  8.22750E+01  8.17653E+01  7.92687E+01  8.06448E+01
   7.93201E+01  7.83167E+01  7.80385E+01  7.45776E+01  7.59970E+01  7.29119E+01  7.15732E+01  7.09147E+01  7.22729E+01  6.94898E+01
   6.93346E+01  6.94473E+01  6.67668E+01  6.73377E+01  6.68484E+01  6.58012E+01  6.38818E+01  6.44596E+01  6.20079E+01  6.34776E+01
   6.19125E+01  6.24404E+01  5.94622E+01  6.06728E+01  5.91046E+01  5.87170E+01  5.77610E+01  5.77896E+01  5.57870E+01  5.40715E+01
   5.51729E+01  5.43748E+01  5.31506E+01  5.28908E+01  5.25371E+01  5.28555E+01  5.19122E+01  5.14114E+01  5.14774E+01  5.08866E+01
   5.01347E+01  5.00906E+01  4.89112E+01  4.82693E+01  4.84737E+01  4.74178E+01  4.63996E+01  4.51871E+01  4.57352E+01  4.56373E+01
   4.58516E+01  4.48203E+01  4.42145E+01  4.32036E+01  4.27330E+01  4.24119E+01  4.27171E+01  4.35173E+01  4.31203E+01  4.12467E+01
   4.15307E+01  4.08244E+01  3.98423E+01  4.07199E+01  4.04680E+01  3.99891E+01  3.86102E+01  3.86963E+01  3.86811E+01  3.95210E+01
   3.84837E+01  3.75261E+01  3.77682E+01  3.64441E+01  3.81176E+01  3.61878E+01  3.68569E+01  3.51991E+01  3.50912E+01  3.56342E+01
   3.47957E+01  3.36234E+01  3.66951E+01  3.49059E+01  3.43093E+01  3.51802E+01  3.19648E+01  3.18837E+01  3.17062E+01  3.30801E+01
   3.17311E+01  3.33879E+01  3.15998E+01  3.27124E+01  3.10490E+01  3.06519E+01  3.06454E+01  2.95623E+01  2.86209E+01  3.15240E+01
   3.04753E+01  2.89003E+01  2.96727E+01  2.88535E+01  2.94203E+01  2.89173E+01  2.90005E+01  2.83920E+01
 NY points of the fit to the data follow
   1.54581E+01  1.55109E+01  1.54247E+01  1.54899E+01  1.54579E+01  1.55687E+01  1.56403E+01  1.59509E+01  1.59035E+01  1.62007E+01
   1.59031E+01  1.62319E+01  1.58062E+01  1.62813E+01  1.57053E+01  1.64641E+01  1.58591E+01  1.67766E+01  1.59137E+01  1.66986E+01
   1.55337E+01  1.63087E+01  1.51076E+01  1.58961E+01  1.48599E+01  1.56907E+01  1.49327E+01  1.57074E+01  1.52213E+01  1.58032E+01
   1.55196E+01  1.58117E+01  1.57591E+01  1.57984E+01  1.59388E+01  1.57045E+01  1.60124E+01  1.56589E+01  1.62270E+01  1.57958E+01
   1.64282E+01  1.59777E+01  1.66046E+01  1.60977E+01  1.65485E+01  1.58962E+01  1.61892E+01  1.56512E+01  1.58543E+01  1.54157E+01
   1.55803E+01  1.52918E+01  1.54343E+01  1.52219E+01  1.52906E+01  1.51821E+01  1.52449E+01  1.51657E+01  1.51852E+01  1.50982E+01
   1.50918E+01  1.50168E+01  1.49983E+01  1.49241E+01  1.49175E+01  1.48495E+01  1.48486E+01  1.47819E+01  1.47856E+01  1.47151E+01
   1.47187E+01  1.46346E+01  1.46285E+01  1.45373E+01  1.45336E+01  1.44371E+01  1.44348E+01  1.43310E+01  1.43315E+01  1.42175E+01
   1.42154E+01  1.40939E+01  1.40865E+01  1.39686E+01  1.39694E+01  1.39073E+01  1.39405E+01  1.38955E+01  1.39467E+01  1.39077E+01
   1.39816E+01  1.39746E+01  1.40791E+01  1.40798E+01  1.42173E+01  1.42200E+01  1.43862E+01  1.43493E+01  1.45225E+01  1.44248E+01
   1.45938E+01  1.44408E+01  1.45937E+01  1.43846E+01  1.45106E+01  1.42542E+01  1.43480E+01  1.40769E+01  1.41554E+01  1.39161E+01
   1.39717E+01  1.37718E+01  1.38061E+01  1.36403E+01  1.36566E+01  1.35556E+01  1.35585E+01  1.35413E+01  1.35471E+01  1.36077E+01
   1.36106E+01  1.37029E+01  1.36901E+01  1.37644E+01  1.37304E+01  1.37930E+01  1.37439E+01  1.37652E+01  1.36958E+01  1.36728E+01
   1.35904E+01  1.35390E+01  1.34472E+01  1.33599E+01  1.32673E+01  1.31724E+01  1.30863E+01  1.29850E+01  1.29069E+01  1.28014E+01
   1.27413E+01  1.26656E+01  1.26284E+01  1.25830E+01  1.25657E+01  1.25468E+01  1.25414E+01  1.25320E+01  1.25359E+01  1.25462E+01
   1.25549E+01  1.25666E+01  1.25750E+01  1.25866E+01  1.25942E+01  1.26052E+01  1.26114E+01  1.26219E+01  1.26267E+01  1.26364E+01
   1.26400E+01  1.26489E+01  1.26517E+01  1.26600E+01  1.26627E+01  1.26711E+01  1.26750E+01  1.26843E+01  1.26896E+01  1.27004E+01
   1.27087E+01  1.27216E+01  1.27344E+01  1.27501E+01  1.27681E+01  1.27857E+01  1.28029E+01  1.28236E+01  1.28317E+01  1.28550E+01
   1.28610E+01  1.28906E+01  1.28968E+01  1.29524E+01  1.29705E+01  1.30553E+01  1.30829E+01  1.32150E+01  1.32531E+01  1.34028E+01
   1.34499E+01  1.35874E+01  1.35581E+01  1.37387E+01  1.36837E+01  1.39163E+01  1.38855E+01  1.42067E+01  1.42706E+01  1.45716E+01
   1.46445E+01  1.48645E+01  1.49046E+01  1.50513E+01  1.50935E+01  1.51182E+01  1.53156E+01  1.52810E+01  1.56449E+01  1.54759E+01
   1.58344E+01  1.54652E+01  1.58029E+01  1.53038E+01  1.55854E+01  1.50714E+01  1.54023E+01  1.49979E+01  1.53461E+01  1.51551E+01
   1.55262E+01  1.55262E+01  1.58690E+01  1.60510E+01  1.63191E+01  1.65872E+01  1.67639E+01  1.71317E+01  1.72597E+01  1.77517E+01
   1.79113E+01  1.83966E+01  1.86056E+01  1.90274E+01  1.93141E+01  1.95739E+01  1.98864E+01  1.99711E+01  2.03529E+01  2.02565E+01
   2.06382E+01  2.04591E+01  2.09115E+01  2.07489E+01  2.12192E+01  2.11263E+01  2.16375E+01  2.16412E+01  2.21500E+01  2.22817E+01
   2.27203E+01  2.29742E+01  2.33735E+01  2.37461E+01  2.40755E+01  2.45759E+01  2.48489E+01  2.54178E+01  2.56349E+01  2.62459E+01
   2.64266E+01  2.70639E+01  2.72488E+01  2.79004E+01  2.81062E+01  2.87438E+01  2.89967E+01  2.96445E+01  2.99710E+01  3.06376E+01
   3.10615E+01  3.17647E+01  3.22733E+01  3.30059E+01  3.36167E+01  3.44156E+01  3.51432E+01  3.60348E+01  3.69076E+01  3.78932E+01
   3.88979E+01  3.99924E+01  4.11445E+01  4.23612E+01  4.36496E+01  4.49892E+01  4.64061E+01  4.78605E+01  4.93909E+01  5.09562E+01
   5.25840E+01  5.42410E+01  5.59439E+01  5.76643E+01  5.94099E+01  6.11671E+01  6.29352E+01  6.47085E+01  6.64861E+01  6.82728E+01
   7.00738E+01  7.19041E+01  7.37780E+01  7.57262E+01  7.77804E+01  7.99921E+01  8.24276E+01  8.52022E+01  8.85279E+01  9.24341E+01
   9.58497E+01  1.00085E+02  1.03488E+02  1.08054E+02  1.11703E+02  1.16781E+02  1.20046E+02  1.26049E+02  1.29619E+02  1.36093E+02
   1.39121E+02  1.44839E+02  1.46863E+02  1.51974E+02  1.53681E+02  1.58118E+02  1.59505E+02  1.63308E+02  1.64768E+02  1.67573E+02
   1.68934E+02  1.70304E+02  1.70967E+02  1.70676E+02  1.70940E+02  1.69376E+02  1.68941E+02  1.66061E+02  1.64910E+02  1.61303E+02
   1.60044E+02  1.56110E+02  1.54285E+02  1.50355E+02  1.48152E+02  1.44268E+02  1.41523E+02  1.37446E+02  1.34279E+02  1.30790E+02
   1.27534E+02  1.24560E+02  1.21563E+02  1.19266E+02  1.16747E+02  1.14836E+02  1.12589E+02  1.11179E+02  1.09400E+02  1.08213E+02
   1.06691E+02  1.05582E+02  1.04196E+02  1.03109E+02  1.01806E+02  1.00706E+02  9.94558E+01  9.83171E+01  9.71390E+01  9.60425E+01
   9.49462E+01  9.39166E+01  9.29282E+01  9.20049E+01  9.11327E+01  9.03070E+01  8.95420E+01  8.88270E+01  8.81505E+01  8.75036E+01
   8.68742E+01  8.62524E+01  8.56255E+01  8.49837E+01  8.43157E+01  8.36137E+01  8.28698E+01  8.20801E+01  8.12410E+01  8.03536E+01
   7.94192E+01  7.84433E+01  7.74313E+01  7.63922E+01  7.53338E+01  7.42669E+01  7.31998E+01  7.21429E+01  7.11037E+01  7.00907E+01
   6.91090E+01  6.81644E+01  6.72590E+01  6.63960E+01  6.55745E+01  6.47949E+01  6.40544E+01  6.33515E+01  6.26818E+01  6.20426E+01
   6.14290E+01  6.08380E+01  6.02644E+01  5.97057E+01  5.91571E+01  5.86166E+01  5.80801E+01  5.75465E+01  5.70125E+01  5.64776E+01
   5.59396E+01  5.53988E+01  5.48534E+01  5.43046E+01  5.37511E+01  5.31946E+01  5.26343E+01  5.20721E+01  5.15078E+01  5.09433E+01
   5.03785E+01  4.98156E+01  4.92545E+01  4.86973E+01  4.81439E+01  4.75964E+01  4.70545E+01  4.65203E+01  4.59934E+01  4.54756E+01
   4.49663E+01  4.44673E+01  4.39779E+01  4.34995E+01  4.30313E+01  4.25748E+01  4.21288E+01  4.16948E+01  4.12714E+01  4.08599E+01
   4.04591E+01  4.00700E+01  3.96912E+01  3.93239E+01  3.89666E+01  3.86203E+01  3.82835E+01  3.79572E+01  3.76399E+01  3.73325E+01
   3.70336E+01  3.67440E+01  3.64622E+01  3.61892E+01  3.59234E+01  3.56658E+01  3.54149E+01  3.51715E+01  3.49342E+01  3.47040E+01
   3.44793E+01  3.42612E+01  3.40480E+01  3.38409E+01  3.36383E+01  3.34413E+01  3.32484E+01  3.30605E+01  3.28764E+01  3.26969E+01
   3.25207E+01  3.23488E+01  3.21798E+01  3.20148E+01  3.18523E+01  3.16935E+01  3.15369E+01  3.13837E+01  3.12325E+01  3.10843E+01
   3.09378E+01  3.07942E+01  3.06521E+01  3.05126E+01  3.03744E+01  3.02387E+01  3.01041E+01  2.99718E+01
 NY background values follow
     1.345E+01    1.348E+01    1.351E+01    1.353E+01    1.355E+01    1.358E+01    1.360E+01    1.362E+01    1.363E+01    1.365E+01
     1.367E+01    1.368E+01    1.370E+01    1.371E+01    1.372E+01    1.373E+01    1.374E+01    1.374E+01    1.375E+01    1.376E+01
     1.376E+01    1.376E+01    1.377E+01    1.377E+01    1.377E+01    1.377E+01    1.376E+01    1.376E+01    1.376E+01    1.375E+01
     1.375E+01    1.374E+01    1.373E+01    1.372E+01    1.371E+01    1.370E+01    1.369E+01    1.368E+01    1.367E+01    1.365E+01
     1.364E+01    1.362E+01    1.361E+01    1.359E+01    1.357E+01    1.356E+01    1.354E+01    1.352E+01    1.350E+01    1.348E+01
     1.345E+01    1.343E+01    1.341E+01    1.339E+01    1.336E+01    1.334E+01    1.331E+01    1.329E+01    1.326E+01    1.323E+01
     1.320E+01    1.318E+01    1.315E+01    1.312E+01    1.309E+01    1.306E+01    1.303E+01    1.300E+01    1.297E+01    1.294E+01
     1.290E+01    1.287E+01    1.284E+01    1.281E+01    1.277E+01    1.274E+01    1.271E+01    1.267E+01    1.264E+01    1.260E+01
     1.257E+01    1.253E+01    1.250E+01    1.246E+01    1.243E+01    1.239E+01    1.236E+01    1.232E+01    1.228E+01    1.225E+01
     1.221E+01    1.217E+01    1.214E+01    1.210E+01    1.206E+01    1.203E+01    1.199E+01    1.196E+01    1.192E+01    1.188E+01
     1.185E+01    1.181E+01    1.177E+01    1.174E+01    1.170E+01    1.166E+01    1.163E+01    1.159E+01    1.156E+01    1.152E+01
     1.149E+01    1.145E+01    1.142E+01    1.138E+01    1.135E+01    1.131E+01    1.128E+01    1.125E+01    1.121E+01    1.118E+01
     1.115E+01    1.112E+01    1.109E+01    1.105E+01    1.102E+01    1.099E+01    1.096E+01    1.093E+01    1.090E+01    1.088E+01
     1.085E+01    1.082E+01    1.079E+01    1.077E+01    1.074E+01    1.071E+01    1.069E+01    1.066E+01    1.064E+01    1.062E+01
     1.059E+01    1.057E+01    1.055E+01    1.053E+01    1.051E+01    1.049E+01    1.047E+01    1.045E+01    1.044E+01    1.042E+01
     1.041E+01    1.039E+01    1.038E+01    1.036E+01    1.035E+01    1.034E+01    1.033E+01    1.032E+01    1.031E+01    1.030E+01
     1.029E+01    1.029E+01    1.028E+01    1.028E+01    1.027E+01    1.027E+01    1.027E+01    1.027E+01    1.027E+01    1.027E+01
     1.028E+01    1.028E+01    1.028E+01    1.029E+01    1.029E+01    1.030E+01    1.031E+01    1.032E+01    1.033E+01    1.034E+01
     1.035E+01    1.037E+01    1.038E+01    1.039E+01    1.041E+01    1.043E+01    1.044E+01    1.046E+01    1.048E+01    1.050E+01
     1.052E+01    1.054E+01    1.056E+01    1.059E+01    1.061E+01    1.064E+01    1.066E+01    1.069E+01    1.072E+01    1.074E+01
     1.077E+01    1.080E+01    1.083E+01    1.086E+01    1.090E+01    1.093E+01    1.096E+01    1.100E+01    1.103E+01    1.107E+01
     1.110E+01    1.114E+01    1.118E+01    1.122E+01    1.125E+01    1.129E+01    1.133E+01    1.138E+01    1.142E+01    1.146E+01
     1.150E+01    1.155E+01    1.159E+01    1.164E+01    1.168E+01    1.173E+01    1.177E+01    1.182E+01    1.187E+01    1.192E+01
     1.197E+01    1.202E+01    1.207E+01    1.212E+01    1.217E+01    1.222E+01    1.227E+01    1.233E+01    1.238E+01    1.243E+01
     1.249E+01    1.254E+01    1.260E+01    1.265E+01    1.271E+01    1.277E+01    1.282E+01    1.288E+01    1.294E+01    1.300E+01
     1.306E+01    1.312E+01    1.318E+01    1.324E+01    1.330E+01    1.336E+01    1.342E+01    1.349E+01    1.355E+01    1.361E+01
     1.367E+01    1.374E+01    1.380E+01    1.387E+01    1.393E+01    1.400E+01    1.406E+01    1.413E+01    1.419E+01    1.426E+01
     1.433E+01    1.439E+01    1.446E+01    1.453E+01    1.460E+01    1.467E+01    1.473E+01    1.480E+01    1.487E+01    1.494E+01
     1.501E+01    1.508E+01    1.515E+01    1.522E+01    1.529E+01    1.536E+01    1.543E+01    1.550E+01    1.557E+01    1.565E+01
     1.572E+01    1.579E+01    1.586E+01    1.593E+01    1.600E+01    1.608E+01    1.615E+01    1.622E+01    1.629E+01    1.637E+01
     1.644E+01    1.651E+01    1.659E+01    1.666E+01    1.673E+01    1.681E+01    1.688E+01    1.695E+01    1.703E+01    1.710E+01
     1.717E+01    1.725E+01    1.732E+01    1.740E+01    1.747E+01    1.754E+01    1.762E+01    1.769E+01    1.776E+01    1.784E+01
     1.791E+01    1.799E+01    1.806E+01    1.813E+01    1.821E+01    1.828E+01    1.835E+01    1.843E+01    1.850E+01    1.857E+01
     1.865E+01    1.872E+01    1.879E+01    1.887E+01    1.894E+01    1.901E+01    1.908E+01    1.916E+01    1.923E+01    1.930E+01
     1.937E+01    1.944E+01    1.952E+01    1.959E+01    1.966E+01    1.973E+01    1.980E+01    1.987E+01    1.994E+01    2.001E+01
     2.008E+01    2.015E+01    2.022E+01    2.029E+01    2.036E+01    2.043E+01    2.050E+01    2.056E+01    2.063E+01    2.070E+01
     2.077E+01    2.083E+01    2.090E+01    2.097E+01    2.103E+01    2.110E+01    2.116E+01    2.123E+01    2.129E+01    2.136E+01
     2.142E+01    2.149E+01    2.155E+01    2.161E+01    2.168E+01    2.174E+01    2.180E+01    2.186E+01    2.192E+01    2.198E+01
     2.204E+01    2.210E+01    2.216E+01    2.222E+01    2.228E+01    2.234E+01    2.239E+01    2.245E+01    2.251E+01    2.256E+01
     2.262E+01    2.267E+01    2.273E+01    2.278E+01    2.284E+01    2.289E+01    2.294E+01    2.299E+01    2.305E+01    2.310E+01
     2.315E+01    2.320E+01    2.325E+01    2.329E+01    2.334E+01    2.339E+01    2.344E+01    2.348E+01    2.353E+01    2.357E+01
     2.362E+01    2.366E+01    2.370E+01    2.375E+01    2.379E+01    2.383E+01    2.387E+01    2.391E+01    2.395E+01    2.399E+01
     2.403E+01    2.406E+01    2.410E+01    2.413E+01    2.417E+01    2.420E+01    2.424E+01    2.427E+01    2.430E+01    2.433E+01
     2.436E+01    2.439E+01    2.442E+01    2.445E+01    2.448E+01    2.450E+01    2.453E+01    2.456E+01    2.458E+01    2.460E+01
     2.463E+01    2.465E+01    2.467E+01    2.469E+01    2.471E+01    2.473E+01    2.474E+01    2.476E+01    2.478E+01    2.479E+01
     2.481E+01    2.482E+01    2.483E+01    2.484E+01    2.485E+01    2.486E+01    2.487E+01    2.488E+01    2.488E+01    2.489E+01
     2.490E+01    2.490E+01    2.490E+01    2.490E+01    2.490E+01    2.490E+01    2.490E+01    2.490E+01    2.490E+01    2.489E+01
     2.489E+01    2.488E+01    2.488E+01    2.487E+01    2.486E+01    2.485E+01    2.484E+01    2.482E+01    2.481E+01    2.480E+01
     2.478E+01    2.476E+01    2.475E+01    2.473E+01    2.471E+01    2.468E+01    2.466E+01    2.464E+01    2.461E+01    2.459E+01
     2.456E+01    2.453E+01    2.450E+01    2.447E+01    2.444E+01    2.441E+01    2.438E+01    2.434E+01
 Ala      Conc. = 5.88E+03
