 LCModel (Version 6.3-1L) Copyright: S.W. Provencher.          Ref.: Magn. Reson. Med. 30:672-679 (1993).                
 Slice#1 Row#5 Col#4  PD_05_press_1_raw_act
 36 lines in following concentration table = NCONC+1
    Conc.  %SD /Cr+PCr  Metabolite                                         
  425.398  36%   0.444 Ala                                                 
  129.163 151%   0.135 Asp                                                 
    0.000 999%   0.000 Cr                                                  
  958.404   6%   1.000 PCr                                                 
   31.054 454% 3.2E-02 GABA                                                
   17.729 752% 1.8E-02 Glc                                                 
  922.549  37%   0.963 Gln                                                 
 1.03E+03  38%   1.071 Glu                                                 
  387.583   6%   0.404 GPC                                                 
    0.000 999%   0.000 PCh                                                 
  243.858  34%   0.254 GSH                                                 
 1.02E+03  26%   1.068 Ins                                                 
    0.000 999%   0.000 Lac                                                 
 2.15E+03   3%   2.238 NAA                                                 
    0.000 999%   0.000 NAAG                                                
  143.937  19%   0.150 Scyllo                                              
  468.086  39%   0.488 Tau                                                 
  577.621  18%   0.603 -CrCH2                                              
  387.583   6%   0.404 GPC+PCh                                             
 2.15E+03   3%   2.238 NAA+NAAG                                            
  958.404   6%   1.000 Cr+PCr                                              
 1.95E+03  32%   2.034 Glu+Gln                                             
 1.58E+03  22%   1.649 Lip13a                                              
    0.000 999%   0.000 Lip13b                                              
    0.000 999%   0.000 Lip09                                               
  751.313  18%   0.784 MM09                                                
  345.653  40%   0.361 Lip20                                               
 1.76E+03  15%   1.834 MM20                                                
  247.503  34%   0.258 MM12                                                
 1.17E+03  21%   1.222 MM14                                                
  486.767  33%   0.508 MM17                                                
 1.58E+03  22%   1.649 Lip13a+Lip13b                                       
 3.00E+03  11%   3.128 MM14+Lip13a+Lip13b+MM12                             
  751.313  18%   0.784 MM09+Lip09                                          
 2.10E+03  13%   2.194 MM20+Lip20                                          
   6 lines in following misc. output table
  FWHM = 0.084 ppm    S/N =  10                                            
  Data shift = 0.015 ppm                                                   
  Ph: -79 deg     -21.9 deg/ppm                                            
  alphaB,S = 1.2E+00,   5.5E+01                                            
   14 spline knots.   Ns =10(1)                                            
  (15) 5 infls.   (13) 3 extrs.                                            
  498 points on ppm-axis = NY
      4.000000     3.992357     3.984714     3.977070     3.969427     3.961784     3.954141     3.946497     3.938854     3.931211
      3.923568     3.915925     3.908281     3.900638     3.892995     3.885352     3.877708     3.870065     3.862422     3.854779
      3.847136     3.839492     3.831849     3.824206     3.816563     3.808919     3.801276     3.793633     3.785990     3.778347
      3.770703     3.763060     3.755417     3.747774     3.740130     3.732487     3.724844     3.717201     3.709558     3.701914
      3.694271     3.686628     3.678985     3.671341     3.663698     3.656055     3.648412     3.640769     3.633125     3.625482
      3.617839     3.610196     3.602552     3.594909     3.587266     3.579623     3.571980     3.564336     3.556693     3.549050
      3.541407     3.533763     3.526120     3.518477     3.510834     3.503191     3.495547     3.487904     3.480261     3.472618
      3.464974     3.457331     3.449688     3.442045     3.434402     3.426758     3.419115     3.411472     3.403829     3.396185
      3.388542     3.380899     3.373256     3.365613     3.357969     3.350326     3.342683     3.335040     3.327396     3.319753
      3.312110     3.304467     3.296824     3.289180     3.281537     3.273894     3.266251     3.258607     3.250964     3.243321
      3.235678     3.228034     3.220391     3.212748     3.205105     3.197462     3.189818     3.182175     3.174532     3.166889
      3.159245     3.151602     3.143959     3.136316     3.128673     3.121029     3.113386     3.105743     3.098100     3.090456
      3.082813     3.075170     3.067527     3.059884     3.052240     3.044597     3.036954     3.029311     3.021667     3.014024
      3.006381     2.998738     2.991095     2.983451     2.975808     2.968165     2.960522     2.952878     2.945235     2.937592
      2.929949     2.922306     2.914662     2.907019     2.899376     2.891733     2.884089     2.876446     2.868803     2.861160
      2.853517     2.845873     2.838230     2.830587     2.822944     2.815300     2.807657     2.800014     2.792371     2.784728
      2.777084     2.769441     2.761798     2.754155     2.746511     2.738868     2.731225     2.723582     2.715939     2.708295
      2.700652     2.693009     2.685366     2.677722     2.670079     2.662436     2.654793     2.647150     2.639506     2.631863
      2.624220     2.616577     2.608933     2.601290     2.593647     2.586004     2.578361     2.570717     2.563074     2.555431
      2.547788     2.540144     2.532501     2.524858     2.517215     2.509572     2.501928     2.494285     2.486642     2.478999
      2.471355     2.463712     2.456069     2.448426     2.440783     2.433139     2.425496     2.417853     2.410210     2.402566
      2.394923     2.387280     2.379637     2.371994     2.364350     2.356707     2.349064     2.341421     2.333777     2.326134
      2.318491     2.310848     2.303205     2.295561     2.287918     2.280275     2.272632     2.264988     2.257345     2.249702
      2.242059     2.234416     2.226772     2.219129     2.211486     2.203843     2.196199     2.188556     2.180913     2.173270
      2.165627     2.157983     2.150340     2.142697     2.135054     2.127410     2.119767     2.112124     2.104481     2.096838
      2.089194     2.081551     2.073908     2.066265     2.058621     2.050978     2.043335     2.035692     2.028049     2.020405
      2.012762     2.005119     1.997476     1.989833     1.982190     1.974546     1.966903     1.959260     1.951617     1.943974
      1.936331     1.928688     1.921045     1.913402     1.905759     1.898115     1.890472     1.882829     1.875186     1.867543
      1.859900     1.852257     1.844614     1.836971     1.829327     1.821684     1.814041     1.806398     1.798755     1.791112
      1.783469     1.775826     1.768183     1.760540     1.752896     1.745253     1.737610     1.729967     1.722324     1.714681
      1.707038     1.699395     1.691752     1.684108     1.676465     1.668822     1.661179     1.653536     1.645893     1.638250
      1.630607     1.622964     1.615321     1.607677     1.600034     1.592391     1.584748     1.577105     1.569462     1.561819
      1.554176     1.546533     1.538890     1.531246     1.523603     1.515960     1.508317     1.500674     1.493031     1.485388
      1.477745     1.470102     1.462458     1.454815     1.447172     1.439529     1.431886     1.424243     1.416600     1.408957
      1.401314     1.393671     1.386027     1.378384     1.370741     1.363098     1.355455     1.347812     1.340169     1.332526
      1.324883     1.317240     1.309596     1.301953     1.294310     1.286667     1.279024     1.271381     1.263738     1.256095
      1.248452     1.240808     1.233165     1.225522     1.217879     1.210236     1.202593     1.194950     1.187307     1.179664
      1.172021     1.164377     1.156734     1.149091     1.141448     1.133805     1.126162     1.118519     1.110876     1.103233
      1.095590     1.087946     1.080303     1.072660     1.065017     1.057374     1.049731     1.042088     1.034445     1.026802
      1.019158     1.011515     1.003872     0.996229     0.988586     0.980943     0.973300     0.965657     0.958014     0.950371
      0.942727     0.935084     0.927441     0.919798     0.912155     0.904512     0.896869     0.889226     0.881583     0.873940
      0.866296     0.858653     0.851010     0.843367     0.835724     0.828081     0.820438     0.812795     0.805152     0.797508
      0.789865     0.782222     0.774579     0.766936     0.759293     0.751650     0.744007     0.736364     0.728721     0.721077
      0.713434     0.705791     0.698148     0.690505     0.682862     0.675219     0.667576     0.659933     0.652290     0.644646
      0.637003     0.629360     0.621717     0.614074     0.606431     0.598788     0.591145     0.583502     0.575858     0.568215
      0.560572     0.552929     0.545286     0.537643     0.530000     0.522357     0.514714     0.507071     0.499427     0.491784
      0.484141     0.476498     0.468855     0.461212     0.453569     0.445925     0.438282     0.430639     0.422996     0.415353
      0.407710     0.400067     0.392424     0.384780     0.377137     0.369494     0.361851     0.354208     0.346565     0.338922
      0.331278     0.323635     0.315992     0.308349     0.300706     0.293063     0.285420     0.277777     0.270133     0.262490
      0.254847     0.247204     0.239561     0.231918     0.224275     0.216631     0.208988     0.201345
 NY phased data points follow
  -4.07831E+01 -3.93999E+01 -3.66543E+01 -3.69921E+01 -3.37634E+01 -3.55875E+01 -3.27634E+01 -2.70835E+01 -2.65723E+01 -2.98771E+01
  -2.67036E+01 -3.08365E+01 -2.48080E+01 -2.84448E+01 -2.99413E+01 -3.19942E+01 -3.19604E+01 -3.37938E+01 -3.58961E+01 -3.01571E+01
  -2.83735E+01 -3.54874E+01 -2.84160E+01 -3.35308E+01 -3.01162E+01 -3.15867E+01 -3.25899E+01 -2.77535E+01 -2.77927E+01 -2.76810E+01
  -2.64232E+01 -3.11717E+01 -2.80232E+01 -2.74939E+01 -2.83340E+01 -2.86971E+01 -2.85095E+01 -3.06233E+01 -3.05055E+01 -2.86649E+01
  -2.77971E+01 -2.37837E+01 -2.33253E+01 -2.05845E+01 -2.06821E+01 -2.10575E+01 -2.37077E+01 -2.21560E+01 -2.40758E+01 -2.34449E+01
  -2.67454E+01 -2.30500E+01 -2.23688E+01 -2.60869E+01 -2.31894E+01 -2.28312E+01 -2.54029E+01 -2.29702E+01 -2.55063E+01 -2.19841E+01
  -2.50244E+01 -2.78286E+01 -2.55861E+01 -2.55002E+01 -3.05508E+01 -2.86936E+01 -2.58502E+01 -2.34699E+01 -2.65293E+01 -2.52130E+01
  -2.27497E+01 -2.18309E+01 -2.17788E+01 -2.47243E+01 -2.48216E+01 -2.34496E+01 -2.15403E+01 -2.31352E+01 -1.89981E+01 -2.29315E+01
  -2.14463E+01 -1.97299E+01 -1.78975E+01 -2.15227E+01 -1.84431E+01 -2.12618E+01 -1.60482E+01 -1.78993E+01 -1.81247E+01 -1.87311E+01
  -2.10340E+01 -1.48721E+01 -1.63658E+01 -1.66591E+01 -1.23073E+01 -1.30691E+01 -1.15058E+01 -6.36563E+00 -3.22794E+00  2.03190E+00
   3.37645E+00  2.36627E+00  1.15072E+00  3.21049E+00 -1.34900E-01 -2.46300E+00 -5.48677E+00 -6.07104E+00 -4.40671E+00 -1.14066E+01
  -1.23944E+01 -1.38629E+01 -1.54165E+01 -1.18176E+01 -1.27370E+01 -1.57705E+01 -1.45890E+01 -1.78083E+01 -1.45904E+01 -1.36986E+01
  -1.43933E+01 -1.21726E+01 -5.02353E+00 -3.55915E+00 -2.19989E-01  1.59289E+00  3.35819E+00  7.90636E+00  4.95705E+00  1.78883E+00
   2.34488E+00  4.84428E-01 -7.56408E+00 -6.69339E+00 -9.99556E+00 -1.30684E+01 -1.38835E+01 -1.28127E+01 -1.32100E+01 -1.66671E+01
  -1.00710E+01 -1.45559E+01 -1.45482E+01 -1.08737E+01 -1.38588E+01 -1.30408E+01 -1.48044E+01 -1.36935E+01 -1.54734E+01 -1.40900E+01
  -1.59214E+01 -1.47054E+01 -1.55872E+01 -1.47479E+01 -1.23048E+01 -1.69198E+01 -1.39216E+01 -1.40334E+01 -1.45785E+01 -1.55992E+01
  -1.71628E+01 -1.56012E+01 -1.43006E+01 -1.92230E+01 -1.61589E+01 -1.24730E+01 -1.42693E+01 -1.73665E+01 -1.84650E+01 -1.72338E+01
  -1.69358E+01 -1.52575E+01 -1.80007E+01 -1.95635E+01 -2.02273E+01 -2.17528E+01 -1.88237E+01 -2.26946E+01 -1.86124E+01 -2.07808E+01
  -1.84540E+01 -1.75556E+01 -1.54070E+01 -1.35577E+01 -1.42669E+01 -1.27553E+01 -1.44736E+01 -1.17515E+01 -1.24528E+01 -1.01764E+01
  -1.07731E+01 -7.40216E+00 -1.40933E+01 -1.28132E+01 -1.02037E+01 -1.04817E+01 -1.30675E+01 -1.38913E+01 -1.27111E+01 -1.22614E+01
  -1.35461E+01 -1.51591E+01 -5.21995E+00 -9.96699E+00 -9.15818E+00 -6.86912E+00 -7.58100E+00 -7.10451E+00 -8.59855E+00 -9.21550E+00
  -6.83989E+00 -7.61691E+00 -5.26947E+00 -2.43545E+00 -3.31806E+00 -5.81136E-01 -2.70249E+00 -1.55119E-01 -1.72030E+00 -6.29486E+00
  -5.36664E+00 -3.79369E+00 -9.08507E+00 -8.30299E+00 -1.16402E+00 -1.72802E+00 -4.63593E+00 -6.70414E+00 -5.74502E-01  8.68595E-03
  -1.30736E+00 -1.51324E+00 -3.53132E+00 -1.27596E+00 -4.50151E+00 -8.47442E-01 -2.18302E+00 -4.47161E-01  2.64655E-01 -4.87539E+00
  -2.69190E+00 -5.07738E+00 -1.78086E+00 -3.08208E-01 -1.51256E+00 -1.34707E+00  5.43945E-01  9.46731E-03  3.09485E+00  6.97385E+00
   6.82253E+00  5.54498E+00  7.30067E+00  1.31472E+01  2.02871E+01  1.99809E+01  2.86659E+01  3.35245E+01  4.12434E+01  4.39986E+01
   4.93962E+01  4.84144E+01  4.65532E+01  4.57971E+01  3.92015E+01  3.44693E+01  2.89891E+01  1.91174E+01  1.06992E+01  9.69324E+00
   6.67316E+00  5.16711E+00  6.29182E+00  1.92861E+00  2.82202E+00  4.51290E+00  1.50425E+00 -1.77278E+00 -2.82884E+00 -3.09772E+00
  -1.39602E+00 -7.81111E-01 -1.87348E+00 -1.35216E+00 -2.75736E+00  1.77788E+00 -1.84145E+00 -3.01666E+00 -2.70832E+00 -4.38807E+00
  -4.20446E+00 -1.76931E-01 -3.02915E+00 -1.76277E+00 -2.69092E+00 -1.92796E+00 -6.32234E-01 -5.84831E+00 -1.23171E+00  1.35131E+00
  -3.04696E+00  2.29020E-01  1.05442E+00 -2.23556E-01  3.16854E-01  4.10628E-01  7.14512E-01 -1.04619E+00 -2.60099E+00  1.86082E-01
   1.69004E+00  2.60467E-01  5.35134E+00  1.63519E+00  4.56166E+00  4.66995E+00  1.74735E+00  3.06893E+00  3.93376E+00  4.13855E+00
   5.04057E+00  6.97522E+00  5.34016E+00  4.38635E+00  2.61838E+00  4.41933E+00  4.12969E-01  1.94493E+00  3.46582E+00  5.12760E+00
   3.16048E+00  5.37379E+00  3.11745E+00  5.85938E+00  7.10924E+00 -9.68436E-02  3.69745E+00  5.32031E+00  6.27447E+00  5.37570E+00
   1.06999E+01  9.90411E+00  7.09806E+00  1.17042E+01  1.00711E+01  7.59880E+00  1.02255E+01  6.71154E+00  7.00250E+00  1.12728E+01
   1.01165E+01  6.95269E+00  4.49299E+00  7.36618E+00  3.97809E+00  2.07140E+00  4.38555E-01  2.14107E+00  4.51337E+00  6.81391E+00
   5.27539E+00  4.04436E+00  5.25272E+00  5.56017E+00  4.79329E+00  3.24337E+00  7.12578E+00  3.19281E+00  3.69190E+00  5.06366E+00
   4.59355E+00  3.63916E+00  1.56782E+00  3.91404E+00  3.75340E+00  4.93591E-01  2.69107E+00 -1.57632E+00  3.79869E-01  7.37763E-01
  -2.80501E-01  5.91994E-01  1.41545E+00 -8.46121E-01  7.36904E-01 -9.94173E-01 -2.59819E+00 -2.05275E+00 -3.44126E-02 -5.25526E-02
  -1.30806E+00 -4.52163E-01  9.41854E-01  5.58301E-01  9.67205E-01 -1.11879E+00 -2.80569E+00  7.64063E-01  4.50070E+00 -1.39647E+00
   1.70405E+00  3.49294E+00  1.15458E+00  5.32303E+00  3.11665E+00  1.90689E+00  2.87601E+00  2.49899E+00  2.07493E+00 -7.70105E-01
   1.47351E+00  7.25079E-01  1.38270E+00  4.34272E+00  3.91146E+00  4.19876E+00 -2.70089E+00  8.20766E-01 -5.37133E-01 -2.80548E-01
   6.16373E-01 -5.93063E-01  4.48960E-01 -2.69015E+00 -3.21715E-01 -1.32077E+00 -7.80521E-01 -5.75225E-01 -2.07716E+00 -1.65053E+00
  -1.73689E+00 -3.20979E+00 -2.73585E+00 -2.91158E+00 -5.16669E-01 -3.46022E+00 -2.93573E+00 -6.99597E+00 -7.03308E-01 -3.36445E+00
  -2.86801E+00 -4.96250E+00 -4.33227E+00 -2.24742E+00 -3.67675E+00 -3.93699E+00 -2.69994E+00 -4.39664E+00 -2.37091E+00 -1.30240E+00
  -1.82442E+00 -1.66946E+00 -3.87477E+00 -3.00834E+00 -6.34114E-01 -3.04991E+00 -5.16279E+00  6.79113E-01 -3.31017E+00 -2.89627E+00
  -3.28942E+00 -1.65942E+00 -3.82260E+00 -4.61511E+00 -9.40041E-02 -3.83182E+00 -1.34162E+00  3.17415E-01 -5.37687E+00 -1.86270E+00
  -1.29647E+00  6.61169E-01  4.74368E-01 -2.70676E+00  1.02472E+00 -2.62188E+00 -2.10958E+00  9.79033E-01 -2.14537E-01 -1.93164E+00
  -2.36621E+00  3.37634E-01  4.21036E-02  8.37037E-01 -1.69481E+00  9.97662E-01 -1.04810E+00  4.18268E-01 -4.82307E-01  2.62124E+00
  -9.76764E-01  7.39061E-01 -1.73261E+00  1.07462E+00 -2.06172E+00  1.78887E+00 -4.14033E+00 -2.46076E+00
 NY points of the fit to the data follow
  -3.59172E+01 -3.54241E+01 -3.48676E+01 -3.46332E+01 -3.40271E+01 -3.28330E+01 -3.15310E+01 -3.03574E+01 -2.94969E+01 -2.88619E+01
  -2.84197E+01 -2.82779E+01 -2.84115E+01 -2.86071E+01 -2.88936E+01 -2.94479E+01 -3.03700E+01 -3.12074E+01 -3.15240E+01 -3.10244E+01
  -3.09826E+01 -3.15414E+01 -3.15150E+01 -3.14558E+01 -3.11920E+01 -3.06888E+01 -3.00192E+01 -2.93189E+01 -2.85883E+01 -2.78135E+01
  -2.71133E+01 -2.66476E+01 -2.63783E+01 -2.62628E+01 -2.63008E+01 -2.66288E+01 -2.72294E+01 -2.76734E+01 -2.77375E+01 -2.73929E+01
  -2.69825E+01 -2.66780E+01 -2.60203E+01 -2.51935E+01 -2.44063E+01 -2.39390E+01 -2.36857E+01 -2.35739E+01 -2.37223E+01 -2.40779E+01
  -2.44328E+01 -2.47636E+01 -2.52166E+01 -2.58078E+01 -2.62150E+01 -2.61839E+01 -2.58294E+01 -2.54821E+01 -2.53925E+01 -2.54027E+01
  -2.53749E+01 -2.52645E+01 -2.51339E+01 -2.49865E+01 -2.48357E+01 -2.47224E+01 -2.45663E+01 -2.43328E+01 -2.39950E+01 -2.36566E+01
  -2.33853E+01 -2.31316E+01 -2.29337E+01 -2.27929E+01 -2.27224E+01 -2.27032E+01 -2.25924E+01 -2.23418E+01 -2.20915E+01 -2.18071E+01
  -2.15469E+01 -2.10046E+01 -2.02619E+01 -1.95591E+01 -1.89225E+01 -1.84363E+01 -1.82275E+01 -1.83135E+01 -1.85334E+01 -1.88528E+01
  -1.91506E+01 -1.92153E+01 -1.85843E+01 -1.73536E+01 -1.56857E+01 -1.37661E+01 -1.12535E+01 -7.97214E+00 -4.48939E+00 -9.58866E-01
   1.74844E+00  3.30904E+00  3.93756E+00  3.51082E+00  2.02665E+00 -3.66500E-02 -2.42412E+00 -5.37267E+00 -8.83626E+00 -1.21111E+01
  -1.40765E+01 -1.43475E+01 -1.45002E+01 -1.64769E+01 -1.81901E+01 -1.85458E+01 -1.83852E+01 -1.73463E+01 -1.56521E+01 -1.38385E+01
  -1.21763E+01 -1.00965E+01 -6.95286E+00 -3.32673E+00 -2.02458E-03  2.40426E+00  3.77498E+00  4.34509E+00  4.04850E+00  2.84657E+00
   1.08789E+00 -1.00921E+00 -3.68780E+00 -6.94725E+00 -9.94396E+00 -1.15942E+01 -1.17268E+01 -1.17641E+01 -1.34780E+01 -1.48978E+01
  -1.51469E+01 -1.50921E+01 -1.49388E+01 -1.47985E+01 -1.47697E+01 -1.48237E+01 -1.48530E+01 -1.48849E+01 -1.49020E+01 -1.48765E+01
  -1.48575E+01 -1.48674E+01 -1.49435E+01 -1.50439E+01 -1.50948E+01 -1.50958E+01 -1.50843E+01 -1.51426E+01 -1.52422E+01 -1.53429E+01
  -1.53675E+01 -1.53012E+01 -1.52203E+01 -1.51605E+01 -1.51336E+01 -1.51404E+01 -1.51823E+01 -1.52853E+01 -1.54063E+01 -1.55210E+01
  -1.56898E+01 -1.59866E+01 -1.63630E+01 -1.65674E+01 -1.66060E+01 -1.65284E+01 -1.64872E+01 -1.65837E+01 -1.66126E+01 -1.65021E+01
  -1.62745E+01 -1.59498E+01 -1.55908E+01 -1.52305E+01 -1.48514E+01 -1.44663E+01 -1.40379E+01 -1.34590E+01 -1.27291E+01 -1.20939E+01
  -1.17227E+01 -1.14724E+01 -1.11653E+01 -1.07142E+01 -1.02694E+01 -9.85993E+00 -9.44298E+00 -9.00090E+00 -8.47186E+00 -7.83800E+00
  -7.39947E+00 -7.13587E+00 -7.03729E+00 -7.20416E+00 -7.73251E+00 -8.48958E+00 -9.15490E+00 -9.56426E+00 -9.80553E+00 -9.91167E+00
  -9.71817E+00 -9.16613E+00 -8.48645E+00 -7.77380E+00 -7.01072E+00 -6.36375E+00 -6.05371E+00 -6.16319E+00 -6.70926E+00 -7.25799E+00
  -7.35298E+00 -7.10339E+00 -7.12599E+00 -7.05966E+00 -6.49575E+00 -5.58230E+00 -4.85743E+00 -4.48483E+00 -4.00231E+00 -3.35538E+00
  -2.96155E+00 -2.86144E+00 -2.79714E+00 -2.46496E+00 -1.92828E+00 -1.50420E+00 -1.21244E+00 -9.33341E-01 -7.83582E-01 -8.19115E-01
  -9.23735E-01 -9.50493E-01 -8.37723E-01 -6.95707E-01 -6.18937E-01 -4.13891E-01  9.99644E-02  8.08015E-01  1.48386E+00  2.32824E+00
   3.64599E+00  6.29367E+00  1.00436E+01  1.41361E+01  1.79316E+01  2.22178E+01  2.84254E+01  3.55643E+01  4.19405E+01  4.62951E+01
   4.83370E+01  4.85676E+01  4.69445E+01  4.34203E+01  3.87079E+01  3.33562E+01  2.69862E+01  1.95638E+01  1.26799E+01  8.66142E+00
   7.82756E+00  7.31527E+00  3.59086E+00 -2.19924E-03 -1.03072E+00 -1.42285E+00 -1.65369E+00 -1.78669E+00 -1.92605E+00 -2.06106E+00
  -2.18839E+00 -2.30311E+00 -2.38772E+00 -2.42674E+00 -2.44805E+00 -2.46915E+00 -2.47163E+00 -2.44944E+00 -2.40853E+00 -2.35390E+00
  -2.28601E+00 -2.19986E+00 -2.08975E+00 -1.96689E+00 -1.82897E+00 -1.67524E+00 -1.50814E+00 -1.33051E+00 -1.14103E+00 -9.40864E-01
  -7.33156E-01 -5.22935E-01 -3.10628E-01 -9.94499E-02  1.08077E-01  3.09715E-01  5.04049E-01  6.89243E-01  8.65935E-01  1.03423E+00
   1.19669E+00  1.35568E+00  1.51656E+00  1.68497E+00  1.87039E+00  2.08643E+00  2.36141E+00  2.74536E+00  3.18088E+00  3.53398E+00
   3.79888E+00  4.05557E+00  4.39351E+00  4.62143E+00  4.54638E+00  4.21714E+00  3.83286E+00  3.47803E+00  3.10730E+00  2.66068E+00
   2.41483E+00  2.55771E+00  2.98118E+00  3.57723E+00  4.33994E+00  5.33904E+00  6.44245E+00  7.25271E+00  7.53909E+00  7.73566E+00
   8.12927E+00  8.25316E+00  8.03795E+00  7.69388E+00  7.52786E+00  7.64425E+00  7.67149E+00  7.32486E+00  7.06285E+00  6.90443E+00
   6.78342E+00  6.67497E+00  6.56831E+00  6.45594E+00  6.33359E+00  6.19694E+00  6.04373E+00  5.87138E+00  5.67943E+00  5.46698E+00
   5.23506E+00  4.98410E+00  4.71634E+00  4.43346E+00  4.13885E+00  3.83507E+00  3.52600E+00  3.21441E+00  2.90427E+00  2.59835E+00
   2.30048E+00  2.01302E+00  1.73917E+00  1.48059E+00  1.23986E+00  1.01814E+00  8.17426E-01  6.38260E-01  4.82017E-01  3.48751E-01
   2.39555E-01  1.54311E-01  9.39068E-02  5.79704E-02  4.71587E-02  6.09819E-02  1.00029E-01  1.63657E-01  2.52095E-01  3.64153E-01
   4.99409E-01  6.55979E-01  8.32606E-01  1.02635E+00  1.23467E+00  1.45326E+00  1.67826E+00  1.90422E+00  2.12625E+00  2.33803E+00
   2.53408E+00  2.70792E+00  2.85446E+00  2.96817E+00  3.04534E+00  3.08220E+00  3.07716E+00  3.02889E+00  2.93851E+00  2.80741E+00
   2.63923E+00  2.43755E+00  2.20783E+00  1.95512E+00  1.68589E+00  1.40564E+00  1.12067E+00  8.35819E-01  5.56399E-01  2.86066E-01
   2.87432E-02 -2.13458E-01 -4.38241E-01 -6.45042E-01 -8.32913E-01 -1.00240E+00 -1.15348E+00 -1.28751E+00 -1.40512E+00 -1.50809E+00
  -1.59723E+00 -1.67433E+00 -1.74019E+00 -1.79653E+00 -1.84407E+00 -1.88435E+00 -1.91780E+00 -1.94570E+00 -1.96830E+00 -1.98675E+00
  -2.00116E+00 -2.01247E+00 -2.02058E+00 -2.02630E+00 -2.02946E+00 -2.03083E+00 -2.03018E+00 -2.02815E+00 -2.02440E+00 -2.01953E+00
  -2.01321E+00 -2.00606E+00 -1.99769E+00 -1.98863E+00 -1.97847E+00 -1.96772E+00 -1.95604E+00 -1.94394E+00 -1.93102E+00 -1.91773E+00
  -1.90365E+00 -1.88927E+00 -1.87423E+00 -1.85899E+00 -1.84312E+00 -1.82706E+00 -1.81037E+00 -1.79357E+00 -1.77625E+00 -1.75886E+00
  -1.74094E+00 -1.72293E+00 -1.70442E+00 -1.68588E+00 -1.66692E+00 -1.64795E+00 -1.62851E+00 -1.60904E+00 -1.58916E+00 -1.56931E+00
  -1.54908E+00 -1.52887E+00 -1.50823E+00 -1.48760E+00 -1.46660E+00 -1.44565E+00 -1.42433E+00 -1.40302E+00 -1.38129E+00 -1.35958E+00
  -1.33749E+00 -1.31543E+00 -1.29294E+00 -1.27042E+00 -1.24742E+00 -1.22437E+00 -1.20085E+00 -1.17723E+00
 NY background values follow
    -3.888E+01   -3.872E+01   -3.856E+01   -3.839E+01   -3.823E+01   -3.807E+01   -3.790E+01   -3.774E+01   -3.758E+01   -3.741E+01
    -3.725E+01   -3.708E+01   -3.692E+01   -3.676E+01   -3.659E+01   -3.643E+01   -3.626E+01   -3.610E+01   -3.594E+01   -3.577E+01
    -3.561E+01   -3.545E+01   -3.528E+01   -3.512E+01   -3.495E+01   -3.479E+01   -3.463E+01   -3.446E+01   -3.430E+01   -3.414E+01
    -3.397E+01   -3.381E+01   -3.365E+01   -3.349E+01   -3.332E+01   -3.316E+01   -3.300E+01   -3.284E+01   -3.267E+01   -3.251E+01
    -3.235E+01   -3.219E+01   -3.203E+01   -3.186E+01   -3.170E+01   -3.154E+01   -3.138E+01   -3.122E+01   -3.106E+01   -3.090E+01
    -3.074E+01   -3.058E+01   -3.042E+01   -3.026E+01   -3.010E+01   -2.994E+01   -2.978E+01   -2.962E+01   -2.946E+01   -2.930E+01
    -2.915E+01   -2.899E+01   -2.883E+01   -2.867E+01   -2.852E+01   -2.836E+01   -2.820E+01   -2.805E+01   -2.789E+01   -2.774E+01
    -2.758E+01   -2.743E+01   -2.727E+01   -2.712E+01   -2.696E+01   -2.681E+01   -2.666E+01   -2.650E+01   -2.635E+01   -2.620E+01
    -2.605E+01   -2.589E+01   -2.574E+01   -2.559E+01   -2.544E+01   -2.529E+01   -2.514E+01   -2.499E+01   -2.484E+01   -2.469E+01
    -2.455E+01   -2.440E+01   -2.425E+01   -2.411E+01   -2.396E+01   -2.381E+01   -2.367E+01   -2.352E+01   -2.338E+01   -2.323E+01
    -2.309E+01   -2.295E+01   -2.280E+01   -2.266E+01   -2.252E+01   -2.238E+01   -2.224E+01   -2.210E+01   -2.196E+01   -2.182E+01
    -2.168E+01   -2.154E+01   -2.140E+01   -2.126E+01   -2.112E+01   -2.099E+01   -2.085E+01   -2.071E+01   -2.058E+01   -2.044E+01
    -2.031E+01   -2.017E+01   -2.004E+01   -1.991E+01   -1.977E+01   -1.964E+01   -1.951E+01   -1.938E+01   -1.925E+01   -1.912E+01
    -1.899E+01   -1.886E+01   -1.873E+01   -1.860E+01   -1.847E+01   -1.834E+01   -1.822E+01   -1.809E+01   -1.796E+01   -1.784E+01
    -1.771E+01   -1.759E+01   -1.746E+01   -1.734E+01   -1.721E+01   -1.709E+01   -1.697E+01   -1.684E+01   -1.672E+01   -1.660E+01
    -1.648E+01   -1.636E+01   -1.624E+01   -1.612E+01   -1.600E+01   -1.588E+01   -1.576E+01   -1.565E+01   -1.553E+01   -1.541E+01
    -1.530E+01   -1.518E+01   -1.506E+01   -1.495E+01   -1.483E+01   -1.472E+01   -1.460E+01   -1.449E+01   -1.438E+01   -1.426E+01
    -1.415E+01   -1.404E+01   -1.393E+01   -1.382E+01   -1.371E+01   -1.359E+01   -1.348E+01   -1.338E+01   -1.327E+01   -1.316E+01
    -1.305E+01   -1.294E+01   -1.283E+01   -1.272E+01   -1.262E+01   -1.251E+01   -1.240E+01   -1.230E+01   -1.219E+01   -1.209E+01
    -1.198E+01   -1.188E+01   -1.178E+01   -1.167E+01   -1.157E+01   -1.147E+01   -1.137E+01   -1.126E+01   -1.116E+01   -1.106E+01
    -1.096E+01   -1.086E+01   -1.077E+01   -1.067E+01   -1.057E+01   -1.047E+01   -1.038E+01   -1.028E+01   -1.018E+01   -1.009E+01
    -9.995E+00   -9.901E+00   -9.808E+00   -9.716E+00   -9.624E+00   -9.533E+00   -9.442E+00   -9.352E+00   -9.263E+00   -9.174E+00
    -9.086E+00   -8.998E+00   -8.912E+00   -8.826E+00   -8.740E+00   -8.656E+00   -8.572E+00   -8.488E+00   -8.406E+00   -8.324E+00
    -8.243E+00   -8.162E+00   -8.082E+00   -8.003E+00   -7.925E+00   -7.847E+00   -7.770E+00   -7.694E+00   -7.618E+00   -7.543E+00
    -7.469E+00   -7.396E+00   -7.323E+00   -7.251E+00   -7.179E+00   -7.108E+00   -7.038E+00   -6.969E+00   -6.900E+00   -6.832E+00
    -6.764E+00   -6.698E+00   -6.632E+00   -6.566E+00   -6.501E+00   -6.437E+00   -6.374E+00   -6.311E+00   -6.249E+00   -6.188E+00
    -6.127E+00   -6.067E+00   -6.007E+00   -5.949E+00   -5.890E+00   -5.833E+00   -5.776E+00   -5.720E+00   -5.665E+00   -5.610E+00
    -5.555E+00   -5.502E+00   -5.449E+00   -5.397E+00   -5.345E+00   -5.294E+00   -5.244E+00   -5.194E+00   -5.145E+00   -5.096E+00
    -5.048E+00   -5.001E+00   -4.955E+00   -4.908E+00   -4.863E+00   -4.818E+00   -4.774E+00   -4.730E+00   -4.687E+00   -4.645E+00
    -4.603E+00   -4.561E+00   -4.520E+00   -4.480E+00   -4.440E+00   -4.401E+00   -4.363E+00   -4.325E+00   -4.287E+00   -4.250E+00
    -4.214E+00   -4.178E+00   -4.143E+00   -4.108E+00   -4.074E+00   -4.040E+00   -4.007E+00   -3.974E+00   -3.942E+00   -3.910E+00
    -3.879E+00   -3.848E+00   -3.818E+00   -3.788E+00   -3.759E+00   -3.730E+00   -3.702E+00   -3.674E+00   -3.647E+00   -3.620E+00
    -3.594E+00   -3.568E+00   -3.542E+00   -3.517E+00   -3.493E+00   -3.468E+00   -3.445E+00   -3.421E+00   -3.398E+00   -3.376E+00
    -3.353E+00   -3.332E+00   -3.310E+00   -3.289E+00   -3.269E+00   -3.248E+00   -3.228E+00   -3.209E+00   -3.190E+00   -3.171E+00
    -3.152E+00   -3.134E+00   -3.116E+00   -3.098E+00   -3.081E+00   -3.064E+00   -3.047E+00   -3.031E+00   -3.015E+00   -2.999E+00
    -2.984E+00   -2.968E+00   -2.953E+00   -2.939E+00   -2.924E+00   -2.910E+00   -2.896E+00   -2.882E+00   -2.869E+00   -2.855E+00
    -2.842E+00   -2.829E+00   -2.816E+00   -2.804E+00   -2.792E+00   -2.779E+00   -2.768E+00   -2.756E+00   -2.744E+00   -2.733E+00
    -2.721E+00   -2.710E+00   -2.699E+00   -2.688E+00   -2.677E+00   -2.666E+00   -2.656E+00   -2.645E+00   -2.635E+00   -2.624E+00
    -2.614E+00   -2.604E+00   -2.593E+00   -2.583E+00   -2.573E+00   -2.563E+00   -2.553E+00   -2.543E+00   -2.533E+00   -2.523E+00
    -2.513E+00   -2.503E+00   -2.493E+00   -2.483E+00   -2.473E+00   -2.463E+00   -2.452E+00   -2.442E+00   -2.432E+00   -2.422E+00
    -2.411E+00   -2.401E+00   -2.390E+00   -2.379E+00   -2.369E+00   -2.358E+00   -2.347E+00   -2.336E+00   -2.324E+00   -2.313E+00
    -2.301E+00   -2.290E+00   -2.278E+00   -2.266E+00   -2.254E+00   -2.242E+00   -2.229E+00   -2.217E+00   -2.204E+00   -2.191E+00
    -2.179E+00   -2.166E+00   -2.152E+00   -2.139E+00   -2.126E+00   -2.112E+00   -2.098E+00   -2.084E+00   -2.070E+00   -2.056E+00
    -2.042E+00   -2.027E+00   -2.013E+00   -1.998E+00   -1.983E+00   -1.968E+00   -1.953E+00   -1.937E+00   -1.922E+00   -1.906E+00
    -1.890E+00   -1.874E+00   -1.858E+00   -1.842E+00   -1.826E+00   -1.809E+00   -1.792E+00   -1.775E+00   -1.758E+00   -1.741E+00
    -1.723E+00   -1.706E+00   -1.688E+00   -1.670E+00   -1.652E+00   -1.634E+00   -1.616E+00   -1.597E+00   -1.579E+00   -1.560E+00
    -1.541E+00   -1.522E+00   -1.503E+00   -1.483E+00   -1.464E+00   -1.444E+00   -1.425E+00   -1.405E+00   -1.385E+00   -1.366E+00
    -1.346E+00   -1.326E+00   -1.305E+00   -1.285E+00   -1.265E+00   -1.245E+00   -1.224E+00   -1.204E+00   -1.184E+00   -1.163E+00
    -1.142E+00   -1.122E+00   -1.101E+00   -1.081E+00   -1.060E+00   -1.039E+00   -1.019E+00   -9.980E-01   -9.774E-01   -9.567E-01
    -9.361E-01   -9.154E-01   -8.948E-01   -8.742E-01   -8.536E-01   -8.331E-01   -8.125E-01   -7.921E-01
 Ala      Conc. = 4.25E+02
