 LCModel (Version 6.3-1L) Copyright: S.W. Provencher.          Ref.: Magn. Reson. Med. 30:672-679 (1993).                
 Slice#1 Row#9 Col#1  PD_05_press_1_raw_act
 36 lines in following concentration table = NCONC+1
    Conc.  %SD /Cr+PCr  Metabolite                                         
    1.372 999% 3.5E-02 Ala                                                 
    6.405  96%   0.164 Asp                                                 
    0.000 999%   0.000 Cr                                                  
   38.983  29%   1.000 PCr                                                 
    2.904 127% 7.4E-02 GABA                                                
    3.321 111% 8.5E-02 Glc                                                 
   72.769  62%   1.867 Gln                                                 
   36.673 130%   0.941 Glu                                                 
    1.915 226% 4.9E-02 GPC                                                 
    0.000 999%   0.000 PCh                                                 
    6.376 246%   0.164 GSH                                                 
   46.467 109%   1.192 Ins                                                 
    4.580 511%   0.117 Lac                                                 
   37.928  39%   0.973 NAA                                                 
   29.430  49%   0.755 NAAG                                                
    0.582 209% 1.5E-02 Scyllo                                              
    3.453 177% 8.9E-02 Tau                                                 
    0.000 999%   0.000 -CrCH2                                              
    1.915 226% 4.9E-02 GPC+PCh                                             
   67.358  23%   1.728 NAA+NAAG                                            
   38.983  29%   1.000 Cr+PCr                                              
  109.442  59%   2.807 Glu+Gln                                             
    0.000 999%   0.000 Lip13a                                              
  149.231  21%   3.828 Lip13b                                              
   40.375  43%   1.036 Lip09                                               
    1.260 999% 3.2E-02 MM09                                                
   22.989  52%   0.590 Lip20                                               
    1.397 999% 3.6E-02 MM20                                                
    0.323 999% 8.3E-03 MM12                                                
    0.000 999%   0.000 MM14                                                
    0.000 999%   0.000 MM17                                                
  149.231  21%   3.828 Lip13a+Lip13b                                       
  149.554  21%   3.836 MM14+Lip13a+Lip13b+MM12                             
   41.635  57%   1.068 MM09+Lip09                                          
   24.385 144%   0.626 MM20+Lip20                                          
   6 lines in following misc. output table
  FWHM = 0.038 ppm    S/N =   1                                            
  Data shift =-0.031 ppm                                                   
  Ph:  46 deg      -1.5 deg/ppm                                            
  alphaB,S = 1.2E+00,   2.0E+01                                            
   14 spline knots.   Ns = 5(1)                                            
   2 inflections.     1 extrema                                            
  498 points on ppm-axis = NY
      4.000000     3.992357     3.984714     3.977070     3.969427     3.961784     3.954141     3.946497     3.938854     3.931211
      3.923568     3.915925     3.908281     3.900638     3.892995     3.885352     3.877708     3.870065     3.862422     3.854779
      3.847136     3.839492     3.831849     3.824206     3.816563     3.808919     3.801276     3.793633     3.785990     3.778347
      3.770703     3.763060     3.755417     3.747774     3.740130     3.732487     3.724844     3.717201     3.709558     3.701914
      3.694271     3.686628     3.678985     3.671341     3.663698     3.656055     3.648412     3.640769     3.633125     3.625482
      3.617839     3.610196     3.602552     3.594909     3.587266     3.579623     3.571980     3.564336     3.556693     3.549050
      3.541407     3.533763     3.526120     3.518477     3.510834     3.503191     3.495547     3.487904     3.480261     3.472618
      3.464974     3.457331     3.449688     3.442045     3.434402     3.426758     3.419115     3.411472     3.403829     3.396185
      3.388542     3.380899     3.373256     3.365613     3.357969     3.350326     3.342683     3.335040     3.327396     3.319753
      3.312110     3.304467     3.296824     3.289180     3.281537     3.273894     3.266251     3.258607     3.250964     3.243321
      3.235678     3.228034     3.220391     3.212748     3.205105     3.197462     3.189818     3.182175     3.174532     3.166889
      3.159245     3.151602     3.143959     3.136316     3.128673     3.121029     3.113386     3.105743     3.098100     3.090456
      3.082813     3.075170     3.067527     3.059884     3.052240     3.044597     3.036954     3.029311     3.021667     3.014024
      3.006381     2.998738     2.991095     2.983451     2.975808     2.968165     2.960522     2.952878     2.945235     2.937592
      2.929949     2.922306     2.914662     2.907019     2.899376     2.891733     2.884089     2.876446     2.868803     2.861160
      2.853517     2.845873     2.838230     2.830587     2.822944     2.815300     2.807657     2.800014     2.792371     2.784728
      2.777084     2.769441     2.761798     2.754155     2.746511     2.738868     2.731225     2.723582     2.715939     2.708295
      2.700652     2.693009     2.685366     2.677722     2.670079     2.662436     2.654793     2.647150     2.639506     2.631863
      2.624220     2.616577     2.608933     2.601290     2.593647     2.586004     2.578361     2.570717     2.563074     2.555431
      2.547788     2.540144     2.532501     2.524858     2.517215     2.509572     2.501928     2.494285     2.486642     2.478999
      2.471355     2.463712     2.456069     2.448426     2.440783     2.433139     2.425496     2.417853     2.410210     2.402566
      2.394923     2.387280     2.379637     2.371994     2.364350     2.356707     2.349064     2.341421     2.333777     2.326134
      2.318491     2.310848     2.303205     2.295561     2.287918     2.280275     2.272632     2.264988     2.257345     2.249702
      2.242059     2.234416     2.226772     2.219129     2.211486     2.203843     2.196199     2.188556     2.180913     2.173270
      2.165627     2.157983     2.150340     2.142697     2.135054     2.127410     2.119767     2.112124     2.104481     2.096838
      2.089194     2.081551     2.073908     2.066265     2.058621     2.050978     2.043335     2.035692     2.028049     2.020405
      2.012762     2.005119     1.997476     1.989833     1.982190     1.974546     1.966903     1.959260     1.951617     1.943974
      1.936331     1.928688     1.921045     1.913402     1.905759     1.898115     1.890472     1.882829     1.875186     1.867543
      1.859900     1.852257     1.844614     1.836971     1.829327     1.821684     1.814041     1.806398     1.798755     1.791112
      1.783469     1.775826     1.768183     1.760540     1.752896     1.745253     1.737610     1.729967     1.722324     1.714681
      1.707038     1.699395     1.691752     1.684108     1.676465     1.668822     1.661179     1.653536     1.645893     1.638250
      1.630607     1.622964     1.615321     1.607677     1.600034     1.592391     1.584748     1.577105     1.569462     1.561819
      1.554176     1.546533     1.538890     1.531246     1.523603     1.515960     1.508317     1.500674     1.493031     1.485388
      1.477745     1.470102     1.462458     1.454815     1.447172     1.439529     1.431886     1.424243     1.416600     1.408957
      1.401314     1.393671     1.386027     1.378384     1.370741     1.363098     1.355455     1.347812     1.340169     1.332526
      1.324883     1.317240     1.309596     1.301953     1.294310     1.286667     1.279024     1.271381     1.263738     1.256095
      1.248452     1.240808     1.233165     1.225522     1.217879     1.210236     1.202593     1.194950     1.187307     1.179664
      1.172021     1.164377     1.156734     1.149091     1.141448     1.133805     1.126162     1.118519     1.110876     1.103233
      1.095590     1.087946     1.080303     1.072660     1.065017     1.057374     1.049731     1.042088     1.034445     1.026802
      1.019158     1.011515     1.003872     0.996229     0.988586     0.980943     0.973300     0.965657     0.958014     0.950371
      0.942727     0.935084     0.927441     0.919798     0.912155     0.904512     0.896869     0.889226     0.881583     0.873940
      0.866296     0.858653     0.851010     0.843367     0.835724     0.828081     0.820438     0.812795     0.805152     0.797508
      0.789865     0.782222     0.774579     0.766936     0.759293     0.751650     0.744007     0.736364     0.728721     0.721077
      0.713434     0.705791     0.698148     0.690505     0.682862     0.675219     0.667576     0.659933     0.652290     0.644646
      0.637003     0.629360     0.621717     0.614074     0.606431     0.598788     0.591145     0.583502     0.575858     0.568215
      0.560572     0.552929     0.545286     0.537643     0.530000     0.522357     0.514714     0.507071     0.499427     0.491784
      0.484141     0.476498     0.468855     0.461212     0.453569     0.445925     0.438282     0.430639     0.422996     0.415353
      0.407710     0.400067     0.392424     0.384780     0.377137     0.369494     0.361851     0.354208     0.346565     0.338922
      0.331278     0.323635     0.315992     0.308349     0.300706     0.293063     0.285420     0.277777     0.270133     0.262490
      0.254847     0.247204     0.239561     0.231918     0.224275     0.216631     0.208988     0.201345
 NY phased data points follow
   1.27366E+01  1.37604E+01  1.20437E+01  1.44304E+01  1.23417E+01  1.22914E+01  1.05868E+01  1.17796E+01  1.01664E+01  1.28260E+01
   1.24436E+01  1.36615E+01  1.06170E+01  1.15277E+01  1.00938E+01  9.82997E+00  1.07807E+01  1.08370E+01  9.08549E+00  1.05325E+01
   9.30669E+00  1.11664E+01  9.78958E+00  1.00906E+01  9.69083E+00  1.08689E+01  8.77012E+00  9.64231E+00  9.00145E+00  9.21287E+00
   1.00140E+01  9.47316E+00  8.88154E+00  9.46071E+00  7.49659E+00  9.56451E+00  7.50355E+00  8.17528E+00  8.40056E+00  9.51032E+00
   7.49178E+00  8.01478E+00  7.97643E+00  8.04202E+00  7.40541E+00  7.76946E+00  7.68238E+00  9.95780E+00  9.63709E+00  8.58923E+00
   7.75563E+00  9.01015E+00  7.11269E+00  7.98365E+00  7.11043E+00  8.17296E+00  7.75775E+00  6.38615E+00  6.76439E+00  8.32583E+00
   7.10769E+00  7.91368E+00  6.56405E+00  6.04316E+00  6.75512E+00  7.50979E+00  8.39199E+00  7.59309E+00  6.92161E+00  6.54184E+00
   5.83921E+00  6.62829E+00  6.87320E+00  7.52907E+00  5.97898E+00  8.49270E+00  6.77813E+00  5.70330E+00  7.44498E+00  7.38211E+00
   6.47776E+00  6.46657E+00  6.53143E+00  8.53508E+00  4.96627E+00  6.40388E+00  4.11883E+00  5.23691E+00  6.05478E+00  6.44509E+00
   5.50766E+00  7.35556E+00  5.33960E+00  6.61258E+00  5.41770E+00  5.37898E+00  5.83967E+00  5.13664E+00  6.98524E+00  5.65079E+00
   6.60419E+00  4.79559E+00  7.36234E+00  6.46033E+00  6.01855E+00  6.19721E+00  5.92209E+00  4.57529E+00  5.07082E+00  5.83133E+00
   4.98925E+00  5.00400E+00  4.52747E+00  5.13030E+00  4.67997E+00  5.88554E+00  5.08361E+00  5.18266E+00  5.17496E+00  5.59076E+00
   3.89089E+00  5.79248E+00  5.61040E+00  5.59703E+00  3.72189E+00  6.39701E+00  4.60870E+00  7.22988E+00  6.70794E+00  6.51867E+00
   4.04488E+00  4.51716E+00  5.31398E+00  4.57167E+00  5.64918E+00  6.69529E+00  5.21078E+00  4.40276E+00  4.92561E+00  4.26123E+00
   5.13780E+00  4.87857E+00  5.47897E+00  5.37043E+00  3.51981E+00  5.03147E+00  4.48337E+00  5.53254E+00  6.06594E+00  5.14892E+00
   3.53134E+00  5.14946E+00  4.60916E+00  3.03337E+00  3.73511E+00  4.46907E+00  3.69237E+00  5.15070E+00  4.75621E+00  4.36272E+00
   4.89475E+00  6.00555E+00  3.49927E+00  3.57674E+00  3.46219E+00  4.02064E+00  5.01858E+00  2.63983E+00  4.40963E+00  5.17289E+00
   3.74534E+00  4.75670E+00  3.30528E+00  4.18504E+00  4.91177E+00  4.75562E+00  3.69786E+00  4.35537E+00  3.96831E+00  2.93934E+00
   5.22254E+00  5.47797E+00  5.55804E+00  5.77864E+00  3.54067E+00  3.86579E+00  5.29389E+00  5.33886E+00  3.99300E+00  3.43644E+00
   3.73893E+00  5.07651E+00  5.02682E+00  2.99770E+00  3.00028E+00  2.10573E+00  3.43086E+00  3.47703E+00  3.50848E+00  2.01602E+00
   5.65238E+00  4.63235E+00  2.52449E+00  3.20661E+00  4.77627E+00  6.91877E+00  5.94386E+00  5.69335E+00  4.46211E+00  3.72780E+00
   2.91081E+00  5.10751E+00  3.61642E+00  3.96428E+00  2.64434E+00  4.79145E+00  4.37087E+00  2.95974E+00  3.69212E+00  3.96628E+00
   4.05675E+00  3.52215E+00  2.68307E+00  2.87410E+00  3.91237E+00  3.24849E+00  5.29363E+00  3.55700E+00  3.40923E+00  4.51195E+00
   4.04372E+00  3.34351E+00  5.99431E+00  4.90553E+00  3.15602E+00  2.69897E+00  2.38982E+00  2.93206E+00  3.88210E+00  4.33787E+00
   3.55369E+00  2.66026E+00  4.73617E+00  2.80967E+00  3.71206E+00  1.93532E+00  3.62287E+00  2.84613E+00  2.13808E+00  2.96549E+00
   3.19215E+00  3.29939E+00  4.22930E+00  4.60168E+00  2.71692E+00  5.05254E+00  4.79600E+00  5.31367E+00  3.63253E+00  4.90419E+00
   5.28371E+00  4.95389E+00  3.92112E+00  6.23655E+00  3.36304E+00  3.48779E+00  3.15872E+00  1.84341E+00  2.74747E+00  2.17711E+00
   3.35059E+00  2.57707E+00  2.32412E+00  3.14573E+00  2.27956E+00  3.88709E+00  2.61093E+00  1.11651E+00  3.41346E+00  4.74696E+00
   2.54049E+00  3.36455E+00  3.07201E+00  1.69316E+00  2.70391E+00  3.30099E+00  3.40113E+00  2.88942E+00  2.73497E+00  3.80826E+00
   2.10583E+00  3.88669E+00  4.12031E+00  4.07566E+00  3.84685E+00  2.82308E+00  2.42467E+00  2.43817E+00  2.58309E+00 -7.65319E-01
   1.75955E+00  3.24749E+00  7.35793E-01  3.04957E+00  3.82549E+00  1.85697E+00  1.94822E+00  1.79043E+00  1.35753E+00  2.69178E+00
   1.02829E+00  3.37065E+00  1.11248E+00  1.68265E+00  3.06275E+00  2.78140E+00  2.26157E+00  4.53617E+00  2.40110E+00  2.29728E+00
   2.89908E+00  3.39221E+00  1.96109E+00  4.13349E+00  2.69825E+00  4.20297E-01  2.15611E+00  3.24365E+00  6.21925E-01  3.93770E+00
   2.07558E+00  3.12110E+00  2.10887E+00 -9.26222E-02  3.83507E+00  2.01558E+00  1.96945E+00  3.46413E+00  2.65058E+00  2.37129E+00
   8.60539E-01  1.68502E+00  1.77558E+00  1.39733E+00  2.47057E+00  2.36526E+00  2.73519E+00  3.02139E+00  3.45164E+00  2.07437E+00
   2.70181E+00  2.32587E+00  3.16056E+00  3.81641E+00  3.98619E+00  3.72362E+00  3.21382E+00  4.88577E+00  2.91148E+00  3.38378E+00
   4.73189E+00  2.85554E+00  2.90641E+00  2.44388E+00  3.15759E+00  5.06243E+00  1.64524E+00  2.80255E+00  2.37657E+00  1.29786E+00
   1.77398E+00  1.32973E+00  2.06879E+00  2.82414E+00  2.81651E+00  1.36152E+00  1.21205E+00  9.81571E-01  2.92398E+00  2.33797E+00
   1.80646E+00  2.12673E+00  2.12590E+00  1.25353E+00  3.24792E+00  1.00660E+00 -2.42794E-01  1.00981E+00  2.73883E+00  1.11708E+00
   8.08527E-01  1.72636E+00  2.81696E+00  3.31494E+00  1.64801E+00  3.43871E+00  3.00607E+00  1.01266E+00  2.87523E+00  1.90530E+00
   2.21688E+00  9.82928E-01  1.44845E+00  1.93105E+00  1.68445E+00  2.48694E+00  3.73164E+00  3.05436E+00  1.33971E+00  4.39629E+00
  -7.90221E-01  1.70979E+00  1.61410E+00  1.63795E+00  3.12333E+00  1.44978E+00  1.18007E+00  1.16953E+00  2.19878E+00  1.53239E+00
   1.61828E+00  1.08767E+00  1.86460E+00  1.85288E+00  1.99142E+00  1.30752E+00  2.36627E+00  2.63912E+00  2.90581E+00 -2.46357E-01
   2.03938E+00  7.91295E-01  2.97277E+00  1.34209E+00  1.04161E+00  2.01019E+00  1.27467E+00  1.98682E+00  2.15719E+00  1.60470E+00
   1.53704E+00  5.36003E-01  8.05190E-01  1.97946E+00  1.61680E+00 -4.98976E-01  1.50139E+00  2.86977E+00  7.68601E-01  1.65151E+00
   1.54524E+00  9.04895E-01  2.09098E+00  3.12135E+00  1.55635E+00  8.18023E-01  1.32692E+00  2.48020E+00  7.03883E-01  1.04407E+00
   1.67051E+00  2.26712E+00  1.78245E+00  2.04399E+00  1.28531E+00  2.38880E+00  1.35727E+00  1.86906E+00  1.11978E+00 -1.78030E-01
   1.47636E+00  1.61703E+00  2.29533E+00  3.18217E+00  8.30497E-01  8.74442E-01  7.13921E-01 -2.66616E-01  1.06637E+00  2.88781E-01
   1.92486E+00  2.42990E+00  1.81632E+00  1.33727E+00  1.93531E+00  1.81808E+00  7.91021E-01  4.36790E-01  1.81381E+00  1.14656E+00
   1.97108E+00  3.56327E-01  1.57724E+00  1.76086E+00  1.72688E+00  1.76145E+00  2.30768E+00  1.85007E+00
 NY points of the fit to the data follow
   1.05862E+01  1.05137E+01  1.04574E+01  1.04278E+01  1.04381E+01  1.04634E+01  1.05338E+01  1.07045E+01  1.09409E+01  1.11216E+01
   1.11353E+01  1.09583E+01  1.06495E+01  1.03138E+01  1.00370E+01  9.85678E+00  9.76605E+00  9.71052E+00  9.66143E+00  9.61735E+00
   9.58254E+00  9.55400E+00  9.52882E+00  9.50377E+00  9.46474E+00  9.39343E+00  9.28343E+00  9.17099E+00  9.10039E+00  9.10487E+00
   9.19800E+00  9.34424E+00  9.46689E+00  9.48692E+00  9.37766E+00  9.16529E+00  8.91317E+00  8.69592E+00  8.55995E+00  8.51347E+00
   8.52282E+00  8.54709E+00  8.56432E+00  8.56581E+00  8.55700E+00  8.56321E+00  8.60657E+00  8.66574E+00  8.68497E+00  8.62148E+00
   8.47553E+00  8.28598E+00  8.10378E+00  7.96638E+00  7.88886E+00  7.85811E+00  7.84722E+00  7.84318E+00  7.84522E+00  7.85193E+00
   7.85255E+00  7.83134E+00  7.77841E+00  7.69603E+00  7.59973E+00  7.50925E+00  7.44202E+00  7.40385E+00  7.38435E+00  7.37208E+00
   7.36078E+00  7.34696E+00  7.32523E+00  7.29269E+00  7.25076E+00  7.20089E+00  7.14573E+00  7.08765E+00  7.02922E+00  6.97376E+00
   6.92269E+00  6.87710E+00  6.83455E+00  6.79312E+00  6.75047E+00  6.70089E+00  6.63715E+00  6.55944E+00  6.47939E+00  6.41360E+00
   6.37301E+00  6.35819E+00  6.35908E+00  6.36190E+00  6.35671E+00  6.33869E+00  6.30741E+00  6.26704E+00  6.22426E+00  6.17999E+00
   6.14886E+00  6.14759E+00  6.16816E+00  6.18415E+00  6.17004E+00  6.11902E+00  6.04268E+00  5.96109E+00  5.89017E+00  5.83696E+00
   5.80020E+00  5.76965E+00  5.74100E+00  5.71337E+00  5.68572E+00  5.65772E+00  5.62963E+00  5.60177E+00  5.57415E+00  5.54863E+00
   5.53093E+00  5.54348E+00  5.60763E+00  5.69321E+00  5.86482E+00  6.19830E+00  6.61717E+00  6.92530E+00  6.96299E+00  6.71247E+00
   6.27824E+00  5.82479E+00  5.47167E+00  5.26147E+00  5.16784E+00  5.10866E+00  5.05374E+00  5.00632E+00  4.97318E+00  4.95711E+00
   4.95385E+00  4.95403E+00  4.94807E+00  4.93299E+00  4.91131E+00  4.88605E+00  4.85951E+00  4.83233E+00  4.80448E+00  4.77567E+00
   4.74657E+00  4.71863E+00  4.68994E+00  4.65937E+00  4.62926E+00  4.60296E+00  4.58417E+00  4.57333E+00  4.56269E+00  4.54084E+00
   4.50466E+00  4.46013E+00  4.42032E+00  4.39572E+00  4.38447E+00  4.37619E+00  4.36215E+00  4.33719E+00  4.30161E+00  4.26426E+00
   4.23473E+00  4.21655E+00  4.20709E+00  4.19605E+00  4.17201E+00  4.13530E+00  4.09749E+00  4.07123E+00  4.06007E+00  4.05599E+00
   4.04533E+00  4.02440E+00  4.00284E+00  3.99312E+00  3.99793E+00  4.00821E+00  4.01572E+00  4.02080E+00  4.02658E+00  4.03510E+00
   4.04667E+00  4.04824E+00  4.02272E+00  3.96412E+00  3.88065E+00  3.79029E+00  3.71498E+00  3.67509E+00  3.68265E+00  3.74402E+00
   3.85698E+00  3.99452E+00  4.11692E+00  4.19184E+00  4.19572E+00  4.11130E+00  3.95510E+00  3.73707E+00  3.45789E+00  3.17938E+00
   3.00570E+00  3.00698E+00  3.16975E+00  3.42890E+00  3.70440E+00  3.92214E+00  4.03114E+00  4.01646E+00  3.91647E+00  3.77531E+00
   3.61734E+00  3.47061E+00  3.37427E+00  3.35502E+00  3.40577E+00  3.49750E+00  3.59100E+00  3.65540E+00  3.67689E+00  3.65412E+00
   3.59692E+00  3.52257E+00  3.45926E+00  3.41286E+00  3.36786E+00  3.32309E+00  3.30323E+00  3.32633E+00  3.38867E+00  3.48351E+00
   3.56468E+00  3.57132E+00  3.48375E+00  3.33239E+00  3.17405E+00  3.05490E+00  2.99750E+00  2.99575E+00  3.03278E+00  3.09282E+00
   3.17772E+00  3.31084E+00  3.45971E+00  3.63791E+00  3.90741E+00  4.26995E+00  4.59848E+00  4.75451E+00  4.80155E+00  4.86016E+00
   4.93832E+00  4.93635E+00  4.76813E+00  4.43585E+00  3.99903E+00  3.57516E+00  3.25905E+00  3.08553E+00  3.01479E+00  2.97526E+00
   2.94742E+00  2.92919E+00  2.91924E+00  2.91591E+00  2.91478E+00  2.90871E+00  2.89350E+00  2.87030E+00  2.84389E+00  2.81870E+00
   2.79759E+00  2.78242E+00  2.77266E+00  2.76583E+00  2.75925E+00  2.75105E+00  2.74025E+00  2.72710E+00  2.71208E+00  2.69637E+00
   2.68220E+00  2.67126E+00  2.66331E+00  2.65685E+00  2.64967E+00  2.64050E+00  2.62897E+00  2.61509E+00  2.59983E+00  2.58496E+00
   2.57168E+00  2.56043E+00  2.55101E+00  2.54264E+00  2.53444E+00  2.52582E+00  2.51652E+00  2.50684E+00  2.49703E+00  2.48722E+00
   2.47747E+00  2.46783E+00  2.45830E+00  2.44884E+00  2.43947E+00  2.43019E+00  2.42104E+00  2.41206E+00  2.40328E+00  2.39476E+00
   2.38658E+00  2.37891E+00  2.37200E+00  2.36531E+00  2.35907E+00  2.35398E+00  2.34842E+00  2.33932E+00  2.32515E+00  2.30734E+00
   2.28958E+00  2.27493E+00  2.26432E+00  2.25899E+00  2.26007E+00  2.26606E+00  2.27379E+00  2.28036E+00  2.28428E+00  2.28630E+00
   2.28935E+00  2.29745E+00  2.31530E+00  2.34441E+00  2.38748E+00  2.45075E+00  2.53321E+00  2.62727E+00  2.72819E+00  2.83926E+00
   2.96944E+00  3.12103E+00  3.28855E+00  3.46422E+00  3.63488E+00  3.77758E+00  3.86730E+00  3.88759E+00  3.83321E+00  3.71188E+00
   3.54082E+00  3.34073E+00  3.13188E+00  2.92853E+00  2.74011E+00  2.57358E+00  2.43263E+00  2.31780E+00  2.22728E+00  2.15781E+00
   2.10551E+00  2.06656E+00  2.03756E+00  2.01577E+00  1.99908E+00  1.98598E+00  1.97544E+00  1.96674E+00  1.95945E+00  1.95330E+00
   1.94812E+00  1.94383E+00  1.94039E+00  1.93779E+00  1.93603E+00  1.93514E+00  1.93514E+00  1.93606E+00  1.93792E+00  1.94072E+00
   1.94445E+00  1.94908E+00  1.95456E+00  1.96081E+00  1.96769E+00  1.97506E+00  1.98271E+00  1.99043E+00  1.99797E+00  2.00505E+00
   2.01138E+00  2.01667E+00  2.02063E+00  2.02301E+00  2.02359E+00  2.02217E+00  2.01864E+00  2.01292E+00  2.00501E+00  1.99498E+00
   1.98294E+00  1.96908E+00  1.95360E+00  1.93677E+00  1.91888E+00  1.90020E+00  1.88102E+00  1.86162E+00  1.84224E+00  1.82311E+00
   1.80443E+00  1.78635E+00  1.76897E+00  1.75239E+00  1.73666E+00  1.72179E+00  1.70778E+00  1.69462E+00  1.68227E+00  1.67067E+00
   1.65978E+00  1.64954E+00  1.63990E+00  1.63079E+00  1.62215E+00  1.61395E+00  1.60613E+00  1.59865E+00  1.59147E+00  1.58457E+00
   1.57789E+00  1.57143E+00  1.56516E+00  1.55907E+00  1.55312E+00  1.54731E+00  1.54162E+00  1.53604E+00  1.53056E+00  1.52518E+00
   1.51988E+00  1.51465E+00  1.50950E+00  1.50441E+00  1.49938E+00  1.49441E+00  1.48949E+00  1.48462E+00  1.47979E+00  1.47501E+00
   1.47026E+00  1.46556E+00  1.46089E+00  1.45625E+00  1.45164E+00  1.44706E+00  1.44252E+00  1.43800E+00  1.43350E+00  1.42902E+00
   1.42457E+00  1.42014E+00  1.41573E+00  1.41134E+00  1.40696E+00  1.40261E+00  1.39827E+00  1.39394E+00  1.38963E+00  1.38533E+00
   1.38105E+00  1.37678E+00  1.37252E+00  1.36827E+00  1.36403E+00  1.35980E+00  1.35558E+00  1.35136E+00  1.34716E+00  1.34297E+00
   1.33878E+00  1.33459E+00  1.33041E+00  1.32624E+00  1.32207E+00  1.31791E+00  1.31375E+00  1.30960E+00
 NY background values follow
     1.043E+01    1.039E+01    1.034E+01    1.029E+01    1.024E+01    1.019E+01    1.015E+01    1.010E+01    1.005E+01    1.000E+01
     9.953E+00    9.905E+00    9.857E+00    9.809E+00    9.761E+00    9.713E+00    9.665E+00    9.617E+00    9.569E+00    9.521E+00
     9.474E+00    9.426E+00    9.378E+00    9.331E+00    9.283E+00    9.236E+00    9.188E+00    9.141E+00    9.094E+00    9.046E+00
     8.999E+00    8.952E+00    8.906E+00    8.859E+00    8.812E+00    8.765E+00    8.719E+00    8.673E+00    8.626E+00    8.580E+00
     8.534E+00    8.488E+00    8.443E+00    8.397E+00    8.352E+00    8.306E+00    8.261E+00    8.216E+00    8.171E+00    8.127E+00
     8.082E+00    8.038E+00    7.993E+00    7.949E+00    7.905E+00    7.862E+00    7.818E+00    7.775E+00    7.732E+00    7.688E+00
     7.646E+00    7.603E+00    7.561E+00    7.518E+00    7.476E+00    7.434E+00    7.393E+00    7.351E+00    7.310E+00    7.269E+00
     7.228E+00    7.187E+00    7.147E+00    7.106E+00    7.066E+00    7.026E+00    6.987E+00    6.947E+00    6.908E+00    6.869E+00
     6.831E+00    6.792E+00    6.754E+00    6.716E+00    6.678E+00    6.641E+00    6.603E+00    6.566E+00    6.529E+00    6.493E+00
     6.457E+00    6.421E+00    6.385E+00    6.349E+00    6.314E+00    6.279E+00    6.244E+00    6.210E+00    6.176E+00    6.142E+00
     6.108E+00    6.074E+00    6.041E+00    6.008E+00    5.975E+00    5.943E+00    5.911E+00    5.879E+00    5.847E+00    5.815E+00
     5.784E+00    5.753E+00    5.722E+00    5.692E+00    5.662E+00    5.632E+00    5.602E+00    5.572E+00    5.543E+00    5.514E+00
     5.485E+00    5.457E+00    5.428E+00    5.400E+00    5.372E+00    5.345E+00    5.317E+00    5.290E+00    5.263E+00    5.236E+00
     5.210E+00    5.184E+00    5.158E+00    5.132E+00    5.106E+00    5.081E+00    5.056E+00    5.031E+00    5.007E+00    4.982E+00
     4.958E+00    4.934E+00    4.910E+00    4.887E+00    4.863E+00    4.840E+00    4.817E+00    4.795E+00    4.772E+00    4.750E+00
     4.728E+00    4.706E+00    4.684E+00    4.663E+00    4.641E+00    4.620E+00    4.599E+00    4.578E+00    4.558E+00    4.537E+00
     4.517E+00    4.497E+00    4.477E+00    4.457E+00    4.437E+00    4.418E+00    4.398E+00    4.379E+00    4.360E+00    4.341E+00
     4.322E+00    4.304E+00    4.285E+00    4.267E+00    4.249E+00    4.231E+00    4.213E+00    4.195E+00    4.177E+00    4.159E+00
     4.142E+00    4.124E+00    4.107E+00    4.090E+00    4.073E+00    4.056E+00    4.039E+00    4.022E+00    4.006E+00    3.989E+00
     3.973E+00    3.956E+00    3.940E+00    3.924E+00    3.908E+00    3.892E+00    3.876E+00    3.860E+00    3.845E+00    3.829E+00
     3.814E+00    3.798E+00    3.783E+00    3.768E+00    3.752E+00    3.737E+00    3.722E+00    3.707E+00    3.692E+00    3.677E+00
     3.663E+00    3.648E+00    3.633E+00    3.619E+00    3.604E+00    3.590E+00    3.576E+00    3.561E+00    3.547E+00    3.533E+00
     3.519E+00    3.505E+00    3.491E+00    3.477E+00    3.463E+00    3.449E+00    3.435E+00    3.421E+00    3.407E+00    3.394E+00
     3.380E+00    3.367E+00    3.353E+00    3.339E+00    3.326E+00    3.313E+00    3.299E+00    3.286E+00    3.273E+00    3.259E+00
     3.246E+00    3.233E+00    3.220E+00    3.207E+00    3.194E+00    3.181E+00    3.168E+00    3.155E+00    3.142E+00    3.130E+00
     3.117E+00    3.104E+00    3.092E+00    3.079E+00    3.067E+00    3.054E+00    3.042E+00    3.029E+00    3.017E+00    3.005E+00
     2.992E+00    2.980E+00    2.968E+00    2.956E+00    2.944E+00    2.932E+00    2.920E+00    2.908E+00    2.896E+00    2.884E+00
     2.873E+00    2.861E+00    2.849E+00    2.838E+00    2.826E+00    2.814E+00    2.803E+00    2.791E+00    2.780E+00    2.769E+00
     2.757E+00    2.746E+00    2.735E+00    2.724E+00    2.713E+00    2.702E+00    2.691E+00    2.680E+00    2.669E+00    2.658E+00
     2.647E+00    2.636E+00    2.626E+00    2.615E+00    2.604E+00    2.594E+00    2.583E+00    2.573E+00    2.562E+00    2.552E+00
     2.542E+00    2.532E+00    2.521E+00    2.511E+00    2.501E+00    2.491E+00    2.481E+00    2.471E+00    2.461E+00    2.451E+00
     2.441E+00    2.431E+00    2.422E+00    2.412E+00    2.402E+00    2.393E+00    2.383E+00    2.374E+00    2.364E+00    2.355E+00
     2.346E+00    2.336E+00    2.327E+00    2.318E+00    2.309E+00    2.300E+00    2.290E+00    2.281E+00    2.273E+00    2.264E+00
     2.255E+00    2.246E+00    2.237E+00    2.228E+00    2.220E+00    2.211E+00    2.203E+00    2.194E+00    2.186E+00    2.177E+00
     2.169E+00    2.160E+00    2.152E+00    2.144E+00    2.136E+00    2.128E+00    2.120E+00    2.112E+00    2.104E+00    2.096E+00
     2.088E+00    2.080E+00    2.072E+00    2.064E+00    2.057E+00    2.049E+00    2.041E+00    2.034E+00    2.026E+00    2.019E+00
     2.011E+00    2.004E+00    1.997E+00    1.989E+00    1.982E+00    1.975E+00    1.968E+00    1.961E+00    1.954E+00    1.947E+00
     1.940E+00    1.933E+00    1.926E+00    1.919E+00    1.912E+00    1.905E+00    1.899E+00    1.892E+00    1.885E+00    1.879E+00
     1.872E+00    1.866E+00    1.859E+00    1.853E+00    1.847E+00    1.840E+00    1.834E+00    1.828E+00    1.821E+00    1.815E+00
     1.809E+00    1.803E+00    1.797E+00    1.791E+00    1.785E+00    1.779E+00    1.773E+00    1.767E+00    1.761E+00    1.756E+00
     1.750E+00    1.744E+00    1.738E+00    1.733E+00    1.727E+00    1.722E+00    1.716E+00    1.710E+00    1.705E+00    1.700E+00
     1.694E+00    1.689E+00    1.683E+00    1.678E+00    1.673E+00    1.667E+00    1.662E+00    1.657E+00    1.652E+00    1.647E+00
     1.642E+00    1.636E+00    1.631E+00    1.626E+00    1.621E+00    1.616E+00    1.611E+00    1.606E+00    1.601E+00    1.597E+00
     1.592E+00    1.587E+00    1.582E+00    1.577E+00    1.573E+00    1.568E+00    1.563E+00    1.558E+00    1.554E+00    1.549E+00
     1.544E+00    1.540E+00    1.535E+00    1.531E+00    1.526E+00    1.521E+00    1.517E+00    1.512E+00    1.508E+00    1.504E+00
     1.499E+00    1.495E+00    1.490E+00    1.486E+00    1.481E+00    1.477E+00    1.473E+00    1.468E+00    1.464E+00    1.460E+00
     1.455E+00    1.451E+00    1.447E+00    1.443E+00    1.438E+00    1.434E+00    1.430E+00    1.426E+00    1.421E+00    1.417E+00
     1.413E+00    1.409E+00    1.405E+00    1.401E+00    1.396E+00    1.392E+00    1.388E+00    1.384E+00    1.380E+00    1.376E+00
     1.372E+00    1.368E+00    1.363E+00    1.359E+00    1.355E+00    1.351E+00    1.347E+00    1.343E+00    1.339E+00    1.335E+00
     1.331E+00    1.327E+00    1.323E+00    1.319E+00    1.314E+00    1.310E+00    1.306E+00    1.302E+00
 Ala      Conc. = 1.37E+00
