 LCModel (Version 6.3-1L) Copyright: S.W. Provencher.          Ref.: Magn. Reson. Med. 30:672-679 (1993).                
 Slice#3 Row#12 Col#1  PD_05_press_1_raw_act
 36 lines in following concentration table = NCONC+1
    Conc.  %SD /Cr+PCr  Metabolite                                         
  970.686  23%  19.178 Ala                                                 
    6.466  81%   0.128 Asp                                                 
    0.000 999%   0.000 Cr                                                  
   50.616  56%   1.000 PCr                                                 
    3.501  90% 6.9E-02 GABA                                                
    3.745  85% 7.4E-02 Glc                                                 
    0.000 999%   0.000 Gln                                                 
 3.80E+03   9%  75.131 Glu                                                 
    0.000 999%   0.000 GPC                                                 
   23.880  53%   0.472 PCh                                                 
    0.000 999%   0.000 GSH                                                 
  376.673  39%   7.442 Ins                                                 
  562.381  36%  11.111 Lac                                                 
    0.000 999%   0.000 NAA                                                 
    0.000 999%   0.000 NAAG                                                
    1.381  77% 2.7E-02 Scyllo                                              
    6.753  78%   0.133 Tau                                                 
    4.031 551% 8.0E-02 -CrCH2                                              
   23.880  53%   0.472 GPC+PCh                                             
    0.000 999%   0.000 NAA+NAAG                                            
   50.616  56%   1.000 Cr+PCr                                              
 3.80E+03   9%  75.131 Glu+Gln                                             
    0.000 999%   0.000 Lip13a                                              
    0.000 999%   0.000 Lip13b                                              
    0.000 999%   0.000 Lip09                                               
   88.142  43%   1.741 MM09                                                
    0.000 999%   0.000 Lip20                                               
    0.000 999%   0.000 MM20                                                
   24.476 102%   0.484 MM12                                                
  238.324  30%   4.708 MM14                                                
  273.379  16%   5.401+MM17                                                
    0.000 999%   0.000 Lip13a+Lip13b                                       
  262.800  30%   5.192 MM14+Lip13a+Lip13b+MM12                             
   88.142  43%   1.741 MM09+Lip09                                          
    0.000 999%   0.000 MM20+Lip20                                          
   6 lines in following misc. output table
  FWHM = 0.183 ppm    S/N =   2                                            
  Data shift =-0.038 ppm                                                   
  Ph: -48 deg      11.1 deg/ppm                                            
  alphaB,S = 7.8E-01,   3.6E+02                                            
    9 spline knots.   Ns = 9(2)                                            
  (15) 2 infls.   ( 3) 1 extrs.                                            
  498 points on ppm-axis = NY
      4.000000     3.992357     3.984714     3.977070     3.969427     3.961784     3.954141     3.946497     3.938854     3.931211
      3.923568     3.915925     3.908281     3.900638     3.892995     3.885352     3.877708     3.870065     3.862422     3.854779
      3.847136     3.839492     3.831849     3.824206     3.816563     3.808919     3.801276     3.793633     3.785990     3.778347
      3.770703     3.763060     3.755417     3.747774     3.740130     3.732487     3.724844     3.717201     3.709558     3.701914
      3.694271     3.686628     3.678985     3.671341     3.663698     3.656055     3.648412     3.640769     3.633125     3.625482
      3.617839     3.610196     3.602552     3.594909     3.587266     3.579623     3.571980     3.564336     3.556693     3.549050
      3.541407     3.533763     3.526120     3.518477     3.510834     3.503191     3.495547     3.487904     3.480261     3.472618
      3.464974     3.457331     3.449688     3.442045     3.434402     3.426758     3.419115     3.411472     3.403829     3.396185
      3.388542     3.380899     3.373256     3.365613     3.357969     3.350326     3.342683     3.335040     3.327396     3.319753
      3.312110     3.304467     3.296824     3.289180     3.281537     3.273894     3.266251     3.258607     3.250964     3.243321
      3.235678     3.228034     3.220391     3.212748     3.205105     3.197462     3.189818     3.182175     3.174532     3.166889
      3.159245     3.151602     3.143959     3.136316     3.128673     3.121029     3.113386     3.105743     3.098100     3.090456
      3.082813     3.075170     3.067527     3.059884     3.052240     3.044597     3.036954     3.029311     3.021667     3.014024
      3.006381     2.998738     2.991095     2.983451     2.975808     2.968165     2.960522     2.952878     2.945235     2.937592
      2.929949     2.922306     2.914662     2.907019     2.899376     2.891733     2.884089     2.876446     2.868803     2.861160
      2.853517     2.845873     2.838230     2.830587     2.822944     2.815300     2.807657     2.800014     2.792371     2.784728
      2.777084     2.769441     2.761798     2.754155     2.746511     2.738868     2.731225     2.723582     2.715939     2.708295
      2.700652     2.693009     2.685366     2.677722     2.670079     2.662436     2.654793     2.647150     2.639506     2.631863
      2.624220     2.616577     2.608933     2.601290     2.593647     2.586004     2.578361     2.570717     2.563074     2.555431
      2.547788     2.540144     2.532501     2.524858     2.517215     2.509572     2.501928     2.494285     2.486642     2.478999
      2.471355     2.463712     2.456069     2.448426     2.440783     2.433139     2.425496     2.417853     2.410210     2.402566
      2.394923     2.387280     2.379637     2.371994     2.364350     2.356707     2.349064     2.341421     2.333777     2.326134
      2.318491     2.310848     2.303205     2.295561     2.287918     2.280275     2.272632     2.264988     2.257345     2.249702
      2.242059     2.234416     2.226772     2.219129     2.211486     2.203843     2.196199     2.188556     2.180913     2.173270
      2.165627     2.157983     2.150340     2.142697     2.135054     2.127410     2.119767     2.112124     2.104481     2.096838
      2.089194     2.081551     2.073908     2.066265     2.058621     2.050978     2.043335     2.035692     2.028049     2.020405
      2.012762     2.005119     1.997476     1.989833     1.982190     1.974546     1.966903     1.959260     1.951617     1.943974
      1.936331     1.928688     1.921045     1.913402     1.905759     1.898115     1.890472     1.882829     1.875186     1.867543
      1.859900     1.852257     1.844614     1.836971     1.829327     1.821684     1.814041     1.806398     1.798755     1.791112
      1.783469     1.775826     1.768183     1.760540     1.752896     1.745253     1.737610     1.729967     1.722324     1.714681
      1.707038     1.699395     1.691752     1.684108     1.676465     1.668822     1.661179     1.653536     1.645893     1.638250
      1.630607     1.622964     1.615321     1.607677     1.600034     1.592391     1.584748     1.577105     1.569462     1.561819
      1.554176     1.546533     1.538890     1.531246     1.523603     1.515960     1.508317     1.500674     1.493031     1.485388
      1.477745     1.470102     1.462458     1.454815     1.447172     1.439529     1.431886     1.424243     1.416600     1.408957
      1.401314     1.393671     1.386027     1.378384     1.370741     1.363098     1.355455     1.347812     1.340169     1.332526
      1.324883     1.317240     1.309596     1.301953     1.294310     1.286667     1.279024     1.271381     1.263738     1.256095
      1.248452     1.240808     1.233165     1.225522     1.217879     1.210236     1.202593     1.194950     1.187307     1.179664
      1.172021     1.164377     1.156734     1.149091     1.141448     1.133805     1.126162     1.118519     1.110876     1.103233
      1.095590     1.087946     1.080303     1.072660     1.065017     1.057374     1.049731     1.042088     1.034445     1.026802
      1.019158     1.011515     1.003872     0.996229     0.988586     0.980943     0.973300     0.965657     0.958014     0.950371
      0.942727     0.935084     0.927441     0.919798     0.912155     0.904512     0.896869     0.889226     0.881583     0.873940
      0.866296     0.858653     0.851010     0.843367     0.835724     0.828081     0.820438     0.812795     0.805152     0.797508
      0.789865     0.782222     0.774579     0.766936     0.759293     0.751650     0.744007     0.736364     0.728721     0.721077
      0.713434     0.705791     0.698148     0.690505     0.682862     0.675219     0.667576     0.659933     0.652290     0.644646
      0.637003     0.629360     0.621717     0.614074     0.606431     0.598788     0.591145     0.583502     0.575858     0.568215
      0.560572     0.552929     0.545286     0.537643     0.530000     0.522357     0.514714     0.507071     0.499427     0.491784
      0.484141     0.476498     0.468855     0.461212     0.453569     0.445925     0.438282     0.430639     0.422996     0.415353
      0.407710     0.400067     0.392424     0.384780     0.377137     0.369494     0.361851     0.354208     0.346565     0.338922
      0.331278     0.323635     0.315992     0.308349     0.300706     0.293063     0.285420     0.277777     0.270133     0.262490
      0.254847     0.247204     0.239561     0.231918     0.224275     0.216631     0.208988     0.201345
 NY phased data points follow
  -2.57240E+01 -2.51676E+01 -2.49342E+01 -2.37668E+01 -2.50840E+01 -2.29439E+01 -2.52236E+01 -2.41708E+01 -2.36990E+01 -2.16540E+01
  -2.23390E+01 -2.28176E+01 -2.21029E+01 -2.34394E+01 -2.28486E+01 -2.25216E+01 -2.08409E+01 -2.17744E+01 -1.87513E+01 -2.14496E+01
  -2.03002E+01 -1.99359E+01 -1.92047E+01 -2.00549E+01 -2.00176E+01 -2.07002E+01 -2.00404E+01 -1.97905E+01 -1.93390E+01 -1.86073E+01
  -1.89854E+01 -1.76967E+01 -1.81516E+01 -1.71772E+01 -1.86810E+01 -1.71604E+01 -1.73187E+01 -1.74373E+01 -1.69227E+01 -1.67529E+01
  -1.67339E+01 -1.62602E+01 -1.57427E+01 -1.68101E+01 -1.50269E+01 -1.65610E+01 -1.58277E+01 -1.62015E+01 -1.57594E+01 -1.44276E+01
  -1.49679E+01 -1.62860E+01 -1.45689E+01 -1.34702E+01 -1.45170E+01 -1.27775E+01 -1.41131E+01 -1.35453E+01 -1.41375E+01 -1.30775E+01
  -1.28630E+01 -1.27899E+01 -1.45478E+01 -1.30554E+01 -1.45492E+01 -1.34484E+01 -1.36821E+01 -1.32277E+01 -1.23720E+01 -1.31189E+01
  -1.23483E+01 -1.28510E+01 -1.32812E+01 -1.22622E+01 -1.14573E+01 -1.18986E+01 -1.21022E+01 -1.34488E+01 -1.25053E+01 -1.12523E+01
  -1.12387E+01 -1.19778E+01 -1.03169E+01 -1.10817E+01 -1.15698E+01 -1.02050E+01 -1.09129E+01 -9.86190E+00 -9.74758E+00 -1.09931E+01
  -1.02831E+01 -1.04336E+01 -1.04688E+01 -1.18570E+01 -9.75605E+00 -1.06488E+01 -9.99131E+00 -9.97407E+00 -1.01646E+01 -1.20420E+01
  -9.38431E+00 -1.03596E+01 -9.21151E+00 -9.58054E+00 -1.01909E+01 -9.35884E+00 -9.17650E+00 -1.03525E+01 -9.59562E+00 -9.12632E+00
  -9.21062E+00 -8.48091E+00 -7.70923E+00 -7.08144E+00 -8.75607E+00 -7.73467E+00 -7.25062E+00 -8.26658E+00 -8.25805E+00 -8.95046E+00
  -7.08617E+00 -8.98866E+00 -8.78835E+00 -7.17795E+00 -8.16596E+00 -7.43353E+00 -8.39286E+00 -8.57392E+00 -8.32711E+00 -7.81099E+00
  -6.55721E+00 -7.77854E+00 -9.15138E+00 -8.73363E+00 -7.56163E+00 -8.72286E+00 -6.38572E+00 -7.46759E+00 -8.24291E+00 -8.08755E+00
  -8.22970E+00 -7.24728E+00 -8.22700E+00 -9.37454E+00 -7.33905E+00 -8.38221E+00 -9.72575E+00 -8.22471E+00 -8.82605E+00 -8.11142E+00
  -1.05564E+01 -9.20354E+00 -9.44295E+00 -9.60059E+00 -8.04994E+00 -8.71472E+00 -8.19224E+00 -8.98477E+00 -8.45646E+00 -8.80337E+00
  -8.59974E+00 -8.75325E+00 -8.17906E+00 -8.28991E+00 -9.38826E+00 -7.69880E+00 -7.32597E+00 -6.38116E+00 -7.14672E+00 -8.46741E+00
  -8.01387E+00 -9.32805E+00 -7.97736E+00 -6.76039E+00 -7.64432E+00 -6.94862E+00 -7.13528E+00 -6.62135E+00 -7.24004E+00 -6.92563E+00
  -7.48244E+00 -7.26820E+00 -6.13345E+00 -6.37816E+00 -6.93624E+00 -6.73448E+00 -7.47648E+00 -5.76246E+00 -8.00080E+00 -6.35722E+00
  -7.02403E+00 -7.86148E+00 -6.19609E+00 -7.05657E+00 -7.42281E+00 -7.90484E+00 -7.89486E+00 -8.18661E+00 -7.73034E+00 -7.28684E+00
  -7.99039E+00 -8.35788E+00 -8.89641E+00 -8.57838E+00 -7.96415E+00 -9.80992E+00 -8.82796E+00 -1.05956E+01 -9.40140E+00 -1.07616E+01
  -1.20168E+01 -1.05281E+01 -1.13705E+01 -1.26991E+01 -1.15054E+01 -1.24656E+01 -1.35193E+01 -1.26577E+01 -1.28548E+01 -1.50895E+01
  -1.49435E+01 -1.42024E+01 -1.45219E+01 -1.38949E+01 -1.23510E+01 -1.34909E+01 -1.35084E+01 -1.41873E+01 -1.54524E+01 -1.27450E+01
  -1.35571E+01 -1.49382E+01 -1.25788E+01 -1.24824E+01 -1.24253E+01 -1.26067E+01 -1.32285E+01 -1.28839E+01 -1.22909E+01 -1.32414E+01
  -1.27070E+01 -1.33758E+01 -1.29252E+01 -1.26894E+01 -1.15436E+01 -1.27683E+01 -1.25442E+01 -1.14622E+01 -1.17239E+01 -1.19646E+01
  -1.14438E+01 -1.29795E+01 -1.10530E+01 -1.13208E+01 -1.04662E+01 -1.19079E+01 -1.10812E+01 -1.12133E+01 -9.80370E+00 -1.03096E+01
  -1.29633E+01 -1.06711E+01 -1.07948E+01 -9.93111E+00 -1.12044E+01 -1.10880E+01 -9.89464E+00 -8.52807E+00 -8.52120E+00 -9.10374E+00
  -8.51085E+00 -7.82122E+00 -9.98294E+00 -9.05691E+00 -8.49661E+00 -8.43279E+00 -7.83494E+00 -7.53291E+00 -8.11492E+00 -8.87886E+00
  -7.62058E+00 -7.80706E+00 -9.03219E+00 -6.42792E+00 -7.88163E+00 -6.37975E+00 -7.16987E+00 -7.79245E+00 -7.39190E+00 -7.59954E+00
  -4.88215E+00 -6.65218E+00 -7.40084E+00 -6.24727E+00 -6.17033E+00 -5.48505E+00 -6.48423E+00 -5.78548E+00 -3.89555E+00 -4.05481E+00
  -5.52377E+00 -5.17042E+00 -5.15973E+00 -4.90902E+00 -4.72350E+00 -3.98318E+00 -3.14111E+00 -3.44190E+00 -4.35756E+00 -4.03044E+00
  -4.25600E+00 -5.58920E+00 -3.67371E+00 -2.78994E+00 -3.96884E+00 -4.51064E+00 -5.02027E+00 -4.52190E+00 -5.15449E+00 -3.86040E+00
  -3.58253E+00 -3.44438E+00 -4.42167E+00 -4.27176E+00 -3.75292E+00 -2.47470E+00 -2.57206E+00 -2.99441E+00 -1.98000E+00 -2.12972E+00
  -5.53518E-01 -1.88920E+00 -2.33421E+00 -2.23338E+00 -1.92746E+00 -2.28878E+00 -2.51859E+00 -1.62320E+00 -2.74487E+00 -1.63675E+00
  -1.84375E+00 -3.50800E+00 -2.45951E+00 -2.07285E+00 -2.68793E+00 -1.39872E+00 -1.32163E+00 -1.09166E+00 -2.26350E+00 -2.31721E+00
  -2.49728E+00 -3.10132E+00 -2.27319E+00 -1.79278E+00 -2.46411E+00 -2.19709E+00 -2.15935E+00 -2.89079E+00 -2.15995E+00 -2.56935E+00
  -2.22650E+00 -3.21722E+00 -1.71630E+00 -1.59288E+00 -1.36343E+00 -1.57875E+00 -2.91636E+00 -2.22095E+00 -1.30425E+00 -2.63250E+00
  -2.23754E+00 -3.42848E+00 -5.56669E+00 -3.04932E+00 -3.46760E+00 -3.41055E+00 -2.90186E+00 -2.36884E+00 -2.26276E+00 -2.19513E+00
  -2.84688E+00 -2.62914E+00 -2.51116E+00 -2.94630E+00 -3.26384E+00 -3.20106E+00 -1.77423E+00 -2.40089E+00 -1.68127E+00 -1.72221E+00
  -2.83619E+00 -1.93128E+00 -1.94649E+00 -1.89049E+00 -1.94035E+00 -1.84922E+00 -2.06455E+00 -3.06097E+00 -9.58378E-01 -3.43698E+00
  -1.66322E+00 -1.91151E+00 -2.66944E+00 -1.81732E+00 -2.29126E+00 -1.97004E+00 -2.60491E+00 -1.80793E+00 -1.20936E+00 -8.21145E-01
  -2.23543E+00 -1.69264E+00 -1.40440E+00 -2.96207E+00 -1.57666E+00 -9.77918E-01 -1.29682E+00 -1.55066E+00 -2.62716E+00 -2.08523E+00
  -1.75068E+00 -1.62961E+00 -1.06399E+00 -2.15541E+00 -1.49817E+00 -2.57471E+00 -1.53449E+00 -2.33040E+00 -1.64119E+00 -7.93718E-01
  -2.32243E+00 -3.29620E+00 -9.95177E-01 -2.75360E+00 -1.65778E+00 -1.70854E-03 -2.23701E+00 -1.29693E+00 -2.49031E+00 -1.16893E+00
  -1.39319E+00 -2.78711E+00 -2.33372E+00 -2.67926E+00 -4.53638E-01 -1.48353E+00 -1.49063E+00 -2.81044E+00 -1.28288E+00 -1.50315E+00
  -2.14567E+00 -1.05150E-01 -1.07810E+00 -2.20019E+00 -1.00624E+00 -7.85743E-01  2.47803E-01 -1.55340E+00 -8.70868E-01 -1.87235E+00
  -2.08530E+00 -1.55021E+00 -9.37895E-01 -5.43423E-01 -1.84229E+00 -1.41298E+00 -2.41189E-01  4.50936E-03 -2.33534E+00 -1.42907E+00
  -1.53777E+00 -2.36913E-01 -1.74679E+00 -5.83088E-01 -1.17576E+00 -9.82436E-01 -1.47902E+00 -1.32877E+00 -1.24420E+00 -1.80962E+00
  -1.21837E+00 -9.21482E-01 -1.55059E+00 -1.08774E+00 -1.07830E+00 -1.48936E+00 -1.75598E-01 -6.36671E-01 -1.76996E+00 -9.18336E-01
  -9.80602E-01 -1.40049E+00 -1.44101E+00 -1.56017E+00 -2.62031E+00 -1.90375E+00 -7.76295E-01 -7.55702E-01
 NY points of the fit to the data follow
  -2.52127E+01 -2.48950E+01 -2.48618E+01 -2.45617E+01 -2.44969E+01 -2.41676E+01 -2.40397E+01 -2.36099E+01 -2.33977E+01 -2.29666E+01
  -2.29301E+01 -2.25738E+01 -2.27359E+01 -2.23836E+01 -2.25881E+01 -2.19897E+01 -2.20328E+01 -2.12521E+01 -2.12935E+01 -2.04940E+01
  -2.07101E+01 -1.99702E+01 -2.02244E+01 -1.95256E+01 -1.97687E+01 -1.91196E+01 -1.93302E+01 -1.87305E+01 -1.88506E+01 -1.82747E+01
  -1.82441E+01 -1.77046E+01 -1.76085E+01 -1.72174E+01 -1.71328E+01 -1.69067E+01 -1.67863E+01 -1.66547E+01 -1.64059E+01 -1.63151E+01
  -1.59668E+01 -1.59272E+01 -1.55477E+01 -1.56084E+01 -1.52677E+01 -1.54096E+01 -1.50697E+01 -1.52017E+01 -1.48319E+01 -1.49622E+01
  -1.46831E+01 -1.48139E+01 -1.46123E+01 -1.47278E+01 -1.45359E+01 -1.45358E+01 -1.42894E+01 -1.42525E+01 -1.40638E+01 -1.40419E+01
  -1.39342E+01 -1.39218E+01 -1.37996E+01 -1.37609E+01 -1.36188E+01 -1.35583E+01 -1.34053E+01 -1.33329E+01 -1.31762E+01 -1.30978E+01
  -1.29399E+01 -1.28678E+01 -1.27371E+01 -1.26818E+01 -1.25694E+01 -1.25189E+01 -1.24120E+01 -1.23580E+01 -1.22537E+01 -1.21886E+01
  -1.20995E+01 -1.20285E+01 -1.19531E+01 -1.18761E+01 -1.18088E+01 -1.16936E+01 -1.15908E+01 -1.14711E+01 -1.13364E+01 -1.12287E+01
  -1.10676E+01 -1.09759E+01 -1.07919E+01 -1.07222E+01 -1.05184E+01 -1.04686E+01 -1.02515E+01 -1.02208E+01 -9.99065E+00 -9.97647E+00
  -9.73717E+00 -9.74278E+00 -9.50553E+00 -9.53669E+00 -9.31593E+00 -9.36727E+00 -9.16613E+00 -9.22521E+00 -9.02339E+00 -9.04538E+00
  -8.86100E+00 -8.86000E+00 -8.70898E+00 -8.69282E+00 -8.58594E+00 -8.54704E+00 -8.48259E+00 -8.41345E+00 -8.38310E+00 -8.28201E+00
  -8.28067E+00 -8.15971E+00 -8.18444E+00 -8.05059E+00 -8.09639E+00 -7.94394E+00 -7.99177E+00 -7.85463E+00 -7.91108E+00 -7.79280E+00
  -7.85330E+00 -7.75233E+00 -7.81343E+00 -7.72889E+00 -7.79004E+00 -7.72596E+00 -7.78740E+00 -7.74977E+00 -7.80657E+00 -7.79114E+00
  -7.83746E+00 -7.83565E+00 -7.86946E+00 -7.87401E+00 -7.89764E+00 -7.90772E+00 -7.92405E+00 -7.93845E+00 -7.94288E+00 -7.94450E+00
  -7.94866E+00 -7.95207E+00 -7.95885E+00 -7.96529E+00 -7.97561E+00 -7.98561E+00 -7.99968E+00 -8.01269E+00 -8.03051E+00 -8.04700E+00
  -8.06885E+00 -8.08921E+00 -8.11557E+00 -8.14047E+00 -8.17074E+00 -8.19992E+00 -8.23345E+00 -8.26665E+00 -8.30396E+00 -8.34167E+00
  -8.38118E+00 -8.42226E+00 -8.46299E+00 -8.50731E+00 -8.54875E+00 -8.59555E+00 -8.63636E+00 -8.68441E+00 -8.72374E+00 -8.76992E+00
  -8.80350E+00 -8.84263E+00 -8.87043E+00 -8.90000E+00 -8.91798E+00 -8.92973E+00 -8.92389E+00 -8.89438E+00 -8.84371E+00 -8.84289E+00
  -8.77883E+00 -8.82701E+00 -8.89661E+00 -8.98184E+00 -9.17850E+00 -9.21812E+00 -9.36508E+00 -9.15314E+00 -8.84505E+00 -8.58932E+00
  -8.08843E+00 -8.01321E+00 -7.55199E+00 -7.88401E+00 -7.81539E+00 -8.63264E+00 -8.65295E+00 -9.58334E+00 -9.53808E+00 -1.03950E+01
  -1.02351E+01 -1.09966E+01 -1.07416E+01 -1.14903E+01 -1.12594E+01 -1.20085E+01 -1.18769E+01 -1.25362E+01 -1.24341E+01 -1.29009E+01
  -1.27270E+01 -1.29528E+01 -1.27422E+01 -1.28333E+01 -1.27262E+01 -1.28588E+01 -1.28605E+01 -1.29410E+01 -1.29411E+01 -1.29361E+01
  -1.27581E+01 -1.26276E+01 -1.23404E+01 -1.22196E+01 -1.19057E+01 -1.18372E+01 -1.14853E+01 -1.14645E+01 -1.09801E+01 -1.11448E+01
  -1.07783E+01 -1.10704E+01 -1.07770E+01 -1.11282E+01 -1.10106E+01 -1.13723E+01 -1.12111E+01 -1.14636E+01 -1.13159E+01 -1.14073E+01
  -1.12734E+01 -1.11951E+01 -1.11118E+01 -1.09244E+01 -1.09726E+01 -1.06809E+01 -1.08341E+01 -1.04418E+01 -1.06532E+01 -1.01703E+01
  -1.04064E+01 -9.85889E+00 -1.01464E+01 -9.61311E+00 -9.93880E+00 -9.46834E+00 -9.75902E+00 -9.31483E+00 -9.54058E+00 -9.15190E+00
  -9.30075E+00 -8.99073E+00 -9.13167E+00 -8.92997E+00 -9.05662E+00 -8.89328E+00 -8.96799E+00 -8.82797E+00 -8.84236E+00 -8.72350E+00
  -8.71119E+00 -8.59451E+00 -8.51406E+00 -8.37014E+00 -8.23755E+00 -8.07060E+00 -7.88280E+00 -7.71338E+00 -7.50079E+00 -7.30495E+00
  -7.07258E+00 -6.86196E+00 -6.62629E+00 -6.41973E+00 -6.20487E+00 -6.00867E+00 -5.81536E+00 -5.64724E+00 -5.49547E+00 -5.36999E+00
  -5.26620E+00 -5.18495E+00 -5.12667E+00 -5.08031E+00 -5.04208E+00 -4.99840E+00 -4.93761E+00 -4.83260E+00 -4.62926E+00 -4.28441E+00
  -4.18775E+00 -3.89029E+00 -3.96128E+00 -3.78851E+00 -4.01702E+00 -3.99715E+00 -4.41751E+00 -4.26768E+00 -4.53833E+00 -4.29553E+00
  -4.39928E+00 -4.15479E+00 -4.14150E+00 -3.93302E+00 -3.82699E+00 -3.69025E+00 -3.50017E+00 -3.43150E+00 -3.06704E+00 -2.91826E+00
  -2.51771E+00 -2.44674E+00 -2.06552E+00 -2.14029E+00 -1.82461E+00 -2.13160E+00 -1.93286E+00 -2.22697E+00 -2.02377E+00 -2.21264E+00
  -1.98052E+00 -2.03658E+00 -1.79925E+00 -1.75181E+00 -1.58483E+00 -1.54496E+00 -1.52847E+00 -1.50620E+00 -1.59012E+00 -1.46612E+00
  -1.72409E+00 -1.59497E+00 -1.93172E+00 -1.78340E+00 -2.17749E+00 -2.08565E+00 -2.53852E+00 -2.39046E+00 -2.70773E+00 -2.53799E+00
  -2.75125E+00 -2.54789E+00 -2.67501E+00 -2.46764E+00 -2.54869E+00 -2.41370E+00 -2.47583E+00 -2.41873E+00 -2.44357E+00 -2.39510E+00
  -2.45135E+00 -2.47323E+00 -2.53271E+00 -2.59431E+00 -2.65147E+00 -2.75044E+00 -2.79674E+00 -2.81567E+00 -2.82032E+00 -2.81543E+00
  -2.80359E+00 -2.78600E+00 -2.76368E+00 -2.73696E+00 -2.70637E+00 -2.67196E+00 -2.63410E+00 -2.59277E+00 -2.54833E+00 -2.50081E+00
  -2.45063E+00 -2.39796E+00 -2.34338E+00 -2.28724E+00 -2.23033E+00 -2.17315E+00 -2.11664E+00 -2.06145E+00 -2.00862E+00 -1.95882E+00
  -1.91302E+00 -1.87176E+00 -1.83583E+00 -1.80551E+00 -1.78126E+00 -1.76302E+00 -1.75085E+00 -1.74430E+00 -1.74307E+00 -1.74640E+00
  -1.75376E+00 -1.76415E+00 -1.77693E+00 -1.79108E+00 -1.80599E+00 -1.82075E+00 -1.83489E+00 -1.84772E+00 -1.85897E+00 -1.86817E+00
  -1.87530E+00 -1.88006E+00 -1.88263E+00 -1.88286E+00 -1.88103E+00 -1.87711E+00 -1.87145E+00 -1.86404E+00 -1.85526E+00 -1.84510E+00
  -1.83392E+00 -1.82170E+00 -1.80878E+00 -1.79510E+00 -1.78096E+00 -1.76628E+00 -1.75134E+00 -1.73603E+00 -1.72060E+00 -1.70492E+00
  -1.68923E+00 -1.67338E+00 -1.65758E+00 -1.64170E+00 -1.62593E+00 -1.61012E+00 -1.59447E+00 -1.57881E+00 -1.56334E+00 -1.54789E+00
  -1.53267E+00 -1.51747E+00 -1.50252E+00 -1.48762E+00 -1.47297E+00 -1.45840E+00 -1.44409E+00 -1.42986E+00 -1.41590E+00 -1.40203E+00
  -1.38844E+00 -1.37496E+00 -1.36176E+00 -1.34866E+00 -1.33585E+00 -1.32316E+00 -1.31076E+00 -1.29847E+00 -1.28648E+00 -1.27461E+00
  -1.26303E+00 -1.25158E+00 -1.24043E+00 -1.22939E+00 -1.21866E+00 -1.20805E+00 -1.19773E+00 -1.18753E+00 -1.17763E+00 -1.16785E+00
  -1.15836E+00 -1.14898E+00 -1.13988E+00 -1.13089E+00 -1.12218E+00 -1.11357E+00 -1.10521E+00 -1.09694E+00 -1.08891E+00 -1.08094E+00
  -1.07319E+00 -1.06546E+00 -1.05791E+00 -1.05033E+00 -1.04287E+00 -1.03530E+00 -1.02772E+00 -1.01989E+00
 NY background values follow
    -2.617E+01   -2.599E+01   -2.581E+01   -2.563E+01   -2.545E+01   -2.527E+01   -2.509E+01   -2.491E+01   -2.472E+01   -2.454E+01
    -2.436E+01   -2.418E+01   -2.399E+01   -2.381E+01   -2.363E+01   -2.345E+01   -2.326E+01   -2.308E+01   -2.289E+01   -2.271E+01
    -2.253E+01   -2.234E+01   -2.216E+01   -2.198E+01   -2.179E+01   -2.161E+01   -2.143E+01   -2.124E+01   -2.106E+01   -2.088E+01
    -2.069E+01   -2.051E+01   -2.033E+01   -2.015E+01   -1.997E+01   -1.979E+01   -1.961E+01   -1.943E+01   -1.925E+01   -1.907E+01
    -1.889E+01   -1.871E+01   -1.853E+01   -1.836E+01   -1.818E+01   -1.801E+01   -1.783E+01   -1.766E+01   -1.748E+01   -1.731E+01
    -1.714E+01   -1.697E+01   -1.680E+01   -1.663E+01   -1.646E+01   -1.629E+01   -1.613E+01   -1.596E+01   -1.580E+01   -1.563E+01
    -1.547E+01   -1.531E+01   -1.515E+01   -1.499E+01   -1.483E+01   -1.467E+01   -1.452E+01   -1.436E+01   -1.421E+01   -1.406E+01
    -1.391E+01   -1.376E+01   -1.361E+01   -1.346E+01   -1.332E+01   -1.317E+01   -1.303E+01   -1.289E+01   -1.275E+01   -1.262E+01
    -1.248E+01   -1.235E+01   -1.221E+01   -1.208E+01   -1.195E+01   -1.183E+01   -1.170E+01   -1.158E+01   -1.145E+01   -1.133E+01
    -1.121E+01   -1.110E+01   -1.098E+01   -1.087E+01   -1.075E+01   -1.064E+01   -1.054E+01   -1.043E+01   -1.032E+01   -1.022E+01
    -1.012E+01   -1.002E+01   -9.923E+00   -9.827E+00   -9.733E+00   -9.641E+00   -9.550E+00   -9.462E+00   -9.375E+00   -9.290E+00
    -9.207E+00   -9.126E+00   -9.047E+00   -8.969E+00   -8.894E+00   -8.820E+00   -8.748E+00   -8.678E+00   -8.610E+00   -8.544E+00
    -8.480E+00   -8.418E+00   -8.357E+00   -8.299E+00   -8.242E+00   -8.188E+00   -8.135E+00   -8.084E+00   -8.036E+00   -7.989E+00
    -7.944E+00   -7.901E+00   -7.861E+00   -7.822E+00   -7.785E+00   -7.750E+00   -7.717E+00   -7.686E+00   -7.658E+00   -7.631E+00
    -7.606E+00   -7.583E+00   -7.563E+00   -7.544E+00   -7.527E+00   -7.513E+00   -7.500E+00   -7.490E+00   -7.482E+00   -7.475E+00
    -7.471E+00   -7.469E+00   -7.469E+00   -7.471E+00   -7.476E+00   -7.482E+00   -7.490E+00   -7.501E+00   -7.514E+00   -7.529E+00
    -7.546E+00   -7.565E+00   -7.586E+00   -7.610E+00   -7.635E+00   -7.663E+00   -7.693E+00   -7.725E+00   -7.759E+00   -7.796E+00
    -7.834E+00   -7.874E+00   -7.916E+00   -7.960E+00   -8.006E+00   -8.053E+00   -8.102E+00   -8.152E+00   -8.204E+00   -8.257E+00
    -8.312E+00   -8.368E+00   -8.425E+00   -8.483E+00   -8.543E+00   -8.603E+00   -8.665E+00   -8.727E+00   -8.791E+00   -8.855E+00
    -8.920E+00   -8.985E+00   -9.052E+00   -9.118E+00   -9.186E+00   -9.253E+00   -9.321E+00   -9.390E+00   -9.458E+00   -9.527E+00
    -9.596E+00   -9.665E+00   -9.734E+00   -9.803E+00   -9.872E+00   -9.941E+00   -1.001E+01   -1.008E+01   -1.015E+01   -1.021E+01
    -1.028E+01   -1.035E+01   -1.041E+01   -1.048E+01   -1.054E+01   -1.060E+01   -1.067E+01   -1.073E+01   -1.079E+01   -1.085E+01
    -1.091E+01   -1.097E+01   -1.102E+01   -1.108E+01   -1.113E+01   -1.118E+01   -1.123E+01   -1.128E+01   -1.133E+01   -1.137E+01
    -1.142E+01   -1.146E+01   -1.150E+01   -1.154E+01   -1.158E+01   -1.161E+01   -1.164E+01   -1.167E+01   -1.170E+01   -1.173E+01
    -1.175E+01   -1.177E+01   -1.179E+01   -1.181E+01   -1.182E+01   -1.183E+01   -1.184E+01   -1.184E+01   -1.185E+01   -1.184E+01
    -1.184E+01   -1.183E+01   -1.183E+01   -1.181E+01   -1.180E+01   -1.178E+01   -1.176E+01   -1.174E+01   -1.171E+01   -1.169E+01
    -1.166E+01   -1.162E+01   -1.159E+01   -1.155E+01   -1.151E+01   -1.147E+01   -1.143E+01   -1.138E+01   -1.133E+01   -1.128E+01
    -1.123E+01   -1.118E+01   -1.112E+01   -1.107E+01   -1.101E+01   -1.095E+01   -1.088E+01   -1.082E+01   -1.075E+01   -1.069E+01
    -1.062E+01   -1.055E+01   -1.048E+01   -1.040E+01   -1.033E+01   -1.025E+01   -1.018E+01   -1.010E+01   -1.002E+01   -9.941E+00
    -9.861E+00   -9.779E+00   -9.696E+00   -9.613E+00   -9.529E+00   -9.444E+00   -9.358E+00   -9.272E+00   -9.185E+00   -9.097E+00
    -9.009E+00   -8.921E+00   -8.832E+00   -8.743E+00   -8.653E+00   -8.564E+00   -8.474E+00   -8.383E+00   -8.293E+00   -8.203E+00
    -8.112E+00   -8.022E+00   -7.932E+00   -7.841E+00   -7.751E+00   -7.662E+00   -7.572E+00   -7.483E+00   -7.394E+00   -7.306E+00
    -7.218E+00   -7.130E+00   -7.043E+00   -6.957E+00   -6.871E+00   -6.786E+00   -6.702E+00   -6.619E+00   -6.536E+00   -6.455E+00
    -6.374E+00   -6.294E+00   -6.216E+00   -6.138E+00   -6.061E+00   -5.986E+00   -5.911E+00   -5.838E+00   -5.765E+00   -5.694E+00
    -5.623E+00   -5.553E+00   -5.485E+00   -5.417E+00   -5.350E+00   -5.285E+00   -5.220E+00   -5.156E+00   -5.093E+00   -5.030E+00
    -4.969E+00   -4.909E+00   -4.849E+00   -4.790E+00   -4.732E+00   -4.675E+00   -4.619E+00   -4.564E+00   -4.509E+00   -4.455E+00
    -4.402E+00   -4.350E+00   -4.298E+00   -4.247E+00   -4.197E+00   -4.148E+00   -4.099E+00   -4.051E+00   -4.004E+00   -3.957E+00
    -3.912E+00   -3.866E+00   -3.822E+00   -3.778E+00   -3.735E+00   -3.692E+00   -3.650E+00   -3.609E+00   -3.568E+00   -3.527E+00
    -3.488E+00   -3.449E+00   -3.410E+00   -3.372E+00   -3.335E+00   -3.298E+00   -3.261E+00   -3.225E+00   -3.190E+00   -3.155E+00
    -3.120E+00   -3.086E+00   -3.053E+00   -3.020E+00   -2.987E+00   -2.955E+00   -2.923E+00   -2.891E+00   -2.860E+00   -2.830E+00
    -2.799E+00   -2.769E+00   -2.740E+00   -2.710E+00   -2.681E+00   -2.653E+00   -2.625E+00   -2.597E+00   -2.569E+00   -2.541E+00
    -2.514E+00   -2.487E+00   -2.461E+00   -2.434E+00   -2.408E+00   -2.382E+00   -2.356E+00   -2.331E+00   -2.306E+00   -2.280E+00
    -2.256E+00   -2.231E+00   -2.207E+00   -2.182E+00   -2.158E+00   -2.135E+00   -2.111E+00   -2.088E+00   -2.065E+00   -2.042E+00
    -2.019E+00   -1.997E+00   -1.975E+00   -1.953E+00   -1.931E+00   -1.910E+00   -1.889E+00   -1.868E+00   -1.847E+00   -1.827E+00
    -1.806E+00   -1.786E+00   -1.767E+00   -1.747E+00   -1.728E+00   -1.709E+00   -1.690E+00   -1.672E+00   -1.653E+00   -1.635E+00
    -1.617E+00   -1.600E+00   -1.582E+00   -1.565E+00   -1.549E+00   -1.532E+00   -1.516E+00   -1.500E+00   -1.484E+00   -1.468E+00
    -1.453E+00   -1.438E+00   -1.423E+00   -1.409E+00   -1.395E+00   -1.381E+00   -1.367E+00   -1.353E+00   -1.340E+00   -1.327E+00
    -1.315E+00   -1.302E+00   -1.290E+00   -1.278E+00   -1.266E+00   -1.255E+00   -1.244E+00   -1.233E+00   -1.223E+00   -1.212E+00
    -1.202E+00   -1.193E+00   -1.183E+00   -1.174E+00   -1.165E+00   -1.156E+00   -1.148E+00   -1.140E+00   -1.132E+00   -1.125E+00
    -1.118E+00   -1.111E+00   -1.104E+00   -1.097E+00   -1.091E+00   -1.086E+00   -1.080E+00   -1.075E+00
 Ala      Conc. = 9.71E+02
