 LCModel (Version 6.3-1L) Copyright: S.W. Provencher.          Ref.: Magn. Reson. Med. 30:672-679 (1993).                
 Slice#1 Row#9 Col#12  PD_05_press_1_raw_act
 36 lines in following concentration table = NCONC+1
    Conc.  %SD /Cr+PCr  Metabolite                                         
    0.000 999%   0.000 Ala                                                 
   30.853 182%   0.379 Asp                                                 
    0.000 999%   0.000 Cr                                                  
   81.458  25%   1.000 PCr                                                 
   24.845 142%   0.305 GABA                                                
   46.397  74%   0.570 Glc                                                 
  222.200  46%   2.728 Gln                                                 
  435.869  26%   5.351 Glu                                                 
   26.734  29%   0.328 GPC                                                 
    0.000 999%   0.000 PCh                                                 
    0.000 999%   0.000 GSH                                                 
  153.612  61%   1.886 Ins                                                 
  140.736  41%   1.728 Lac                                                 
  946.446   8%  11.619 NAA                                                 
  122.796  68%   1.507 NAAG                                                
   12.455  68%   0.153 Scyllo                                              
   73.907  71%   0.907 Tau                                                 
   11.861 156%   0.146 -CrCH2                                              
   26.734  29%   0.328 GPC+PCh                                             
 1.07E+03   3%  13.126 NAA+NAAG                                            
   81.458  25%   1.000 Cr+PCr                                              
  658.068  25%   8.079 Glu+Gln                                             
    0.000 999%   0.000 Lip13a                                              
   91.450 132%   1.123 Lip13b                                              
   19.915 182%   0.244 Lip09                                               
  602.448  11%   7.396 MM09                                                
   14.149 151%   0.174 Lip20                                               
 1.10E+03  12%  13.504 MM20                                                
  171.287  33%   2.103 MM12                                                
 1.05E+03  15%  12.930 MM14                                                
  457.774  20%   5.620 MM17                                                
   91.450 132%   1.123 Lip13a+Lip13b                                       
 1.32E+03   9%  16.155 MM14+Lip13a+Lip13b+MM12                             
  622.363  10%   7.640 MM09+Lip09                                          
 1.11E+03  12%  13.678 MM20+Lip20                                          
   6 lines in following misc. output table
  FWHM = 0.061 ppm    S/N =  11                                            
  Data shift =-0.008 ppm                                                   
  Ph: -21 deg     -10.4 deg/ppm                                            
  alphaB,S = 8.5E+01,   2.0E+02                                            
   14 spline knots.   Ns = 7(1)                                            
   2 inflections.     1 extrema                                            
  498 points on ppm-axis = NY
      4.000000     3.992357     3.984714     3.977070     3.969427     3.961784     3.954141     3.946497     3.938854     3.931211
      3.923568     3.915925     3.908281     3.900638     3.892995     3.885352     3.877708     3.870065     3.862422     3.854779
      3.847136     3.839492     3.831849     3.824206     3.816563     3.808919     3.801276     3.793633     3.785990     3.778347
      3.770703     3.763060     3.755417     3.747774     3.740130     3.732487     3.724844     3.717201     3.709558     3.701914
      3.694271     3.686628     3.678985     3.671341     3.663698     3.656055     3.648412     3.640769     3.633125     3.625482
      3.617839     3.610196     3.602552     3.594909     3.587266     3.579623     3.571980     3.564336     3.556693     3.549050
      3.541407     3.533763     3.526120     3.518477     3.510834     3.503191     3.495547     3.487904     3.480261     3.472618
      3.464974     3.457331     3.449688     3.442045     3.434402     3.426758     3.419115     3.411472     3.403829     3.396185
      3.388542     3.380899     3.373256     3.365613     3.357969     3.350326     3.342683     3.335040     3.327396     3.319753
      3.312110     3.304467     3.296824     3.289180     3.281537     3.273894     3.266251     3.258607     3.250964     3.243321
      3.235678     3.228034     3.220391     3.212748     3.205105     3.197462     3.189818     3.182175     3.174532     3.166889
      3.159245     3.151602     3.143959     3.136316     3.128673     3.121029     3.113386     3.105743     3.098100     3.090456
      3.082813     3.075170     3.067527     3.059884     3.052240     3.044597     3.036954     3.029311     3.021667     3.014024
      3.006381     2.998738     2.991095     2.983451     2.975808     2.968165     2.960522     2.952878     2.945235     2.937592
      2.929949     2.922306     2.914662     2.907019     2.899376     2.891733     2.884089     2.876446     2.868803     2.861160
      2.853517     2.845873     2.838230     2.830587     2.822944     2.815300     2.807657     2.800014     2.792371     2.784728
      2.777084     2.769441     2.761798     2.754155     2.746511     2.738868     2.731225     2.723582     2.715939     2.708295
      2.700652     2.693009     2.685366     2.677722     2.670079     2.662436     2.654793     2.647150     2.639506     2.631863
      2.624220     2.616577     2.608933     2.601290     2.593647     2.586004     2.578361     2.570717     2.563074     2.555431
      2.547788     2.540144     2.532501     2.524858     2.517215     2.509572     2.501928     2.494285     2.486642     2.478999
      2.471355     2.463712     2.456069     2.448426     2.440783     2.433139     2.425496     2.417853     2.410210     2.402566
      2.394923     2.387280     2.379637     2.371994     2.364350     2.356707     2.349064     2.341421     2.333777     2.326134
      2.318491     2.310848     2.303205     2.295561     2.287918     2.280275     2.272632     2.264988     2.257345     2.249702
      2.242059     2.234416     2.226772     2.219129     2.211486     2.203843     2.196199     2.188556     2.180913     2.173270
      2.165627     2.157983     2.150340     2.142697     2.135054     2.127410     2.119767     2.112124     2.104481     2.096838
      2.089194     2.081551     2.073908     2.066265     2.058621     2.050978     2.043335     2.035692     2.028049     2.020405
      2.012762     2.005119     1.997476     1.989833     1.982190     1.974546     1.966903     1.959260     1.951617     1.943974
      1.936331     1.928688     1.921045     1.913402     1.905759     1.898115     1.890472     1.882829     1.875186     1.867543
      1.859900     1.852257     1.844614     1.836971     1.829327     1.821684     1.814041     1.806398     1.798755     1.791112
      1.783469     1.775826     1.768183     1.760540     1.752896     1.745253     1.737610     1.729967     1.722324     1.714681
      1.707038     1.699395     1.691752     1.684108     1.676465     1.668822     1.661179     1.653536     1.645893     1.638250
      1.630607     1.622964     1.615321     1.607677     1.600034     1.592391     1.584748     1.577105     1.569462     1.561819
      1.554176     1.546533     1.538890     1.531246     1.523603     1.515960     1.508317     1.500674     1.493031     1.485388
      1.477745     1.470102     1.462458     1.454815     1.447172     1.439529     1.431886     1.424243     1.416600     1.408957
      1.401314     1.393671     1.386027     1.378384     1.370741     1.363098     1.355455     1.347812     1.340169     1.332526
      1.324883     1.317240     1.309596     1.301953     1.294310     1.286667     1.279024     1.271381     1.263738     1.256095
      1.248452     1.240808     1.233165     1.225522     1.217879     1.210236     1.202593     1.194950     1.187307     1.179664
      1.172021     1.164377     1.156734     1.149091     1.141448     1.133805     1.126162     1.118519     1.110876     1.103233
      1.095590     1.087946     1.080303     1.072660     1.065017     1.057374     1.049731     1.042088     1.034445     1.026802
      1.019158     1.011515     1.003872     0.996229     0.988586     0.980943     0.973300     0.965657     0.958014     0.950371
      0.942727     0.935084     0.927441     0.919798     0.912155     0.904512     0.896869     0.889226     0.881583     0.873940
      0.866296     0.858653     0.851010     0.843367     0.835724     0.828081     0.820438     0.812795     0.805152     0.797508
      0.789865     0.782222     0.774579     0.766936     0.759293     0.751650     0.744007     0.736364     0.728721     0.721077
      0.713434     0.705791     0.698148     0.690505     0.682862     0.675219     0.667576     0.659933     0.652290     0.644646
      0.637003     0.629360     0.621717     0.614074     0.606431     0.598788     0.591145     0.583502     0.575858     0.568215
      0.560572     0.552929     0.545286     0.537643     0.530000     0.522357     0.514714     0.507071     0.499427     0.491784
      0.484141     0.476498     0.468855     0.461212     0.453569     0.445925     0.438282     0.430639     0.422996     0.415353
      0.407710     0.400067     0.392424     0.384780     0.377137     0.369494     0.361851     0.354208     0.346565     0.338922
      0.331278     0.323635     0.315992     0.308349     0.300706     0.293063     0.285420     0.277777     0.270133     0.262490
      0.254847     0.247204     0.239561     0.231918     0.224275     0.216631     0.208988     0.201345
 NY phased data points follow
   5.55242E-01  2.98442E+00  2.20187E+00  1.87436E+00  2.13080E+00  2.77214E+00  1.14225E+00  2.27545E+00  1.56788E+00  2.22351E+00
   2.04978E+00  8.77898E-01  3.15506E+00  1.68124E-01  9.08535E-01 -5.67092E-01  4.63827E+00  1.65469E+00  2.64150E+00  1.44089E+00
  -1.51950E-01  1.83523E+00 -2.14709E-01  3.05086E+00  2.02443E+00  1.95202E+00  3.17292E-01  6.91995E-01  2.18453E+00 -7.44126E-01
   2.16120E-02 -6.33278E-01  1.27638E+00  3.00521E+00  2.29703E+00  1.08242E+00  4.48876E-01  3.14209E+00 -8.42493E-01  3.77426E-01
   9.57593E-01  2.94192E+00  2.98764E+00  4.33773E-01 -3.85374E-01  9.66932E-01 -8.32045E-01  2.97801E+00  1.43538E+00  5.73203E-01
   2.50113E+00  4.35078E+00  2.20872E+00  1.24990E+00  6.18148E-01  8.94887E-01  5.74191E-01 -1.43509E+00  2.16011E+00  4.23313E-01
   1.34872E+00 -3.93757E-01  1.16949E+00  1.49839E+00  6.09570E-01  8.75141E-01  7.53035E-01  8.87561E-01  2.21124E+00  2.81302E+00
   8.42990E-01 -4.05592E-01  1.38529E+00  1.61646E+00  1.32012E+00 -2.69284E-01  2.08104E+00  2.79964E+00  4.12120E+00  1.18212E+00
   1.26511E+00  2.36635E+00  3.53160E-01  2.02310E+00  1.73874E+00  3.75720E-01  1.02464E+00  2.17576E+00  5.32463E-01  8.83664E-01
   5.75463E-01  1.69236E+00  1.01163E+00  1.60036E+00  2.81475E+00  1.48105E+00  1.80688E+00  2.46718E+00  1.87468E+00  7.05351E-01
   1.97158E+00  1.97048E+00  3.72047E+00  4.47414E+00 -5.56682E-01  3.92385E+00  4.59901E+00  2.81543E+00  1.05378E+00  2.12943E+00
   9.90806E-01 -1.26507E+00  4.15994E-01 -1.82114E+00  2.48425E+00  1.93355E-01  3.37649E+00  1.98304E+00  4.34713E+00  2.55698E+00
   1.69872E+00  3.02155E+00  2.43293E+00  2.79951E+00  3.05934E+00  1.31442E+00  2.99528E+00  1.78794E+00  4.40392E+00  4.21805E+00
   6.40838E+00  3.88980E+00  2.54786E+00  2.25798E+00  5.12716E-01 -1.02522E+00  1.87517E-01  7.24375E-01  1.60113E+00  2.25781E+00
   2.65501E+00  1.86677E+00  1.00493E+00 -9.61682E-02  9.62107E-01  1.35831E+00  1.19969E+00  1.83660E+00  6.92976E-01  6.44603E-01
   3.92962E-01  1.10029E+00  2.77626E+00  3.45593E-02 -7.39160E-01 -2.61633E-01  1.71565E+00  1.93506E+00  1.16223E+00  4.14002E-01
  -1.26262E+00  1.73050E+00  1.21915E+00  1.67102E+00  1.74980E+00 -7.78407E-01  2.01658E+00 -1.63354E-01 -1.31560E+00 -3.82443E+00
   2.59375E-01 -1.87020E+00 -3.13042E+00 -1.81065E+00 -2.16916E+00  7.69841E-01 -1.76508E+00 -2.91425E+00 -1.54048E-01 -6.20100E-01
  -3.18187E-01 -1.02382E+00 -1.31333E+00  3.10777E-01  2.17185E-02 -2.55707E+00  5.55687E-01 -2.39095E-01  2.20709E+00 -1.40686E+00
  -2.01620E+00  6.65324E-01 -8.04381E-01  5.05950E-01  9.58051E-02 -9.83332E-02  1.17833E+00 -2.93278E-01 -1.63158E+00  9.48134E-02
  -2.33330E+00 -6.26807E-01 -1.78349E+00 -3.34701E-01  8.56050E-02  3.80190E+00  2.42272E+00  1.36216E+00  1.66661E+00  9.46015E-01
  -2.96827E-01  1.41044E+00  3.76080E-01  5.63594E-01  2.59131E+00  4.89439E+00  4.73207E+00  4.16957E+00  3.75170E+00  5.65707E+00
   2.94112E+00  5.13764E-01  4.48114E-01 -1.47988E-01  3.35028E-01  1.48725E+00  1.87768E+00  1.87133E+00  4.19848E+00  4.46996E+00
   4.60195E+00  4.72269E+00  1.80053E+00  8.26903E-01  1.74328E+00  2.53231E+00  8.98546E-01  5.63239E+00  3.00173E+00  3.15743E+00
   3.33349E+00  5.51428E+00  3.91250E+00  3.91665E+00  4.42870E+00  4.15657E+00  4.51975E+00  6.38116E+00  4.48013E+00  7.00974E+00
   8.11833E+00  7.94019E+00  9.69325E+00  1.19351E+01  1.61446E+01  1.83815E+01  2.15320E+01  2.64194E+01  2.90545E+01  3.25210E+01
   3.57125E+01  3.58152E+01  3.55565E+01  2.82316E+01  2.27419E+01  1.29011E+01  5.89135E+00  5.73849E+00  2.24986E-01  4.88539E-01
   3.17384E+00  4.65878E+00  5.99029E+00  3.30211E+00  5.37156E+00  5.30439E+00  1.94811E+00  1.70375E+00  3.72068E+00  1.18820E+00
   3.06023E+00  1.52456E+00  3.20657E+00  1.91556E+00  3.47168E-01  1.71347E+00  3.17564E+00  3.58620E+00  2.30791E+00  1.65691E+00
   2.23104E+00  1.62475E+00  2.73759E+00  1.62626E+00  2.62782E+00  1.89824E+00  3.20340E+00  2.60196E+00  3.11936E+00  2.87042E+00
   3.02293E+00  2.48755E+00  3.14075E+00  3.83697E+00  4.78430E+00  4.50696E+00  3.41127E+00  2.20351E+00  5.43059E+00  3.52139E+00
   2.77073E+00  3.37384E+00  6.02821E+00  5.33499E+00  3.36533E+00  4.69050E+00  3.28494E+00  1.25634E+00  3.08610E+00  3.26066E+00
   1.88320E+00  1.23923E+00  4.03075E+00  1.78882E+00  2.24043E+00  5.87384E+00  4.64912E+00  5.92512E+00  5.32127E+00  4.81731E+00
   5.95843E+00  5.57159E+00  7.15988E+00  5.16791E+00  4.29163E+00  5.98018E+00  8.08612E+00  5.40395E+00  7.39964E+00  6.31148E+00
   6.08260E+00  7.56334E+00  6.48831E+00  8.87619E+00  6.60381E+00  1.05680E+01  9.99639E+00  8.28298E+00  8.01339E+00  5.76581E+00
   6.24066E+00  5.66550E+00  2.02687E+00  3.25029E+00  4.25919E+00  4.35707E+00  4.22116E+00  4.96983E+00  3.17362E+00  2.34664E+00
   5.04291E+00  4.13200E+00  1.90149E+00  1.84505E+00  3.75796E+00  2.21890E+00  3.70511E+00  9.08954E-01  1.43036E+00  1.58864E+00
   2.03465E+00  2.12842E+00  2.69081E+00  2.51755E+00  3.02542E+00  9.29058E-01  2.30194E+00  8.47311E-01  1.89503E+00 -1.92720E-01
   1.03890E+00  2.82632E+00 -1.53433E+00 -9.52157E-01  8.18363E-01  8.92642E-01  2.49002E+00  2.53868E+00  1.86347E+00  9.63097E-01
   2.82825E+00  4.45573E+00  2.48914E+00  2.92245E+00  2.90317E+00  3.68185E+00  6.12719E+00  6.08093E+00  7.09873E+00  6.41776E+00
   6.57404E+00  4.39882E+00  5.38681E+00  4.83683E+00  6.80615E+00  5.08705E+00  4.94626E+00  4.82070E+00  7.66410E+00  3.49145E+00
   4.96848E+00  4.11234E+00  3.71356E+00  5.31755E+00  3.09678E+00  3.89555E-01  7.18151E-01  2.73924E+00 -1.46299E+00  1.32122E+00
   2.68810E-01  1.45468E+00  2.76873E+00  4.15040E-01 -2.74744E-01  3.26088E-01  1.58881E+00  8.18210E-02 -1.47099E+00  1.06157E+00
  -4.35865E-01 -9.93244E-01  8.20071E-01  7.71696E-01 -1.01054E-01  2.17622E+00 -7.04046E-01  2.20877E+00  3.56953E-01  1.86716E+00
   1.62638E+00  1.99606E+00 -1.13808E+00 -6.65307E-01  1.55226E+00  6.96458E-01 -6.77148E-01  1.34823E+00  7.31573E-01 -1.67379E-01
  -1.61348E-01  1.07981E+00  1.37965E+00 -1.85154E+00  7.04511E-01  9.98900E-01 -4.33524E-02  2.34899E-01  8.67500E-01  1.16716E+00
   5.82989E-01  1.38703E+00 -1.64751E+00 -1.44641E+00 -4.68699E-01 -2.37072E-01 -1.51566E+00  3.16112E-01  3.42351E+00  2.79349E-01
  -7.10687E-01 -1.07901E+00 -4.79949E-01 -2.64976E+00 -1.61218E-02 -1.61449E+00 -6.17187E-02 -1.10406E+00  1.97043E+00  2.56484E+00
   1.85291E+00 -4.07896E-01  2.25369E-01 -1.23103E-01  2.18393E-01  1.87588E+00  4.63894E-01 -1.37214E+00  3.75791E-01  1.23979E-01
  -8.25938E-01  2.23155E+00  1.53665E+00  1.50589E+00  1.56561E+00 -5.15711E-01  1.36344E+00  3.00978E-01
 NY points of the fit to the data follow
   9.38663E-01  8.59130E-01  8.80838E-01  9.95514E-01  1.16261E+00  1.35931E+00  1.57298E+00  1.79145E+00  1.99719E+00  2.16069E+00
   2.24420E+00  2.21453E+00  2.06195E+00  1.81289E+00  1.52699E+00  1.27403E+00  1.10276E+00  1.02635E+00  1.02786E+00  1.07232E+00
   1.13357E+00  1.17907E+00  1.19618E+00  1.18595E+00  1.14755E+00  1.10048E+00  1.05696E+00  1.01142E+00  9.79353E-01  9.88427E-01
   1.07889E+00  1.27277E+00  1.55034E+00  1.84648E+00  2.04855E+00  2.04943E+00  1.81901E+00  1.42352E+00  9.98225E-01  6.88885E-01
   5.93029E-01  7.24398E-01  1.00477E+00  1.31950E+00  1.58316E+00  1.76688E+00  1.88294E+00  1.95259E+00  1.98234E+00  1.95704E+00
   1.85367E+00  1.66409E+00  1.41670E+00  1.17091E+00  9.85063E-01  8.93083E-01  8.90519E-01  9.46082E-01  1.02492E+00  1.10511E+00
   1.17601E+00  1.22585E+00  1.24782E+00  1.23538E+00  1.18785E+00  1.12466E+00  1.07001E+00  1.03985E+00  1.05003E+00  1.10447E+00
   1.18202E+00  1.26175E+00  1.33443E+00  1.39626E+00  1.44398E+00  1.47446E+00  1.47785E+00  1.44242E+00  1.36968E+00  1.28960E+00
   1.22621E+00  1.18672E+00  1.18242E+00  1.22108E+00  1.29139E+00  1.36408E+00  1.40240E+00  1.37863E+00  1.28659E+00  1.14210E+00
   9.77170E-01  8.30354E-01  7.37975E-01  7.06191E-01  7.24525E-01  7.98482E-01  9.74128E-01  1.23052E+00  1.52726E+00  1.85313E+00
   2.19975E+00  2.54878E+00  2.86219E+00  3.08935E+00  3.17681E+00  3.08442E+00  2.80618E+00  2.38944E+00  1.92824E+00  1.53050E+00
   1.26697E+00  1.13997E+00  1.09829E+00  1.08764E+00  1.08805E+00  1.09691E+00  1.11171E+00  1.13121E+00  1.15948E+00  1.22576E+00
   1.39884E+00  1.66222E+00  1.96978E+00  2.31356E+00  2.69875E+00  3.11130E+00  3.50823E+00  3.81998E+00  3.96706E+00  3.89042E+00
   3.57808E+00  3.08619E+00  2.52985E+00  2.03731E+00  1.69038E+00  1.49427E+00  1.39640E+00  1.34044E+00  1.30216E+00  1.27444E+00
   1.25066E+00  1.22498E+00  1.19565E+00  1.16368E+00  1.13092E+00  1.09876E+00  1.06707E+00  1.03248E+00  9.92065E-01  9.47414E-01
   9.02082E-01  8.61713E-01  8.30705E-01  7.89816E-01  7.13021E-01  6.17163E-01  5.21124E-01  4.40354E-01  3.76265E-01  2.93195E-01
   1.87221E-01  8.40483E-02  1.43551E-02 -4.15991E-03  2.55458E-02  6.86555E-02  6.62513E-02 -3.26908E-02 -2.44657E-01 -5.42202E-01
  -8.22888E-01 -1.00847E+00 -1.10405E+00 -1.16123E+00 -1.23128E+00 -1.29677E+00 -1.32122E+00 -1.28094E+00 -1.17799E+00 -1.04895E+00
  -9.40706E-01 -8.45576E-01 -7.56788E-01 -6.59759E-01 -5.20718E-01 -3.09930E-01 -3.39368E-02  2.71612E-01  5.87898E-01  9.16662E-01
   1.24331E+00  1.51024E+00  1.67005E+00  1.70987E+00  1.65854E+00  1.57532E+00  1.53383E+00  1.55859E+00  1.63705E+00  1.76438E+00
   1.93284E+00  2.13021E+00  2.32935E+00  2.44690E+00  2.42445E+00  2.21372E+00  1.76853E+00  1.14668E+00  4.72550E-01 -7.83923E-02
  -3.83031E-01 -3.88857E-01 -6.94238E-02  5.43854E-01  1.33415E+00  2.09884E+00  2.63013E+00  2.81358E+00  2.62646E+00  2.10597E+00
   1.38924E+00  6.81879E-01  2.00224E-01  9.27647E-02  3.81613E-01  9.83091E-01  1.75307E+00  2.52719E+00  3.14907E+00  3.50641E+00
   3.60452E+00  3.54173E+00  3.43929E+00  3.38027E+00  3.39836E+00  3.49321E+00  3.62940E+00  3.80333E+00  4.01131E+00  4.22786E+00
   4.41804E+00  4.56159E+00  4.64410E+00  4.66711E+00  4.66739E+00  4.70572E+00  4.83592E+00  5.07443E+00  5.43507E+00  5.97369E+00
   6.64256E+00  7.41534E+00  8.62777E+00  1.11577E+01  1.46703E+01  1.84883E+01  2.24079E+01  2.63871E+01  3.02100E+01  3.34155E+01
   3.53550E+01  3.53376E+01  3.29036E+01  2.81036E+01  2.16906E+01  1.49645E+01  9.32698E+00  5.62752E+00  3.80955E+00  3.12598E+00
   2.83253E+00  2.65110E+00  2.53197E+00  2.45454E+00  2.40074E+00  2.35614E+00  2.30709E+00  2.24107E+00  2.15398E+00  2.05378E+00
   1.95532E+00  1.87355E+00  1.81820E+00  1.79078E+00  1.78709E+00  1.80281E+00  1.83369E+00  1.87559E+00  1.92648E+00  1.98722E+00
   2.06071E+00  2.14925E+00  2.25248E+00  2.36870E+00  2.49487E+00  2.62657E+00  2.75942E+00  2.89038E+00  3.01779E+00  3.14086E+00
   3.25858E+00  3.36896E+00  3.46895E+00  3.55507E+00  3.62383E+00  3.67210E+00  3.69798E+00  3.70125E+00  3.68345E+00  3.64724E+00
   3.59588E+00  3.53308E+00  3.46302E+00  3.39015E+00  3.31919E+00  3.25489E+00  3.20196E+00  3.16490E+00  3.14785E+00  3.15443E+00
   3.18766E+00  3.24981E+00  3.34239E+00  3.46612E+00  3.62088E+00  3.80566E+00  4.01858E+00  4.25679E+00  4.51665E+00  4.79369E+00
   5.08277E+00  5.37819E+00  5.67385E+00  5.96353E+00  6.24118E+00  6.50131E+00  6.73950E+00  6.95314E+00  7.14278E+00  7.31589E+00
   7.49549E+00  7.67968E+00  7.79637E+00  7.82161E+00  7.76296E+00  7.61449E+00  7.34700E+00  6.92240E+00  6.35585E+00  5.71474E+00
   5.04030E+00  4.40617E+00  3.92498E+00  3.69479E+00  3.74352E+00  4.00507E+00  4.34442E+00  4.61435E+00  4.71143E+00  4.59356E+00
   4.27467E+00  3.82592E+00  3.35144E+00  2.93930E+00  2.62479E+00  2.39102E+00  2.20838E+00  2.06107E+00  1.94071E+00  1.84170E+00
   1.76001E+00  1.69268E+00  1.63765E+00  1.59362E+00  1.55987E+00  1.53621E+00  1.52284E+00  1.52032E+00  1.52952E+00  1.55154E+00
   1.58770E+00  1.63947E+00  1.70841E+00  1.79617E+00  1.90435E+00  2.03444E+00  2.18768E+00  2.36489E+00  2.56634E+00  2.79158E+00
   3.03927E+00  3.30703E+00  3.59135E+00  3.88749E+00  4.18956E+00  4.49058E+00  4.78274E+00  5.05760E+00  5.30650E+00  5.52095E+00
   5.69313E+00  5.81631E+00  5.88523E+00  5.89648E+00  5.84868E+00  5.74263E+00  5.58124E+00  5.36935E+00  5.11350E+00  4.82145E+00
   4.50183E+00  4.16360E+00  3.81565E+00  3.46633E+00  3.12317E+00  2.79258E+00  2.47972E+00  2.18842E+00  1.92125E+00  1.67959E+00
   1.46375E+00  1.27319E+00  1.10668E+00  9.62540E-01  8.38767E-01  7.33212E-01  6.43692E-01  5.68086E-01  5.04419E-01  4.50890E-01
   4.05903E-01  3.68060E-01  3.36158E-01  3.09182E-01  2.86286E-01  2.66770E-01  2.50060E-01  2.35677E-01  2.23231E-01  2.12405E-01
   2.02948E-01  1.94651E-01  1.87345E-01  1.80881E-01  1.75140E-01  1.70025E-01  1.65458E-01  1.61372E-01  1.57707E-01  1.54407E-01
   1.51431E-01  1.48744E-01  1.46320E-01  1.44130E-01  1.42149E-01  1.40352E-01  1.38722E-01  1.37246E-01  1.35912E-01  1.34705E-01
   1.33612E-01  1.32619E-01  1.31721E-01  1.30914E-01  1.30192E-01  1.29545E-01  1.28966E-01  1.28448E-01  1.27991E-01  1.27593E-01
   1.27249E-01  1.26953E-01  1.26701E-01  1.26492E-01  1.26329E-01  1.26210E-01  1.26132E-01  1.26089E-01  1.26080E-01  1.26107E-01
   1.26173E-01  1.26276E-01  1.26414E-01  1.26583E-01  1.26788E-01  1.27031E-01  1.27316E-01  1.27642E-01  1.28007E-01  1.28413E-01
   1.28865E-01  1.29369E-01  1.29930E-01  1.30547E-01  1.31225E-01  1.31970E-01  1.32794E-01  1.33706E-01
 NY background values follow
     5.843E-01    5.838E-01    5.833E-01    5.829E-01    5.824E-01    5.819E-01    5.814E-01    5.810E-01    5.805E-01    5.800E-01
     5.796E-01    5.791E-01    5.786E-01    5.781E-01    5.777E-01    5.772E-01    5.767E-01    5.763E-01    5.758E-01    5.753E-01
     5.748E-01    5.744E-01    5.739E-01    5.734E-01    5.729E-01    5.725E-01    5.720E-01    5.715E-01    5.710E-01    5.706E-01
     5.701E-01    5.696E-01    5.691E-01    5.687E-01    5.682E-01    5.677E-01    5.672E-01    5.668E-01    5.663E-01    5.658E-01
     5.653E-01    5.649E-01    5.644E-01    5.639E-01    5.634E-01    5.630E-01    5.625E-01    5.620E-01    5.615E-01    5.610E-01
     5.606E-01    5.601E-01    5.596E-01    5.591E-01    5.586E-01    5.582E-01    5.577E-01    5.572E-01    5.567E-01    5.562E-01
     5.558E-01    5.553E-01    5.548E-01    5.543E-01    5.538E-01    5.534E-01    5.529E-01    5.524E-01    5.519E-01    5.514E-01
     5.509E-01    5.505E-01    5.500E-01    5.495E-01    5.490E-01    5.485E-01    5.480E-01    5.476E-01    5.471E-01    5.466E-01
     5.461E-01    5.456E-01    5.451E-01    5.447E-01    5.442E-01    5.437E-01    5.432E-01    5.427E-01    5.422E-01    5.417E-01
     5.413E-01    5.408E-01    5.403E-01    5.398E-01    5.393E-01    5.388E-01    5.383E-01    5.379E-01    5.374E-01    5.369E-01
     5.364E-01    5.359E-01    5.354E-01    5.349E-01    5.344E-01    5.339E-01    5.335E-01    5.330E-01    5.325E-01    5.320E-01
     5.315E-01    5.310E-01    5.305E-01    5.300E-01    5.295E-01    5.291E-01    5.286E-01    5.281E-01    5.276E-01    5.271E-01
     5.266E-01    5.261E-01    5.256E-01    5.251E-01    5.246E-01    5.241E-01    5.237E-01    5.232E-01    5.227E-01    5.222E-01
     5.217E-01    5.212E-01    5.207E-01    5.202E-01    5.197E-01    5.192E-01    5.187E-01    5.182E-01    5.177E-01    5.172E-01
     5.168E-01    5.163E-01    5.158E-01    5.153E-01    5.148E-01    5.143E-01    5.138E-01    5.133E-01    5.128E-01    5.123E-01
     5.118E-01    5.113E-01    5.108E-01    5.103E-01    5.098E-01    5.093E-01    5.088E-01    5.083E-01    5.078E-01    5.073E-01
     5.068E-01    5.063E-01    5.059E-01    5.054E-01    5.049E-01    5.044E-01    5.039E-01    5.034E-01    5.029E-01    5.024E-01
     5.019E-01    5.014E-01    5.009E-01    5.004E-01    4.999E-01    4.994E-01    4.989E-01    4.984E-01    4.979E-01    4.974E-01
     4.969E-01    4.964E-01    4.959E-01    4.954E-01    4.949E-01    4.944E-01    4.939E-01    4.934E-01    4.929E-01    4.924E-01
     4.919E-01    4.914E-01    4.909E-01    4.904E-01    4.899E-01    4.894E-01    4.889E-01    4.884E-01    4.879E-01    4.874E-01
     4.869E-01    4.864E-01    4.859E-01    4.854E-01    4.849E-01    4.844E-01    4.839E-01    4.834E-01    4.829E-01    4.824E-01
     4.819E-01    4.814E-01    4.809E-01    4.803E-01    4.798E-01    4.793E-01    4.788E-01    4.783E-01    4.778E-01    4.773E-01
     4.768E-01    4.763E-01    4.758E-01    4.753E-01    4.748E-01    4.743E-01    4.738E-01    4.733E-01    4.728E-01    4.723E-01
     4.718E-01    4.713E-01    4.708E-01    4.703E-01    4.698E-01    4.693E-01    4.688E-01    4.682E-01    4.677E-01    4.672E-01
     4.667E-01    4.662E-01    4.657E-01    4.652E-01    4.647E-01    4.642E-01    4.637E-01    4.632E-01    4.627E-01    4.622E-01
     4.617E-01    4.612E-01    4.607E-01    4.601E-01    4.596E-01    4.591E-01    4.586E-01    4.581E-01    4.576E-01    4.571E-01
     4.566E-01    4.561E-01    4.556E-01    4.551E-01    4.546E-01    4.541E-01    4.535E-01    4.530E-01    4.525E-01    4.520E-01
     4.515E-01    4.510E-01    4.505E-01    4.500E-01    4.495E-01    4.490E-01    4.485E-01    4.479E-01    4.474E-01    4.469E-01
     4.464E-01    4.459E-01    4.454E-01    4.449E-01    4.444E-01    4.439E-01    4.434E-01    4.428E-01    4.423E-01    4.418E-01
     4.413E-01    4.408E-01    4.403E-01    4.398E-01    4.393E-01    4.388E-01    4.383E-01    4.377E-01    4.372E-01    4.367E-01
     4.362E-01    4.357E-01    4.352E-01    4.347E-01    4.342E-01    4.337E-01    4.331E-01    4.326E-01    4.321E-01    4.316E-01
     4.311E-01    4.306E-01    4.301E-01    4.296E-01    4.290E-01    4.285E-01    4.280E-01    4.275E-01    4.270E-01    4.265E-01
     4.260E-01    4.255E-01    4.249E-01    4.244E-01    4.239E-01    4.234E-01    4.229E-01    4.224E-01    4.219E-01    4.214E-01
     4.208E-01    4.203E-01    4.198E-01    4.193E-01    4.188E-01    4.183E-01    4.178E-01    4.172E-01    4.167E-01    4.162E-01
     4.157E-01    4.152E-01    4.147E-01    4.142E-01    4.136E-01    4.131E-01    4.126E-01    4.121E-01    4.116E-01    4.111E-01
     4.106E-01    4.100E-01    4.095E-01    4.090E-01    4.085E-01    4.080E-01    4.075E-01    4.070E-01    4.064E-01    4.059E-01
     4.054E-01    4.049E-01    4.044E-01    4.039E-01    4.033E-01    4.028E-01    4.023E-01    4.018E-01    4.013E-01    4.008E-01
     4.003E-01    3.997E-01    3.992E-01    3.987E-01    3.982E-01    3.977E-01    3.972E-01    3.966E-01    3.961E-01    3.956E-01
     3.951E-01    3.946E-01    3.941E-01    3.935E-01    3.930E-01    3.925E-01    3.920E-01    3.915E-01    3.910E-01    3.904E-01
     3.899E-01    3.894E-01    3.889E-01    3.884E-01    3.879E-01    3.873E-01    3.868E-01    3.863E-01    3.858E-01    3.853E-01
     3.848E-01    3.842E-01    3.837E-01    3.832E-01    3.827E-01    3.822E-01    3.817E-01    3.811E-01    3.806E-01    3.801E-01
     3.796E-01    3.791E-01    3.786E-01    3.780E-01    3.775E-01    3.770E-01    3.765E-01    3.760E-01    3.755E-01    3.749E-01
     3.744E-01    3.739E-01    3.734E-01    3.729E-01    3.723E-01    3.718E-01    3.713E-01    3.708E-01    3.703E-01    3.698E-01
     3.692E-01    3.687E-01    3.682E-01    3.677E-01    3.672E-01    3.667E-01    3.661E-01    3.656E-01    3.651E-01    3.646E-01
     3.641E-01    3.635E-01    3.630E-01    3.625E-01    3.620E-01    3.615E-01    3.610E-01    3.604E-01    3.599E-01    3.594E-01
     3.589E-01    3.584E-01    3.578E-01    3.573E-01    3.568E-01    3.563E-01    3.558E-01    3.553E-01    3.547E-01    3.542E-01
     3.537E-01    3.532E-01    3.527E-01    3.521E-01    3.516E-01    3.511E-01    3.506E-01    3.501E-01    3.496E-01    3.490E-01
     3.485E-01    3.480E-01    3.475E-01    3.470E-01    3.464E-01    3.459E-01    3.454E-01    3.449E-01    3.444E-01    3.439E-01
     3.433E-01    3.428E-01    3.423E-01    3.418E-01    3.413E-01    3.407E-01    3.402E-01    3.397E-01    3.392E-01    3.387E-01
     3.381E-01    3.376E-01    3.371E-01    3.366E-01    3.361E-01    3.356E-01    3.350E-01    3.345E-01
 Asp      Conc. = 3.09E+01
