 LCModel (Version 6.3-1L) Copyright: S.W. Provencher.          Ref.: Magn. Reson. Med. 30:672-679 (1993).                
 Slice#1 Row#13 Col#5  PD_05_press_1_raw_act
 36 lines in following concentration table = NCONC+1
    Conc.  %SD /Cr+PCr  Metabolite                                         
  139.963  47%   1.154 Ala                                                 
   27.381 127%   0.226 Asp                                                 
   83.460  98%   0.688 Cr                                                  
   37.868 222%   0.312 PCr                                                 
   16.991 125%   0.140 GABA                                                
   16.996 125%   0.140 Glc                                                 
  404.971  39%   3.338 Gln                                                 
  524.554  35%   4.323 Glu                                                 
   42.947  20%   0.354 GPC                                                 
    0.000 999%   0.000 PCh                                                 
  138.007  26%   1.137 GSH                                                 
  148.380  82%   1.223 Ins                                                 
  134.741  55%   1.111 Lac                                                 
  306.974   8%   2.530 NAA                                                 
    0.000 999%   0.000 NAAG                                                
   15.547  41%   0.128 Scyllo                                              
   51.109  67%   0.421 Tau                                                 
  239.364  17%   1.973+-CrCH2                                              
   42.947  20%   0.354 GPC+PCh                                             
  306.974   8%   2.530 NAA+NAAG                                            
  121.328  19%   1.000 Cr+PCr                                              
  929.526  32%   7.661 Glu+Gln                                             
   32.470 358%   0.268 Lip13a                                              
    0.000 999%   0.000 Lip13b                                              
    2.675 999% 2.2E-02 Lip09                                               
  203.786  30%   1.680 MM09                                                
    4.046 552% 3.3E-02 Lip20                                               
  304.569  31%   2.510 MM20                                                
   63.152  36%   0.521 MM12                                                
  176.057  38%   1.451 MM14                                                
   95.511  44%   0.787 MM17                                                
   32.470 358%   0.268 Lip13a+Lip13b                                       
  271.680  48%   2.239 MM14+Lip13a+Lip13b+MM12                             
  206.461  30%   1.702 MM09+Lip09                                          
  308.615  31%   2.544 MM20+Lip20                                          
   6 lines in following misc. output table
  FWHM = 0.061 ppm    S/N =   3                                            
  Data shift = 0.000 ppm                                                   
  Ph: -25 deg      -7.6 deg/ppm                                            
  alphaB,S = 1.2E+00,   2.6E+01                                            
   14 spline knots.   Ns = 7(1)                                            
  (10) 7 infls.   (11) 3 extrs.                                            
  498 points on ppm-axis = NY
      4.000000     3.992357     3.984714     3.977070     3.969427     3.961784     3.954141     3.946497     3.938854     3.931211
      3.923568     3.915925     3.908281     3.900638     3.892995     3.885352     3.877708     3.870065     3.862422     3.854779
      3.847136     3.839492     3.831849     3.824206     3.816563     3.808919     3.801276     3.793633     3.785990     3.778347
      3.770703     3.763060     3.755417     3.747774     3.740130     3.732487     3.724844     3.717201     3.709558     3.701914
      3.694271     3.686628     3.678985     3.671341     3.663698     3.656055     3.648412     3.640769     3.633125     3.625482
      3.617839     3.610196     3.602552     3.594909     3.587266     3.579623     3.571980     3.564336     3.556693     3.549050
      3.541407     3.533763     3.526120     3.518477     3.510834     3.503191     3.495547     3.487904     3.480261     3.472618
      3.464974     3.457331     3.449688     3.442045     3.434402     3.426758     3.419115     3.411472     3.403829     3.396185
      3.388542     3.380899     3.373256     3.365613     3.357969     3.350326     3.342683     3.335040     3.327396     3.319753
      3.312110     3.304467     3.296824     3.289180     3.281537     3.273894     3.266251     3.258607     3.250964     3.243321
      3.235678     3.228034     3.220391     3.212748     3.205105     3.197462     3.189818     3.182175     3.174532     3.166889
      3.159245     3.151602     3.143959     3.136316     3.128673     3.121029     3.113386     3.105743     3.098100     3.090456
      3.082813     3.075170     3.067527     3.059884     3.052240     3.044597     3.036954     3.029311     3.021667     3.014024
      3.006381     2.998738     2.991095     2.983451     2.975808     2.968165     2.960522     2.952878     2.945235     2.937592
      2.929949     2.922306     2.914662     2.907019     2.899376     2.891733     2.884089     2.876446     2.868803     2.861160
      2.853517     2.845873     2.838230     2.830587     2.822944     2.815300     2.807657     2.800014     2.792371     2.784728
      2.777084     2.769441     2.761798     2.754155     2.746511     2.738868     2.731225     2.723582     2.715939     2.708295
      2.700652     2.693009     2.685366     2.677722     2.670079     2.662436     2.654793     2.647150     2.639506     2.631863
      2.624220     2.616577     2.608933     2.601290     2.593647     2.586004     2.578361     2.570717     2.563074     2.555431
      2.547788     2.540144     2.532501     2.524858     2.517215     2.509572     2.501928     2.494285     2.486642     2.478999
      2.471355     2.463712     2.456069     2.448426     2.440783     2.433139     2.425496     2.417853     2.410210     2.402566
      2.394923     2.387280     2.379637     2.371994     2.364350     2.356707     2.349064     2.341421     2.333777     2.326134
      2.318491     2.310848     2.303205     2.295561     2.287918     2.280275     2.272632     2.264988     2.257345     2.249702
      2.242059     2.234416     2.226772     2.219129     2.211486     2.203843     2.196199     2.188556     2.180913     2.173270
      2.165627     2.157983     2.150340     2.142697     2.135054     2.127410     2.119767     2.112124     2.104481     2.096838
      2.089194     2.081551     2.073908     2.066265     2.058621     2.050978     2.043335     2.035692     2.028049     2.020405
      2.012762     2.005119     1.997476     1.989833     1.982190     1.974546     1.966903     1.959260     1.951617     1.943974
      1.936331     1.928688     1.921045     1.913402     1.905759     1.898115     1.890472     1.882829     1.875186     1.867543
      1.859900     1.852257     1.844614     1.836971     1.829327     1.821684     1.814041     1.806398     1.798755     1.791112
      1.783469     1.775826     1.768183     1.760540     1.752896     1.745253     1.737610     1.729967     1.722324     1.714681
      1.707038     1.699395     1.691752     1.684108     1.676465     1.668822     1.661179     1.653536     1.645893     1.638250
      1.630607     1.622964     1.615321     1.607677     1.600034     1.592391     1.584748     1.577105     1.569462     1.561819
      1.554176     1.546533     1.538890     1.531246     1.523603     1.515960     1.508317     1.500674     1.493031     1.485388
      1.477745     1.470102     1.462458     1.454815     1.447172     1.439529     1.431886     1.424243     1.416600     1.408957
      1.401314     1.393671     1.386027     1.378384     1.370741     1.363098     1.355455     1.347812     1.340169     1.332526
      1.324883     1.317240     1.309596     1.301953     1.294310     1.286667     1.279024     1.271381     1.263738     1.256095
      1.248452     1.240808     1.233165     1.225522     1.217879     1.210236     1.202593     1.194950     1.187307     1.179664
      1.172021     1.164377     1.156734     1.149091     1.141448     1.133805     1.126162     1.118519     1.110876     1.103233
      1.095590     1.087946     1.080303     1.072660     1.065017     1.057374     1.049731     1.042088     1.034445     1.026802
      1.019158     1.011515     1.003872     0.996229     0.988586     0.980943     0.973300     0.965657     0.958014     0.950371
      0.942727     0.935084     0.927441     0.919798     0.912155     0.904512     0.896869     0.889226     0.881583     0.873940
      0.866296     0.858653     0.851010     0.843367     0.835724     0.828081     0.820438     0.812795     0.805152     0.797508
      0.789865     0.782222     0.774579     0.766936     0.759293     0.751650     0.744007     0.736364     0.728721     0.721077
      0.713434     0.705791     0.698148     0.690505     0.682862     0.675219     0.667576     0.659933     0.652290     0.644646
      0.637003     0.629360     0.621717     0.614074     0.606431     0.598788     0.591145     0.583502     0.575858     0.568215
      0.560572     0.552929     0.545286     0.537643     0.530000     0.522357     0.514714     0.507071     0.499427     0.491784
      0.484141     0.476498     0.468855     0.461212     0.453569     0.445925     0.438282     0.430639     0.422996     0.415353
      0.407710     0.400067     0.392424     0.384780     0.377137     0.369494     0.361851     0.354208     0.346565     0.338922
      0.331278     0.323635     0.315992     0.308349     0.300706     0.293063     0.285420     0.277777     0.270133     0.262490
      0.254847     0.247204     0.239561     0.231918     0.224275     0.216631     0.208988     0.201345
 NY phased data points follow
  -3.42015E+01 -3.30217E+01 -3.23914E+01 -3.22286E+01 -3.21884E+01 -3.14398E+01 -3.08982E+01 -2.94938E+01 -3.05194E+01 -2.89234E+01
  -3.07413E+01 -2.90919E+01 -2.84485E+01 -3.01428E+01 -2.71494E+01 -2.88158E+01 -2.93726E+01 -2.57801E+01 -2.64479E+01 -2.45162E+01
  -2.37088E+01 -2.53895E+01 -2.40405E+01 -2.39297E+01 -2.39617E+01 -2.39389E+01 -2.21387E+01 -2.18998E+01 -2.07461E+01 -2.05122E+01
  -2.13836E+01 -2.06587E+01 -2.24228E+01 -1.99560E+01 -1.98868E+01 -2.16690E+01 -2.20312E+01 -2.04376E+01 -1.79537E+01 -1.97235E+01
  -1.75589E+01 -2.20465E+01 -1.93023E+01 -1.72692E+01 -1.87022E+01 -2.05855E+01 -1.78026E+01 -1.66705E+01 -1.91429E+01 -1.95117E+01
  -1.86959E+01 -1.66853E+01 -1.64367E+01 -1.66894E+01 -1.73674E+01 -1.82153E+01 -1.70304E+01 -1.93827E+01 -1.87277E+01 -1.78799E+01
  -1.81304E+01 -1.82538E+01 -1.74393E+01 -1.80332E+01 -1.64583E+01 -1.85788E+01 -1.60424E+01 -1.79187E+01 -1.79239E+01 -1.82849E+01
  -1.56339E+01 -1.62325E+01 -1.53690E+01 -1.52625E+01 -1.65648E+01 -1.28539E+01 -1.53822E+01 -1.53667E+01 -1.62742E+01 -1.74011E+01
  -1.55021E+01 -1.55950E+01 -1.39489E+01 -1.42990E+01 -1.26000E+01 -1.18660E+01 -1.36054E+01 -1.30606E+01 -1.27591E+01 -1.10535E+01
  -1.23867E+01 -1.16342E+01 -1.51457E+01 -1.15231E+01 -1.16768E+01 -1.16840E+01 -1.67734E+01 -1.16961E+01 -9.65094E+00 -1.05502E+01
  -8.91391E+00 -1.06834E+01 -9.67977E+00 -8.47094E+00 -9.79469E+00 -8.23156E+00 -1.27809E+01 -1.14123E+01 -1.00033E+01 -1.01125E+01
  -8.69804E+00 -9.98572E+00 -1.00401E+01 -8.78273E+00 -1.27230E+01 -8.26056E+00 -1.02424E+01 -8.95813E+00 -9.68379E+00 -1.07521E+01
  -9.05341E+00 -7.79736E+00 -1.01493E+01 -1.00222E+01 -8.07368E+00 -5.95403E+00 -7.67489E+00 -3.44690E+00 -5.46292E+00 -5.05832E+00
  -7.15847E+00 -8.07048E+00 -9.15840E+00 -7.68570E+00 -8.96154E+00 -8.14855E+00 -5.87080E+00 -7.07753E+00 -8.90004E+00 -9.21611E+00
  -1.03403E+01 -7.72509E+00 -7.68186E+00 -9.11981E+00 -7.98892E+00 -8.01658E+00 -9.32247E+00 -7.77206E+00 -9.53480E+00 -8.25712E+00
  -8.58680E+00 -1.00245E+01 -9.18449E+00 -5.98299E+00 -7.75687E+00 -9.68652E+00 -8.64014E+00 -9.60392E+00 -8.37243E+00 -1.00320E+01
  -7.45422E+00 -7.66689E+00 -7.62039E+00 -8.23923E+00 -8.34749E+00 -9.26135E+00 -8.61524E+00 -8.57464E+00 -8.18756E+00 -7.78118E+00
  -8.99349E+00 -5.49270E+00 -8.84669E+00 -9.25942E+00 -7.72939E+00 -8.70258E+00 -6.67439E+00 -7.54194E+00 -9.27710E+00 -6.94100E+00
  -1.00612E+01 -8.26977E+00 -7.41673E+00 -7.25679E+00 -6.74167E+00 -8.47163E+00 -8.34632E+00 -8.94543E+00 -5.94817E+00 -6.72141E+00
  -8.19855E+00 -7.82689E+00 -6.62944E+00 -6.59554E+00 -7.83518E+00 -6.90620E+00 -7.52957E+00 -8.56125E+00 -7.76739E+00 -9.24357E+00
  -6.77700E+00 -5.42383E+00 -7.75216E+00 -7.76443E+00 -7.38203E+00 -5.57846E+00 -6.47388E+00 -7.38737E+00 -4.75696E+00 -5.33710E+00
  -7.18398E+00 -8.84761E+00 -7.50361E+00 -4.86657E+00 -5.87674E+00 -6.11277E+00 -4.66998E+00 -4.10355E+00 -4.57712E+00 -6.71619E+00
  -5.54144E+00 -6.81769E+00 -8.11974E+00 -6.87177E+00 -6.49270E+00 -5.33520E+00 -5.05580E+00 -3.02629E+00 -5.00823E+00 -4.64768E+00
  -5.93929E+00 -4.19823E+00 -4.33165E+00 -5.55270E+00 -2.74918E+00 -3.56390E+00 -3.83051E+00 -4.70017E+00 -3.03841E+00 -4.82695E+00
  -3.78287E+00 -5.38372E+00 -5.17178E+00 -4.02279E+00 -6.98225E+00 -5.31304E+00 -5.60610E+00 -6.88414E+00 -3.20655E+00 -4.58354E+00
  -2.68726E+00 -4.37162E+00 -2.35925E+00 -2.05735E+00 -2.72680E+00 -3.99270E-01 -1.21727E+00  4.58486E-01  2.00907E+00  2.16843E+00
   5.41466E+00  7.70496E+00  3.32540E+00  2.74763E+00  4.98161E-01 -4.57203E-01 -1.92319E+00 -8.20213E-01 -1.48464E+00 -3.51937E+00
  -4.09352E+00 -3.14843E+00 -3.25452E+00 -3.04664E+00 -4.92514E+00 -4.17155E+00 -4.70352E+00 -5.02136E+00 -3.63798E+00 -3.33364E+00
  -3.30762E+00 -4.21956E+00 -4.61816E+00 -4.49284E+00 -4.66938E+00 -4.50924E+00 -3.08729E+00 -3.88748E+00 -5.01017E+00 -4.84143E+00
  -3.68326E+00 -4.10095E+00 -2.16493E+00 -5.84492E+00 -2.42503E+00 -5.91958E+00 -6.33098E+00 -5.44324E+00 -3.75086E+00 -2.84869E+00
  -4.88790E+00  1.91950E-01 -2.97487E+00 -2.42435E+00 -2.75027E+00 -2.90850E+00 -3.88361E+00 -9.04678E-01 -3.65137E+00 -1.82229E+00
  -1.98266E+00 -3.70428E+00 -1.41038E+00 -1.70913E+00 -1.48723E+00 -5.43319E+00 -1.37804E+00 -3.81379E+00 -1.74462E+00 -9.27230E-01
  -2.20643E+00 -2.31881E+00 -1.66407E+00 -2.37220E+00 -1.33990E+00 -3.85438E+00 -3.20858E+00 -2.24564E+00 -1.26384E+00 -3.09436E+00
  -3.16190E+00 -2.56508E+00 -3.05829E+00 -3.51008E+00 -1.28318E+00 -2.96270E+00 -3.82281E+00 -1.82217E+00 -2.27305E+00  8.14477E-02
  -3.88849E-01  4.94732E-01 -3.72205E+00  1.33525E+00 -8.75873E-01 -9.67568E-01 -4.02627E+00 -1.85957E+00 -3.89709E+00 -6.28077E-01
  -3.54714E+00 -3.62193E+00 -2.32973E+00 -2.27194E+00 -1.85756E+00 -4.09140E+00 -1.85066E+00 -2.98577E+00 -2.33964E+00 -4.45052E+00
  -1.81333E+00 -3.12645E+00 -5.90915E-01 -1.51599E+00 -1.40532E+00 -1.51667E+00 -3.64826E+00 -2.00331E+00 -2.71338E-01 -2.08085E+00
  -7.61734E-01 -2.37120E+00 -2.07809E+00 -1.01971E+00 -1.57072E+00 -3.51200E+00 -1.18367E-01 -2.94084E+00 -3.14720E+00 -1.58840E+00
  -1.35118E+00 -2.01475E+00 -2.53782E+00 -1.77390E+00 -2.23157E+00 -3.60757E+00 -2.74810E+00 -1.69140E+00 -3.01909E+00 -2.36924E+00
  -5.10740E-01 -2.81119E+00 -2.27896E+00 -2.53153E+00 -3.60169E+00 -1.14044E+00  5.66977E-01 -1.38354E+00 -5.36948E-02 -1.56724E+00
  -2.44032E+00 -2.96723E+00 -1.60781E+00 -1.23055E+00 -2.01092E+00 -1.01045E-01 -2.14669E+00 -1.67309E+00 -1.29266E+00 -8.83507E-01
   8.93042E-01 -3.18683E+00 -3.71078E+00 -2.42734E+00 -4.76671E-02 -1.89371E+00 -2.48745E+00 -5.43241E-01 -1.74247E+00 -3.13889E+00
  -5.58759E+00 -1.75660E+00 -3.32557E+00 -5.05494E+00 -8.47600E-01 -2.83903E+00 -1.15960E+00 -4.00349E+00 -8.28798E-01 -4.34829E+00
  -2.52485E+00 -4.78549E+00 -3.12844E+00 -2.44123E+00 -2.26776E+00 -3.53432E+00 -5.57308E+00 -7.92855E-01 -1.13787E+00 -2.62721E+00
  -2.00633E+00 -2.27692E-01 -1.42606E+00 -2.49747E+00 -1.90693E+00 -1.01902E+00 -2.80173E+00 -2.54000E+00 -8.52712E-01 -2.95388E+00
  -2.45736E+00 -2.92412E+00 -1.04300E+00 -2.43092E+00 -2.68119E+00 -1.48405E+00 -2.05773E+00 -1.68901E+00 -3.21848E+00 -3.30953E+00
  -3.39792E+00 -4.75970E-01  3.79184E-01 -2.21376E+00 -2.13918E+00 -3.19815E+00 -2.35305E+00 -8.72248E-01 -2.18893E+00 -1.43585E+00
  -2.10872E+00 -2.00858E+00 -8.12764E-01 -4.23746E-02 -1.91749E+00 -2.65739E+00 -3.13594E+00 -1.39229E+00 -3.13823E-01 -3.57359E+00
  -6.83971E-01 -1.72915E+00 -1.30727E+00 -1.49066E+00 -1.62186E+00  9.62912E-01 -2.60591E+00 -1.19253E+00 -8.67361E-01 -1.80457E+00
  -7.85321E-01 -1.60943E+00  1.19521E+00 -1.82524E-01 -8.45982E-01  6.12739E-02  6.74476E-01  1.92693E-01
 NY points of the fit to the data follow
  -2.94350E+01 -2.95385E+01 -2.99352E+01 -3.01898E+01 -3.01319E+01 -3.00215E+01 -2.99569E+01 -2.99188E+01 -3.01023E+01 -3.03050E+01
  -2.98929E+01 -2.88621E+01 -2.78485E+01 -2.72835E+01 -2.71186E+01 -2.71107E+01 -2.66439E+01 -2.56640E+01 -2.50303E+01 -2.48505E+01
  -2.48747E+01 -2.48339E+01 -2.46509E+01 -2.41985E+01 -2.37160E+01 -2.32525E+01 -2.26948E+01 -2.23001E+01 -2.20712E+01 -2.15775E+01
  -2.07602E+01 -2.00931E+01 -1.97893E+01 -1.98014E+01 -2.01169E+01 -2.04478E+01 -2.05813E+01 -2.07507E+01 -2.11315E+01 -2.11438E+01
  -2.08372E+01 -2.06582E+01 -2.05649E+01 -2.04006E+01 -2.01352E+01 -1.98263E+01 -1.93942E+01 -1.90264E+01 -1.89141E+01 -1.89024E+01
  -1.89694E+01 -1.90419E+01 -1.89980E+01 -1.88406E+01 -1.86945E+01 -1.86226E+01 -1.85598E+01 -1.84360E+01 -1.82647E+01 -1.80605E+01
  -1.78472E+01 -1.76647E+01 -1.75182E+01 -1.74132E+01 -1.73191E+01 -1.71660E+01 -1.69761E+01 -1.68125E+01 -1.66441E+01 -1.64598E+01
  -1.62998E+01 -1.61328E+01 -1.59463E+01 -1.57774E+01 -1.56401E+01 -1.54892E+01 -1.53351E+01 -1.52353E+01 -1.51348E+01 -1.49780E+01
  -1.47959E+01 -1.46324E+01 -1.44495E+01 -1.42785E+01 -1.41505E+01 -1.39829E+01 -1.37688E+01 -1.36178E+01 -1.35905E+01 -1.36124E+01
  -1.36089E+01 -1.35300E+01 -1.33695E+01 -1.32362E+01 -1.32173E+01 -1.30785E+01 -1.24697E+01 -1.18279E+01 -1.13987E+01 -1.09687E+01
  -1.05636E+01 -1.02049E+01 -9.65380E+00 -9.00688E+00 -8.79149E+00 -9.12587E+00 -9.66979E+00 -1.00905E+01 -1.02374E+01 -1.01565E+01
  -1.02502E+01 -1.07894E+01 -1.11186E+01 -1.11380E+01 -1.10864E+01 -1.10089E+01 -1.09366E+01 -1.08467E+01 -1.07191E+01 -1.04827E+01
  -9.92388E+00 -9.33558E+00 -8.94916E+00 -8.54471E+00 -8.09800E+00 -7.67793E+00 -7.08163E+00 -6.37164E+00 -6.12217E+00 -6.49902E+00
  -7.08069E+00 -7.53836E+00 -7.75999E+00 -7.71613E+00 -7.83902E+00 -8.48415E+00 -9.01962E+00 -9.19242E+00 -9.18112E+00 -9.02555E+00
  -8.80748E+00 -8.66085E+00 -8.60600E+00 -8.54748E+00 -8.49882E+00 -8.45504E+00 -8.38446E+00 -8.34537E+00 -8.35701E+00 -8.38408E+00
  -8.44323E+00 -8.46716E+00 -8.46856E+00 -8.46516E+00 -8.48440E+00 -8.49501E+00 -8.47178E+00 -8.43869E+00 -8.38931E+00 -8.35378E+00
  -8.35868E+00 -8.37255E+00 -8.35303E+00 -8.28645E+00 -8.19788E+00 -8.12829E+00 -8.11374E+00 -8.14956E+00 -8.18004E+00 -8.17375E+00
  -8.16327E+00 -8.13411E+00 -8.12310E+00 -8.15610E+00 -8.18124E+00 -8.19854E+00 -8.21259E+00 -8.18546E+00 -8.11884E+00 -8.06160E+00
  -8.06242E+00 -8.09064E+00 -8.06776E+00 -7.95133E+00 -7.74419E+00 -7.54667E+00 -7.44807E+00 -7.39041E+00 -7.27345E+00 -7.07815E+00
  -6.94646E+00 -6.94769E+00 -7.00929E+00 -7.10346E+00 -7.18942E+00 -7.14890E+00 -7.02723E+00 -6.90477E+00 -6.69266E+00 -6.34447E+00
  -6.00185E+00 -5.67397E+00 -5.41328E+00 -5.55175E+00 -5.90430E+00 -6.05356E+00 -6.23330E+00 -6.57318E+00 -6.79223E+00 -6.84543E+00
  -7.03111E+00 -6.97416E+00 -6.37570E+00 -5.70872E+00 -5.30863E+00 -5.09301E+00 -5.14623E+00 -5.34978E+00 -5.44315E+00 -5.70442E+00
  -6.10472E+00 -6.35936E+00 -6.52200E+00 -6.56835E+00 -6.45775E+00 -5.98795E+00 -5.47905E+00 -5.16396E+00 -5.04854E+00 -4.99564E+00
  -4.73803E+00 -4.43729E+00 -4.44093E+00 -4.52271E+00 -4.39454E+00 -4.30534E+00 -4.49585E+00 -4.61800E+00 -4.49405E+00 -4.35815E+00
  -4.34865E+00 -4.40242E+00 -4.62407E+00 -4.96081E+00 -5.01179E+00 -4.88936E+00 -4.82401E+00 -4.68324E+00 -4.47769E+00 -4.43007E+00
  -4.40303E+00 -4.08529E+00 -3.62537E+00 -2.54381E+00 -9.71915E-01 -3.58132E-02  5.31621E-01  1.25708E+00  1.90058E+00  2.71926E+00
   4.07356E+00  4.87247E+00  4.11631E+00  2.42933E+00  8.70242E-01 -1.19052E-01 -4.13550E-01 -5.73764E-01 -1.80895E+00 -3.36558E+00
  -3.83513E+00 -3.97144E+00 -4.05494E+00 -4.03845E+00 -3.97776E+00 -3.95538E+00 -3.95322E+00 -3.96350E+00 -3.97607E+00 -3.97830E+00
  -3.97122E+00 -3.98240E+00 -4.00363E+00 -4.00949E+00 -4.00487E+00 -3.99598E+00 -3.98094E+00 -3.96163E+00 -3.93388E+00 -3.89798E+00
  -3.86254E+00 -3.82553E+00 -3.78549E+00 -3.74361E+00 -3.70096E+00 -3.65530E+00 -3.60464E+00 -3.55202E+00 -3.49958E+00 -3.44521E+00
  -3.39007E+00 -3.33652E+00 -3.28396E+00 -3.23303E+00 -3.18485E+00 -3.14013E+00 -3.09910E+00 -3.06162E+00 -3.02740E+00 -2.99564E+00
  -2.96588E+00 -2.93772E+00 -2.90964E+00 -2.87984E+00 -2.84677E+00 -2.80779E+00 -2.75965E+00 -2.69741E+00 -2.61214E+00 -2.48244E+00
  -2.26218E+00 -2.05515E+00 -2.05618E+00 -2.10547E+00 -2.12707E+00 -2.20664E+00 -2.30842E+00 -2.44631E+00 -2.74730E+00 -3.07431E+00
  -3.33834E+00 -3.43397E+00 -3.29609E+00 -3.05986E+00 -2.87868E+00 -2.69523E+00 -2.26514E+00 -1.68615E+00 -1.38370E+00 -1.25937E+00
  -1.09826E+00 -9.53113E-01 -8.62096E-01 -8.91625E-01 -1.21140E+00 -1.53863E+00 -1.77970E+00 -2.03388E+00 -2.35120E+00 -2.74035E+00
  -3.08367E+00 -3.18551E+00 -3.07979E+00 -2.92618E+00 -2.77611E+00 -2.58940E+00 -2.24357E+00 -1.93581E+00 -1.88511E+00 -1.94252E+00
  -1.97712E+00 -1.88134E+00 -1.76852E+00 -1.93187E+00 -2.16448E+00 -2.28324E+00 -2.35175E+00 -2.39824E+00 -2.43252E+00 -2.45905E+00
  -2.48017E+00 -2.49714E+00 -2.51058E+00 -2.52069E+00 -2.52754E+00 -2.53107E+00 -2.53116E+00 -2.52755E+00 -2.51993E+00 -2.50795E+00
  -2.49125E+00 -2.46950E+00 -2.44240E+00 -2.40963E+00 -2.37092E+00 -2.32606E+00 -2.27497E+00 -2.21771E+00 -2.15448E+00 -2.08568E+00
  -2.01190E+00 -1.93396E+00 -1.85293E+00 -1.77016E+00 -1.68718E+00 -1.60570E+00 -1.52756E+00 -1.45468E+00 -1.38896E+00 -1.33221E+00
  -1.28606E+00 -1.25185E+00 -1.23057E+00 -1.22282E+00 -1.22876E+00 -1.24811E+00 -1.28016E+00 -1.32379E+00 -1.37753E+00 -1.43969E+00
  -1.50838E+00 -1.58166E+00 -1.65757E+00 -1.73428E+00 -1.81005E+00 -1.88340E+00 -1.95310E+00 -2.01818E+00 -2.07792E+00 -2.13185E+00
  -2.17973E+00 -2.22152E+00 -2.25736E+00 -2.28750E+00 -2.31228E+00 -2.33210E+00 -2.34737E+00 -2.35855E+00 -2.36607E+00 -2.37037E+00
  -2.37178E+00 -2.37069E+00 -2.36736E+00 -2.36210E+00 -2.35514E+00 -2.34670E+00 -2.33693E+00 -2.32599E+00 -2.31398E+00 -2.30106E+00
  -2.28728E+00 -2.27275E+00 -2.25750E+00 -2.24161E+00 -2.22509E+00 -2.20803E+00 -2.19044E+00 -2.17236E+00 -2.15380E+00 -2.13478E+00
  -2.11532E+00 -2.09546E+00 -2.07519E+00 -2.05455E+00 -2.03351E+00 -2.01213E+00 -1.99038E+00 -1.96834E+00 -1.94598E+00 -1.92332E+00
  -1.90035E+00 -1.87712E+00 -1.85361E+00 -1.82986E+00 -1.80586E+00 -1.78163E+00 -1.75714E+00 -1.73245E+00 -1.70754E+00 -1.68245E+00
  -1.65715E+00 -1.63167E+00 -1.60598E+00 -1.58014E+00 -1.55413E+00 -1.52799E+00 -1.50167E+00 -1.47521E+00 -1.44858E+00 -1.42186E+00
  -1.39500E+00 -1.36804E+00 -1.34093E+00 -1.31372E+00 -1.28640E+00 -1.25900E+00 -1.23151E+00 -1.20393E+00 -1.17624E+00 -1.14848E+00
  -1.12063E+00 -1.09275E+00 -1.06477E+00 -1.03673E+00 -1.00859E+00 -9.80404E-01 -9.52141E-01 -9.23846E-01
 NY background values follow
    -2.985E+01   -2.965E+01   -2.945E+01   -2.925E+01   -2.905E+01   -2.885E+01   -2.865E+01   -2.845E+01   -2.825E+01   -2.805E+01
    -2.785E+01   -2.764E+01   -2.744E+01   -2.724E+01   -2.704E+01   -2.685E+01   -2.665E+01   -2.645E+01   -2.625E+01   -2.605E+01
    -2.585E+01   -2.565E+01   -2.546E+01   -2.526E+01   -2.506E+01   -2.487E+01   -2.467E+01   -2.448E+01   -2.428E+01   -2.409E+01
    -2.389E+01   -2.370E+01   -2.351E+01   -2.332E+01   -2.313E+01   -2.294E+01   -2.275E+01   -2.256E+01   -2.237E+01   -2.218E+01
    -2.200E+01   -2.181E+01   -2.163E+01   -2.144E+01   -2.126E+01   -2.108E+01   -2.090E+01   -2.072E+01   -2.054E+01   -2.036E+01
    -2.019E+01   -2.001E+01   -1.984E+01   -1.966E+01   -1.949E+01   -1.932E+01   -1.915E+01   -1.898E+01   -1.881E+01   -1.864E+01
    -1.848E+01   -1.831E+01   -1.815E+01   -1.799E+01   -1.782E+01   -1.766E+01   -1.750E+01   -1.735E+01   -1.719E+01   -1.703E+01
    -1.688E+01   -1.673E+01   -1.657E+01   -1.642E+01   -1.627E+01   -1.613E+01   -1.598E+01   -1.583E+01   -1.569E+01   -1.554E+01
    -1.540E+01   -1.526E+01   -1.512E+01   -1.498E+01   -1.485E+01   -1.471E+01   -1.458E+01   -1.444E+01   -1.431E+01   -1.418E+01
    -1.405E+01   -1.393E+01   -1.380E+01   -1.368E+01   -1.355E+01   -1.343E+01   -1.331E+01   -1.319E+01   -1.307E+01   -1.296E+01
    -1.284E+01   -1.273E+01   -1.262E+01   -1.251E+01   -1.240E+01   -1.229E+01   -1.218E+01   -1.208E+01   -1.197E+01   -1.187E+01
    -1.177E+01   -1.167E+01   -1.157E+01   -1.147E+01   -1.137E+01   -1.128E+01   -1.118E+01   -1.109E+01   -1.100E+01   -1.091E+01
    -1.082E+01   -1.073E+01   -1.065E+01   -1.056E+01   -1.048E+01   -1.039E+01   -1.031E+01   -1.023E+01   -1.015E+01   -1.007E+01
    -9.997E+00   -9.922E+00   -9.847E+00   -9.774E+00   -9.702E+00   -9.631E+00   -9.562E+00   -9.493E+00   -9.426E+00   -9.360E+00
    -9.295E+00   -9.231E+00   -9.168E+00   -9.106E+00   -9.045E+00   -8.985E+00   -8.926E+00   -8.868E+00   -8.811E+00   -8.755E+00
    -8.700E+00   -8.646E+00   -8.593E+00   -8.540E+00   -8.488E+00   -8.438E+00   -8.388E+00   -8.338E+00   -8.290E+00   -8.242E+00
    -8.195E+00   -8.149E+00   -8.104E+00   -8.059E+00   -8.015E+00   -7.971E+00   -7.928E+00   -7.886E+00   -7.844E+00   -7.803E+00
    -7.762E+00   -7.722E+00   -7.682E+00   -7.643E+00   -7.605E+00   -7.566E+00   -7.529E+00   -7.491E+00   -7.454E+00   -7.418E+00
    -7.381E+00   -7.345E+00   -7.310E+00   -7.275E+00   -7.240E+00   -7.205E+00   -7.171E+00   -7.136E+00   -7.103E+00   -7.069E+00
    -7.036E+00   -7.003E+00   -6.970E+00   -6.938E+00   -6.906E+00   -6.874E+00   -6.842E+00   -6.811E+00   -6.780E+00   -6.749E+00
    -6.718E+00   -6.688E+00   -6.657E+00   -6.627E+00   -6.597E+00   -6.568E+00   -6.538E+00   -6.509E+00   -6.480E+00   -6.451E+00
    -6.422E+00   -6.394E+00   -6.365E+00   -6.337E+00   -6.309E+00   -6.281E+00   -6.253E+00   -6.226E+00   -6.198E+00   -6.171E+00
    -6.143E+00   -6.116E+00   -6.089E+00   -6.062E+00   -6.035E+00   -6.008E+00   -5.982E+00   -5.955E+00   -5.928E+00   -5.902E+00
    -5.876E+00   -5.849E+00   -5.823E+00   -5.797E+00   -5.771E+00   -5.745E+00   -5.719E+00   -5.693E+00   -5.667E+00   -5.642E+00
    -5.616E+00   -5.590E+00   -5.565E+00   -5.540E+00   -5.514E+00   -5.489E+00   -5.464E+00   -5.439E+00   -5.414E+00   -5.389E+00
    -5.364E+00   -5.339E+00   -5.314E+00   -5.289E+00   -5.264E+00   -5.240E+00   -5.215E+00   -5.191E+00   -5.166E+00   -5.142E+00
    -5.117E+00   -5.093E+00   -5.069E+00   -5.045E+00   -5.021E+00   -4.997E+00   -4.973E+00   -4.949E+00   -4.925E+00   -4.901E+00
    -4.877E+00   -4.853E+00   -4.829E+00   -4.806E+00   -4.782E+00   -4.758E+00   -4.735E+00   -4.712E+00   -4.688E+00   -4.665E+00
    -4.642E+00   -4.618E+00   -4.595E+00   -4.572E+00   -4.549E+00   -4.526E+00   -4.504E+00   -4.481E+00   -4.459E+00   -4.436E+00
    -4.414E+00   -4.391E+00   -4.369E+00   -4.347E+00   -4.325E+00   -4.304E+00   -4.282E+00   -4.260E+00   -4.239E+00   -4.218E+00
    -4.197E+00   -4.176E+00   -4.155E+00   -4.134E+00   -4.114E+00   -4.093E+00   -4.073E+00   -4.053E+00   -4.033E+00   -4.013E+00
    -3.994E+00   -3.974E+00   -3.955E+00   -3.936E+00   -3.917E+00   -3.898E+00   -3.880E+00   -3.861E+00   -3.843E+00   -3.825E+00
    -3.808E+00   -3.790E+00   -3.773E+00   -3.755E+00   -3.738E+00   -3.722E+00   -3.705E+00   -3.689E+00   -3.672E+00   -3.656E+00
    -3.640E+00   -3.625E+00   -3.609E+00   -3.594E+00   -3.579E+00   -3.564E+00   -3.549E+00   -3.534E+00   -3.520E+00   -3.506E+00
    -3.492E+00   -3.478E+00   -3.464E+00   -3.451E+00   -3.437E+00   -3.424E+00   -3.411E+00   -3.398E+00   -3.386E+00   -3.373E+00
    -3.361E+00   -3.349E+00   -3.337E+00   -3.325E+00   -3.313E+00   -3.302E+00   -3.291E+00   -3.280E+00   -3.269E+00   -3.258E+00
    -3.247E+00   -3.237E+00   -3.227E+00   -3.217E+00   -3.207E+00   -3.197E+00   -3.187E+00   -3.178E+00   -3.168E+00   -3.159E+00
    -3.150E+00   -3.141E+00   -3.132E+00   -3.123E+00   -3.114E+00   -3.105E+00   -3.096E+00   -3.088E+00   -3.079E+00   -3.070E+00
    -3.062E+00   -3.053E+00   -3.044E+00   -3.036E+00   -3.027E+00   -3.018E+00   -3.010E+00   -3.001E+00   -2.992E+00   -2.983E+00
    -2.974E+00   -2.965E+00   -2.956E+00   -2.947E+00   -2.938E+00   -2.928E+00   -2.919E+00   -2.909E+00   -2.900E+00   -2.890E+00
    -2.880E+00   -2.869E+00   -2.859E+00   -2.848E+00   -2.838E+00   -2.827E+00   -2.816E+00   -2.804E+00   -2.793E+00   -2.781E+00
    -2.769E+00   -2.757E+00   -2.744E+00   -2.732E+00   -2.719E+00   -2.706E+00   -2.692E+00   -2.679E+00   -2.665E+00   -2.651E+00
    -2.637E+00   -2.622E+00   -2.608E+00   -2.593E+00   -2.578E+00   -2.562E+00   -2.547E+00   -2.531E+00   -2.515E+00   -2.498E+00
    -2.482E+00   -2.465E+00   -2.448E+00   -2.431E+00   -2.413E+00   -2.395E+00   -2.377E+00   -2.359E+00   -2.341E+00   -2.322E+00
    -2.303E+00   -2.284E+00   -2.264E+00   -2.245E+00   -2.225E+00   -2.204E+00   -2.184E+00   -2.163E+00   -2.142E+00   -2.121E+00
    -2.099E+00   -2.078E+00   -2.056E+00   -2.033E+00   -2.011E+00   -1.988E+00   -1.965E+00   -1.942E+00   -1.918E+00   -1.894E+00
    -1.871E+00   -1.846E+00   -1.822E+00   -1.798E+00   -1.773E+00   -1.748E+00   -1.723E+00   -1.698E+00   -1.672E+00   -1.647E+00
    -1.621E+00   -1.595E+00   -1.569E+00   -1.543E+00   -1.516E+00   -1.490E+00   -1.463E+00   -1.437E+00   -1.410E+00   -1.383E+00
    -1.356E+00   -1.329E+00   -1.302E+00   -1.275E+00   -1.247E+00   -1.220E+00   -1.193E+00   -1.165E+00   -1.138E+00   -1.110E+00
    -1.083E+00   -1.055E+00   -1.027E+00   -9.997E-01   -9.720E-01   -9.443E-01   -9.166E-01   -8.890E-01
 Ala      Conc. = 1.40E+02
