 LCModel (Version 6.3-1L) Copyright: S.W. Provencher.          Ref.: Magn. Reson. Med. 30:672-679 (1993).                
 Slice#2 Row#11 Col#1  PD_05_press_1_raw_act
 36 lines in following concentration table = NCONC+1
    Conc.  %SD /Cr+PCr  Metabolite                                         
    0.000 999%   0.000 Ala                                                 
    5.047  74%   0.175 Asp                                                 
    0.000 999%   0.000 Cr                                                  
   28.883  35%   1.000 PCr                                                 
    3.240  69%   0.112 GABA                                                
    3.148  72%   0.109 Glc                                                 
   30.838 120%   1.068 Gln                                                 
   47.971  88%   1.661 Glu                                                 
    9.249  41%   0.320 GPC                                                 
    0.000 999%   0.000 PCh                                                 
    0.000 999%   0.000 GSH                                                 
    0.000 999%   0.000 Ins                                                 
    0.000 999%   0.000 Lac                                                 
   49.932  26%   1.729 NAA                                                 
    0.000 999%   0.000 NAAG                                                
    1.070  70% 3.7E-02 Scyllo                                              
    4.602  81%   0.159 Tau                                                 
    0.000 999%   0.000 -CrCH2                                              
    9.249  41%   0.320 GPC+PCh                                             
   49.932  26%   1.729 NAA+NAAG                                            
   28.883  35%   1.000 Cr+PCr                                              
   78.809  69%   2.729 Glu+Gln                                             
   68.404 211%   2.368 Lip13a                                              
   45.555 126%   1.577 Lip13b                                              
   25.713 115%   0.890 Lip09                                               
   73.404  54%   2.541 MM09                                                
   19.845  87%   0.687 Lip20                                               
  114.501  53%   3.964 MM20                                                
   21.885  61%   0.758 MM12                                                
   65.456  59%   2.266 MM14                                                
   27.201  83%   0.942 MM17                                                
  113.959  88%   3.946 Lip13a+Lip13b                                       
  201.300  49%   6.969 MM14+Lip13a+Lip13b+MM12                             
   99.117  42%   3.432 MM09+Lip09                                          
  134.346  44%   4.651 MM20+Lip20                                          
   6 lines in following misc. output table
  FWHM = 0.046 ppm    S/N =   1                                            
  Data shift = 0.031 ppm                                                   
  Ph: 122 deg     -14.3 deg/ppm                                            
  alphaB,S = 7.9E-01,   2.5E+01                                            
   14 spline knots.   Ns = 6(1)                                            
  ( 7) 2 infls.   ( 4) 1 extrs.                                            
  498 points on ppm-axis = NY
      4.000000     3.992357     3.984714     3.977070     3.969427     3.961784     3.954141     3.946497     3.938854     3.931211
      3.923568     3.915925     3.908281     3.900638     3.892995     3.885352     3.877708     3.870065     3.862422     3.854779
      3.847136     3.839492     3.831849     3.824206     3.816563     3.808919     3.801276     3.793633     3.785990     3.778347
      3.770703     3.763060     3.755417     3.747774     3.740130     3.732487     3.724844     3.717201     3.709558     3.701914
      3.694271     3.686628     3.678985     3.671341     3.663698     3.656055     3.648412     3.640769     3.633125     3.625482
      3.617839     3.610196     3.602552     3.594909     3.587266     3.579623     3.571980     3.564336     3.556693     3.549050
      3.541407     3.533763     3.526120     3.518477     3.510834     3.503191     3.495547     3.487904     3.480261     3.472618
      3.464974     3.457331     3.449688     3.442045     3.434402     3.426758     3.419115     3.411472     3.403829     3.396185
      3.388542     3.380899     3.373256     3.365613     3.357969     3.350326     3.342683     3.335040     3.327396     3.319753
      3.312110     3.304467     3.296824     3.289180     3.281537     3.273894     3.266251     3.258607     3.250964     3.243321
      3.235678     3.228034     3.220391     3.212748     3.205105     3.197462     3.189818     3.182175     3.174532     3.166889
      3.159245     3.151602     3.143959     3.136316     3.128673     3.121029     3.113386     3.105743     3.098100     3.090456
      3.082813     3.075170     3.067527     3.059884     3.052240     3.044597     3.036954     3.029311     3.021667     3.014024
      3.006381     2.998738     2.991095     2.983451     2.975808     2.968165     2.960522     2.952878     2.945235     2.937592
      2.929949     2.922306     2.914662     2.907019     2.899376     2.891733     2.884089     2.876446     2.868803     2.861160
      2.853517     2.845873     2.838230     2.830587     2.822944     2.815300     2.807657     2.800014     2.792371     2.784728
      2.777084     2.769441     2.761798     2.754155     2.746511     2.738868     2.731225     2.723582     2.715939     2.708295
      2.700652     2.693009     2.685366     2.677722     2.670079     2.662436     2.654793     2.647150     2.639506     2.631863
      2.624220     2.616577     2.608933     2.601290     2.593647     2.586004     2.578361     2.570717     2.563074     2.555431
      2.547788     2.540144     2.532501     2.524858     2.517215     2.509572     2.501928     2.494285     2.486642     2.478999
      2.471355     2.463712     2.456069     2.448426     2.440783     2.433139     2.425496     2.417853     2.410210     2.402566
      2.394923     2.387280     2.379637     2.371994     2.364350     2.356707     2.349064     2.341421     2.333777     2.326134
      2.318491     2.310848     2.303205     2.295561     2.287918     2.280275     2.272632     2.264988     2.257345     2.249702
      2.242059     2.234416     2.226772     2.219129     2.211486     2.203843     2.196199     2.188556     2.180913     2.173270
      2.165627     2.157983     2.150340     2.142697     2.135054     2.127410     2.119767     2.112124     2.104481     2.096838
      2.089194     2.081551     2.073908     2.066265     2.058621     2.050978     2.043335     2.035692     2.028049     2.020405
      2.012762     2.005119     1.997476     1.989833     1.982190     1.974546     1.966903     1.959260     1.951617     1.943974
      1.936331     1.928688     1.921045     1.913402     1.905759     1.898115     1.890472     1.882829     1.875186     1.867543
      1.859900     1.852257     1.844614     1.836971     1.829327     1.821684     1.814041     1.806398     1.798755     1.791112
      1.783469     1.775826     1.768183     1.760540     1.752896     1.745253     1.737610     1.729967     1.722324     1.714681
      1.707038     1.699395     1.691752     1.684108     1.676465     1.668822     1.661179     1.653536     1.645893     1.638250
      1.630607     1.622964     1.615321     1.607677     1.600034     1.592391     1.584748     1.577105     1.569462     1.561819
      1.554176     1.546533     1.538890     1.531246     1.523603     1.515960     1.508317     1.500674     1.493031     1.485388
      1.477745     1.470102     1.462458     1.454815     1.447172     1.439529     1.431886     1.424243     1.416600     1.408957
      1.401314     1.393671     1.386027     1.378384     1.370741     1.363098     1.355455     1.347812     1.340169     1.332526
      1.324883     1.317240     1.309596     1.301953     1.294310     1.286667     1.279024     1.271381     1.263738     1.256095
      1.248452     1.240808     1.233165     1.225522     1.217879     1.210236     1.202593     1.194950     1.187307     1.179664
      1.172021     1.164377     1.156734     1.149091     1.141448     1.133805     1.126162     1.118519     1.110876     1.103233
      1.095590     1.087946     1.080303     1.072660     1.065017     1.057374     1.049731     1.042088     1.034445     1.026802
      1.019158     1.011515     1.003872     0.996229     0.988586     0.980943     0.973300     0.965657     0.958014     0.950371
      0.942727     0.935084     0.927441     0.919798     0.912155     0.904512     0.896869     0.889226     0.881583     0.873940
      0.866296     0.858653     0.851010     0.843367     0.835724     0.828081     0.820438     0.812795     0.805152     0.797508
      0.789865     0.782222     0.774579     0.766936     0.759293     0.751650     0.744007     0.736364     0.728721     0.721077
      0.713434     0.705791     0.698148     0.690505     0.682862     0.675219     0.667576     0.659933     0.652290     0.644646
      0.637003     0.629360     0.621717     0.614074     0.606431     0.598788     0.591145     0.583502     0.575858     0.568215
      0.560572     0.552929     0.545286     0.537643     0.530000     0.522357     0.514714     0.507071     0.499427     0.491784
      0.484141     0.476498     0.468855     0.461212     0.453569     0.445925     0.438282     0.430639     0.422996     0.415353
      0.407710     0.400067     0.392424     0.384780     0.377137     0.369494     0.361851     0.354208     0.346565     0.338922
      0.331278     0.323635     0.315992     0.308349     0.300706     0.293063     0.285420     0.277777     0.270133     0.262490
      0.254847     0.247204     0.239561     0.231918     0.224275     0.216631     0.208988     0.201345
 NY phased data points follow
   3.81241E+01  3.75868E+01  3.53191E+01  3.67641E+01  3.63691E+01  3.65349E+01  3.69506E+01  3.43935E+01  3.52180E+01  3.58106E+01
   3.30737E+01  3.38911E+01  3.32396E+01  3.16963E+01  3.11546E+01  3.26854E+01  3.20024E+01  3.16005E+01  3.11278E+01  3.21215E+01
   3.09251E+01  3.18084E+01  3.10495E+01  2.98036E+01  3.02341E+01  2.96057E+01  3.01338E+01  2.80841E+01  2.93281E+01  2.89691E+01
   2.77897E+01  2.70725E+01  2.68888E+01  2.70529E+01  2.76677E+01  2.59783E+01  2.59891E+01  2.68879E+01  2.56378E+01  2.71775E+01
   2.48351E+01  2.54513E+01  2.45623E+01  2.63173E+01  2.42018E+01  2.48811E+01  2.56165E+01  2.44952E+01  2.40738E+01  2.43891E+01
   2.32577E+01  2.28565E+01  2.47784E+01  2.45493E+01  2.33246E+01  2.37148E+01  2.26525E+01  2.31079E+01  2.21806E+01  2.27362E+01
   2.26525E+01  2.21315E+01  2.22650E+01  2.16272E+01  2.24795E+01  1.96851E+01  2.14313E+01  2.14783E+01  2.06889E+01  2.03398E+01
   2.09858E+01  2.05310E+01  1.89620E+01  1.95023E+01  1.90734E+01  2.01396E+01  2.02081E+01  1.95112E+01  1.98899E+01  1.79666E+01
   1.81288E+01  1.93473E+01  1.87528E+01  1.95739E+01  1.98373E+01  1.92116E+01  1.65984E+01  1.86422E+01  1.78243E+01  1.67244E+01
   1.64654E+01  1.76854E+01  1.61887E+01  1.75968E+01  1.65136E+01  1.73776E+01  1.71276E+01  1.72703E+01  1.80231E+01  1.78268E+01
   1.81486E+01  1.67369E+01  1.86746E+01  1.60314E+01  1.74839E+01  1.61908E+01  1.65043E+01  1.47436E+01  1.58254E+01  1.59657E+01
   1.55337E+01  1.51732E+01  1.60120E+01  1.39403E+01  1.48445E+01  1.37155E+01  1.53429E+01  1.42088E+01  1.55535E+01  1.38760E+01
   1.64686E+01  1.28512E+01  1.43697E+01  1.56087E+01  1.42415E+01  1.57895E+01  1.42951E+01  1.46590E+01  1.28084E+01  1.37781E+01
   1.23048E+01  1.42071E+01  1.36546E+01  1.44681E+01  1.34853E+01  1.35686E+01  1.38995E+01  1.45027E+01  1.39875E+01  1.41147E+01
   1.30626E+01  1.47311E+01  1.46333E+01  1.33355E+01  1.41405E+01  1.38492E+01  1.24218E+01  1.50378E+01  1.39935E+01  1.40619E+01
   1.35426E+01  1.40045E+01  1.49176E+01  1.32680E+01  1.29083E+01  1.41942E+01  1.35330E+01  1.22419E+01  1.12072E+01  1.20680E+01
   1.22048E+01  1.31680E+01  1.36723E+01  1.29031E+01  1.35932E+01  1.18981E+01  1.19148E+01  1.36349E+01  1.24608E+01  1.36564E+01
   1.16801E+01  1.19954E+01  1.02050E+01  1.32423E+01  1.10058E+01  1.25181E+01  9.99354E+00  1.21391E+01  1.09333E+01  1.13837E+01
   1.18634E+01  1.13395E+01  1.06343E+01  1.16916E+01  1.21614E+01  1.13184E+01  1.23667E+01  1.07704E+01  1.13603E+01  1.11448E+01
   1.04533E+01  1.05929E+01  1.15048E+01  1.06666E+01  9.99783E+00  9.87162E+00  1.00650E+01  1.12755E+01  1.03485E+01  1.04809E+01
   1.12520E+01  1.24378E+01  1.09736E+01  9.70620E+00  1.05406E+01  1.13645E+01  1.04824E+01  1.03896E+01  9.81703E+00  9.89762E+00
   1.06708E+01  1.16881E+01  1.01777E+01  1.15544E+01  1.12580E+01  1.09481E+01  1.05272E+01  9.12581E+00  1.11549E+01  1.08669E+01
   9.83724E+00  9.50381E+00  1.01096E+01  1.05304E+01  1.01360E+01  9.61877E+00  1.09527E+01  1.04424E+01  1.02812E+01  9.84581E+00
   1.14178E+01  9.80500E+00  1.07547E+01  1.02467E+01  1.19567E+01  1.05809E+01  1.10832E+01  1.12067E+01  1.10974E+01  9.77364E+00
   1.04082E+01  1.04823E+01  1.22892E+01  1.13054E+01  1.01996E+01  1.04682E+01  8.92328E+00  1.06493E+01  1.07002E+01  1.04700E+01
   1.06785E+01  9.77485E+00  1.13136E+01  1.01463E+01  1.02914E+01  1.14060E+01  1.23649E+01  1.23094E+01  1.22839E+01  1.16427E+01
   1.07299E+01  1.19192E+01  1.15135E+01  1.07096E+01  9.09221E+00  1.01949E+01  9.70218E+00  9.30441E+00  8.93716E+00  9.57622E+00
   9.77859E+00  9.85339E+00  1.15376E+01  9.53825E+00  1.06398E+01  8.69086E+00  9.68980E+00  9.44503E+00  9.33043E+00  8.90269E+00
   9.99718E+00  9.80720E+00  9.12815E+00  8.76750E+00  9.93116E+00  9.85653E+00  9.67370E+00  7.58451E+00  1.06136E+01  9.87369E+00
   9.31713E+00  8.63842E+00  1.07280E+01  9.64267E+00  9.35136E+00  9.18955E+00  8.41952E+00  9.31441E+00  8.99207E+00  8.37789E+00
   8.77397E+00  7.76476E+00  7.97395E+00  9.56904E+00  7.41418E+00  1.00152E+01  7.36875E+00  9.74495E+00  9.91598E+00  8.72727E+00
   8.72414E+00  9.00032E+00  9.61352E+00  8.66939E+00  7.42911E+00  9.44206E+00  7.36353E+00  8.97100E+00  7.73278E+00  8.51748E+00
   8.06703E+00  8.10673E+00  7.30551E+00  7.04121E+00  8.47030E+00  7.44172E+00  9.37063E+00  8.49745E+00  1.02492E+01  8.70277E+00
   8.61655E+00  8.43351E+00  8.99856E+00  7.95792E+00  9.58987E+00  7.84773E+00  1.04920E+01  7.20282E+00  9.44713E+00  7.59997E+00
   8.34278E+00  7.80204E+00  8.06368E+00  8.26591E+00  8.65915E+00  7.17429E+00  8.84489E+00  7.80895E+00  8.31660E+00  8.59160E+00
   8.97924E+00  7.51222E+00  8.34241E+00  8.49587E+00  8.77333E+00  7.92822E+00  8.31906E+00  7.06288E+00  8.17208E+00  7.79260E+00
   7.24653E+00  9.38741E+00  7.79570E+00  8.44048E+00  7.53980E+00  7.43033E+00  6.75117E+00  6.50668E+00  7.48932E+00  6.36653E+00
   6.60790E+00  6.33797E+00  7.00254E+00  7.11123E+00  6.45818E+00  8.01133E+00  6.34879E+00  7.60224E+00  4.98766E+00  7.62407E+00
   6.32547E+00  5.51671E+00  6.83290E+00  8.27076E+00  7.40203E+00  6.72263E+00  7.27206E+00  5.55022E+00  7.41632E+00  6.41876E+00
   6.44190E+00  6.11771E+00  7.10091E+00  6.91425E+00  7.33413E+00  5.73902E+00  6.58065E+00  8.31034E+00  7.02160E+00  7.64301E+00
   6.69988E+00  5.44175E+00  4.62407E+00  7.00560E+00  6.31842E+00  7.69811E+00  5.68782E+00  4.67961E+00  6.13468E+00  6.74600E+00
   5.24865E+00  7.54805E+00  4.19056E+00  5.37858E+00  4.72990E+00  5.05335E+00  5.81153E+00  6.90395E+00  6.98631E+00  5.13038E+00
   4.98784E+00  4.48258E+00  4.73250E+00  5.39681E+00  4.20142E+00  5.35254E+00  6.30877E+00  5.12757E+00  5.68438E+00  4.01908E+00
   4.82052E+00  4.71067E+00  4.59729E+00  5.70563E+00  5.52133E+00  5.49088E+00  5.20046E+00  4.87630E+00  5.38941E+00  4.73213E+00
   5.25039E+00  4.65656E+00  6.58750E+00  6.25290E+00  4.21123E+00  4.83012E+00  4.84753E+00  5.32556E+00  4.05242E+00  4.00366E+00
   4.01056E+00  5.52186E+00  4.25101E+00  4.85468E+00  5.30756E+00  4.39182E+00  4.93277E+00  5.37659E+00  4.92241E+00  3.23790E+00
   4.08741E+00  4.18271E+00  5.50246E+00  4.65974E+00  3.41835E+00  3.76423E+00  3.95698E+00  4.11296E+00  4.24714E+00  5.07122E+00
   3.90220E+00  4.93517E+00  4.77852E+00  3.47097E+00  5.16202E+00  2.62032E+00  3.98849E+00  4.77019E+00  2.88128E+00  4.29879E+00
   3.97521E+00  3.66071E+00  4.18450E+00  3.99724E+00  3.37381E+00  2.02317E+00  3.46911E+00  5.02899E+00  3.68488E+00  2.94926E+00
   2.74732E+00  4.33012E+00  3.45586E+00  2.43966E+00  2.66401E+00  3.17437E+00  3.03891E+00  3.28965E+00
 NY points of the fit to the data follow
   3.51199E+01  3.49259E+01  3.47707E+01  3.47215E+01  3.47370E+01  3.47119E+01  3.45804E+01  3.43364E+01  3.40105E+01  3.36400E+01
   3.32531E+01  3.28687E+01  3.25061E+01  3.21932E+01  3.19402E+01  3.17285E+01  3.15282E+01  3.13190E+01  3.11077E+01  3.09027E+01
   3.06983E+01  3.04815E+01  3.02348E+01  2.99596E+01  2.96748E+01  2.94073E+01  2.91941E+01  2.90468E+01  2.89376E+01  2.88253E+01
   2.86723E+01  2.84601E+01  2.81882E+01  2.78823E+01  2.75845E+01  2.73177E+01  2.70910E+01  2.69052E+01  2.67475E+01  2.65960E+01
   2.64345E+01  2.62531E+01  2.60463E+01  2.58198E+01  2.55928E+01  2.53782E+01  2.51770E+01  2.49826E+01  2.47887E+01  2.45944E+01
   2.43997E+01  2.42043E+01  2.40074E+01  2.38089E+01  2.36111E+01  2.34174E+01  2.32290E+01  2.30445E+01  2.28623E+01  2.26825E+01
   2.25061E+01  2.23330E+01  2.21608E+01  2.19889E+01  2.18164E+01  2.16433E+01  2.14711E+01  2.13013E+01  2.11345E+01  2.09740E+01
   2.08219E+01  2.06739E+01  2.05239E+01  2.03685E+01  2.02073E+01  2.00432E+01  1.98809E+01  1.97234E+01  1.95715E+01  1.94271E+01
   1.92976E+01  1.91820E+01  1.90674E+01  1.89426E+01  1.88046E+01  1.86577E+01  1.85081E+01  1.83585E+01  1.82084E+01  1.80590E+01
   1.79154E+01  1.77830E+01  1.76647E+01  1.75607E+01  1.74661E+01  1.73842E+01  1.73571E+01  1.74853E+01  1.77118E+01  1.78829E+01
   1.78989E+01  1.77513E+01  1.74910E+01  1.71731E+01  1.68333E+01  1.64936E+01  1.61859E+01  1.59569E+01  1.58255E+01  1.57596E+01
   1.57065E+01  1.56329E+01  1.55479E+01  1.54630E+01  1.53794E+01  1.52976E+01  1.52190E+01  1.51448E+01  1.50780E+01  1.50299E+01
   1.50596E+01  1.52622E+01  1.55451E+01  1.57487E+01  1.57831E+01  1.56522E+01  1.54101E+01  1.51093E+01  1.47839E+01  1.44587E+01
   1.41742E+01  1.39799E+01  1.38857E+01  1.38517E+01  1.38238E+01  1.37733E+01  1.37122E+01  1.36488E+01  1.35846E+01  1.35213E+01
   1.34606E+01  1.34017E+01  1.33426E+01  1.32821E+01  1.32209E+01  1.31601E+01  1.30999E+01  1.30403E+01  1.29814E+01  1.29238E+01
   1.28685E+01  1.28153E+01  1.27635E+01  1.27118E+01  1.26575E+01  1.25947E+01  1.25250E+01  1.24572E+01  1.24002E+01  1.23601E+01
   1.23301E+01  1.22990E+01  1.22618E+01  1.22187E+01  1.21715E+01  1.21203E+01  1.20646E+01  1.20064E+01  1.19495E+01  1.18970E+01
   1.18449E+01  1.17910E+01  1.17442E+01  1.17093E+01  1.16831E+01  1.16545E+01  1.16189E+01  1.15824E+01  1.15511E+01  1.15255E+01
   1.14986E+01  1.14615E+01  1.14208E+01  1.13914E+01  1.13776E+01  1.13714E+01  1.13619E+01  1.13439E+01  1.13169E+01  1.12852E+01
   1.12498E+01  1.12117E+01  1.11707E+01  1.11283E+01  1.10901E+01  1.10662E+01  1.10640E+01  1.10823E+01  1.11132E+01  1.11463E+01
   1.11683E+01  1.11605E+01  1.11109E+01  1.10139E+01  1.08577E+01  1.06745E+01  1.05255E+01  1.04425E+01  1.04356E+01  1.05042E+01
   1.06493E+01  1.08270E+01  1.09699E+01  1.10334E+01  1.10029E+01  1.08881E+01  1.07053E+01  1.04890E+01  1.03037E+01  1.02046E+01
   1.02051E+01  1.02862E+01  1.04061E+01  1.05246E+01  1.06162E+01  1.06688E+01  1.06756E+01  1.06407E+01  1.05829E+01  1.05223E+01
   1.04630E+01  1.04137E+01  1.03873E+01  1.03911E+01  1.04210E+01  1.04644E+01  1.05040E+01  1.05112E+01  1.04885E+01  1.04522E+01
   1.04106E+01  1.03665E+01  1.03305E+01  1.03110E+01  1.03072E+01  1.03156E+01  1.03346E+01  1.03620E+01  1.03942E+01  1.04272E+01
   1.04563E+01  1.04794E+01  1.04965E+01  1.05435E+01  1.07833E+01  1.12979E+01  1.18442E+01  1.21790E+01  1.22133E+01  1.19960E+01
   1.16222E+01  1.11720E+01  1.06943E+01  1.02347E+01  9.87196E+00  9.67805E+00  9.63778E+00  9.66651E+00  9.68285E+00  9.66862E+00
   9.65051E+00  9.63296E+00  9.61359E+00  9.59096E+00  9.56387E+00  9.53076E+00  9.49281E+00  9.45279E+00  9.41384E+00  9.37847E+00
   9.34792E+00  9.32162E+00  9.29810E+00  9.27626E+00  9.25537E+00  9.23470E+00  9.21386E+00  9.19301E+00  9.17231E+00  9.15206E+00
   9.13248E+00  9.11376E+00  9.09589E+00  9.07869E+00  9.06196E+00  9.04554E+00  9.02921E+00  9.01276E+00  8.99599E+00  8.97868E+00
   8.96065E+00  8.94172E+00  8.92181E+00  8.90085E+00  8.87885E+00  8.85583E+00  8.83186E+00  8.80706E+00  8.78160E+00  8.75567E+00
   8.72950E+00  8.70331E+00  8.67731E+00  8.65174E+00  8.62681E+00  8.60273E+00  8.57968E+00  8.55779E+00  8.53716E+00  8.51784E+00
   8.49985E+00  8.48315E+00  8.46770E+00  8.45336E+00  8.43999E+00  8.42740E+00  8.41540E+00  8.40377E+00  8.39230E+00  8.38074E+00
   8.36888E+00  8.35653E+00  8.34353E+00  8.32975E+00  8.31511E+00  8.29958E+00  8.28321E+00  8.26615E+00  8.24863E+00  8.23101E+00
   8.21379E+00  8.19764E+00  8.18340E+00  8.17210E+00  8.16486E+00  8.16277E+00  8.16676E+00  8.17730E+00  8.19416E+00  8.21616E+00
   8.24102E+00  8.26532E+00  8.28484E+00  8.29493E+00  8.29123E+00  8.27030E+00  8.23022E+00  8.17099E+00  8.09449E+00  8.00424E+00
   7.90481E+00  7.80108E+00  7.69763E+00  7.59815E+00  7.50521E+00  7.42020E+00  7.34345E+00  7.27456E+00  7.21264E+00  7.15661E+00
   7.10543E+00  7.05821E+00  7.01426E+00  6.97309E+00  6.93439E+00  6.89800E+00  6.86388E+00  6.83204E+00  6.80254E+00  6.77548E+00
   6.75093E+00  6.72901E+00  6.70981E+00  6.69340E+00  6.67982E+00  6.66909E+00  6.66115E+00  6.65590E+00  6.65316E+00  6.65268E+00
   6.65407E+00  6.65689E+00  6.66058E+00  6.66449E+00  6.66792E+00  6.67008E+00  6.67016E+00  6.66734E+00  6.66086E+00  6.65002E+00
   6.63422E+00  6.61300E+00  6.58605E+00  6.55325E+00  6.51465E+00  6.47051E+00  6.42123E+00  6.36738E+00  6.30961E+00  6.24869E+00
   6.18542E+00  6.12061E+00  6.05506E+00  5.98950E+00  5.92459E+00  5.86090E+00  5.79892E+00  5.73901E+00  5.68141E+00  5.62629E+00
   5.57372E+00  5.52371E+00  5.47618E+00  5.43103E+00  5.38811E+00  5.34725E+00  5.30828E+00  5.27100E+00  5.23525E+00  5.20084E+00
   5.16762E+00  5.13543E+00  5.10414E+00  5.07362E+00  5.04378E+00  5.01452E+00  4.98574E+00  4.95738E+00  4.92938E+00  4.90168E+00
   4.87423E+00  4.84700E+00  4.81994E+00  4.79301E+00  4.76621E+00  4.73949E+00  4.71285E+00  4.68624E+00  4.65967E+00  4.63310E+00
   4.60654E+00  4.57996E+00  4.55336E+00  4.52671E+00  4.50002E+00  4.47329E+00  4.44651E+00  4.41968E+00  4.39280E+00  4.36587E+00
   4.33888E+00  4.31184E+00  4.28475E+00  4.25760E+00  4.23039E+00  4.20314E+00  4.17583E+00  4.14847E+00  4.12105E+00  4.09359E+00
   4.06607E+00  4.03851E+00  4.01090E+00  3.98325E+00  3.95555E+00  3.92781E+00  3.90002E+00  3.87219E+00  3.84433E+00  3.81643E+00
   3.78850E+00  3.76053E+00  3.73252E+00  3.70449E+00  3.67643E+00  3.64835E+00  3.62024E+00  3.59211E+00  3.56395E+00  3.53579E+00
   3.50760E+00  3.47941E+00  3.45119E+00  3.42297E+00  3.39475E+00  3.36652E+00  3.33829E+00  3.31007E+00
 NY background values follow
     3.504E+01    3.481E+01    3.459E+01    3.436E+01    3.414E+01    3.391E+01    3.369E+01    3.346E+01    3.324E+01    3.301E+01
     3.279E+01    3.256E+01    3.234E+01    3.212E+01    3.189E+01    3.167E+01    3.145E+01    3.122E+01    3.100E+01    3.078E+01
     3.056E+01    3.034E+01    3.012E+01    2.990E+01    2.968E+01    2.946E+01    2.925E+01    2.903E+01    2.881E+01    2.860E+01
     2.838E+01    2.817E+01    2.796E+01    2.774E+01    2.753E+01    2.732E+01    2.711E+01    2.691E+01    2.670E+01    2.649E+01
     2.629E+01    2.609E+01    2.588E+01    2.568E+01    2.548E+01    2.528E+01    2.509E+01    2.489E+01    2.469E+01    2.450E+01
     2.431E+01    2.412E+01    2.393E+01    2.374E+01    2.355E+01    2.337E+01    2.319E+01    2.300E+01    2.282E+01    2.264E+01
     2.247E+01    2.229E+01    2.211E+01    2.194E+01    2.177E+01    2.160E+01    2.143E+01    2.126E+01    2.110E+01    2.093E+01
     2.077E+01    2.061E+01    2.045E+01    2.029E+01    2.013E+01    1.998E+01    1.983E+01    1.968E+01    1.953E+01    1.938E+01
     1.923E+01    1.909E+01    1.895E+01    1.880E+01    1.867E+01    1.853E+01    1.839E+01    1.826E+01    1.813E+01    1.800E+01
     1.787E+01    1.774E+01    1.762E+01    1.749E+01    1.737E+01    1.725E+01    1.713E+01    1.702E+01    1.690E+01    1.679E+01
     1.668E+01    1.657E+01    1.646E+01    1.636E+01    1.625E+01    1.615E+01    1.605E+01    1.595E+01    1.585E+01    1.575E+01
     1.566E+01    1.556E+01    1.547E+01    1.538E+01    1.529E+01    1.520E+01    1.511E+01    1.503E+01    1.494E+01    1.486E+01
     1.478E+01    1.469E+01    1.462E+01    1.454E+01    1.446E+01    1.438E+01    1.431E+01    1.423E+01    1.416E+01    1.409E+01
     1.402E+01    1.395E+01    1.388E+01    1.381E+01    1.375E+01    1.368E+01    1.362E+01    1.355E+01    1.349E+01    1.343E+01
     1.337E+01    1.331E+01    1.325E+01    1.319E+01    1.313E+01    1.307E+01    1.302E+01    1.296E+01    1.291E+01    1.285E+01
     1.280E+01    1.275E+01    1.270E+01    1.265E+01    1.260E+01    1.255E+01    1.250E+01    1.245E+01    1.240E+01    1.236E+01
     1.231E+01    1.227E+01    1.222E+01    1.218E+01    1.213E+01    1.209E+01    1.205E+01    1.201E+01    1.196E+01    1.192E+01
     1.188E+01    1.184E+01    1.180E+01    1.177E+01    1.173E+01    1.169E+01    1.165E+01    1.162E+01    1.158E+01    1.154E+01
     1.151E+01    1.147E+01    1.144E+01    1.140E+01    1.137E+01    1.134E+01    1.130E+01    1.127E+01    1.124E+01    1.121E+01
     1.117E+01    1.114E+01    1.111E+01    1.108E+01    1.105E+01    1.102E+01    1.099E+01    1.096E+01    1.093E+01    1.090E+01
     1.087E+01    1.085E+01    1.082E+01    1.079E+01    1.076E+01    1.074E+01    1.071E+01    1.068E+01    1.066E+01    1.063E+01
     1.061E+01    1.058E+01    1.056E+01    1.053E+01    1.051E+01    1.049E+01    1.046E+01    1.044E+01    1.042E+01    1.039E+01
     1.037E+01    1.035E+01    1.032E+01    1.030E+01    1.028E+01    1.026E+01    1.024E+01    1.022E+01    1.020E+01    1.018E+01
     1.016E+01    1.014E+01    1.012E+01    1.010E+01    1.008E+01    1.006E+01    1.004E+01    1.002E+01    9.999E+00    9.980E+00
     9.961E+00    9.942E+00    9.924E+00    9.905E+00    9.886E+00    9.868E+00    9.850E+00    9.831E+00    9.813E+00    9.795E+00
     9.776E+00    9.758E+00    9.740E+00    9.721E+00    9.703E+00    9.685E+00    9.666E+00    9.648E+00    9.629E+00    9.611E+00
     9.592E+00    9.574E+00    9.555E+00    9.536E+00    9.517E+00    9.498E+00    9.479E+00    9.459E+00    9.440E+00    9.420E+00
     9.400E+00    9.380E+00    9.360E+00    9.340E+00    9.319E+00    9.298E+00    9.278E+00    9.257E+00    9.235E+00    9.214E+00
     9.192E+00    9.171E+00    9.149E+00    9.127E+00    9.104E+00    9.082E+00    9.059E+00    9.037E+00    9.014E+00    8.991E+00
     8.968E+00    8.944E+00    8.921E+00    8.897E+00    8.874E+00    8.850E+00    8.826E+00    8.801E+00    8.777E+00    8.753E+00
     8.728E+00    8.703E+00    8.679E+00    8.654E+00    8.628E+00    8.603E+00    8.578E+00    8.552E+00    8.527E+00    8.501E+00
     8.475E+00    8.449E+00    8.423E+00    8.397E+00    8.371E+00    8.345E+00    8.318E+00    8.291E+00    8.265E+00    8.238E+00
     8.211E+00    8.184E+00    8.157E+00    8.130E+00    8.103E+00    8.075E+00    8.048E+00    8.020E+00    7.993E+00    7.965E+00
     7.937E+00    7.909E+00    7.881E+00    7.853E+00    7.825E+00    7.797E+00    7.769E+00    7.740E+00    7.712E+00    7.684E+00
     7.655E+00    7.627E+00    7.598E+00    7.569E+00    7.541E+00    7.512E+00    7.483E+00    7.454E+00    7.425E+00    7.396E+00
     7.367E+00    7.338E+00    7.309E+00    7.280E+00    7.251E+00    7.221E+00    7.192E+00    7.163E+00    7.134E+00    7.104E+00
     7.075E+00    7.046E+00    7.016E+00    6.987E+00    6.957E+00    6.928E+00    6.898E+00    6.869E+00    6.839E+00    6.810E+00
     6.780E+00    6.751E+00    6.722E+00    6.692E+00    6.663E+00    6.633E+00    6.604E+00    6.575E+00    6.545E+00    6.516E+00
     6.487E+00    6.458E+00    6.428E+00    6.399E+00    6.370E+00    6.341E+00    6.312E+00    6.284E+00    6.255E+00    6.226E+00
     6.197E+00    6.169E+00    6.140E+00    6.112E+00    6.084E+00    6.055E+00    6.027E+00    5.999E+00    5.971E+00    5.943E+00
     5.916E+00    5.888E+00    5.860E+00    5.833E+00    5.806E+00    5.779E+00    5.752E+00    5.725E+00    5.698E+00    5.671E+00
     5.645E+00    5.619E+00    5.592E+00    5.566E+00    5.540E+00    5.514E+00    5.488E+00    5.462E+00    5.437E+00    5.411E+00
     5.386E+00    5.360E+00    5.335E+00    5.309E+00    5.284E+00    5.259E+00    5.233E+00    5.208E+00    5.183E+00    5.158E+00
     5.133E+00    5.108E+00    5.083E+00    5.057E+00    5.032E+00    5.007E+00    4.982E+00    4.957E+00    4.932E+00    4.907E+00
     4.881E+00    4.856E+00    4.831E+00    4.805E+00    4.780E+00    4.755E+00    4.729E+00    4.703E+00    4.678E+00    4.652E+00
     4.626E+00    4.600E+00    4.574E+00    4.548E+00    4.522E+00    4.496E+00    4.469E+00    4.443E+00    4.416E+00    4.390E+00
     4.363E+00    4.336E+00    4.309E+00    4.282E+00    4.255E+00    4.228E+00    4.201E+00    4.174E+00    4.146E+00    4.119E+00
     4.091E+00    4.064E+00    4.036E+00    4.009E+00    3.981E+00    3.953E+00    3.925E+00    3.898E+00    3.870E+00    3.842E+00
     3.814E+00    3.786E+00    3.758E+00    3.730E+00    3.701E+00    3.673E+00    3.645E+00    3.617E+00    3.589E+00    3.560E+00
     3.532E+00    3.504E+00    3.475E+00    3.447E+00    3.419E+00    3.390E+00    3.362E+00    3.334E+00
 Asp      Conc. = 5.05E+00
