 LCModel (Version 6.3-1L) Copyright: S.W. Provencher.          Ref.: Magn. Reson. Med. 30:672-679 (1993).                
 Slice#1 Row#2 Col#6  PD_05_press_1_raw_act
 36 lines in following concentration table = NCONC+1
    Conc.  %SD /Cr+PCr  Metabolite                                         
    0.000 999%   0.000 Ala                                                 
   33.481 173% 7.1E-02 Asp                                                 
  468.478  12%   1.000 Cr                                                  
    0.000 999%   0.000 PCr                                                 
   19.999 175% 4.3E-02 GABA                                                
   16.755 209% 3.6E-02 Glc                                                 
    0.000 999%   0.000 Gln                                                 
    0.000 999%   0.000 Glu                                                 
    0.000 999%   0.000 GPC                                                 
   72.525  30%   0.155 PCh                                                 
  190.731  38%   0.407 GSH                                                 
  736.712  27%   1.573 Ins                                                 
 1.25E+03  25%   2.663 Lac                                                 
    0.000 999%   0.000 NAA                                                 
    0.000 999%   0.000 NAAG                                                
    0.000 999%   0.000 Scyllo                                              
    8.107 694% 1.7E-02 Tau                                                 
   93.552  81%   0.200 -CrCH2                                              
   72.525  30%   0.155 GPC+PCh                                             
    0.000 999%   0.000 NAA+NAAG                                            
  468.478  12%   1.000 Cr+PCr                                              
    0.000 999%   0.000 Glu+Gln                                             
 4.04E+03   8%   8.632 Lip13a                                              
    0.000 999%   0.000 Lip13b                                              
    0.000 999%   0.000 Lip09                                               
    0.000 999%   0.000 MM09                                                
 1.80E+03   6%   3.845 Lip20                                               
    0.000 999%   0.000 MM20                                                
    6.117 981% 1.3E-02 MM12                                                
    0.000 999%   0.000 MM14                                                
    0.000 999%   0.000 MM17                                                
 4.04E+03   8%   8.632 Lip13a+Lip13b                                       
 4.05E+03   8%   8.646 MM14+Lip13a+Lip13b+MM12                             
    0.000 999%   0.000 MM09+Lip09                                          
 1.80E+03   6%   3.845 MM20+Lip20                                          
   6 lines in following misc. output table
  FWHM = 0.122 ppm    S/N =   5                                            
  Data shift = 0.000 ppm                                                   
  Ph:-127 deg     106.9 deg/ppm                                            
  alphaB,S = 8.5E+01,   5.8E+01                                            
   14 spline knots.   Ns = 6(2)                                            
   4 inflections.     1 extrema                                            
  498 points on ppm-axis = NY
      4.000000     3.992357     3.984714     3.977070     3.969427     3.961784     3.954141     3.946497     3.938854     3.931211
      3.923568     3.915925     3.908281     3.900638     3.892995     3.885352     3.877708     3.870065     3.862422     3.854779
      3.847136     3.839492     3.831849     3.824206     3.816563     3.808919     3.801276     3.793633     3.785990     3.778347
      3.770703     3.763060     3.755417     3.747774     3.740130     3.732487     3.724844     3.717201     3.709558     3.701914
      3.694271     3.686628     3.678985     3.671341     3.663698     3.656055     3.648412     3.640769     3.633125     3.625482
      3.617839     3.610196     3.602552     3.594909     3.587266     3.579623     3.571980     3.564336     3.556693     3.549050
      3.541407     3.533763     3.526120     3.518477     3.510834     3.503191     3.495547     3.487904     3.480261     3.472618
      3.464974     3.457331     3.449688     3.442045     3.434402     3.426758     3.419115     3.411472     3.403829     3.396185
      3.388542     3.380899     3.373256     3.365613     3.357969     3.350326     3.342683     3.335040     3.327396     3.319753
      3.312110     3.304467     3.296824     3.289180     3.281537     3.273894     3.266251     3.258607     3.250964     3.243321
      3.235678     3.228034     3.220391     3.212748     3.205105     3.197462     3.189818     3.182175     3.174532     3.166889
      3.159245     3.151602     3.143959     3.136316     3.128673     3.121029     3.113386     3.105743     3.098100     3.090456
      3.082813     3.075170     3.067527     3.059884     3.052240     3.044597     3.036954     3.029311     3.021667     3.014024
      3.006381     2.998738     2.991095     2.983451     2.975808     2.968165     2.960522     2.952878     2.945235     2.937592
      2.929949     2.922306     2.914662     2.907019     2.899376     2.891733     2.884089     2.876446     2.868803     2.861160
      2.853517     2.845873     2.838230     2.830587     2.822944     2.815300     2.807657     2.800014     2.792371     2.784728
      2.777084     2.769441     2.761798     2.754155     2.746511     2.738868     2.731225     2.723582     2.715939     2.708295
      2.700652     2.693009     2.685366     2.677722     2.670079     2.662436     2.654793     2.647150     2.639506     2.631863
      2.624220     2.616577     2.608933     2.601290     2.593647     2.586004     2.578361     2.570717     2.563074     2.555431
      2.547788     2.540144     2.532501     2.524858     2.517215     2.509572     2.501928     2.494285     2.486642     2.478999
      2.471355     2.463712     2.456069     2.448426     2.440783     2.433139     2.425496     2.417853     2.410210     2.402566
      2.394923     2.387280     2.379637     2.371994     2.364350     2.356707     2.349064     2.341421     2.333777     2.326134
      2.318491     2.310848     2.303205     2.295561     2.287918     2.280275     2.272632     2.264988     2.257345     2.249702
      2.242059     2.234416     2.226772     2.219129     2.211486     2.203843     2.196199     2.188556     2.180913     2.173270
      2.165627     2.157983     2.150340     2.142697     2.135054     2.127410     2.119767     2.112124     2.104481     2.096838
      2.089194     2.081551     2.073908     2.066265     2.058621     2.050978     2.043335     2.035692     2.028049     2.020405
      2.012762     2.005119     1.997476     1.989833     1.982190     1.974546     1.966903     1.959260     1.951617     1.943974
      1.936331     1.928688     1.921045     1.913402     1.905759     1.898115     1.890472     1.882829     1.875186     1.867543
      1.859900     1.852257     1.844614     1.836971     1.829327     1.821684     1.814041     1.806398     1.798755     1.791112
      1.783469     1.775826     1.768183     1.760540     1.752896     1.745253     1.737610     1.729967     1.722324     1.714681
      1.707038     1.699395     1.691752     1.684108     1.676465     1.668822     1.661179     1.653536     1.645893     1.638250
      1.630607     1.622964     1.615321     1.607677     1.600034     1.592391     1.584748     1.577105     1.569462     1.561819
      1.554176     1.546533     1.538890     1.531246     1.523603     1.515960     1.508317     1.500674     1.493031     1.485388
      1.477745     1.470102     1.462458     1.454815     1.447172     1.439529     1.431886     1.424243     1.416600     1.408957
      1.401314     1.393671     1.386027     1.378384     1.370741     1.363098     1.355455     1.347812     1.340169     1.332526
      1.324883     1.317240     1.309596     1.301953     1.294310     1.286667     1.279024     1.271381     1.263738     1.256095
      1.248452     1.240808     1.233165     1.225522     1.217879     1.210236     1.202593     1.194950     1.187307     1.179664
      1.172021     1.164377     1.156734     1.149091     1.141448     1.133805     1.126162     1.118519     1.110876     1.103233
      1.095590     1.087946     1.080303     1.072660     1.065017     1.057374     1.049731     1.042088     1.034445     1.026802
      1.019158     1.011515     1.003872     0.996229     0.988586     0.980943     0.973300     0.965657     0.958014     0.950371
      0.942727     0.935084     0.927441     0.919798     0.912155     0.904512     0.896869     0.889226     0.881583     0.873940
      0.866296     0.858653     0.851010     0.843367     0.835724     0.828081     0.820438     0.812795     0.805152     0.797508
      0.789865     0.782222     0.774579     0.766936     0.759293     0.751650     0.744007     0.736364     0.728721     0.721077
      0.713434     0.705791     0.698148     0.690505     0.682862     0.675219     0.667576     0.659933     0.652290     0.644646
      0.637003     0.629360     0.621717     0.614074     0.606431     0.598788     0.591145     0.583502     0.575858     0.568215
      0.560572     0.552929     0.545286     0.537643     0.530000     0.522357     0.514714     0.507071     0.499427     0.491784
      0.484141     0.476498     0.468855     0.461212     0.453569     0.445925     0.438282     0.430639     0.422996     0.415353
      0.407710     0.400067     0.392424     0.384780     0.377137     0.369494     0.361851     0.354208     0.346565     0.338922
      0.331278     0.323635     0.315992     0.308349     0.300706     0.293063     0.285420     0.277777     0.270133     0.262490
      0.254847     0.247204     0.239561     0.231918     0.224275     0.216631     0.208988     0.201345
 NY phased data points follow
   1.78696E+00 -1.76403E-01 -5.09239E+00 -7.35364E-01 -2.24634E+00 -1.79928E+00  2.33885E+00 -1.08647E+00 -2.19170E+00 -5.78331E-01
  -1.36177E+00  4.20087E-02  5.80455E-01 -4.08648E+00 -1.97757E+00  1.77009E+00 -2.04032E+00  2.77509E+00 -2.80507E-02  1.09197E+00
   2.37070E+00 -1.57447E+00 -4.08304E+00  2.94525E+00 -3.96642E+00 -2.66579E+00 -7.10453E-01 -8.49415E-01 -4.36597E+00  2.08738E+00
  -1.61490E+00 -2.06733E+00 -7.00547E-01 -3.83640E+00  1.55442E+00 -1.85894E+00 -9.18280E-01 -5.99988E+00  4.74593E-01 -2.39905E+00
  -3.08293E+00 -1.83029E+00  9.35391E-02 -2.45870E+00 -1.28946E+00 -2.11046E+00 -1.75744E+00 -2.20055E+00 -3.11595E+00  6.30919E-02
  -3.13600E+00 -1.69062E+00 -2.38103E-01 -2.17949E-01 -3.82413E+00 -1.46360E+00 -1.35607E+00  1.18357E+00 -6.86311E-01 -1.52547E+00
  -2.64043E+00  5.63696E-01 -1.60301E+00 -2.03815E+00  1.11195E+00 -3.91942E+00 -9.85351E-01 -9.69629E-01 -5.37296E+00 -1.17568E+00
  -1.34910E+00 -4.34935E+00 -3.36054E+00 -4.37195E+00 -2.45027E+00 -3.30946E+00 -6.23996E+00 -2.83412E+00 -1.15479E+00 -5.69866E+00
  -2.49977E+00 -4.65900E+00 -3.69344E+00  5.14635E-01 -5.57150E+00 -1.68494E+00 -5.66221E+00 -4.24198E+00 -4.52589E+00 -4.15997E+00
  -6.05824E+00 -3.43868E+00 -5.25145E+00 -4.43530E+00 -7.85555E+00 -7.67352E+00 -4.42348E+00 -7.45723E+00 -6.49321E+00 -1.71957E+00
  -2.19235E+00 -1.10186E+00 -2.65146E-01 -3.92790E+00 -2.24508E+00 -4.41833E-01 -7.01524E-02 -1.78786E+00  2.63277E+00 -2.62298E+00
   1.04681E+00 -1.83436E+00 -1.22760E+00 -3.51982E-01 -2.21693E+00 -2.37521E+00 -2.48978E+00 -3.45426E+00  3.02631E-01 -9.62269E-02
  -4.98915E-01  4.40706E-01 -7.04638E-01 -1.24288E+00  1.60472E-01  3.29702E+00  5.20260E+00  5.16452E+00  1.46662E+00  4.58927E+00
   5.55978E+00  2.48717E+00  3.80850E+00  3.20232E+00  2.68924E+00  3.77193E+00  5.28508E+00  3.34050E+00  4.24774E+00  2.15900E+00
   6.07041E-01  1.83931E+00  3.63942E+00  1.64318E+00 -8.56949E-01  2.77267E+00  1.39929E+00  1.79460E+00  1.42255E+00  2.77545E+00
  -7.06035E-01  2.41592E+00  3.47116E+00  5.87456E-01  4.22290E+00  1.81219E+00 -1.48718E-01 -1.63018E+00 -2.11738E-01  8.35154E-01
  -2.57593E+00 -1.02517E+00  2.00412E+00 -1.38390E+00 -1.40090E-01 -2.19715E+00  7.30822E-01  1.69820E+00 -2.86480E+00 -2.97178E+00
  -1.69320E+00 -3.40794E+00 -2.12649E+00  5.71675E-01 -2.83160E+00 -4.68273E+00 -1.65033E+00 -4.26567E+00 -2.07041E+00 -3.51791E+00
  -3.07550E+00 -3.63779E+00 -2.45540E+00 -5.16353E+00 -4.46519E+00 -2.47538E+00 -3.62577E+00 -6.66023E+00 -3.33785E-01  6.03402E-02
  -3.37144E+00 -3.82394E+00 -1.42902E+00 -1.84504E+00 -4.62228E+00 -3.34097E+00 -4.32826E+00 -3.47631E+00 -2.71974E+00 -3.67887E+00
  -3.53630E+00 -2.98295E+00 -4.40436E+00 -4.54991E+00 -2.75817E+00 -1.28070E+00 -8.90813E-01 -9.53971E-01 -3.69616E+00 -6.70079E-01
  -2.67091E+00 -1.31287E+00  4.20997E-01 -2.70359E+00  1.51944E+00  7.95520E-01  3.48374E+00 -6.59903E-01 -1.20961E+00  1.41497E+00
  -1.49661E+00 -1.50938E+00 -2.98778E+00  2.91014E-01 -3.11472E+00 -2.81257E+00  1.35980E+00 -9.70897E-01 -2.54248E+00 -2.90105E+00
   1.94075E-01  7.53875E-01  1.13851E+00  6.74042E-02 -8.47478E-01  2.52602E+00 -1.86521E-02  2.00698E+00  4.30466E-01  7.82170E-01
   3.13816E-01  1.52142E+00  1.17781E-02  5.43713E+00  6.45029E+00  5.81931E+00  4.30842E+00  5.45298E+00  5.29326E+00  3.90141E+00
   5.28048E+00  9.74368E+00  9.79500E+00  7.49473E+00  5.76889E+00  7.85235E+00  9.65533E+00  8.62779E+00  1.00717E+01  5.14388E+00
   2.61952E+00  1.39947E+00  4.40884E+00 -2.80873E+00 -3.30081E+00 -1.68495E+00 -3.13029E+00 -8.28426E+00 -7.25442E+00 -5.54239E+00
  -7.16642E+00 -1.80789E+00 -8.74780E+00 -6.25105E+00 -9.37766E+00 -7.13131E+00 -7.01264E+00 -5.77124E+00 -7.49662E+00 -8.78915E+00
  -4.75228E+00 -7.95070E+00 -5.54035E+00 -5.67258E+00 -7.35600E+00 -4.89348E+00 -6.34564E+00 -3.10466E+00 -4.47532E+00 -4.73977E+00
  -2.84206E+00 -2.27116E+00 -5.58427E+00 -2.90019E+00 -5.05902E+00 -2.00613E+00 -2.99619E+00 -2.22870E+00 -7.87484E-01  1.71472E-01
  -6.14811E+00 -2.15161E+00 -3.05507E+00 -3.37480E+00 -3.31186E+00 -3.17223E+00 -6.75447E+00 -3.41820E+00 -5.16444E+00 -2.22140E+00
  -2.68696E+00 -5.82775E+00 -6.77620E+00 -3.56693E+00 -2.81850E+00 -3.57739E+00 -9.43536E-01 -4.62817E+00 -6.29623E+00 -5.59918E+00
  -2.39233E+00 -7.00336E+00 -4.64134E+00 -3.30606E+00  5.14517E-01 -3.66447E+00 -2.13623E-01 -1.30778E+00 -7.46888E-01 -4.01510E+00
  -2.19510E+00 -1.02703E-01  9.43180E-01  5.54817E-02  3.58764E-01  5.78521E-01  2.58066E+00  2.37202E+00  3.20005E+00  1.36492E+00
   4.08243E+00  5.56752E+00  5.22849E+00  5.20416E+00  9.57686E+00  8.61602E+00  9.93317E+00  8.59564E+00  9.45048E+00  8.05680E+00
   1.64672E+01  1.32075E+01  1.85602E+01  1.67119E+01  1.76681E+01  1.51349E+01  1.27473E+01  1.07163E+01  1.32139E+01  1.68088E+01
   1.52891E+01  1.58735E+01  1.36321E+01  1.53766E+01  1.72357E+01  1.60820E+01  2.01862E+01  1.77099E+01  1.70626E+01  2.11618E+01
   1.76925E+01  1.47246E+01  1.38671E+01  1.16647E+01  1.10934E+01  1.03686E+01  6.67902E+00  9.75170E+00  7.14970E+00  7.92571E+00
   2.39799E+00  6.77055E+00  2.65701E+00  2.94319E+00  3.56896E+00  2.83385E+00  1.49813E+00  7.95751E-01 -3.96482E-02 -4.47519E+00
  -5.27905E+00 -2.00256E+00 -5.42069E+00 -5.25462E+00 -5.54038E+00 -4.92535E+00 -3.08489E+00 -6.17806E+00 -7.60518E+00 -8.32271E+00
  -3.22704E+00 -3.55306E+00 -6.63740E+00 -2.45181E+00 -6.84693E+00 -2.36470E+00 -3.78954E+00 -2.08577E+00 -1.20676E-01 -4.36358E+00
  -4.03894E+00 -2.48087E+00 -3.88534E+00 -4.83493E+00 -4.01935E+00  2.37250E+00 -4.50707E+00 -3.85600E+00 -3.21843E+00 -4.43875E+00
  -4.59078E+00 -4.56365E+00 -1.72888E+00 -2.66237E+00 -2.35589E+00 -2.70826E+00  3.46906E+00 -4.19689E+00 -1.61524E+00 -3.60518E+00
  -3.29727E+00 -1.92992E+00 -3.10530E+00 -1.72484E+00 -4.36137E+00 -6.23976E+00 -2.47234E+00 -1.55138E+00  2.04142E-01 -1.79056E+00
  -2.70965E+00 -2.51565E+00 -2.72443E+00 -2.24197E+00 -9.10050E-01 -7.55776E-01 -3.92449E+00 -3.71730E+00 -2.27439E+00 -4.85422E+00
  -2.46456E+00 -4.82589E+00 -4.72347E+00 -3.83151E+00 -3.25705E+00 -4.67805E+00 -4.99848E+00 -3.03447E+00 -3.23013E+00 -1.86506E+00
  -4.63243E-01 -7.27006E-01  3.13136E-01 -2.02532E+00 -1.74449E-01 -2.58545E+00  5.57055E-01 -2.34126E+00 -3.11165E+00 -3.17222E+00
  -9.60903E-01 -4.85283E+00 -1.59022E+00 -3.23221E+00 -8.54474E-01 -1.37037E+00 -3.58435E+00 -7.78810E-01 -1.52841E+00 -2.53377E+00
  -4.39607E+00 -1.43282E+00 -3.35616E+00  1.28447E-01  1.50257E+00 -1.26777E+00 -1.41414E+00 -1.83966E+00 -2.31248E-01 -7.00667E+00
  -1.74015E+00  7.53486E-01 -4.33474E-01 -2.02269E+00 -4.00282E-01 -1.77302E+00 -2.93263E+00 -3.07304E+00
 NY points of the fit to the data follow
  -5.18492E-01 -8.87661E-01 -3.92507E-01 -8.38882E-01 -6.65273E-01 -9.91582E-01 -1.21703E+00 -1.53304E+00 -1.36307E+00 -1.43731E+00
  -1.30668E+00 -1.19738E+00 -8.96423E-01 -3.39055E-01 -1.52312E-01  3.23182E-01  3.51199E-01  5.82498E-01  4.93929E-01  3.97337E-01
   1.68292E-01 -1.23302E-01 -3.66637E-01 -9.38096E-01 -1.19837E+00 -2.21888E+00 -2.09640E+00 -2.28146E+00 -1.94786E+00 -2.12793E+00
  -1.73226E+00 -1.85894E+00 -1.26740E+00 -1.50167E+00 -8.66445E-01 -1.23836E+00 -6.83977E-01 -1.17862E+00 -7.74227E-01 -1.24082E+00
  -9.84940E-01 -1.39465E+00 -1.39723E+00 -1.76936E+00 -2.06317E+00 -2.08890E+00 -2.11172E+00 -2.08179E+00 -2.03958E+00 -1.87583E+00
  -1.72744E+00 -1.56112E+00 -1.46075E+00 -1.31748E+00 -1.28216E+00 -1.32983E+00 -1.45506E+00 -1.65771E+00 -1.89497E+00 -2.24227E+00
  -2.53883E+00 -2.88777E+00 -3.02629E+00 -2.89819E+00 -2.60494E+00 -2.45713E+00 -2.23461E+00 -2.26645E+00 -2.13894E+00 -2.27234E+00
  -2.21819E+00 -2.39718E+00 -2.36545E+00 -2.56627E+00 -2.55177E+00 -2.65336E+00 -2.55934E+00 -2.59982E+00 -2.49474E+00 -2.62747E+00
  -2.61302E+00 -2.87477E+00 -2.94084E+00 -3.23917E+00 -3.31918E+00 -3.57440E+00 -3.67000E+00 -3.85577E+00 -3.86718E+00 -4.06916E+00
  -4.06785E+00 -4.22515E+00 -4.08504E+00 -4.26729E+00 -4.03165E+00 -4.09821E+00 -3.62943E+00 -3.60988E+00 -2.88755E+00 -2.93885E+00
  -2.12745E+00 -2.32394E+00 -1.59849E+00 -1.97520E+00 -1.33198E+00 -1.70938E+00 -8.91007E-01 -1.40621E+00 -5.40743E-01 -1.28554E+00
  -5.31978E-01 -1.41785E+00 -8.22224E-01 -1.73020E+00 -1.33265E+00 -1.94666E+00 -1.93209E+00 -2.35415E+00 -2.56369E+00 -1.89946E+00
  -1.66987E+00 -5.24699E-01 -4.04807E-01  7.88768E-01  6.66112E-01  1.70182E+00  1.44322E+00  2.49568E+00  2.32551E+00  3.82905E+00
   3.54966E+00  5.01242E+00  4.40382E+00  5.37616E+00  4.51173E+00  4.93531E+00  3.93474E+00  3.76715E+00  2.68494E+00  1.80542E+00
   8.26106E-01 -4.62249E-01 -5.71807E-01 -4.58804E-01 -2.28094E-01 -3.27658E-02  2.29550E-01  4.28591E-01  7.04870E-01  9.65374E-01
   1.20799E+00  1.32201E+00  1.42747E+00  1.37058E+00  1.31979E+00  1.19338E+00  1.05961E+00  9.27796E-01  7.53555E-01  5.69790E-01
   3.49232E-01  1.24203E-01 -1.27563E-01 -3.83044E-01 -6.49937E-01 -9.08390E-01 -1.18262E+00 -1.43440E+00 -1.70459E+00 -1.93687E+00
  -2.19540E+00 -2.40234E+00 -2.62105E+00 -2.79910E+00 -2.97724E+00 -3.12790E+00 -3.27079E+00 -3.39524E+00 -3.49348E+00 -3.59809E+00
  -3.66266E+00 -3.75776E+00 -3.78952E+00 -3.85188E+00 -3.84950E+00 -3.90437E+00 -3.88380E+00 -3.93343E+00 -3.90690E+00 -3.96714E+00
  -3.94603E+00 -3.98467E+00 -3.94674E+00 -3.92352E+00 -3.86913E+00 -3.81098E+00 -3.77881E+00 -3.72644E+00 -3.74682E+00 -3.71525E+00
  -3.77481E+00 -3.73852E+00 -3.80629E+00 -3.72796E+00 -3.77748E+00 -3.62925E+00 -3.58906E+00 -3.33996E+00 -3.20565E+00 -2.91477E+00
  -2.71336E+00 -2.40643E+00 -2.16462E+00 -1.92099E+00 -1.64806E+00 -1.32469E+00 -9.86488E-01 -6.17790E-01 -2.56174E-01  1.04688E-01
   4.45711E-01  7.68497E-01  1.04327E+00  1.27086E+00  1.44561E+00  1.56634E+00  1.61850E+00  1.60752E+00  1.53829E+00  1.43076E+00
   1.25966E+00  1.05910E+00  8.18309E-01  5.52694E-01  3.12472E-01  8.08642E-02 -6.10127E-02 -1.27752E-01 -7.04604E-02  1.04535E-01
   3.90750E-01  7.51843E-01  1.21889E+00  1.71270E+00  2.30694E+00  2.88772E+00  3.51829E+00  4.06757E+00  4.65647E+00  5.16668E+00
   5.65298E+00  6.04147E+00  6.35723E+00  6.60483E+00  6.65861E+00  6.56631E+00  6.28537E+00  5.87668E+00  5.31852E+00  4.66230E+00
   3.91823E+00  3.19354E+00  2.42943E+00  1.71169E+00  9.96894E-01  3.52144E-01 -2.54325E-01 -7.93244E-01 -1.28026E+00 -1.70138E+00
  -2.06281E+00 -2.36239E+00 -2.61106E+00 -2.80800E+00 -2.96723E+00 -3.08698E+00 -3.18220E+00 -3.24694E+00 -3.29592E+00 -3.32238E+00
  -3.34077E+00 -3.34440E+00 -3.34623E+00 -3.33890E+00 -3.33175E+00 -3.32307E+00 -3.31617E+00 -3.30552E+00 -3.29812E+00 -3.28489E+00
  -3.27491E+00 -3.25823E+00 -3.24278E+00 -3.22094E+00 -3.20354E+00 -3.17913E+00 -3.15995E+00 -3.13524E+00 -3.11588E+00 -3.09137E+00
  -3.07218E+00 -3.04602E+00 -3.02408E+00 -2.99580E+00 -2.97112E+00 -2.93962E+00 -2.91098E+00 -2.87634E+00 -2.84358E+00 -2.80492E+00
  -2.76791E+00 -2.72456E+00 -2.68236E+00 -2.63340E+00 -2.58506E+00 -2.52930E+00 -2.47333E+00 -2.40904E+00 -2.34359E+00 -2.26881E+00
  -2.19161E+00 -2.10349E+00 -2.01113E+00 -1.90575E+00 -1.79372E+00 -1.66582E+00 -1.52771E+00 -1.36936E+00 -1.19545E+00 -9.94862E-01
  -7.70632E-01 -5.09086E-01 -2.09123E-01  1.50172E-01  5.85850E-01  1.16749E+00  1.95231E+00  2.45878E+00  3.20501E+00  3.84891E+00
   4.88793E+00  5.46388E+00  6.52407E+00  6.74727E+00  7.88225E+00  7.91443E+00  8.77755E+00  8.79526E+00  1.01341E+01  1.04340E+01
   1.27734E+01  1.27924E+01  1.49772E+01  1.44129E+01  1.56795E+01  1.46860E+01  1.53090E+01  1.42033E+01  1.52403E+01  1.44386E+01
   1.57051E+01  1.54339E+01  1.67095E+01  1.74754E+01  1.97047E+01  1.96347E+01  2.03620E+01  1.96331E+01  1.87809E+01  1.73786E+01
   1.47245E+01  1.28519E+01  1.13492E+01  1.00257E+01  8.81355E+00  7.69757E+00  6.66142E+00  5.70834E+00  4.82915E+00  4.02919E+00
   3.29898E+00  2.64246E+00  2.04860E+00  1.52019E+00  1.04547E+00  6.26772E-01  2.52059E-01 -7.64937E-02 -3.70681E-01 -6.27755E-01
  -8.58712E-01 -1.06005E+00 -1.24212E+00 -1.40082E+00 -1.54577E+00 -1.67212E+00 -1.78877E+00 -1.89032E+00 -1.98528E+00 -2.06792E+00
  -2.14632E+00 -2.21434E+00 -2.27974E+00 -2.33619E+00 -2.39132E+00 -2.43870E+00 -2.48572E+00 -2.52576E+00 -2.56609E+00 -2.60009E+00
  -2.63500E+00 -2.66413E+00 -2.69458E+00 -2.71959E+00 -2.74622E+00 -2.76775E+00 -2.79124E+00 -2.80991E+00 -2.83072E+00 -2.84686E+00
  -2.86531E+00 -2.87931E+00 -2.89582E+00 -2.90802E+00 -2.92278E+00 -2.93333E+00 -2.94657E+00 -2.95574E+00 -2.96771E+00 -2.97567E+00
  -2.98645E+00 -2.99329E+00 -3.00304E+00 -3.00896E+00 -3.01784E+00 -3.02290E+00 -3.03093E+00 -3.03521E+00 -3.04254E+00 -3.04618E+00
  -3.05288E+00 -3.05589E+00 -3.06197E+00 -3.06443E+00 -3.07002E+00 -3.07201E+00 -3.07712E+00 -3.07865E+00 -3.08330E+00 -3.08443E+00
  -3.08872E+00 -3.08950E+00 -3.09343E+00 -3.09384E+00 -3.09744E+00 -3.09757E+00 -3.10089E+00 -3.10074E+00 -3.10377E+00 -3.10334E+00
  -3.10612E+00 -3.10549E+00 -3.10805E+00 -3.10719E+00 -3.10952E+00 -3.10845E+00 -3.11059E+00 -3.10936E+00 -3.11133E+00 -3.10991E+00
  -3.11169E+00 -3.11012E+00 -3.11176E+00 -3.11005E+00 -3.11155E+00 -3.10968E+00 -3.11102E+00 -3.10904E+00 -3.11028E+00 -3.10819E+00
  -3.10929E+00 -3.10706E+00 -3.10804E+00 -3.10573E+00 -3.10663E+00 -3.10421E+00 -3.10498E+00 -3.10246E+00 -3.10314E+00 -3.10054E+00
  -3.10114E+00 -3.09844E+00 -3.09892E+00 -3.09613E+00 -3.09653E+00 -3.09366E+00 -3.09396E+00 -3.09099E+00
 NY background values follow
    -4.507E+00   -4.504E+00   -4.502E+00   -4.499E+00   -4.496E+00   -4.494E+00   -4.491E+00   -4.488E+00   -4.486E+00   -4.483E+00
    -4.480E+00   -4.478E+00   -4.475E+00   -4.472E+00   -4.470E+00   -4.467E+00   -4.464E+00   -4.462E+00   -4.459E+00   -4.457E+00
    -4.454E+00   -4.451E+00   -4.449E+00   -4.446E+00   -4.443E+00   -4.441E+00   -4.438E+00   -4.435E+00   -4.433E+00   -4.430E+00
    -4.427E+00   -4.425E+00   -4.422E+00   -4.419E+00   -4.417E+00   -4.414E+00   -4.412E+00   -4.409E+00   -4.406E+00   -4.404E+00
    -4.401E+00   -4.398E+00   -4.396E+00   -4.393E+00   -4.390E+00   -4.388E+00   -4.385E+00   -4.382E+00   -4.380E+00   -4.377E+00
    -4.375E+00   -4.372E+00   -4.369E+00   -4.367E+00   -4.364E+00   -4.361E+00   -4.359E+00   -4.356E+00   -4.353E+00   -4.351E+00
    -4.348E+00   -4.345E+00   -4.343E+00   -4.340E+00   -4.337E+00   -4.335E+00   -4.332E+00   -4.330E+00   -4.327E+00   -4.324E+00
    -4.322E+00   -4.319E+00   -4.316E+00   -4.314E+00   -4.311E+00   -4.308E+00   -4.306E+00   -4.303E+00   -4.300E+00   -4.298E+00
    -4.295E+00   -4.292E+00   -4.290E+00   -4.287E+00   -4.285E+00   -4.282E+00   -4.279E+00   -4.277E+00   -4.274E+00   -4.271E+00
    -4.269E+00   -4.266E+00   -4.263E+00   -4.261E+00   -4.258E+00   -4.255E+00   -4.253E+00   -4.250E+00   -4.247E+00   -4.245E+00
    -4.242E+00   -4.240E+00   -4.237E+00   -4.234E+00   -4.232E+00   -4.229E+00   -4.226E+00   -4.224E+00   -4.221E+00   -4.218E+00
    -4.216E+00   -4.213E+00   -4.210E+00   -4.208E+00   -4.205E+00   -4.202E+00   -4.200E+00   -4.197E+00   -4.195E+00   -4.192E+00
    -4.189E+00   -4.187E+00   -4.184E+00   -4.181E+00   -4.179E+00   -4.176E+00   -4.173E+00   -4.171E+00   -4.168E+00   -4.165E+00
    -4.163E+00   -4.160E+00   -4.158E+00   -4.155E+00   -4.152E+00   -4.150E+00   -4.147E+00   -4.144E+00   -4.142E+00   -4.139E+00
    -4.136E+00   -4.134E+00   -4.131E+00   -4.128E+00   -4.126E+00   -4.123E+00   -4.120E+00   -4.118E+00   -4.115E+00   -4.113E+00
    -4.110E+00   -4.107E+00   -4.105E+00   -4.102E+00   -4.099E+00   -4.097E+00   -4.094E+00   -4.091E+00   -4.089E+00   -4.086E+00
    -4.083E+00   -4.081E+00   -4.078E+00   -4.075E+00   -4.073E+00   -4.070E+00   -4.068E+00   -4.065E+00   -4.062E+00   -4.060E+00
    -4.057E+00   -4.054E+00   -4.052E+00   -4.049E+00   -4.046E+00   -4.044E+00   -4.041E+00   -4.038E+00   -4.036E+00   -4.033E+00
    -4.030E+00   -4.028E+00   -4.025E+00   -4.023E+00   -4.020E+00   -4.017E+00   -4.015E+00   -4.012E+00   -4.009E+00   -4.007E+00
    -4.004E+00   -4.001E+00   -3.999E+00   -3.996E+00   -3.993E+00   -3.991E+00   -3.988E+00   -3.985E+00   -3.983E+00   -3.980E+00
    -3.978E+00   -3.975E+00   -3.972E+00   -3.970E+00   -3.967E+00   -3.964E+00   -3.962E+00   -3.959E+00   -3.956E+00   -3.954E+00
    -3.951E+00   -3.948E+00   -3.946E+00   -3.943E+00   -3.940E+00   -3.938E+00   -3.935E+00   -3.933E+00   -3.930E+00   -3.927E+00
    -3.925E+00   -3.922E+00   -3.919E+00   -3.917E+00   -3.914E+00   -3.911E+00   -3.909E+00   -3.906E+00   -3.903E+00   -3.901E+00
    -3.898E+00   -3.895E+00   -3.893E+00   -3.890E+00   -3.888E+00   -3.885E+00   -3.882E+00   -3.880E+00   -3.877E+00   -3.874E+00
    -3.872E+00   -3.869E+00   -3.866E+00   -3.864E+00   -3.861E+00   -3.858E+00   -3.856E+00   -3.853E+00   -3.850E+00   -3.848E+00
    -3.845E+00   -3.842E+00   -3.840E+00   -3.837E+00   -3.835E+00   -3.832E+00   -3.829E+00   -3.827E+00   -3.824E+00   -3.821E+00
    -3.819E+00   -3.816E+00   -3.813E+00   -3.811E+00   -3.808E+00   -3.805E+00   -3.803E+00   -3.800E+00   -3.797E+00   -3.795E+00
    -3.792E+00   -3.790E+00   -3.787E+00   -3.784E+00   -3.782E+00   -3.779E+00   -3.776E+00   -3.774E+00   -3.771E+00   -3.768E+00
    -3.766E+00   -3.763E+00   -3.760E+00   -3.758E+00   -3.755E+00   -3.752E+00   -3.750E+00   -3.747E+00   -3.744E+00   -3.742E+00
    -3.739E+00   -3.737E+00   -3.734E+00   -3.731E+00   -3.729E+00   -3.726E+00   -3.723E+00   -3.721E+00   -3.718E+00   -3.715E+00
    -3.713E+00   -3.710E+00   -3.707E+00   -3.705E+00   -3.702E+00   -3.699E+00   -3.697E+00   -3.694E+00   -3.692E+00   -3.689E+00
    -3.686E+00   -3.684E+00   -3.681E+00   -3.678E+00   -3.676E+00   -3.673E+00   -3.670E+00   -3.668E+00   -3.665E+00   -3.662E+00
    -3.660E+00   -3.657E+00   -3.654E+00   -3.652E+00   -3.649E+00   -3.646E+00   -3.644E+00   -3.641E+00   -3.639E+00   -3.636E+00
    -3.633E+00   -3.631E+00   -3.628E+00   -3.625E+00   -3.623E+00   -3.620E+00   -3.617E+00   -3.615E+00   -3.612E+00   -3.609E+00
    -3.607E+00   -3.604E+00   -3.601E+00   -3.599E+00   -3.596E+00   -3.593E+00   -3.591E+00   -3.588E+00   -3.585E+00   -3.583E+00
    -3.580E+00   -3.578E+00   -3.575E+00   -3.572E+00   -3.570E+00   -3.567E+00   -3.564E+00   -3.562E+00   -3.559E+00   -3.556E+00
    -3.554E+00   -3.551E+00   -3.548E+00   -3.546E+00   -3.543E+00   -3.540E+00   -3.538E+00   -3.535E+00   -3.532E+00   -3.530E+00
    -3.527E+00   -3.525E+00   -3.522E+00   -3.519E+00   -3.517E+00   -3.514E+00   -3.511E+00   -3.509E+00   -3.506E+00   -3.503E+00
    -3.501E+00   -3.498E+00   -3.495E+00   -3.493E+00   -3.490E+00   -3.487E+00   -3.485E+00   -3.482E+00   -3.479E+00   -3.477E+00
    -3.474E+00   -3.471E+00   -3.469E+00   -3.466E+00   -3.464E+00   -3.461E+00   -3.458E+00   -3.456E+00   -3.453E+00   -3.450E+00
    -3.448E+00   -3.445E+00   -3.442E+00   -3.440E+00   -3.437E+00   -3.434E+00   -3.432E+00   -3.429E+00   -3.426E+00   -3.424E+00
    -3.421E+00   -3.418E+00   -3.416E+00   -3.413E+00   -3.410E+00   -3.408E+00   -3.405E+00   -3.403E+00   -3.400E+00   -3.397E+00
    -3.395E+00   -3.392E+00   -3.389E+00   -3.387E+00   -3.384E+00   -3.381E+00   -3.379E+00   -3.376E+00   -3.373E+00   -3.371E+00
    -3.368E+00   -3.365E+00   -3.363E+00   -3.360E+00   -3.357E+00   -3.355E+00   -3.352E+00   -3.349E+00   -3.347E+00   -3.344E+00
    -3.341E+00   -3.339E+00   -3.336E+00   -3.334E+00   -3.331E+00   -3.328E+00   -3.326E+00   -3.323E+00   -3.320E+00   -3.318E+00
    -3.315E+00   -3.312E+00   -3.310E+00   -3.307E+00   -3.304E+00   -3.302E+00   -3.299E+00   -3.296E+00   -3.294E+00   -3.291E+00
    -3.288E+00   -3.286E+00   -3.283E+00   -3.280E+00   -3.278E+00   -3.275E+00   -3.273E+00   -3.270E+00   -3.267E+00   -3.265E+00
    -3.262E+00   -3.259E+00   -3.257E+00   -3.254E+00   -3.251E+00   -3.249E+00   -3.246E+00   -3.243E+00   -3.241E+00   -3.238E+00
    -3.235E+00   -3.233E+00   -3.230E+00   -3.227E+00   -3.225E+00   -3.222E+00   -3.219E+00   -3.217E+00   -3.214E+00   -3.212E+00
    -3.209E+00   -3.206E+00   -3.204E+00   -3.201E+00   -3.198E+00   -3.196E+00   -3.193E+00   -3.190E+00
 Asp      Conc. = 3.35E+01
