 LCModel (Version 6.3-1L) Copyright: S.W. Provencher.          Ref.: Magn. Reson. Med. 30:672-679 (1993).                
 Slice#2 Row#9 Col#2  PD_05_press_1_raw_act
 36 lines in following concentration table = NCONC+1
    Conc.  %SD /Cr+PCr  Metabolite                                         
    0.000 999%   0.000 Ala                                                 
   20.715 158%   0.126 Asp                                                 
  164.243  13%   1.000 Cr                                                  
    0.000 999%   0.000 PCr                                                 
   20.449  98%   0.125 GABA                                                
   11.617 172% 7.1E-02 Glc                                                 
  220.339  65%   1.342 Gln                                                 
  420.911  39%   2.563 Glu                                                 
   53.297  16%   0.324 GPC                                                 
    0.000 999%   0.000 PCh                                                 
  200.752  17%   1.222 GSH                                                 
  511.934  24%   3.117 Ins                                                 
  115.451  60%   0.703 Lac                                                 
  273.381   9%   1.664 NAA                                                 
    0.000 999%   0.000 NAAG                                                
   12.309  50% 7.5E-02 Scyllo                                              
   26.026 126%   0.158 Tau                                                 
   55.398  65%   0.337 -CrCH2                                              
   53.297  16%   0.324 GPC+PCh                                             
  273.381   9%   1.664 NAA+NAAG                                            
  164.243  13%   1.000 Cr+PCr                                              
  641.250  41%   3.904 Glu+Gln                                             
    0.000 999%   0.000 Lip13a                                              
  168.505  24%   1.026 Lip13b                                              
   36.480  71%   0.222 Lip09                                               
  149.671  33%   0.911 MM09                                                
   26.465  68%   0.161 Lip20                                               
  245.223  35%   1.493 MM20                                                
   45.262  53%   0.276 MM12                                                
  175.946  39%   1.071 MM14                                                
    0.000 999%   0.000 MM17                                                
  168.505  24%   1.026 Lip13a+Lip13b                                       
  389.714  24%   2.373 MM14+Lip13a+Lip13b+MM12                             
  186.151  28%   1.133 MM09+Lip09                                          
  271.689  32%   1.654 MM20+Lip20                                          
   6 lines in following misc. output table
  FWHM = 0.061 ppm    S/N =   3                                            
  Data shift =-0.008 ppm                                                   
  Ph: -21 deg     -19.1 deg/ppm                                            
  alphaB,S = 9.1E-01,   2.1E+01                                            
   14 spline knots.   Ns = 9(1)                                            
  (13) 9 infls.   (11) 5 extrs.                                            
  498 points on ppm-axis = NY
      4.000000     3.992357     3.984714     3.977070     3.969427     3.961784     3.954141     3.946497     3.938854     3.931211
      3.923568     3.915925     3.908281     3.900638     3.892995     3.885352     3.877708     3.870065     3.862422     3.854779
      3.847136     3.839492     3.831849     3.824206     3.816563     3.808919     3.801276     3.793633     3.785990     3.778347
      3.770703     3.763060     3.755417     3.747774     3.740130     3.732487     3.724844     3.717201     3.709558     3.701914
      3.694271     3.686628     3.678985     3.671341     3.663698     3.656055     3.648412     3.640769     3.633125     3.625482
      3.617839     3.610196     3.602552     3.594909     3.587266     3.579623     3.571980     3.564336     3.556693     3.549050
      3.541407     3.533763     3.526120     3.518477     3.510834     3.503191     3.495547     3.487904     3.480261     3.472618
      3.464974     3.457331     3.449688     3.442045     3.434402     3.426758     3.419115     3.411472     3.403829     3.396185
      3.388542     3.380899     3.373256     3.365613     3.357969     3.350326     3.342683     3.335040     3.327396     3.319753
      3.312110     3.304467     3.296824     3.289180     3.281537     3.273894     3.266251     3.258607     3.250964     3.243321
      3.235678     3.228034     3.220391     3.212748     3.205105     3.197462     3.189818     3.182175     3.174532     3.166889
      3.159245     3.151602     3.143959     3.136316     3.128673     3.121029     3.113386     3.105743     3.098100     3.090456
      3.082813     3.075170     3.067527     3.059884     3.052240     3.044597     3.036954     3.029311     3.021667     3.014024
      3.006381     2.998738     2.991095     2.983451     2.975808     2.968165     2.960522     2.952878     2.945235     2.937592
      2.929949     2.922306     2.914662     2.907019     2.899376     2.891733     2.884089     2.876446     2.868803     2.861160
      2.853517     2.845873     2.838230     2.830587     2.822944     2.815300     2.807657     2.800014     2.792371     2.784728
      2.777084     2.769441     2.761798     2.754155     2.746511     2.738868     2.731225     2.723582     2.715939     2.708295
      2.700652     2.693009     2.685366     2.677722     2.670079     2.662436     2.654793     2.647150     2.639506     2.631863
      2.624220     2.616577     2.608933     2.601290     2.593647     2.586004     2.578361     2.570717     2.563074     2.555431
      2.547788     2.540144     2.532501     2.524858     2.517215     2.509572     2.501928     2.494285     2.486642     2.478999
      2.471355     2.463712     2.456069     2.448426     2.440783     2.433139     2.425496     2.417853     2.410210     2.402566
      2.394923     2.387280     2.379637     2.371994     2.364350     2.356707     2.349064     2.341421     2.333777     2.326134
      2.318491     2.310848     2.303205     2.295561     2.287918     2.280275     2.272632     2.264988     2.257345     2.249702
      2.242059     2.234416     2.226772     2.219129     2.211486     2.203843     2.196199     2.188556     2.180913     2.173270
      2.165627     2.157983     2.150340     2.142697     2.135054     2.127410     2.119767     2.112124     2.104481     2.096838
      2.089194     2.081551     2.073908     2.066265     2.058621     2.050978     2.043335     2.035692     2.028049     2.020405
      2.012762     2.005119     1.997476     1.989833     1.982190     1.974546     1.966903     1.959260     1.951617     1.943974
      1.936331     1.928688     1.921045     1.913402     1.905759     1.898115     1.890472     1.882829     1.875186     1.867543
      1.859900     1.852257     1.844614     1.836971     1.829327     1.821684     1.814041     1.806398     1.798755     1.791112
      1.783469     1.775826     1.768183     1.760540     1.752896     1.745253     1.737610     1.729967     1.722324     1.714681
      1.707038     1.699395     1.691752     1.684108     1.676465     1.668822     1.661179     1.653536     1.645893     1.638250
      1.630607     1.622964     1.615321     1.607677     1.600034     1.592391     1.584748     1.577105     1.569462     1.561819
      1.554176     1.546533     1.538890     1.531246     1.523603     1.515960     1.508317     1.500674     1.493031     1.485388
      1.477745     1.470102     1.462458     1.454815     1.447172     1.439529     1.431886     1.424243     1.416600     1.408957
      1.401314     1.393671     1.386027     1.378384     1.370741     1.363098     1.355455     1.347812     1.340169     1.332526
      1.324883     1.317240     1.309596     1.301953     1.294310     1.286667     1.279024     1.271381     1.263738     1.256095
      1.248452     1.240808     1.233165     1.225522     1.217879     1.210236     1.202593     1.194950     1.187307     1.179664
      1.172021     1.164377     1.156734     1.149091     1.141448     1.133805     1.126162     1.118519     1.110876     1.103233
      1.095590     1.087946     1.080303     1.072660     1.065017     1.057374     1.049731     1.042088     1.034445     1.026802
      1.019158     1.011515     1.003872     0.996229     0.988586     0.980943     0.973300     0.965657     0.958014     0.950371
      0.942727     0.935084     0.927441     0.919798     0.912155     0.904512     0.896869     0.889226     0.881583     0.873940
      0.866296     0.858653     0.851010     0.843367     0.835724     0.828081     0.820438     0.812795     0.805152     0.797508
      0.789865     0.782222     0.774579     0.766936     0.759293     0.751650     0.744007     0.736364     0.728721     0.721077
      0.713434     0.705791     0.698148     0.690505     0.682862     0.675219     0.667576     0.659933     0.652290     0.644646
      0.637003     0.629360     0.621717     0.614074     0.606431     0.598788     0.591145     0.583502     0.575858     0.568215
      0.560572     0.552929     0.545286     0.537643     0.530000     0.522357     0.514714     0.507071     0.499427     0.491784
      0.484141     0.476498     0.468855     0.461212     0.453569     0.445925     0.438282     0.430639     0.422996     0.415353
      0.407710     0.400067     0.392424     0.384780     0.377137     0.369494     0.361851     0.354208     0.346565     0.338922
      0.331278     0.323635     0.315992     0.308349     0.300706     0.293063     0.285420     0.277777     0.270133     0.262490
      0.254847     0.247204     0.239561     0.231918     0.224275     0.216631     0.208988     0.201345
 NY phased data points follow
  -4.19628E+01 -4.16407E+01 -4.14128E+01 -3.98956E+01 -3.91631E+01 -3.77658E+01 -3.52143E+01 -3.40278E+01 -3.14490E+01 -3.44882E+01
  -3.28142E+01 -3.29674E+01 -3.15124E+01 -3.13319E+01 -3.23308E+01 -3.02368E+01 -3.26507E+01 -3.24136E+01 -3.12015E+01 -3.02410E+01
  -2.94750E+01 -2.80444E+01 -3.09366E+01 -2.89324E+01 -2.82877E+01 -2.79006E+01 -2.56045E+01 -2.50773E+01 -2.51571E+01 -2.59616E+01
  -2.41963E+01 -2.41003E+01 -2.41451E+01 -2.37381E+01 -2.32812E+01 -2.20758E+01 -2.29215E+01 -2.29683E+01 -2.30691E+01 -2.22557E+01
  -2.15890E+01 -2.08747E+01 -2.15555E+01 -2.05202E+01 -2.10218E+01 -1.81081E+01 -2.02259E+01 -1.94368E+01 -2.00632E+01 -1.88246E+01
  -1.87956E+01 -2.02290E+01 -1.88987E+01 -2.02280E+01 -1.99566E+01 -1.93743E+01 -1.50134E+01 -1.85148E+01 -1.97382E+01 -1.90021E+01
  -1.65595E+01 -1.73569E+01 -1.65958E+01 -1.62556E+01 -1.67834E+01 -1.62647E+01 -1.65992E+01 -1.72341E+01 -1.55090E+01 -1.30203E+01
  -1.50122E+01 -1.47043E+01 -1.36130E+01 -1.57495E+01 -1.65650E+01 -1.43331E+01 -1.46926E+01 -1.41529E+01 -1.18091E+01 -1.14657E+01
  -1.28359E+01 -1.43450E+01 -1.20078E+01 -1.23832E+01 -1.21555E+01 -1.22419E+01 -1.18939E+01 -1.06359E+01 -1.30421E+01 -1.07140E+01
  -1.05276E+01 -9.27929E+00 -1.02643E+01 -9.53896E+00 -8.45835E+00 -9.73518E+00 -8.74429E+00 -9.99964E+00 -1.05722E+01 -6.74918E+00
  -5.02273E+00 -5.70640E+00 -4.37798E+00 -6.55631E+00 -5.69181E+00 -5.69859E+00 -5.57675E+00 -7.22399E+00 -5.51362E+00 -8.13232E+00
  -5.19257E+00 -5.64070E+00 -8.38908E+00 -6.64920E+00 -6.34415E+00 -4.33629E+00 -5.29662E+00 -5.42963E+00 -4.14670E+00 -5.64851E+00
  -4.94061E+00 -5.34189E+00 -5.21477E+00 -5.18466E+00 -1.21900E-01  9.15416E-02 -2.54354E-01 -6.99523E-01 -5.62551E-01 -6.42076E-01
   6.06113E-01 -8.40752E-01 -3.97925E-02  1.58387E-01 -2.30170E+00 -1.71197E+00 -2.40948E+00 -1.64800E+00 -2.50398E+00 -3.88984E-01
  -2.88499E+00 -2.35311E+00 -4.30743E-01 -2.82740E+00 -1.17638E+00 -2.05605E+00 -1.14592E+00 -3.10279E-01 -2.58157E+00 -2.14921E+00
  -1.64560E+00  1.06745E+00 -1.44058E+00 -3.18013E+00 -1.76784E+00  1.72276E-01 -9.70046E-01  1.13479E+00 -8.04800E-02  1.20331E+00
   2.30081E+00  2.47378E-01  1.20735E+00  1.12190E-01 -1.31963E+00  1.76122E-01  1.87400E+00  9.55776E-01 -2.23667E-01  3.49920E-01
   3.99035E-01  4.74396E-01  1.38887E+00  1.03577E+00  1.23126E+00  5.63172E-01  8.59244E-01  1.18091E+00  7.80328E-01  3.26008E+00
   1.61235E+00  1.93386E+00  4.68774E-01  3.52655E+00  3.97934E+00  1.96888E+00  2.50024E+00  1.47996E+00  2.14835E+00  2.83182E+00
   2.99611E+00  3.60092E+00  3.18261E+00  3.23986E+00  4.71337E+00  2.37989E+00  4.50676E+00  4.47236E+00  4.21539E+00  4.01835E+00
   4.19657E+00  4.34178E+00  3.69624E+00  3.56665E+00  5.87862E+00  3.27750E+00  3.20979E+00  4.04620E+00  3.65586E+00  3.84529E+00
   2.84851E+00  5.23653E+00  4.50982E+00  7.46830E+00  3.82650E+00  3.24208E+00  6.26153E+00  5.45919E+00  5.24999E+00  3.68061E+00
   3.98308E+00  4.91046E+00  4.77613E+00  5.76024E+00  5.37557E+00  5.42310E+00  5.50739E+00  4.12509E+00  4.69064E+00  5.53731E+00
   5.20972E+00  5.90325E+00  6.17200E+00  5.99305E+00  5.31834E+00  6.75341E+00  4.64173E+00  4.47214E+00  5.99246E+00  5.60410E+00
   4.73029E+00  5.06022E+00  4.28788E+00  5.55155E+00  5.52822E+00  6.96061E+00  8.68779E+00  5.14985E+00  5.41380E+00  7.65603E+00
   8.39225E+00  7.48571E+00  5.45201E+00  8.17637E+00  7.66163E+00  6.26631E+00  1.14912E+01  1.16622E+01  1.15239E+01  1.07231E+01
   1.30134E+01  1.46437E+01  1.22971E+01  1.00054E+01  8.99517E+00  8.02463E+00  8.30695E+00  8.21233E+00  7.34341E+00  7.12459E+00
   4.92563E+00  6.62062E+00  7.16940E+00  5.57695E+00  6.16044E+00  6.69982E+00  6.84220E+00  5.68394E+00  5.79017E+00  6.10883E+00
   4.61693E+00  5.91344E+00  5.87485E+00  3.06227E+00  4.45260E+00  4.79146E+00  4.74435E+00  5.64741E+00  5.09701E+00  2.23072E+00
   4.38351E+00  4.19293E+00  5.67351E+00  4.37162E+00  4.53939E+00  4.34874E+00  3.47601E+00  4.90240E+00  4.16960E+00  3.50548E+00
   4.94160E+00  5.20630E+00  5.49807E+00  3.49458E+00  3.92885E+00  2.23971E+00  2.48470E+00  4.96023E+00  5.03582E+00  3.83316E+00
   3.93783E+00  5.25923E+00  4.82211E+00  5.69063E+00  5.12405E+00  3.46096E+00  4.51624E+00  5.47196E+00  3.95994E+00  5.41293E+00
   6.47750E+00  5.94445E+00  5.01481E+00  5.61608E+00  6.42806E+00  3.93736E+00  6.16827E+00  7.45535E+00  4.53939E+00  4.82242E+00
   6.75799E+00  6.77316E+00  5.93220E+00  7.04156E+00  6.91189E+00  6.27161E+00  5.47347E+00  5.71578E+00  7.69154E+00  6.05615E+00
   4.95490E+00  5.06955E+00  5.31205E+00  5.83066E+00  6.08399E+00  6.36401E+00  4.07294E+00  4.68427E+00  4.42292E+00  3.90530E+00
   6.64168E+00  6.17236E+00  6.36395E+00  8.49338E+00  7.04736E+00  7.60646E+00  7.54809E+00  4.93466E+00  8.57196E+00  5.58141E+00
   6.74739E+00  7.48981E+00  8.44972E+00  6.22369E+00  6.58976E+00  5.81510E+00  6.44063E+00  6.20739E+00  6.61116E+00  6.13303E+00
   5.80825E+00  4.62922E+00  5.73932E+00  4.97631E+00  2.44628E+00  4.11060E+00  4.97193E+00  3.91644E+00  4.13231E+00  5.59340E+00
   5.66142E+00  4.38774E+00  5.27117E+00  4.80447E+00  5.85782E+00  5.81439E+00  4.46001E+00  5.93898E+00  4.88339E+00  7.38681E+00
   4.62173E+00  5.52847E+00  6.71794E+00  8.02832E+00  5.94633E+00  8.07240E+00  8.03147E+00  7.22766E+00  6.84169E+00  5.82638E+00
   4.68663E+00  6.25564E+00  5.67197E+00  6.55533E+00  6.27934E+00  5.37028E+00  5.03660E+00  5.64239E+00  4.70755E+00  5.90429E+00
   6.12705E+00  6.24158E+00  5.66910E+00  5.66802E+00  6.81162E+00  4.96181E+00  6.46268E+00  5.21844E+00  5.85487E+00  5.99818E+00
   5.86884E+00  4.47169E+00  4.00367E+00  4.05362E+00  6.25481E+00  5.19069E+00  6.08958E+00  5.87881E+00  6.64861E+00  5.18263E+00
   5.27648E+00  5.09769E+00  4.70331E+00  4.58401E+00  5.99801E+00  7.50828E+00  5.28681E+00  5.59695E+00  5.97942E+00  4.61749E+00
   5.77090E+00  7.62598E+00  4.58085E+00  4.15525E+00  5.62988E+00  5.33268E+00  6.95023E+00  5.45735E+00  6.90404E+00  5.23809E+00
   7.77646E+00  6.01023E+00  5.99155E+00  6.47777E+00  6.98267E+00  5.35363E+00  5.66076E+00  6.04616E+00  6.07217E+00  5.84359E+00
   6.40646E+00  7.52977E+00  5.56448E+00  5.75973E+00  5.21964E+00  3.97529E+00  4.96991E+00  3.50199E+00  6.27200E+00  4.73871E+00
   5.13522E+00  6.48282E+00  5.95782E+00  5.02939E+00  6.17157E+00  5.31287E+00  3.57378E+00  6.18981E+00  6.03033E+00  4.87083E+00
   5.57579E+00  5.73110E+00  7.28635E+00  5.57122E+00  7.38361E+00  5.52007E+00  5.54538E+00  8.15222E+00  4.59446E+00  5.98549E+00
   4.57352E+00  5.11548E+00  4.23710E+00  5.30011E+00  4.38494E+00  6.61177E+00  4.03954E+00  5.43322E+00
 NY points of the fit to the data follow
  -3.79032E+01 -3.77546E+01 -3.75070E+01 -3.70338E+01 -3.67597E+01 -3.67450E+01 -3.64893E+01 -3.54572E+01 -3.41571E+01 -3.35010E+01
  -3.33169E+01 -3.28592E+01 -3.20826E+01 -3.16143E+01 -3.15753E+01 -3.16040E+01 -3.14512E+01 -3.11265E+01 -3.07630E+01 -3.04252E+01
  -3.01914E+01 -2.98710E+01 -2.94333E+01 -2.91393E+01 -2.90150E+01 -2.81788E+01 -2.65814E+01 -2.54242E+01 -2.50242E+01 -2.45680E+01
  -2.37632E+01 -2.33305E+01 -2.35075E+01 -2.37761E+01 -2.38999E+01 -2.40109E+01 -2.40969E+01 -2.38321E+01 -2.33708E+01 -2.31268E+01
  -2.30983E+01 -2.30263E+01 -2.25147E+01 -2.14937E+01 -2.05866E+01 -2.02891E+01 -2.02712E+01 -1.99939E+01 -1.96389E+01 -1.96494E+01
  -1.98719E+01 -1.98984E+01 -1.97103E+01 -1.95215E+01 -1.92554E+01 -1.88259E+01 -1.84789E+01 -1.83393E+01 -1.82231E+01 -1.79917E+01
  -1.77008E+01 -1.74646E+01 -1.72580E+01 -1.70124E+01 -1.67360E+01 -1.64856E+01 -1.62046E+01 -1.57945E+01 -1.53715E+01 -1.50951E+01
  -1.49395E+01 -1.47282E+01 -1.44237E+01 -1.41547E+01 -1.39480E+01 -1.37496E+01 -1.35297E+01 -1.33126E+01 -1.31384E+01 -1.30041E+01
  -1.28860E+01 -1.27095E+01 -1.24843E+01 -1.23812E+01 -1.24235E+01 -1.23973E+01 -1.22134E+01 -1.20003E+01 -1.18541E+01 -1.16812E+01
  -1.14208E+01 -1.10955E+01 -1.07727E+01 -1.04602E+01 -9.98800E+00 -9.52388E+00 -9.27548E+00 -9.11491E+00 -8.31044E+00 -6.85832E+00
  -5.95521E+00 -5.95787E+00 -5.97122E+00 -5.50864E+00 -5.22283E+00 -5.52020E+00 -5.96364E+00 -6.13640E+00 -6.11109E+00 -6.11676E+00
  -6.03058E+00 -5.96773E+00 -6.17578E+00 -6.41831E+00 -6.42603E+00 -6.29880E+00 -6.14458E+00 -5.93918E+00 -5.56531E+00 -4.95316E+00
  -4.45835E+00 -4.21998E+00 -3.85353E+00 -2.58911E+00 -1.02721E+00 -4.19341E-01 -5.74218E-01 -4.53227E-01  6.10681E-02  2.45943E-01
  -1.30107E-01 -7.18452E-01 -1.11841E+00 -1.31820E+00 -1.50069E+00 -1.56624E+00 -1.73707E+00 -2.02682E+00 -2.12330E+00 -1.99652E+00
  -1.80686E+00 -1.58775E+00 -1.44023E+00 -1.41941E+00 -1.38739E+00 -1.27772E+00 -1.13914E+00 -9.98593E-01 -8.86220E-01 -8.01334E-01
  -7.69024E-01 -7.73756E-01 -7.50577E-01 -6.74144E-01 -5.76373E-01 -4.73705E-01 -3.82228E-01 -3.25723E-01 -2.67473E-01 -1.66356E-01
  -2.38184E-02  1.06341E-01  1.87959E-01  2.67052E-01  3.86643E-01  5.10612E-01  5.82922E-01  6.16132E-01  6.58388E-01  7.49219E-01
   8.60199E-01  9.17777E-01  9.12738E-01  9.43367E-01  1.04884E+00  1.15923E+00  1.18503E+00  1.16851E+00  1.22241E+00  1.36591E+00
   1.49828E+00  1.55807E+00  1.60561E+00  1.71457E+00  1.89832E+00  2.13688E+00  2.41357E+00  2.69241E+00  2.90994E+00  2.99952E+00
   3.06265E+00  3.16030E+00  3.18735E+00  3.02649E+00  2.86268E+00  2.96665E+00  3.28343E+00  3.58898E+00  3.80362E+00  4.02922E+00
   4.28398E+00  4.43049E+00  4.46128E+00  4.42482E+00  4.35773E+00  4.09565E+00  3.78176E+00  3.85105E+00  4.11525E+00  4.17553E+00
   4.13594E+00  4.52695E+00  5.22894E+00  5.49069E+00  5.22690E+00  5.05702E+00  5.18715E+00  4.98348E+00  4.31725E+00  3.88218E+00
   4.04910E+00  4.38941E+00  4.45567E+00  4.48155E+00  4.75130E+00  5.08460E+00  5.19893E+00  5.06815E+00  5.01626E+00  5.23657E+00
   5.48712E+00  5.54234E+00  5.63889E+00  5.99554E+00  6.29088E+00  6.21453E+00  5.98531E+00  5.95929E+00  5.88303E+00  5.53198E+00
   5.27048E+00  5.36635E+00  5.53018E+00  5.51385E+00  5.55385E+00  5.76464E+00  5.91559E+00  5.88460E+00  5.87653E+00  5.99906E+00
   6.19935E+00  6.74704E+00  7.60075E+00  8.07405E+00  8.01706E+00  8.60735E+00  1.06940E+01  1.24326E+01  1.23157E+01  1.16634E+01
   1.19361E+01  1.23049E+01  1.15849E+01  1.02864E+01  9.34342E+00  8.82646E+00  8.30970E+00  7.88508E+00  7.64619E+00  7.02895E+00
   6.14644E+00  5.61906E+00  5.46286E+00  5.39483E+00  5.36765E+00  5.35722E+00  5.32036E+00  5.26426E+00  5.22112E+00  5.18696E+00
   5.15250E+00  5.12623E+00  5.10629E+00  5.07881E+00  5.04440E+00  5.01273E+00  4.98733E+00  4.96450E+00  4.94075E+00  4.92117E+00
   4.90817E+00  4.89605E+00  4.88218E+00  4.86936E+00  4.85770E+00  4.84578E+00  4.83400E+00  4.82411E+00  4.81593E+00  4.80888E+00
   4.80339E+00  4.79931E+00  4.79623E+00  4.79471E+00  4.79489E+00  4.79656E+00  4.79979E+00  4.80490E+00  4.81206E+00  4.82139E+00
   4.83315E+00  4.84770E+00  4.86493E+00  4.88502E+00  4.90811E+00  4.93441E+00  4.96399E+00  4.99692E+00  5.03301E+00  5.07203E+00
   5.11365E+00  5.15761E+00  5.20353E+00  5.25098E+00  5.29930E+00  5.34788E+00  5.39601E+00  5.44317E+00  5.48882E+00  5.53257E+00
   5.57401E+00  5.61306E+00  5.64991E+00  5.68544E+00  5.72125E+00  5.76052E+00  5.80987E+00  5.88659E+00  6.00187E+00  6.04768E+00
   6.00161E+00  5.99618E+00  6.20030E+00  6.37581E+00  6.14495E+00  5.72688E+00  5.62308E+00  5.73313E+00  5.62488E+00  5.30866E+00
   5.35219E+00  5.92072E+00  6.48457E+00  6.72523E+00  6.92875E+00  7.23111E+00  7.39922E+00  7.37937E+00  7.28950E+00  7.18098E+00
   7.03735E+00  6.82617E+00  6.63752E+00  6.45183E+00  6.17229E+00  5.86003E+00  5.62073E+00  5.45465E+00  5.33614E+00  5.25272E+00
   5.19608E+00  5.15981E+00  5.13872E+00  5.12892E+00  5.12754E+00  5.13276E+00  5.14347E+00  5.15912E+00  5.17939E+00  5.20423E+00
   5.23365E+00  5.26788E+00  5.30709E+00  5.35150E+00  5.40109E+00  5.45582E+00  5.51548E+00  5.57982E+00  5.64835E+00  5.72042E+00
   5.79506E+00  5.87115E+00  5.94739E+00  6.02243E+00  6.09471E+00  6.16267E+00  6.22460E+00  6.27902E+00  6.32453E+00  6.36009E+00
   6.38480E+00  6.39813E+00  6.39983E+00  6.39011E+00  6.36950E+00  6.33896E+00  6.29959E+00  6.25276E+00  6.19990E+00  6.14264E+00
   6.08258E+00  6.02130E+00  5.96014E+00  5.90037E+00  5.84299E+00  5.78892E+00  5.73881E+00  5.69316E+00  5.65215E+00  5.61589E+00
   5.58430E+00  5.55730E+00  5.53465E+00  5.51609E+00  5.50119E+00  5.48963E+00  5.48103E+00  5.47513E+00  5.47156E+00  5.47004E+00
   5.47020E+00  5.47183E+00  5.47468E+00  5.47863E+00  5.48345E+00  5.48899E+00  5.49505E+00  5.50155E+00  5.50838E+00  5.51552E+00
   5.52283E+00  5.53023E+00  5.53761E+00  5.54498E+00  5.55228E+00  5.55951E+00  5.56656E+00  5.57341E+00  5.57998E+00  5.58631E+00
   5.59237E+00  5.59814E+00  5.60354E+00  5.60857E+00  5.61320E+00  5.61752E+00  5.62149E+00  5.62514E+00  5.62840E+00  5.63131E+00
   5.63387E+00  5.63616E+00  5.63814E+00  5.63982E+00  5.64115E+00  5.64218E+00  5.64293E+00  5.64346E+00  5.64371E+00  5.64371E+00
   5.64341E+00  5.64289E+00  5.64216E+00  5.64125E+00  5.64013E+00  5.63879E+00  5.63724E+00  5.63554E+00  5.63370E+00  5.63174E+00
   5.62961E+00  5.62734E+00  5.62492E+00  5.62245E+00  5.61990E+00  5.61729E+00  5.61457E+00  5.61179E+00  5.60897E+00  5.60616E+00
   5.60335E+00  5.60054E+00  5.59772E+00  5.59493E+00  5.59219E+00  5.58957E+00  5.58704E+00  5.58461E+00
 NY background values follow
    -3.919E+01   -3.883E+01   -3.847E+01   -3.811E+01   -3.774E+01   -3.738E+01   -3.702E+01   -3.666E+01   -3.629E+01   -3.593E+01
    -3.557E+01   -3.521E+01   -3.485E+01   -3.449E+01   -3.414E+01   -3.378E+01   -3.342E+01   -3.306E+01   -3.271E+01   -3.235E+01
    -3.200E+01   -3.165E+01   -3.130E+01   -3.095E+01   -3.060E+01   -3.025E+01   -2.990E+01   -2.955E+01   -2.921E+01   -2.887E+01
    -2.853E+01   -2.818E+01   -2.785E+01   -2.751E+01   -2.717E+01   -2.684E+01   -2.651E+01   -2.618E+01   -2.585E+01   -2.552E+01
    -2.519E+01   -2.487E+01   -2.455E+01   -2.423E+01   -2.391E+01   -2.360E+01   -2.328E+01   -2.297E+01   -2.266E+01   -2.236E+01
    -2.205E+01   -2.175E+01   -2.145E+01   -2.115E+01   -2.086E+01   -2.056E+01   -2.027E+01   -1.998E+01   -1.969E+01   -1.941E+01
    -1.912E+01   -1.884E+01   -1.856E+01   -1.829E+01   -1.801E+01   -1.774E+01   -1.747E+01   -1.720E+01   -1.693E+01   -1.666E+01
    -1.640E+01   -1.614E+01   -1.588E+01   -1.562E+01   -1.537E+01   -1.512E+01   -1.487E+01   -1.462E+01   -1.437E+01   -1.412E+01
    -1.388E+01   -1.364E+01   -1.340E+01   -1.316E+01   -1.293E+01   -1.270E+01   -1.246E+01   -1.223E+01   -1.201E+01   -1.178E+01
    -1.156E+01   -1.134E+01   -1.112E+01   -1.090E+01   -1.068E+01   -1.047E+01   -1.026E+01   -1.005E+01   -9.836E+00   -9.629E+00
    -9.424E+00   -9.221E+00   -9.019E+00   -8.819E+00   -8.621E+00   -8.425E+00   -8.230E+00   -8.037E+00   -7.846E+00   -7.656E+00
    -7.468E+00   -7.282E+00   -7.097E+00   -6.914E+00   -6.732E+00   -6.552E+00   -6.374E+00   -6.197E+00   -6.022E+00   -5.848E+00
    -5.676E+00   -5.506E+00   -5.336E+00   -5.169E+00   -5.003E+00   -4.838E+00   -4.674E+00   -4.513E+00   -4.352E+00   -4.193E+00
    -4.035E+00   -3.879E+00   -3.724E+00   -3.571E+00   -3.418E+00   -3.267E+00   -3.118E+00   -2.969E+00   -2.822E+00   -2.677E+00
    -2.532E+00   -2.389E+00   -2.247E+00   -2.107E+00   -1.968E+00   -1.830E+00   -1.694E+00   -1.559E+00   -1.425E+00   -1.293E+00
    -1.162E+00   -1.033E+00   -9.045E-01   -7.778E-01   -6.525E-01   -5.286E-01   -4.060E-01   -2.849E-01   -1.652E-01   -4.698E-02
     6.986E-02    1.853E-01    2.992E-01    4.117E-01    5.228E-01    6.324E-01    7.405E-01    8.472E-01    9.524E-01    1.056E+00
     1.158E+00    1.259E+00    1.358E+00    1.456E+00    1.552E+00    1.647E+00    1.740E+00    1.832E+00    1.922E+00    2.011E+00
     2.098E+00    2.183E+00    2.267E+00    2.350E+00    2.430E+00    2.510E+00    2.588E+00    2.664E+00    2.739E+00    2.812E+00
     2.884E+00    2.955E+00    3.024E+00    3.091E+00    3.158E+00    3.222E+00    3.286E+00    3.348E+00    3.408E+00    3.467E+00
     3.525E+00    3.581E+00    3.636E+00    3.690E+00    3.742E+00    3.793E+00    3.843E+00    3.891E+00    3.939E+00    3.984E+00
     4.029E+00    4.072E+00    4.114E+00    4.155E+00    4.194E+00    4.233E+00    4.270E+00    4.305E+00    4.340E+00    4.373E+00
     4.406E+00    4.437E+00    4.467E+00    4.495E+00    4.523E+00    4.549E+00    4.575E+00    4.599E+00    4.622E+00    4.644E+00
     4.665E+00    4.685E+00    4.704E+00    4.722E+00    4.738E+00    4.754E+00    4.769E+00    4.783E+00    4.796E+00    4.809E+00
     4.820E+00    4.830E+00    4.840E+00    4.849E+00    4.857E+00    4.864E+00    4.871E+00    4.876E+00    4.881E+00    4.885E+00
     4.889E+00    4.892E+00    4.894E+00    4.896E+00    4.897E+00    4.897E+00    4.897E+00    4.896E+00    4.895E+00    4.893E+00
     4.890E+00    4.888E+00    4.884E+00    4.880E+00    4.876E+00    4.871E+00    4.866E+00    4.861E+00    4.855E+00    4.849E+00
     4.842E+00    4.836E+00    4.829E+00    4.821E+00    4.814E+00    4.806E+00    4.798E+00    4.789E+00    4.781E+00    4.772E+00
     4.763E+00    4.754E+00    4.745E+00    4.736E+00    4.727E+00    4.717E+00    4.708E+00    4.698E+00    4.689E+00    4.679E+00
     4.669E+00    4.660E+00    4.650E+00    4.641E+00    4.631E+00    4.622E+00    4.613E+00    4.604E+00    4.594E+00    4.586E+00
     4.577E+00    4.568E+00    4.560E+00    4.552E+00    4.544E+00    4.536E+00    4.529E+00    4.522E+00    4.515E+00    4.508E+00
     4.502E+00    4.496E+00    4.490E+00    4.485E+00    4.480E+00    4.476E+00    4.472E+00    4.468E+00    4.465E+00    4.463E+00
     4.460E+00    4.458E+00    4.457E+00    4.456E+00    4.455E+00    4.455E+00    4.455E+00    4.455E+00    4.456E+00    4.457E+00
     4.458E+00    4.460E+00    4.462E+00    4.464E+00    4.467E+00    4.470E+00    4.473E+00    4.477E+00    4.481E+00    4.485E+00
     4.489E+00    4.494E+00    4.499E+00    4.504E+00    4.509E+00    4.515E+00    4.521E+00    4.527E+00    4.533E+00    4.539E+00
     4.546E+00    4.553E+00    4.560E+00    4.567E+00    4.574E+00    4.581E+00    4.589E+00    4.597E+00    4.604E+00    4.612E+00
     4.620E+00    4.628E+00    4.637E+00    4.645E+00    4.653E+00    4.662E+00    4.671E+00    4.679E+00    4.688E+00    4.697E+00
     4.706E+00    4.715E+00    4.724E+00    4.734E+00    4.743E+00    4.753E+00    4.762E+00    4.772E+00    4.782E+00    4.792E+00
     4.802E+00    4.812E+00    4.822E+00    4.833E+00    4.843E+00    4.854E+00    4.865E+00    4.876E+00    4.887E+00    4.898E+00
     4.909E+00    4.921E+00    4.932E+00    4.944E+00    4.956E+00    4.967E+00    4.979E+00    4.992E+00    5.004E+00    5.016E+00
     5.029E+00    5.042E+00    5.055E+00    5.068E+00    5.081E+00    5.094E+00    5.107E+00    5.121E+00    5.135E+00    5.149E+00
     5.163E+00    5.177E+00    5.191E+00    5.205E+00    5.219E+00    5.234E+00    5.248E+00    5.262E+00    5.277E+00    5.291E+00
     5.305E+00    5.320E+00    5.334E+00    5.348E+00    5.362E+00    5.376E+00    5.390E+00    5.404E+00    5.418E+00    5.431E+00
     5.445E+00    5.458E+00    5.471E+00    5.484E+00    5.496E+00    5.508E+00    5.521E+00    5.532E+00    5.544E+00    5.555E+00
     5.566E+00    5.577E+00    5.588E+00    5.598E+00    5.607E+00    5.617E+00    5.626E+00    5.634E+00    5.642E+00    5.650E+00
     5.658E+00    5.664E+00    5.671E+00    5.677E+00    5.682E+00    5.687E+00    5.692E+00    5.696E+00    5.700E+00    5.704E+00
     5.707E+00    5.709E+00    5.712E+00    5.713E+00    5.715E+00    5.716E+00    5.717E+00    5.718E+00    5.718E+00    5.718E+00
     5.718E+00    5.718E+00    5.717E+00    5.716E+00    5.715E+00    5.713E+00    5.711E+00    5.710E+00    5.708E+00    5.705E+00
     5.703E+00    5.700E+00    5.698E+00    5.695E+00    5.692E+00    5.689E+00    5.686E+00    5.683E+00    5.679E+00    5.676E+00
     5.673E+00    5.669E+00    5.666E+00    5.662E+00    5.659E+00    5.655E+00    5.652E+00    5.648E+00
 Asp      Conc. = 2.07E+01
