 LCModel (Version 6.3-1L) Copyright: S.W. Provencher.          Ref.: Magn. Reson. Med. 30:672-679 (1993).                
 Slice#1 Row#3 Col#5  PD_05_press_1_raw_act
 36 lines in following concentration table = NCONC+1
    Conc.  %SD /Cr+PCr  Metabolite                                         
  166.880  84%   0.240 Ala                                                 
    0.000 999%   0.000 Asp                                                 
    0.000 999%   0.000 Cr                                                  
  695.648   7%   1.000 PCr                                                 
   80.032 130%   0.115 GABA                                                
  122.182  82%   0.176 Glc                                                 
  562.084  52%   0.808 Gln                                                 
 1.10E+03  31%   1.575 Glu                                                 
  325.036   6%   0.467 GPC                                                 
    0.000 999%   0.000 PCh                                                 
  196.418  38%   0.282 GSH                                                 
  527.517  45%   0.758 Ins                                                 
    0.000 999%   0.000 Lac                                                 
 1.42E+03   4%   2.041 NAA                                                 
    0.000 999%   0.000 NAAG                                                
   96.551  23%   0.139 Scyllo                                              
  551.974  25%   0.793 Tau                                                 
  515.485  18%   0.741 -CrCH2                                              
  325.036   6%   0.467 GPC+PCh                                             
 1.42E+03   4%   2.041 NAA+NAAG                                            
  695.648   7%   1.000 Cr+PCr                                              
 1.66E+03  32%   2.383 Glu+Gln                                             
 3.86E+03  15%   5.550 Lip13a                                              
  153.742  72%   0.221 Lip13b                                              
    0.000 999%   0.000 Lip09                                               
  679.105  19%   0.976 MM09                                                
  670.692  36%   0.964 Lip20                                               
 1.14E+03  24%   1.643 MM20                                                
  230.136  41%   0.331 MM12                                                
 1.09E+03  24%   1.563 MM14                                                
  447.936  35%   0.644 MM17                                                
 4.01E+03  14%   5.771 Lip13a+Lip13b                                       
 5.33E+03   9%   7.665 MM14+Lip13a+Lip13b+MM12                             
  679.105  19%   0.976 MM09+Lip09                                          
 1.81E+03  16%   2.607 MM20+Lip20                                          
   6 lines in following misc. output table
  FWHM = 0.069 ppm    S/N =   8                                            
  Data shift = 0.000 ppm                                                   
  Ph: -81 deg     -27.5 deg/ppm                                            
  alphaB,S = 1.4E+00,   6.9E+00                                            
   14 spline knots.   Ns =10(1)                                            
  (17)14 infls.   (19)11 extrs.                                            
  498 points on ppm-axis = NY
      4.000000     3.992357     3.984714     3.977070     3.969427     3.961784     3.954141     3.946497     3.938854     3.931211
      3.923568     3.915925     3.908281     3.900638     3.892995     3.885352     3.877708     3.870065     3.862422     3.854779
      3.847136     3.839492     3.831849     3.824206     3.816563     3.808919     3.801276     3.793633     3.785990     3.778347
      3.770703     3.763060     3.755417     3.747774     3.740130     3.732487     3.724844     3.717201     3.709558     3.701914
      3.694271     3.686628     3.678985     3.671341     3.663698     3.656055     3.648412     3.640769     3.633125     3.625482
      3.617839     3.610196     3.602552     3.594909     3.587266     3.579623     3.571980     3.564336     3.556693     3.549050
      3.541407     3.533763     3.526120     3.518477     3.510834     3.503191     3.495547     3.487904     3.480261     3.472618
      3.464974     3.457331     3.449688     3.442045     3.434402     3.426758     3.419115     3.411472     3.403829     3.396185
      3.388542     3.380899     3.373256     3.365613     3.357969     3.350326     3.342683     3.335040     3.327396     3.319753
      3.312110     3.304467     3.296824     3.289180     3.281537     3.273894     3.266251     3.258607     3.250964     3.243321
      3.235678     3.228034     3.220391     3.212748     3.205105     3.197462     3.189818     3.182175     3.174532     3.166889
      3.159245     3.151602     3.143959     3.136316     3.128673     3.121029     3.113386     3.105743     3.098100     3.090456
      3.082813     3.075170     3.067527     3.059884     3.052240     3.044597     3.036954     3.029311     3.021667     3.014024
      3.006381     2.998738     2.991095     2.983451     2.975808     2.968165     2.960522     2.952878     2.945235     2.937592
      2.929949     2.922306     2.914662     2.907019     2.899376     2.891733     2.884089     2.876446     2.868803     2.861160
      2.853517     2.845873     2.838230     2.830587     2.822944     2.815300     2.807657     2.800014     2.792371     2.784728
      2.777084     2.769441     2.761798     2.754155     2.746511     2.738868     2.731225     2.723582     2.715939     2.708295
      2.700652     2.693009     2.685366     2.677722     2.670079     2.662436     2.654793     2.647150     2.639506     2.631863
      2.624220     2.616577     2.608933     2.601290     2.593647     2.586004     2.578361     2.570717     2.563074     2.555431
      2.547788     2.540144     2.532501     2.524858     2.517215     2.509572     2.501928     2.494285     2.486642     2.478999
      2.471355     2.463712     2.456069     2.448426     2.440783     2.433139     2.425496     2.417853     2.410210     2.402566
      2.394923     2.387280     2.379637     2.371994     2.364350     2.356707     2.349064     2.341421     2.333777     2.326134
      2.318491     2.310848     2.303205     2.295561     2.287918     2.280275     2.272632     2.264988     2.257345     2.249702
      2.242059     2.234416     2.226772     2.219129     2.211486     2.203843     2.196199     2.188556     2.180913     2.173270
      2.165627     2.157983     2.150340     2.142697     2.135054     2.127410     2.119767     2.112124     2.104481     2.096838
      2.089194     2.081551     2.073908     2.066265     2.058621     2.050978     2.043335     2.035692     2.028049     2.020405
      2.012762     2.005119     1.997476     1.989833     1.982190     1.974546     1.966903     1.959260     1.951617     1.943974
      1.936331     1.928688     1.921045     1.913402     1.905759     1.898115     1.890472     1.882829     1.875186     1.867543
      1.859900     1.852257     1.844614     1.836971     1.829327     1.821684     1.814041     1.806398     1.798755     1.791112
      1.783469     1.775826     1.768183     1.760540     1.752896     1.745253     1.737610     1.729967     1.722324     1.714681
      1.707038     1.699395     1.691752     1.684108     1.676465     1.668822     1.661179     1.653536     1.645893     1.638250
      1.630607     1.622964     1.615321     1.607677     1.600034     1.592391     1.584748     1.577105     1.569462     1.561819
      1.554176     1.546533     1.538890     1.531246     1.523603     1.515960     1.508317     1.500674     1.493031     1.485388
      1.477745     1.470102     1.462458     1.454815     1.447172     1.439529     1.431886     1.424243     1.416600     1.408957
      1.401314     1.393671     1.386027     1.378384     1.370741     1.363098     1.355455     1.347812     1.340169     1.332526
      1.324883     1.317240     1.309596     1.301953     1.294310     1.286667     1.279024     1.271381     1.263738     1.256095
      1.248452     1.240808     1.233165     1.225522     1.217879     1.210236     1.202593     1.194950     1.187307     1.179664
      1.172021     1.164377     1.156734     1.149091     1.141448     1.133805     1.126162     1.118519     1.110876     1.103233
      1.095590     1.087946     1.080303     1.072660     1.065017     1.057374     1.049731     1.042088     1.034445     1.026802
      1.019158     1.011515     1.003872     0.996229     0.988586     0.980943     0.973300     0.965657     0.958014     0.950371
      0.942727     0.935084     0.927441     0.919798     0.912155     0.904512     0.896869     0.889226     0.881583     0.873940
      0.866296     0.858653     0.851010     0.843367     0.835724     0.828081     0.820438     0.812795     0.805152     0.797508
      0.789865     0.782222     0.774579     0.766936     0.759293     0.751650     0.744007     0.736364     0.728721     0.721077
      0.713434     0.705791     0.698148     0.690505     0.682862     0.675219     0.667576     0.659933     0.652290     0.644646
      0.637003     0.629360     0.621717     0.614074     0.606431     0.598788     0.591145     0.583502     0.575858     0.568215
      0.560572     0.552929     0.545286     0.537643     0.530000     0.522357     0.514714     0.507071     0.499427     0.491784
      0.484141     0.476498     0.468855     0.461212     0.453569     0.445925     0.438282     0.430639     0.422996     0.415353
      0.407710     0.400067     0.392424     0.384780     0.377137     0.369494     0.361851     0.354208     0.346565     0.338922
      0.331278     0.323635     0.315992     0.308349     0.300706     0.293063     0.285420     0.277777     0.270133     0.262490
      0.254847     0.247204     0.239561     0.231918     0.224275     0.216631     0.208988     0.201345
 NY phased data points follow
  -2.79698E+01 -2.47989E+01 -2.24493E+01 -2.28612E+01 -2.11272E+01 -1.89142E+01 -1.62055E+01 -1.79440E+01 -1.55783E+01 -1.71853E+01
  -1.20341E+01 -1.49048E+01 -1.95091E+01 -2.08081E+01 -1.85319E+01 -2.27918E+01 -1.66781E+01 -2.29688E+01 -1.63694E+01 -2.00864E+01
  -2.21976E+01 -1.77027E+01 -1.81980E+01 -2.12733E+01 -1.49254E+01 -1.42290E+01 -1.62891E+01 -1.65552E+01 -1.51741E+01 -1.64674E+01
  -1.57317E+01 -1.64893E+01 -1.31013E+01 -1.70319E+01 -1.65083E+01 -1.46962E+01 -1.63831E+01 -1.50103E+01 -1.52772E+01 -1.71427E+01
  -1.57955E+01 -1.09657E+01 -1.40321E+01 -1.08115E+01 -1.20329E+01 -1.22526E+01 -1.10082E+01 -1.44021E+01 -1.05580E+01 -1.39527E+01
  -1.12017E+01 -1.21431E+01 -1.54792E+01 -1.58945E+01 -1.67661E+01 -1.45039E+01 -1.51592E+01 -1.73263E+01 -1.58726E+01 -1.52619E+01
  -1.47385E+01 -1.73655E+01 -1.61277E+01 -1.45523E+01 -1.22274E+01 -1.30886E+01 -1.31423E+01 -1.32534E+01 -1.12997E+01 -1.31490E+01
  -1.15561E+01 -1.29506E+01 -9.42646E+00 -9.28997E+00 -7.82741E+00 -1.15309E+01 -1.31958E+01 -1.14083E+01 -1.12483E+01 -1.01166E+01
  -7.48319E+00 -1.14055E+01 -7.48414E+00 -9.51032E+00 -1.12131E+01 -1.18670E+01 -8.41484E+00 -8.01985E+00 -9.16124E+00 -1.15873E+01
  -8.62639E+00 -8.25559E+00 -5.83846E+00 -5.27078E+00 -5.45109E-01 -3.41518E+00  8.27236E-01 -4.65296E-01  1.31170E+00  5.00230E+00
   1.05477E+01  9.30851E+00  1.27788E+01  7.98904E+00  1.07504E+01  2.48238E+00 -6.03234E-01  2.09122E+00 -3.56694E-01 -6.99842E+00
  -2.69829E+00 -7.08901E+00 -7.96347E+00 -3.81747E+00 -8.19458E+00 -6.63501E+00 -7.22764E+00 -8.83341E+00 -3.82909E+00 -5.24202E+00
  -8.08286E+00 -3.74889E+00 -2.44498E+00 -1.47018E-01  2.67197E-01  8.82141E+00  9.02518E+00  6.25569E+00  6.29122E+00  5.14340E+00
   4.39168E+00 -2.09015E-03  1.52858E-01 -2.80064E+00 -3.61619E+00 -5.71489E+00 -6.02617E+00 -7.81313E+00 -4.79715E+00 -5.39849E+00
  -5.65037E+00 -4.75384E+00 -6.85808E+00 -5.93964E+00 -6.10491E+00 -9.69029E+00 -1.16042E+01 -7.35659E+00 -5.62157E+00 -1.00194E+01
  -3.32541E+00 -4.29720E+00 -8.46687E+00 -7.34113E+00 -5.23034E+00 -8.30097E+00 -5.05968E+00 -9.05102E+00 -5.45393E+00 -4.40538E+00
  -6.78458E+00 -7.52684E+00 -6.46437E+00 -4.34224E+00 -6.22556E+00 -7.41296E+00 -4.63758E+00 -9.80579E+00 -1.24208E+01 -1.03926E+01
  -1.12369E+01 -1.21864E+01 -9.27794E+00 -8.65217E+00 -1.18208E+01 -1.15030E+01 -1.15215E+01 -1.18406E+01 -1.19841E+01 -1.24103E+01
  -1.30822E+01 -1.06254E+01 -7.91300E+00 -9.51650E+00 -9.98450E+00 -7.41615E+00 -7.88223E+00 -6.68928E+00 -2.83648E+00 -6.96897E+00
  -4.90820E+00 -5.49406E+00 -2.74417E+00 -7.69019E+00 -7.87881E+00 -6.27140E+00 -5.04160E+00 -5.13687E+00 -3.99705E+00 -3.85736E+00
  -4.61016E+00 -2.36666E+00  5.69383E-01  8.36556E-01 -9.33853E-01 -1.75988E+00 -2.17820E-01 -4.01781E+00 -4.10132E+00 -2.96846E+00
  -2.35111E+00 -4.72786E-01 -3.61802E+00  2.00723E+00 -1.83260E+00  3.60493E-01  1.04886E+00  2.76832E+00  9.32020E-01 -8.06452E-01
  -4.29830E+00  3.82678E-01 -3.39040E+00 -3.51480E+00  9.49457E-02  9.11356E-01 -1.34323E+00 -7.11928E-01 -4.09470E-01 -2.57410E+00
  -8.91043E-01  3.14564E+00 -1.82795E+00  3.91056E+00  2.63192E+00  2.40512E+00  2.51898E+00  4.74319E-01  3.19991E+00  1.40659E+00
   3.77457E+00  1.37289E+00  9.83549E-01  1.52159E+00  3.02905E+00  4.31078E+00  3.76879E+00  3.09036E+00  4.60548E+00  6.17028E+00
   6.24021E+00  5.71388E+00  8.54941E+00  1.26302E+01  1.53616E+01  1.70429E+01  2.22554E+01  2.26412E+01  2.86350E+01  3.69841E+01
   3.74596E+01  3.77898E+01  3.51939E+01  3.09893E+01  2.40959E+01  2.32906E+01  2.34040E+01  1.66715E+01  1.62369E+01  1.13308E+01
   8.26262E+00  7.96119E+00  7.10459E+00  8.77315E+00  1.40046E+00  6.03702E+00  2.18663E+00  5.17637E+00  9.61125E-02  5.42716E+00
   5.76743E+00  1.99108E+00  6.63106E-01  3.83908E+00  3.81020E+00  2.46237E+00  4.10423E+00  4.51621E+00 -1.00422E+00  2.91417E+00
   6.05797E+00  6.15573E+00  2.28304E+00  2.95612E+00  4.15019E+00  4.15332E+00  4.28633E+00  3.48718E+00  4.32104E+00  4.18268E+00
   5.06614E+00  2.20165E+00  2.73374E+00  4.39321E+00  2.85685E+00  2.29543E+00  3.12508E+00  6.98506E+00  3.91008E+00  6.33788E+00
   3.93669E+00  8.07250E+00  5.81319E+00  3.93305E+00  4.83285E+00  7.39210E+00  4.79591E+00  7.66457E+00  8.92201E+00  8.92569E+00
   9.76792E+00  8.49239E+00  1.11646E+01  8.69121E+00  6.34274E+00  7.89566E+00  9.32788E+00  1.14827E+01  9.04602E+00  6.89947E+00
   1.06217E+01  1.28024E+01  1.24511E+01  1.07244E+01  1.10789E+01  1.38534E+01  1.31863E+01  1.34776E+01  1.23584E+01  1.18911E+01
   1.26763E+01  1.54123E+01  1.64189E+01  1.35496E+01  1.46140E+01  1.71178E+01  1.23930E+01  1.51542E+01  1.61936E+01  1.51387E+01
   1.51601E+01  1.48440E+01  2.02230E+01  1.90749E+01  1.74442E+01  1.97735E+01  1.79897E+01  1.99230E+01  1.16253E+01  1.33397E+01
   1.30669E+01  1.33766E+01  1.30030E+01  7.74767E+00  9.21878E+00  1.04006E+01  1.23597E+01  1.38793E+01  1.10985E+01  1.25167E+01
   8.62511E+00  1.75062E+01  1.33449E+01  1.29568E+01  1.20615E+01  1.48388E+01  1.33931E+01  6.76387E+00  9.47423E+00  9.16948E+00
   1.01567E+01  7.21385E+00  6.52692E+00  6.33433E+00  9.48398E+00  8.80519E+00  8.18540E+00  7.07779E+00  1.08222E+01  1.14808E+01
   7.90084E+00  6.02058E+00  6.15622E+00  6.96502E+00  1.00625E+01  4.77536E+00  5.25418E+00  8.19547E+00  3.05324E+00  7.37945E+00
   7.06021E+00  6.70029E+00  9.62558E+00  3.72436E+00  1.06061E+01  4.70071E+00  6.41663E+00  8.31450E+00  8.55309E+00  6.96731E+00
   3.92646E+00  7.32329E+00  4.58080E+00  5.14698E+00  3.77931E+00  4.88738E+00  8.49270E+00  5.10258E+00  2.38266E+00  6.17276E+00
   4.98481E+00  6.21530E+00  1.87491E+00  1.83193E+00 -9.16751E-02  3.88692E+00 -7.38854E-01  1.90686E+00  1.85230E+00  2.85448E+00
   2.77887E+00  4.49333E+00  2.41220E+00  9.26887E-01  1.39608E+00 -3.24627E-01  2.06772E+00  3.03342E-01  5.81460E-01  1.69269E+00
   1.91530E+00  8.40075E-01  2.61954E+00  8.00879E-03  2.38159E+00  1.82494E+00  4.95266E+00  2.88447E+00  1.59029E-01  4.94187E+00
   1.53714E+00  3.69694E+00  2.86642E+00 -7.51831E-02  2.09840E+00  6.32781E+00  1.83458E+00  1.50586E+00  2.27542E+00 -1.29861E+00
   5.29097E+00  2.68649E+00  3.53517E+00  5.36290E-01  6.41734E-01  5.38527E-01  2.22697E+00  4.66516E+00  1.55723E+00  2.00982E+00
   2.13621E+00  1.59731E+00  1.35123E+00  2.11340E+00  4.67753E+00  6.71715E+00  6.54573E+00  4.31632E+00  3.33732E+00  2.08140E+00
   4.41789E+00  2.95048E+00  6.12681E+00  1.95157E+00  1.21052E+00  1.55823E+00  3.63920E+00  2.27245E+00  2.73693E+00  1.86279E+00
   2.17721E+00  4.11739E+00 -1.30071E-01  2.47634E+00  3.56818E+00  2.97328E+00  6.77844E-01  2.62591E+00
 NY points of the fit to the data follow
  -2.08731E+01 -2.04783E+01 -2.02652E+01 -1.98989E+01 -1.93280E+01 -1.90782E+01 -1.84295E+01 -1.77348E+01 -1.71411E+01 -1.71387E+01
  -1.70049E+01 -1.71865E+01 -1.73789E+01 -1.77124E+01 -1.75073E+01 -1.75653E+01 -1.78911E+01 -1.79759E+01 -1.81578E+01 -1.83507E+01
  -1.81429E+01 -1.80100E+01 -1.78006E+01 -1.76908E+01 -1.71980E+01 -1.68888E+01 -1.69285E+01 -1.63313E+01 -1.57099E+01 -1.51106E+01
  -1.43569E+01 -1.39280E+01 -1.34555E+01 -1.38202E+01 -1.43219E+01 -1.42969E+01 -1.52216E+01 -1.54609E+01 -1.55259E+01 -1.54633E+01
  -1.46709E+01 -1.47951E+01 -1.47560E+01 -1.41757E+01 -1.41728E+01 -1.37768E+01 -1.33323E+01 -1.30208E+01 -1.32241E+01 -1.34881E+01
  -1.38353E+01 -1.40552E+01 -1.42627E+01 -1.42471E+01 -1.44559E+01 -1.46277E+01 -1.46233E+01 -1.44858E+01 -1.43322E+01 -1.41500E+01
  -1.41482E+01 -1.40638E+01 -1.41816E+01 -1.40834E+01 -1.38226E+01 -1.37255E+01 -1.34153E+01 -1.29103E+01 -1.30738E+01 -1.29475E+01
  -1.26829E+01 -1.25691E+01 -1.24952E+01 -1.19278E+01 -1.14430E+01 -1.16673E+01 -1.17200E+01 -1.13767E+01 -1.16458E+01 -1.18350E+01
  -1.12631E+01 -1.06967E+01 -1.05586E+01 -9.85399E+00 -9.05392E+00 -8.88571E+00 -8.91137E+00 -9.19779E+00 -9.69158E+00 -1.01102E+01
  -1.03095E+01 -9.89650E+00 -9.15553E+00 -7.28673E+00 -5.30271E+00 -5.26464E+00 -2.55326E+00  1.90873E-01  1.06559E+00  4.78345E+00
   1.02020E+01  1.13912E+01  1.13057E+01  1.01351E+01  8.12746E+00  3.46925E+00  1.75329E+00  2.63525E+00 -4.04889E-01 -3.09491E+00
  -3.65539E+00 -6.50349E+00 -6.21434E+00 -7.12202E+00 -9.33669E+00 -9.71810E+00 -9.59780E+00 -8.97035E+00 -7.18782E+00 -5.60642E+00
  -5.36625E+00 -3.63133E+00 -2.00152E+00 -8.34027E-01  2.07539E+00  6.13684E+00  7.24248E+00  7.38982E+00  6.37354E+00  4.90735E+00
   1.70442E+00  4.49662E-01  1.01534E+00 -1.18108E+00 -3.34796E+00 -3.83879E+00 -5.80654E+00 -5.54874E+00 -6.03732E+00 -7.26802E+00
  -7.48009E+00 -7.38346E+00 -7.38041E+00 -7.40915E+00 -7.29972E+00 -7.37994E+00 -7.33506E+00 -7.21988E+00 -7.25080E+00 -7.18888E+00
  -7.14423E+00 -7.15892E+00 -7.18522E+00 -7.29595E+00 -7.30739E+00 -7.24083E+00 -7.22721E+00 -7.13286E+00 -7.15833E+00 -7.34930E+00
  -7.48271E+00 -7.51817E+00 -7.51013E+00 -7.32748E+00 -7.21790E+00 -7.22882E+00 -7.43117E+00 -7.75513E+00 -7.94691E+00 -8.17286E+00
  -8.10546E+00 -8.15379E+00 -8.52550E+00 -8.61096E+00 -8.76937E+00 -8.94110E+00 -8.84192E+00 -8.82581E+00 -8.73907E+00 -8.75427E+00
  -8.63404E+00 -8.40270E+00 -8.39474E+00 -8.00747E+00 -7.67552E+00 -7.52045E+00 -7.29936E+00 -6.93420E+00 -6.34920E+00 -5.68551E+00
  -5.37113E+00 -5.01682E+00 -5.07086E+00 -4.97402E+00 -4.72714E+00 -4.51007E+00 -4.19246E+00 -3.74268E+00 -3.58493E+00 -3.05466E+00
  -2.71779E+00 -2.72992E+00 -2.62572E+00 -2.22751E+00 -2.64560E+00 -3.05249E+00 -3.31224E+00 -3.64906E+00 -4.36957E+00 -4.27946E+00
  -4.06715E+00 -3.49788E+00 -3.18522E+00 -2.29077E+00 -1.58175E+00 -1.27864E+00 -1.09399E+00 -1.04157E+00 -2.12941E+00 -2.53689E+00
  -3.63640E+00 -3.79781E+00 -3.36747E+00 -3.10898E+00 -2.39079E+00 -1.32791E+00 -5.77939E-01  1.28853E-02 -2.76938E-01  2.09794E-01
   6.42884E-01  9.35757E-01  1.40601E+00  1.53840E+00  1.63024E+00  2.31736E+00  2.59349E+00  2.60508E+00  2.83086E+00  3.02967E+00
   2.76511E+00  2.23306E+00  2.33908E+00  2.55943E+00  2.78792E+00  3.23193E+00  3.71328E+00  4.14690E+00  4.38535E+00  4.70349E+00
   5.51705E+00  7.53858E+00  1.15347E+01  1.46919E+01  1.55204E+01  1.91665E+01  2.19840E+01  2.38181E+01  2.93928E+01  3.67749E+01
   3.81279E+01  3.77915E+01  3.51597E+01  3.14614E+01  2.43661E+01  2.16487E+01  2.20392E+01  1.72653E+01  1.31198E+01  1.20330E+01
   8.14434E+00  8.41927E+00  6.59944E+00  3.76007E+00  3.02041E+00  2.88581E+00  2.67038E+00  2.54575E+00  2.45636E+00  2.38416E+00
   2.29942E+00  2.27281E+00  2.26246E+00  2.25973E+00  2.32965E+00  2.40081E+00  2.43785E+00  2.52902E+00  2.62541E+00  2.72085E+00
   2.85651E+00  2.98784E+00  3.12212E+00  3.27351E+00  3.41718E+00  3.56998E+00  3.71349E+00  3.85638E+00  3.98997E+00  4.11613E+00
   4.23623E+00  4.35219E+00  4.45251E+00  4.55324E+00  4.64006E+00  4.72712E+00  4.80798E+00  4.89229E+00  4.97693E+00  5.07303E+00
   5.17539E+00  5.29764E+00  5.43536E+00  5.60077E+00  5.79237E+00  6.02381E+00  6.30232E+00  6.65970E+00  7.06507E+00  7.39090E+00
   7.60581E+00  8.00467E+00  8.33951E+00  8.61207E+00  9.01013E+00  9.34695E+00  9.39565E+00  9.53618E+00  9.52208E+00  9.58665E+00
   9.74152E+00  1.00707E+01  1.06117E+01  1.11621E+01  1.17996E+01  1.24772E+01  1.28986E+01  1.34262E+01  1.35587E+01  1.35110E+01
   1.39676E+01  1.42816E+01  1.43450E+01  1.45850E+01  1.47016E+01  1.49047E+01  1.52453E+01  1.54005E+01  1.56363E+01  1.59328E+01
   1.62390E+01  1.65303E+01  1.67687E+01  1.69334E+01  1.69949E+01  1.69479E+01  1.67830E+01  1.65169E+01  1.61602E+01  1.57438E+01
   1.52851E+01  1.48137E+01  1.43394E+01  1.38805E+01  1.34346E+01  1.30095E+01  1.25959E+01  1.21978E+01  1.18047E+01  1.14218E+01
   1.10413E+01  1.06709E+01  1.03052E+01  9.95376E+00  9.61215E+00  9.29046E+00  8.98430E+00  8.70357E+00  8.44345E+00  8.21309E+00
   8.00689E+00  7.83320E+00  7.68568E+00  7.57183E+00  7.48439E+00  7.42974E+00  7.39952E+00  7.39901E+00  7.41875E+00  7.46282E+00
   7.52054E+00  7.59473E+00  7.67368E+00  7.75939E+00  7.83959E+00  7.91592E+00  7.97611E+00  8.02209E+00  8.04246E+00  8.04040E+00
   8.00611E+00  7.94455E+00  7.84792E+00  7.72330E+00  7.56513E+00  7.38257E+00  7.17191E+00  6.94377E+00  6.69557E+00  6.43869E+00
   6.17099E+00  5.90381E+00  5.63458E+00  5.37385E+00  5.11809E+00  4.87677E+00  4.64524E+00  4.43174E+00  4.23046E+00  4.04848E+00
   3.87906E+00  3.72856E+00  3.58967E+00  3.46823E+00  3.35655E+00  3.26022E+00  3.17150E+00  3.09601E+00  3.02612E+00  2.96747E+00
   2.91254E+00  2.86711E+00  2.82389E+00  2.78885E+00  2.75486E+00  2.72795E+00  2.70112E+00  2.68053E+00  2.65934E+00  2.64381E+00
   2.62718E+00  2.61570E+00  2.60267E+00  2.59443E+00  2.58438E+00  2.57888E+00  2.57132E+00  2.56805E+00  2.56253E+00  2.56113E+00
   2.55739E+00  2.55765E+00  2.55543E+00  2.55707E+00  2.55612E+00  2.55897E+00  2.55920E+00  2.56314E+00  2.56437E+00  2.56920E+00
   2.57128E+00  2.57695E+00  2.57986E+00  2.58629E+00  2.58988E+00  2.59692E+00  2.60113E+00  2.60880E+00  2.61361E+00  2.62182E+00
   2.62712E+00  2.63578E+00  2.64157E+00  2.65072E+00  2.65698E+00  2.66653E+00  2.67316E+00  2.68310E+00  2.69013E+00  2.70046E+00
   2.70787E+00  2.71852E+00  2.72626E+00  2.73725E+00  2.74535E+00  2.75670E+00  2.76513E+00  2.77678E+00  2.78553E+00  2.79753E+00
   2.80667E+00  2.81904E+00  2.82854E+00  2.84126E+00  2.85116E+00  2.86435E+00  2.87475E+00  2.88843E+00
 NY background values follow
    -2.314E+01   -2.304E+01   -2.294E+01   -2.284E+01   -2.274E+01   -2.263E+01   -2.253E+01   -2.243E+01   -2.233E+01   -2.223E+01
    -2.213E+01   -2.202E+01   -2.192E+01   -2.182E+01   -2.172E+01   -2.162E+01   -2.152E+01   -2.141E+01   -2.131E+01   -2.121E+01
    -2.111E+01   -2.101E+01   -2.091E+01   -2.081E+01   -2.070E+01   -2.060E+01   -2.050E+01   -2.040E+01   -2.030E+01   -2.020E+01
    -2.010E+01   -1.999E+01   -1.989E+01   -1.979E+01   -1.969E+01   -1.959E+01   -1.949E+01   -1.939E+01   -1.929E+01   -1.919E+01
    -1.909E+01   -1.899E+01   -1.889E+01   -1.879E+01   -1.869E+01   -1.859E+01   -1.849E+01   -1.839E+01   -1.829E+01   -1.819E+01
    -1.809E+01   -1.799E+01   -1.789E+01   -1.779E+01   -1.769E+01   -1.759E+01   -1.749E+01   -1.739E+01   -1.730E+01   -1.720E+01
    -1.710E+01   -1.700E+01   -1.690E+01   -1.681E+01   -1.671E+01   -1.661E+01   -1.651E+01   -1.642E+01   -1.632E+01   -1.622E+01
    -1.613E+01   -1.603E+01   -1.593E+01   -1.584E+01   -1.574E+01   -1.564E+01   -1.555E+01   -1.545E+01   -1.536E+01   -1.526E+01
    -1.517E+01   -1.507E+01   -1.498E+01   -1.489E+01   -1.479E+01   -1.470E+01   -1.460E+01   -1.451E+01   -1.442E+01   -1.433E+01
    -1.423E+01   -1.414E+01   -1.405E+01   -1.396E+01   -1.386E+01   -1.377E+01   -1.368E+01   -1.359E+01   -1.350E+01   -1.341E+01
    -1.332E+01   -1.323E+01   -1.314E+01   -1.305E+01   -1.296E+01   -1.287E+01   -1.278E+01   -1.270E+01   -1.261E+01   -1.252E+01
    -1.243E+01   -1.234E+01   -1.226E+01   -1.217E+01   -1.208E+01   -1.200E+01   -1.191E+01   -1.182E+01   -1.174E+01   -1.165E+01
    -1.157E+01   -1.148E+01   -1.140E+01   -1.131E+01   -1.123E+01   -1.115E+01   -1.106E+01   -1.098E+01   -1.089E+01   -1.081E+01
    -1.073E+01   -1.065E+01   -1.056E+01   -1.048E+01   -1.040E+01   -1.032E+01   -1.024E+01   -1.016E+01   -1.008E+01   -9.995E+00
    -9.914E+00   -9.834E+00   -9.754E+00   -9.675E+00   -9.595E+00   -9.516E+00   -9.437E+00   -9.359E+00   -9.280E+00   -9.202E+00
    -9.124E+00   -9.047E+00   -8.969E+00   -8.892E+00   -8.815E+00   -8.738E+00   -8.662E+00   -8.586E+00   -8.510E+00   -8.434E+00
    -8.359E+00   -8.283E+00   -8.208E+00   -8.134E+00   -8.059E+00   -7.985E+00   -7.911E+00   -7.837E+00   -7.763E+00   -7.690E+00
    -7.617E+00   -7.544E+00   -7.471E+00   -7.398E+00   -7.326E+00   -7.254E+00   -7.182E+00   -7.111E+00   -7.040E+00   -6.969E+00
    -6.898E+00   -6.827E+00   -6.757E+00   -6.687E+00   -6.617E+00   -6.547E+00   -6.477E+00   -6.408E+00   -6.339E+00   -6.271E+00
    -6.202E+00   -6.134E+00   -6.066E+00   -5.998E+00   -5.931E+00   -5.863E+00   -5.796E+00   -5.730E+00   -5.663E+00   -5.597E+00
    -5.531E+00   -5.465E+00   -5.400E+00   -5.335E+00   -5.270E+00   -5.205E+00   -5.141E+00   -5.077E+00   -5.013E+00   -4.950E+00
    -4.887E+00   -4.824E+00   -4.761E+00   -4.699E+00   -4.637E+00   -4.575E+00   -4.513E+00   -4.452E+00   -4.392E+00   -4.331E+00
    -4.271E+00   -4.211E+00   -4.151E+00   -4.092E+00   -4.033E+00   -3.974E+00   -3.916E+00   -3.858E+00   -3.800E+00   -3.743E+00
    -3.686E+00   -3.629E+00   -3.572E+00   -3.516E+00   -3.460E+00   -3.405E+00   -3.350E+00   -3.295E+00   -3.240E+00   -3.186E+00
    -3.132E+00   -3.079E+00   -3.025E+00   -2.972E+00   -2.920E+00   -2.867E+00   -2.815E+00   -2.764E+00   -2.712E+00   -2.661E+00
    -2.610E+00   -2.560E+00   -2.510E+00   -2.460E+00   -2.411E+00   -2.362E+00   -2.313E+00   -2.264E+00   -2.216E+00   -2.168E+00
    -2.121E+00   -2.073E+00   -2.026E+00   -1.980E+00   -1.933E+00   -1.887E+00   -1.842E+00   -1.796E+00   -1.751E+00   -1.707E+00
    -1.662E+00   -1.618E+00   -1.574E+00   -1.531E+00   -1.488E+00   -1.445E+00   -1.402E+00   -1.360E+00   -1.318E+00   -1.277E+00
    -1.235E+00   -1.194E+00   -1.154E+00   -1.113E+00   -1.073E+00   -1.034E+00   -9.942E-01   -9.551E-01   -9.162E-01   -8.777E-01
    -8.394E-01   -8.015E-01   -7.638E-01   -7.265E-01   -6.894E-01   -6.526E-01   -6.162E-01   -5.800E-01   -5.441E-01   -5.085E-01
    -4.732E-01   -4.382E-01   -4.034E-01   -3.690E-01   -3.348E-01   -3.010E-01   -2.674E-01   -2.341E-01   -2.011E-01   -1.683E-01
    -1.358E-01   -1.037E-01   -7.176E-02   -4.014E-02   -8.784E-03    2.229E-02    5.309E-02    8.362E-02    1.139E-01    1.439E-01
     1.736E-01    2.030E-01    2.322E-01    2.611E-01    2.898E-01    3.182E-01    3.463E-01    3.742E-01    4.018E-01    4.292E-01
     4.563E-01    4.832E-01    5.098E-01    5.362E-01    5.623E-01    5.882E-01    6.139E-01    6.393E-01    6.644E-01    6.894E-01
     7.141E-01    7.385E-01    7.628E-01    7.868E-01    8.105E-01    8.341E-01    8.574E-01    8.805E-01    9.034E-01    9.261E-01
     9.485E-01    9.707E-01    9.928E-01    1.015E+00    1.036E+00    1.058E+00    1.079E+00    1.100E+00    1.120E+00    1.141E+00
     1.161E+00    1.182E+00    1.202E+00    1.221E+00    1.241E+00    1.260E+00    1.279E+00    1.298E+00    1.317E+00    1.336E+00
     1.354E+00    1.373E+00    1.391E+00    1.409E+00    1.427E+00    1.444E+00    1.462E+00    1.479E+00    1.496E+00    1.513E+00
     1.530E+00    1.547E+00    1.564E+00    1.580E+00    1.596E+00    1.613E+00    1.629E+00    1.644E+00    1.660E+00    1.676E+00
     1.691E+00    1.707E+00    1.722E+00    1.737E+00    1.752E+00    1.767E+00    1.782E+00    1.797E+00    1.812E+00    1.826E+00
     1.841E+00    1.855E+00    1.870E+00    1.884E+00    1.898E+00    1.912E+00    1.926E+00    1.940E+00    1.954E+00    1.967E+00
     1.981E+00    1.995E+00    2.008E+00    2.022E+00    2.035E+00    2.049E+00    2.062E+00    2.075E+00    2.088E+00    2.101E+00
     2.115E+00    2.128E+00    2.141E+00    2.153E+00    2.166E+00    2.179E+00    2.192E+00    2.205E+00    2.218E+00    2.230E+00
     2.243E+00    2.256E+00    2.268E+00    2.281E+00    2.293E+00    2.306E+00    2.318E+00    2.331E+00    2.343E+00    2.356E+00
     2.368E+00    2.380E+00    2.393E+00    2.405E+00    2.418E+00    2.430E+00    2.442E+00    2.455E+00    2.467E+00    2.479E+00
     2.492E+00    2.504E+00    2.516E+00    2.529E+00    2.541E+00    2.553E+00    2.566E+00    2.578E+00    2.590E+00    2.603E+00
     2.615E+00    2.628E+00    2.640E+00    2.652E+00    2.665E+00    2.677E+00    2.689E+00    2.702E+00    2.714E+00    2.727E+00
     2.739E+00    2.751E+00    2.764E+00    2.776E+00    2.788E+00    2.801E+00    2.813E+00    2.825E+00    2.838E+00    2.850E+00
     2.862E+00    2.875E+00    2.887E+00    2.899E+00    2.912E+00    2.924E+00    2.936E+00    2.949E+00    2.961E+00    2.973E+00
     2.985E+00    2.998E+00    3.010E+00    3.022E+00    3.034E+00    3.047E+00    3.059E+00    3.071E+00
 Ala      Conc. = 1.67E+02
