 LCModel (Version 6.3-1L) Copyright: S.W. Provencher.          Ref.: Magn. Reson. Med. 30:672-679 (1993).                
 Slice#2 Row#4 Col#4  PD_05_press_1_raw_act
 36 lines in following concentration table = NCONC+1
    Conc.  %SD /Cr+PCr  Metabolite                                         
    0.000 999%   0.000 Ala                                                 
    0.000 999%   0.000 Asp                                                 
  377.354  45%   0.438 Cr                                                  
  484.374  36%   0.562 PCr                                                 
   84.744 123% 9.8E-02 GABA                                                
    8.036 999% 9.3E-03 Glc                                                 
  548.455  32%   0.636 Gln                                                 
  962.904  22%   1.117 Glu                                                 
  344.914   4%   0.400 GPC                                                 
    0.000 999%   0.000 PCh                                                 
  390.164  14%   0.453 GSH                                                 
 1.07E+03  20%   1.236 Ins                                                 
    0.000 999%   0.000 Lac                                                 
 1.63E+03   3%   1.887 NAA                                                 
    0.000 999%   0.000 NAAG                                                
  109.661  18%   0.127 Scyllo                                              
    0.000 999%   0.000 Tau                                                 
   96.709  84%   0.112 -CrCH2                                              
  344.914   4%   0.400 GPC+PCh                                             
 1.63E+03   3%   1.887 NAA+NAAG                                            
  861.728   4%   1.000 Cr+PCr                                              
 1.51E+03  20%   1.754 Glu+Gln                                             
    0.000 999%   0.000 Lip13a                                              
    0.000 999%   0.000 Lip13b                                              
    0.000 999%   0.000 Lip09                                               
 1.11E+03  15%   1.292 MM09                                                
    0.000 999%   0.000 Lip20                                               
 2.27E+03  13%   2.635 MM20                                                
  379.091  35%   0.440 MM12                                                
    0.000 999%   0.000 MM14                                                
  672.848  27%   0.781 MM17                                                
    0.000 999%   0.000 Lip13a+Lip13b                                       
  379.091  35%   0.440 MM14+Lip13a+Lip13b+MM12                             
 1.11E+03  15%   1.292 MM09+Lip09                                          
 2.27E+03  13%   2.635 MM20+Lip20                                          
   6 lines in following misc. output table
  FWHM = 0.069 ppm    S/N =  13                                            
  Data shift = 0.008 ppm                                                   
  Ph: -45 deg     -15.0 deg/ppm                                            
  alphaB,S = 6.6E-01,   2.1E+02                                            
   14 spline knots.   Ns = 8(1)                                            
  (11) 4 infls.   ( 5) 1 extrs.                                            
  498 points on ppm-axis = NY
      4.000000     3.992357     3.984714     3.977070     3.969427     3.961784     3.954141     3.946497     3.938854     3.931211
      3.923568     3.915925     3.908281     3.900638     3.892995     3.885352     3.877708     3.870065     3.862422     3.854779
      3.847136     3.839492     3.831849     3.824206     3.816563     3.808919     3.801276     3.793633     3.785990     3.778347
      3.770703     3.763060     3.755417     3.747774     3.740130     3.732487     3.724844     3.717201     3.709558     3.701914
      3.694271     3.686628     3.678985     3.671341     3.663698     3.656055     3.648412     3.640769     3.633125     3.625482
      3.617839     3.610196     3.602552     3.594909     3.587266     3.579623     3.571980     3.564336     3.556693     3.549050
      3.541407     3.533763     3.526120     3.518477     3.510834     3.503191     3.495547     3.487904     3.480261     3.472618
      3.464974     3.457331     3.449688     3.442045     3.434402     3.426758     3.419115     3.411472     3.403829     3.396185
      3.388542     3.380899     3.373256     3.365613     3.357969     3.350326     3.342683     3.335040     3.327396     3.319753
      3.312110     3.304467     3.296824     3.289180     3.281537     3.273894     3.266251     3.258607     3.250964     3.243321
      3.235678     3.228034     3.220391     3.212748     3.205105     3.197462     3.189818     3.182175     3.174532     3.166889
      3.159245     3.151602     3.143959     3.136316     3.128673     3.121029     3.113386     3.105743     3.098100     3.090456
      3.082813     3.075170     3.067527     3.059884     3.052240     3.044597     3.036954     3.029311     3.021667     3.014024
      3.006381     2.998738     2.991095     2.983451     2.975808     2.968165     2.960522     2.952878     2.945235     2.937592
      2.929949     2.922306     2.914662     2.907019     2.899376     2.891733     2.884089     2.876446     2.868803     2.861160
      2.853517     2.845873     2.838230     2.830587     2.822944     2.815300     2.807657     2.800014     2.792371     2.784728
      2.777084     2.769441     2.761798     2.754155     2.746511     2.738868     2.731225     2.723582     2.715939     2.708295
      2.700652     2.693009     2.685366     2.677722     2.670079     2.662436     2.654793     2.647150     2.639506     2.631863
      2.624220     2.616577     2.608933     2.601290     2.593647     2.586004     2.578361     2.570717     2.563074     2.555431
      2.547788     2.540144     2.532501     2.524858     2.517215     2.509572     2.501928     2.494285     2.486642     2.478999
      2.471355     2.463712     2.456069     2.448426     2.440783     2.433139     2.425496     2.417853     2.410210     2.402566
      2.394923     2.387280     2.379637     2.371994     2.364350     2.356707     2.349064     2.341421     2.333777     2.326134
      2.318491     2.310848     2.303205     2.295561     2.287918     2.280275     2.272632     2.264988     2.257345     2.249702
      2.242059     2.234416     2.226772     2.219129     2.211486     2.203843     2.196199     2.188556     2.180913     2.173270
      2.165627     2.157983     2.150340     2.142697     2.135054     2.127410     2.119767     2.112124     2.104481     2.096838
      2.089194     2.081551     2.073908     2.066265     2.058621     2.050978     2.043335     2.035692     2.028049     2.020405
      2.012762     2.005119     1.997476     1.989833     1.982190     1.974546     1.966903     1.959260     1.951617     1.943974
      1.936331     1.928688     1.921045     1.913402     1.905759     1.898115     1.890472     1.882829     1.875186     1.867543
      1.859900     1.852257     1.844614     1.836971     1.829327     1.821684     1.814041     1.806398     1.798755     1.791112
      1.783469     1.775826     1.768183     1.760540     1.752896     1.745253     1.737610     1.729967     1.722324     1.714681
      1.707038     1.699395     1.691752     1.684108     1.676465     1.668822     1.661179     1.653536     1.645893     1.638250
      1.630607     1.622964     1.615321     1.607677     1.600034     1.592391     1.584748     1.577105     1.569462     1.561819
      1.554176     1.546533     1.538890     1.531246     1.523603     1.515960     1.508317     1.500674     1.493031     1.485388
      1.477745     1.470102     1.462458     1.454815     1.447172     1.439529     1.431886     1.424243     1.416600     1.408957
      1.401314     1.393671     1.386027     1.378384     1.370741     1.363098     1.355455     1.347812     1.340169     1.332526
      1.324883     1.317240     1.309596     1.301953     1.294310     1.286667     1.279024     1.271381     1.263738     1.256095
      1.248452     1.240808     1.233165     1.225522     1.217879     1.210236     1.202593     1.194950     1.187307     1.179664
      1.172021     1.164377     1.156734     1.149091     1.141448     1.133805     1.126162     1.118519     1.110876     1.103233
      1.095590     1.087946     1.080303     1.072660     1.065017     1.057374     1.049731     1.042088     1.034445     1.026802
      1.019158     1.011515     1.003872     0.996229     0.988586     0.980943     0.973300     0.965657     0.958014     0.950371
      0.942727     0.935084     0.927441     0.919798     0.912155     0.904512     0.896869     0.889226     0.881583     0.873940
      0.866296     0.858653     0.851010     0.843367     0.835724     0.828081     0.820438     0.812795     0.805152     0.797508
      0.789865     0.782222     0.774579     0.766936     0.759293     0.751650     0.744007     0.736364     0.728721     0.721077
      0.713434     0.705791     0.698148     0.690505     0.682862     0.675219     0.667576     0.659933     0.652290     0.644646
      0.637003     0.629360     0.621717     0.614074     0.606431     0.598788     0.591145     0.583502     0.575858     0.568215
      0.560572     0.552929     0.545286     0.537643     0.530000     0.522357     0.514714     0.507071     0.499427     0.491784
      0.484141     0.476498     0.468855     0.461212     0.453569     0.445925     0.438282     0.430639     0.422996     0.415353
      0.407710     0.400067     0.392424     0.384780     0.377137     0.369494     0.361851     0.354208     0.346565     0.338922
      0.331278     0.323635     0.315992     0.308349     0.300706     0.293063     0.285420     0.277777     0.270133     0.262490
      0.254847     0.247204     0.239561     0.231918     0.224275     0.216631     0.208988     0.201345
 NY phased data points follow
  -8.66674E+01 -8.45739E+01 -8.24907E+01 -8.03489E+01 -7.63257E+01 -7.22382E+01 -6.86342E+01 -6.46580E+01 -5.87785E+01 -5.79792E+01
  -5.60809E+01 -5.82050E+01 -6.02314E+01 -6.05313E+01 -6.40281E+01 -6.43381E+01 -6.43375E+01 -6.50516E+01 -6.49333E+01 -6.35422E+01
  -6.50963E+01 -5.97010E+01 -6.40160E+01 -6.11462E+01 -5.91282E+01 -5.96438E+01 -5.80479E+01 -5.66263E+01 -5.48973E+01 -5.63296E+01
  -5.44604E+01 -5.40130E+01 -5.19164E+01 -5.34007E+01 -5.22264E+01 -5.33333E+01 -5.27221E+01 -5.29701E+01 -5.04352E+01 -5.24700E+01
  -5.21533E+01 -4.90005E+01 -4.83804E+01 -4.89207E+01 -4.46990E+01 -4.68503E+01 -4.45947E+01 -4.30138E+01 -4.33244E+01 -4.27977E+01
  -4.20640E+01 -4.60935E+01 -4.74547E+01 -4.68701E+01 -4.65396E+01 -4.68700E+01 -4.28876E+01 -4.46866E+01 -4.51482E+01 -4.34518E+01
  -4.36003E+01 -4.52663E+01 -4.45295E+01 -4.54741E+01 -4.48053E+01 -4.73836E+01 -4.55940E+01 -4.10931E+01 -4.20294E+01 -4.14517E+01
  -4.24309E+01 -4.12189E+01 -4.07954E+01 -3.90155E+01 -3.94613E+01 -3.89923E+01 -3.80985E+01 -4.01543E+01 -4.15909E+01 -3.45153E+01
  -3.82015E+01 -3.37014E+01 -3.54717E+01 -3.38773E+01 -3.48747E+01 -3.41439E+01 -3.40289E+01 -3.28466E+01 -3.13497E+01 -2.98583E+01
  -3.12105E+01 -3.27096E+01 -3.02247E+01 -3.08887E+01 -3.13776E+01 -3.30069E+01 -2.76583E+01 -2.89309E+01 -2.45460E+01 -1.62500E+01
  -9.97317E+00 -4.47557E+00 -5.83503E+00 -5.23884E+00 -9.00394E+00 -1.01084E+01 -1.19785E+01 -1.84375E+01 -2.10248E+01 -2.10203E+01
  -2.07541E+01 -2.81537E+01 -1.95831E+01 -2.60915E+01 -2.43046E+01 -2.30982E+01 -2.31735E+01 -2.19367E+01 -2.46652E+01 -2.56246E+01
  -2.38839E+01 -2.04278E+01 -1.60730E+01 -1.33271E+01 -7.14668E+00 -3.28804E+00 -5.23068E-01 -1.45623E-01  9.69463E-01 -1.01291E+00
  -6.23694E+00 -1.03418E+01 -1.42217E+01 -1.55148E+01 -1.89488E+01 -1.96487E+01 -2.28574E+01 -2.25130E+01 -1.97222E+01 -1.79265E+01
  -2.24477E+01 -2.21396E+01 -2.17081E+01 -2.17019E+01 -2.11310E+01 -2.05871E+01 -2.14798E+01 -2.16846E+01 -2.49653E+01 -1.67059E+01
  -2.08163E+01 -2.09290E+01 -2.13842E+01 -2.25785E+01 -2.40432E+01 -2.06542E+01 -2.10801E+01 -1.90359E+01 -2.15303E+01 -2.22414E+01
  -2.03434E+01 -2.11439E+01 -2.14543E+01 -2.14688E+01 -2.18928E+01 -2.42260E+01 -2.13092E+01 -2.07085E+01 -2.06607E+01 -2.42853E+01
  -2.10426E+01 -2.25868E+01 -2.29454E+01 -2.16093E+01 -2.31014E+01 -1.98437E+01 -2.15021E+01 -2.35451E+01 -2.29632E+01 -2.14200E+01
  -2.12628E+01 -2.28849E+01 -2.42041E+01 -2.11578E+01 -2.21660E+01 -1.95310E+01 -1.96272E+01 -1.42199E+01 -1.42690E+01 -1.31615E+01
  -1.05193E+01 -1.04712E+01 -9.13981E+00 -1.23078E+01 -1.29448E+01 -1.09590E+01 -1.32350E+01 -1.24108E+01 -1.20084E+01 -1.09548E+01
  -9.44719E+00 -9.22111E+00 -1.07963E+01 -1.26058E+01 -1.07453E+01 -1.05181E+01 -1.22939E+01 -1.27661E+01 -1.51373E+01 -1.31034E+01
  -1.04951E+01 -1.12061E+01 -8.12666E+00 -5.27191E+00 -6.33398E+00 -7.43389E+00 -4.68554E+00 -3.77443E+00 -7.25657E+00 -6.71269E+00
  -6.33947E+00 -8.18774E+00 -8.74049E+00 -7.48345E+00 -8.76666E+00 -5.97149E+00 -3.12759E+00 -6.09437E+00 -3.93687E+00 -8.04594E+00
  -3.80445E+00 -3.01278E+00 -3.70821E+00 -2.71230E+00 -2.42476E+00 -1.67513E+00 -1.89528E+00 -2.96772E+00 -3.30052E+00 -9.36424E-01
  -6.29811E-01 -1.89581E+00 -1.75435E+00 -2.07045E+00  1.06634E+00  3.27352E-01  3.90846E-01  1.78593E+00  2.74179E+00  3.46058E+00
   1.57518E+00  3.18437E+00  1.22972E+00  3.27852E+00  9.21083E+00  1.89019E+01  2.39343E+01  3.12843E+01  3.94004E+01  4.10085E+01
   4.44977E+01  4.58359E+01  4.35008E+01  3.52097E+01  2.89022E+01  2.30514E+01  1.97904E+01  1.38378E+01  1.01744E+01  5.66401E+00
   5.39115E+00  1.35774E+00 -2.37659E-01  3.01813E+00  2.70110E-01 -4.28454E+00 -1.67627E+00  4.91520E-01  1.88757E-01 -3.20203E+00
  -5.24470E+00 -5.65680E+00 -8.48600E-01  1.59915E-01 -2.61053E+00 -3.67135E+00 -2.56315E+00 -1.33466E+00 -3.09415E+00 -1.80582E+00
  -5.71108E+00 -1.29121E+00 -2.11019E+00 -1.55813E+00 -3.35539E+00 -1.03140E+00 -1.29838E+00 -7.07057E-01 -1.39948E-01 -2.67217E+00
  -5.86448E-01 -1.31130E+00 -1.28286E+00 -9.08593E-01  1.69999E+00 -5.92686E-01  5.33656E-01  1.41892E+00  1.57055E+00 -1.80933E+00
   6.12457E-01  1.64471E+00  7.65998E-01 -1.73612E-02  3.14700E+00 -9.15624E-01 -3.00598E-01 -1.38519E+00  6.58657E-01 -2.87404E+00
  -2.59799E+00  1.04076E-01  1.19920E+00  9.66691E-01 -5.94565E-01 -1.25385E+00 -6.94325E-01 -3.31076E+00 -3.22943E+00 -1.48504E+00
  -2.44959E+00  1.02305E+00 -1.31236E+00 -2.28776E+00 -4.54073E+00 -7.09335E-01 -5.88632E-01 -3.76792E+00 -4.45842E+00 -6.46301E+00
  -6.19672E+00 -3.82524E+00 -2.67638E+00 -3.93724E+00 -3.37219E-01  2.79328E-01 -3.66193E+00 -1.27664E+00  1.37952E+00 -2.93106E+00
  -3.17490E+00 -1.99380E+00 -6.07705E-01 -9.81491E-01  9.85358E-01 -2.36584E-01 -1.05576E+00 -2.30008E+00 -2.78340E+00 -4.34950E-01
  -1.22920E+00  9.49472E-02 -1.21104E+00 -5.88501E-01 -3.89244E-01  9.23128E-01  4.79982E-01  3.80189E+00  1.81341E+00  3.83299E-01
  -5.00365E-01  2.19245E+00  3.19884E+00 -6.21901E-01  4.05032E+00  3.04896E+00  1.66190E+00  5.55391E+00  1.09940E+00  1.41458E+00
   2.16531E+00  3.09501E+00  1.94172E+00  9.61239E-01  2.29554E+00  2.49364E+00  4.19815E+00  1.08276E+00  2.65057E+00  2.05618E+00
   5.13430E+00  3.90485E+00  2.64593E+00  6.46701E+00  5.62752E+00  5.07464E+00  8.95775E+00  5.19695E+00  5.29408E+00  5.85569E+00
   5.26475E+00  8.68141E+00  7.78643E+00  8.10515E+00  5.03312E+00  8.39782E+00  6.84843E+00  8.58947E+00  8.53229E+00  6.20172E+00
   8.77732E+00  5.08382E+00  9.15248E+00  5.01004E+00  4.76848E+00  8.06353E+00  8.70236E+00  5.20101E+00  7.60616E+00  5.44462E+00
   4.07942E+00  6.16234E+00  5.97028E+00  3.31631E+00  2.59953E+00  2.37584E+00  5.38900E+00  5.36641E+00  2.56529E+00  4.21697E+00
   4.06522E+00  4.84170E+00 -6.01244E-01  2.59335E+00 -1.37186E-01  4.02104E+00  2.98104E+00  6.76376E-01  2.37936E+00  3.07716E-01
   5.49895E+00  1.75963E+00  2.27638E+00  2.96583E+00  4.38459E+00  2.40655E+00  1.49292E+00  3.71947E+00  6.66103E-01  2.76523E+00
   3.05064E+00  2.25278E+00  4.93218E+00  2.60831E+00  1.09326E+00  4.13258E+00  3.39625E+00  3.80127E+00  2.93016E+00  5.51449E+00
   4.86703E+00  2.98883E+00  3.28022E+00  3.33468E+00  2.97631E-01  3.35771E+00  3.50391E+00  3.74201E+00  4.84172E+00  3.41160E+00
   2.86429E+00  3.70222E+00  3.22519E+00  6.41629E+00  2.73390E+00  4.58316E+00  2.96109E+00  4.95527E-01  1.01164E+00  3.82521E+00
   3.78979E+00  5.56656E+00  2.59644E+00  3.72510E+00  4.20461E+00  2.00297E+00  5.59468E+00  5.71046E+00  4.55048E+00  4.45903E+00
   4.82323E+00  3.77019E+00  4.94152E+00  4.51916E+00  5.98896E+00  4.17409E+00  3.94169E+00  5.56299E+00
 NY points of the fit to the data follow
  -7.94738E+01 -7.90370E+01 -7.81189E+01 -7.64953E+01 -7.41361E+01 -7.11506E+01 -6.78340E+01 -6.46009E+01 -6.18436E+01 -5.98323E+01
  -5.86995E+01 -5.84685E+01 -5.90274E+01 -6.00905E+01 -6.12738E+01 -6.22825E+01 -6.30579E+01 -6.37175E+01 -6.43937E+01 -6.49936E+01
  -6.52672E+01 -6.51407E+01 -6.45882E+01 -6.36332E+01 -6.22972E+01 -6.06227E+01 -5.87085E+01 -5.67352E+01 -5.49238E+01 -5.34484E+01
  -5.24447E+01 -5.20056E+01 -5.20950E+01 -5.25525E+01 -5.31619E+01 -5.37432E+01 -5.42397E+01 -5.46211E+01 -5.48052E+01 -5.45117E+01
  -5.35478E+01 -5.21268E+01 -5.04314E+01 -4.86784E+01 -4.71088E+01 -4.59116E+01 -4.51958E+01 -4.49550E+01 -4.51579E+01 -4.57113E+01
  -4.63895E+01 -4.69259E+01 -4.71458E+01 -4.70304E+01 -4.67111E+01 -4.63095E+01 -4.58083E+01 -4.51853E+01 -4.45785E+01 -4.41392E+01
  -4.38846E+01 -4.37632E+01 -4.37063E+01 -4.36196E+01 -4.34085E+01 -4.30276E+01 -4.25084E+01 -4.19367E+01 -4.13683E+01 -4.08164E+01
  -4.03067E+01 -3.98443E+01 -3.94457E+01 -3.91223E+01 -3.88645E+01 -3.86496E+01 -3.84421E+01 -3.82109E+01 -3.79291E+01 -3.75035E+01
  -3.68815E+01 -3.60760E+01 -3.51733E+01 -3.42902E+01 -3.35400E+01 -3.30014E+01 -3.26838E+01 -3.25643E+01 -3.26070E+01 -3.27485E+01
  -3.29006E+01 -3.29916E+01 -3.30115E+01 -3.30011E+01 -3.28717E+01 -3.20689E+01 -2.99268E+01 -2.62464E+01 -2.15066E+01 -1.63568E+01
  -1.15416E+01 -7.81033E+00 -5.63761E+00 -5.19957E+00 -6.48774E+00 -9.19228E+00 -1.26185E+01 -1.59760E+01 -1.87630E+01 -2.10085E+01
  -2.30455E+01 -2.50649E+01 -2.67897E+01 -2.75750E+01 -2.76795E+01 -2.76039E+01 -2.74606E+01 -2.72479E+01 -2.68535E+01 -2.58512E+01
  -2.37204E+01 -2.03454E+01 -1.60384E+01 -1.13188E+01 -6.82305E+00 -3.18918E+00 -8.44121E-01  3.59070E-03 -7.27463E-01 -2.89453E+00
  -6.00594E+00 -9.35220E+00 -1.23764E+01 -1.49452E+01 -1.72328E+01 -1.93556E+01 -2.10757E+01 -2.18308E+01 -2.17428E+01 -2.14161E+01
  -2.10972E+01 -2.08693E+01 -2.07332E+01 -2.06418E+01 -2.05866E+01 -2.05821E+01 -2.06143E+01 -2.06882E+01 -2.08024E+01 -2.09137E+01
  -2.09983E+01 -2.10182E+01 -2.09737E+01 -2.08964E+01 -2.08326E+01 -2.08163E+01 -2.08508E+01 -2.09063E+01 -2.09323E+01 -2.08972E+01
  -2.08008E+01 -2.06586E+01 -2.04933E+01 -2.03334E+01 -2.02089E+01 -2.01441E+01 -2.01546E+01 -2.02398E+01 -2.03705E+01 -2.05180E+01
  -2.06621E+01 -2.08070E+01 -2.09562E+01 -2.10717E+01 -2.11274E+01 -2.10897E+01 -2.09578E+01 -2.07841E+01 -2.05924E+01 -2.04097E+01
  -2.02744E+01 -2.01734E+01 -2.00147E+01 -1.96795E+01 -1.91010E+01 -1.83009E+01 -1.73789E+01 -1.64527E+01 -1.55778E+01 -1.48290E+01
  -1.43008E+01 -1.40491E+01 -1.40481E+01 -1.41440E+01 -1.41694E+01 -1.40146E+01 -1.36322E+01 -1.30382E+01 -1.22763E+01 -1.13794E+01
  -1.04599E+01 -9.67218E+00 -9.19217E+00 -9.13619E+00 -9.48740E+00 -1.01471E+01 -1.10084E+01 -1.18819E+01 -1.24949E+01 -1.26085E+01
  -1.21377E+01 -1.11494E+01 -9.84862E+00 -8.52400E+00 -7.44009E+00 -6.80336E+00 -6.71977E+00 -7.13114E+00 -7.88402E+00 -8.74792E+00
  -9.47165E+00 -9.76315E+00 -9.54019E+00 -8.97217E+00 -8.24753E+00 -7.44967E+00 -6.63665E+00 -5.88250E+00 -5.30979E+00 -4.83726E+00
  -4.32201E+00 -3.71441E+00 -3.07507E+00 -2.48381E+00 -1.95825E+00 -1.53425E+00 -1.29831E+00 -1.25555E+00 -1.32680E+00 -1.43856E+00
  -1.52664E+00 -1.53170E+00 -1.38430E+00 -1.04915E+00 -5.71018E-01 -3.92678E-02  4.77117E-01  9.83593E-01  1.45084E+00  1.87741E+00
   2.32865E+00  2.87049E+00  3.78398E+00  5.97920E+00  1.02480E+01  1.65380E+01  2.41196E+01  3.19718E+01  3.88791E+01  4.37364E+01
   4.59367E+01  4.52691E+01  4.17951E+01  3.61356E+01  2.95135E+01  2.32239E+01  1.79535E+01  1.35233E+01  9.38681E+00  5.35597E+00
   2.09249E+00  5.45399E-01 -3.49880E-02 -3.56757E-01 -5.78764E-01 -7.61899E-01 -9.59266E-01 -1.17662E+00 -1.40043E+00 -1.61895E+00
  -1.82116E+00 -1.99823E+00 -2.15055E+00 -2.27710E+00 -2.37071E+00 -2.43008E+00 -2.45980E+00 -2.46458E+00 -2.44903E+00 -2.41427E+00
  -2.35949E+00 -2.28727E+00 -2.19713E+00 -2.08750E+00 -1.95850E+00 -1.80902E+00 -1.63821E+00 -1.44817E+00 -1.24273E+00 -1.02605E+00
  -8.02357E-01 -5.77075E-01 -3.56064E-01 -1.45001E-01  4.95888E-02  2.21846E-01  3.66740E-01  4.80092E-01  5.58735E-01  6.00530E-01
   6.04482E-01  5.70840E-01  5.01218E-01  3.98537E-01  2.66823E-01  1.10629E-01 -6.49424E-02 -2.54439E-01 -4.52290E-01 -6.53151E-01
  -8.52128E-01 -1.04495E+00 -1.22800E+00 -1.39832E+00 -1.55371E+00 -1.69271E+00 -1.81459E+00 -1.91920E+00 -2.00679E+00 -2.07796E+00
  -2.13356E+00 -2.17465E+00 -2.20240E+00 -2.21798E+00 -2.22248E+00 -2.21685E+00 -2.20195E+00 -2.17856E+00 -2.14734E+00 -2.10881E+00
  -2.06327E+00 -2.01097E+00 -1.95205E+00 -1.88665E+00 -1.81480E+00 -1.73651E+00 -1.65172E+00 -1.56044E+00 -1.46275E+00 -1.35884E+00
  -1.24895E+00 -1.13343E+00 -1.01277E+00 -8.87615E-01 -7.58811E-01 -6.27365E-01 -4.94383E-01 -3.61081E-01 -2.28757E-01 -9.87923E-02
   2.74236E-02  1.48570E-01  2.63484E-01  3.71168E-01  4.70836E-01  5.61935E-01  6.44231E-01  7.17839E-01  7.83255E-01  8.41305E-01
   8.93128E-01  9.40131E-01  9.84002E-01  1.02667E+00  1.07025E+00  1.11697E+00  1.16911E+00  1.22895E+00  1.29882E+00  1.38100E+00
   1.47771E+00  1.59105E+00  1.72296E+00  1.87518E+00  2.04931E+00  2.24665E+00  2.46817E+00  2.71442E+00  2.98543E+00  3.28068E+00
   3.59898E+00  3.93841E+00  4.29620E+00  4.66869E+00  5.05137E+00  5.43890E+00  5.82520E+00  6.20358E+00  6.56691E+00  6.90783E+00
   7.21910E+00  7.49384E+00  7.72589E+00  7.90999E+00  8.04208E+00  8.11947E+00  8.14105E+00  8.10729E+00  8.02022E+00  7.88332E+00
   7.70131E+00  7.47997E+00  7.22585E+00  6.94595E+00  6.64743E+00  6.33732E+00  6.02223E+00  5.70823E+00  5.40069E+00  5.10410E+00
   4.82209E+00  4.55737E+00  4.31184E+00  4.08663E+00  3.88223E+00  3.69854E+00  3.53500E+00  3.39070E+00  3.26449E+00  3.15511E+00
   3.06118E+00  2.98132E+00  2.91415E+00  2.85835E+00  2.81270E+00  2.77609E+00  2.74751E+00  2.72604E+00  2.71085E+00  2.70119E+00
   2.69646E+00  2.69611E+00  2.69966E+00  2.70666E+00  2.71675E+00  2.72960E+00  2.74494E+00  2.76254E+00  2.78219E+00  2.80369E+00
   2.82687E+00  2.85160E+00  2.87776E+00  2.90526E+00  2.93397E+00  2.96380E+00  2.99464E+00  3.02644E+00  3.05914E+00  3.09268E+00
   3.12699E+00  3.16200E+00  3.19768E+00  3.23400E+00  3.27093E+00  3.30842E+00  3.34644E+00  3.38493E+00  3.42390E+00  3.46333E+00
   3.50320E+00  3.54347E+00  3.58412E+00  3.62514E+00  3.66651E+00  3.70824E+00  3.75030E+00  3.79266E+00  3.83532E+00  3.87826E+00
   3.92150E+00  3.96502E+00  4.00881E+00  4.05285E+00  4.09712E+00  4.14164E+00  4.18642E+00  4.23144E+00  4.27669E+00  4.32215E+00
   4.36784E+00  4.41376E+00  4.45991E+00  4.50630E+00  4.55290E+00  4.59973E+00  4.64679E+00  4.69411E+00
 NY background values follow
    -8.178E+01   -8.114E+01   -8.050E+01   -7.986E+01   -7.922E+01   -7.858E+01   -7.794E+01   -7.731E+01   -7.667E+01   -7.604E+01
    -7.541E+01   -7.478E+01   -7.415E+01   -7.352E+01   -7.289E+01   -7.227E+01   -7.164E+01   -7.102E+01   -7.041E+01   -6.979E+01
    -6.918E+01   -6.856E+01   -6.796E+01   -6.735E+01   -6.674E+01   -6.614E+01   -6.555E+01   -6.495E+01   -6.436E+01   -6.377E+01
    -6.318E+01   -6.260E+01   -6.202E+01   -6.144E+01   -6.087E+01   -6.030E+01   -5.974E+01   -5.918E+01   -5.862E+01   -5.807E+01
    -5.752E+01   -5.698E+01   -5.644E+01   -5.590E+01   -5.537E+01   -5.484E+01   -5.432E+01   -5.380E+01   -5.329E+01   -5.278E+01
    -5.228E+01   -5.178E+01   -5.129E+01   -5.080E+01   -5.032E+01   -4.984E+01   -4.936E+01   -4.889E+01   -4.843E+01   -4.797E+01
    -4.751E+01   -4.706E+01   -4.661E+01   -4.617E+01   -4.573E+01   -4.530E+01   -4.487E+01   -4.445E+01   -4.403E+01   -4.362E+01
    -4.321E+01   -4.280E+01   -4.240E+01   -4.201E+01   -4.162E+01   -4.123E+01   -4.085E+01   -4.047E+01   -4.010E+01   -3.973E+01
    -3.936E+01   -3.900E+01   -3.865E+01   -3.830E+01   -3.795E+01   -3.761E+01   -3.727E+01   -3.694E+01   -3.661E+01   -3.629E+01
    -3.597E+01   -3.566E+01   -3.535E+01   -3.504E+01   -3.474E+01   -3.444E+01   -3.415E+01   -3.386E+01   -3.358E+01   -3.330E+01
    -3.302E+01   -3.274E+01   -3.248E+01   -3.221E+01   -3.195E+01   -3.169E+01   -3.143E+01   -3.118E+01   -3.093E+01   -3.069E+01
    -3.044E+01   -3.020E+01   -2.997E+01   -2.973E+01   -2.950E+01   -2.928E+01   -2.905E+01   -2.883E+01   -2.861E+01   -2.839E+01
    -2.818E+01   -2.797E+01   -2.776E+01   -2.755E+01   -2.734E+01   -2.714E+01   -2.694E+01   -2.674E+01   -2.654E+01   -2.634E+01
    -2.615E+01   -2.596E+01   -2.577E+01   -2.558E+01   -2.539E+01   -2.520E+01   -2.502E+01   -2.483E+01   -2.465E+01   -2.447E+01
    -2.429E+01   -2.411E+01   -2.393E+01   -2.375E+01   -2.357E+01   -2.340E+01   -2.322E+01   -2.305E+01   -2.288E+01   -2.270E+01
    -2.253E+01   -2.236E+01   -2.219E+01   -2.201E+01   -2.184E+01   -2.167E+01   -2.150E+01   -2.133E+01   -2.116E+01   -2.099E+01
    -2.082E+01   -2.065E+01   -2.048E+01   -2.031E+01   -2.014E+01   -1.997E+01   -1.979E+01   -1.962E+01   -1.945E+01   -1.928E+01
    -1.910E+01   -1.893E+01   -1.875E+01   -1.858E+01   -1.840E+01   -1.823E+01   -1.805E+01   -1.787E+01   -1.769E+01   -1.751E+01
    -1.733E+01   -1.714E+01   -1.696E+01   -1.677E+01   -1.659E+01   -1.640E+01   -1.621E+01   -1.602E+01   -1.583E+01   -1.564E+01
    -1.545E+01   -1.526E+01   -1.507E+01   -1.488E+01   -1.469E+01   -1.450E+01   -1.431E+01   -1.412E+01   -1.393E+01   -1.374E+01
    -1.355E+01   -1.336E+01   -1.318E+01   -1.299E+01   -1.281E+01   -1.262E+01   -1.244E+01   -1.226E+01   -1.208E+01   -1.190E+01
    -1.172E+01   -1.155E+01   -1.137E+01   -1.120E+01   -1.103E+01   -1.086E+01   -1.070E+01   -1.053E+01   -1.037E+01   -1.021E+01
    -1.006E+01   -9.905E+00   -9.755E+00   -9.607E+00   -9.462E+00   -9.321E+00   -9.182E+00   -9.047E+00   -8.915E+00   -8.786E+00
    -8.660E+00   -8.537E+00   -8.417E+00   -8.300E+00   -8.186E+00   -8.075E+00   -7.966E+00   -7.861E+00   -7.758E+00   -7.657E+00
    -7.559E+00   -7.464E+00   -7.371E+00   -7.280E+00   -7.192E+00   -7.106E+00   -7.023E+00   -6.942E+00   -6.862E+00   -6.785E+00
    -6.710E+00   -6.637E+00   -6.566E+00   -6.497E+00   -6.429E+00   -6.364E+00   -6.300E+00   -6.237E+00   -6.177E+00   -6.118E+00
    -6.060E+00   -6.004E+00   -5.950E+00   -5.897E+00   -5.845E+00   -5.794E+00   -5.745E+00   -5.696E+00   -5.649E+00   -5.603E+00
    -5.558E+00   -5.514E+00   -5.471E+00   -5.429E+00   -5.387E+00   -5.346E+00   -5.307E+00   -5.267E+00   -5.229E+00   -5.191E+00
    -5.154E+00   -5.118E+00   -5.082E+00   -5.047E+00   -5.013E+00   -4.978E+00   -4.945E+00   -4.912E+00   -4.879E+00   -4.847E+00
    -4.815E+00   -4.784E+00   -4.753E+00   -4.722E+00   -4.691E+00   -4.661E+00   -4.631E+00   -4.601E+00   -4.571E+00   -4.541E+00
    -4.512E+00   -4.482E+00   -4.453E+00   -4.424E+00   -4.394E+00   -4.365E+00   -4.335E+00   -4.306E+00   -4.276E+00   -4.246E+00
    -4.216E+00   -4.186E+00   -4.155E+00   -4.125E+00   -4.093E+00   -4.062E+00   -4.030E+00   -3.998E+00   -3.966E+00   -3.933E+00
    -3.899E+00   -3.866E+00   -3.832E+00   -3.797E+00   -3.762E+00   -3.727E+00   -3.691E+00   -3.655E+00   -3.619E+00   -3.582E+00
    -3.544E+00   -3.507E+00   -3.469E+00   -3.430E+00   -3.391E+00   -3.352E+00   -3.312E+00   -3.272E+00   -3.231E+00   -3.190E+00
    -3.149E+00   -3.107E+00   -3.064E+00   -3.022E+00   -2.979E+00   -2.935E+00   -2.891E+00   -2.847E+00   -2.802E+00   -2.756E+00
    -2.711E+00   -2.665E+00   -2.618E+00   -2.571E+00   -2.523E+00   -2.476E+00   -2.427E+00   -2.378E+00   -2.329E+00   -2.280E+00
    -2.230E+00   -2.179E+00   -2.128E+00   -2.077E+00   -2.025E+00   -1.972E+00   -1.920E+00   -1.867E+00   -1.813E+00   -1.760E+00
    -1.706E+00   -1.651E+00   -1.597E+00   -1.542E+00   -1.487E+00   -1.432E+00   -1.376E+00   -1.321E+00   -1.265E+00   -1.209E+00
    -1.153E+00   -1.097E+00   -1.041E+00   -9.844E-01   -9.280E-01   -8.717E-01   -8.153E-01   -7.589E-01   -7.025E-01   -6.462E-01
    -5.900E-01   -5.338E-01   -4.778E-01   -4.218E-01   -3.660E-01   -3.103E-01   -2.549E-01   -1.996E-01   -1.445E-01   -8.966E-02
    -3.506E-02    1.927E-02    7.331E-02    1.271E-01    1.805E-01    2.335E-01    2.863E-01    3.386E-01    3.906E-01    4.421E-01
     4.934E-01    5.442E-01    5.947E-01    6.449E-01    6.948E-01    7.443E-01    7.936E-01    8.425E-01    8.912E-01    9.396E-01
     9.878E-01    1.036E+00    1.083E+00    1.131E+00    1.178E+00    1.225E+00    1.272E+00    1.319E+00    1.365E+00    1.411E+00
     1.458E+00    1.504E+00    1.550E+00    1.595E+00    1.641E+00    1.687E+00    1.732E+00    1.777E+00    1.823E+00    1.868E+00
     1.913E+00    1.959E+00    2.004E+00    2.049E+00    2.094E+00    2.139E+00    2.185E+00    2.230E+00    2.275E+00    2.321E+00
     2.366E+00    2.412E+00    2.457E+00    2.503E+00    2.549E+00    2.594E+00    2.640E+00    2.686E+00    2.733E+00    2.779E+00
     2.825E+00    2.872E+00    2.918E+00    2.965E+00    3.011E+00    3.058E+00    3.105E+00    3.152E+00    3.199E+00    3.246E+00
     3.293E+00    3.341E+00    3.388E+00    3.436E+00    3.483E+00    3.531E+00    3.579E+00    3.626E+00    3.674E+00    3.722E+00
     3.770E+00    3.818E+00    3.867E+00    3.915E+00    3.963E+00    4.012E+00    4.060E+00    4.109E+00    4.158E+00    4.207E+00
     4.256E+00    4.304E+00    4.353E+00    4.403E+00    4.452E+00    4.501E+00    4.550E+00    4.600E+00
 Cr       Conc. = 3.77E+02
