 LCModel (Version 6.3-1L) Copyright: S.W. Provencher.          Ref.: Magn. Reson. Med. 30:672-679 (1993).                
 Slice#2 Row#2 Col#7  PD_05_press_1_raw_act
 36 lines in following concentration table = NCONC+1
    Conc.  %SD /Cr+PCr  Metabolite                                         
   35.491 229% 7.2E-02 Ala                                                 
   83.244 119%   0.169 Asp                                                 
   68.052 225%   0.138 Cr                                                  
  423.880  37%   0.862 PCr                                                 
   67.442  92%   0.137 GABA                                                
   38.838 159% 7.9E-02 Glc                                                 
  422.147  40%   0.858 Gln                                                 
  276.679  65%   0.562 Glu                                                 
  142.975  11%   0.291 GPC                                                 
    0.000 999%   0.000 PCh                                                 
  158.730  33%   0.323 GSH                                                 
  501.229  36%   1.019 Ins                                                 
    0.000 999%   0.000 Lac                                                 
  860.858  10%   1.750 NAA                                                 
  136.092  66%   0.277 NAAG                                                
   27.381  56% 5.6E-02 Scyllo                                              
  100.403  92%   0.204 Tau                                                 
  317.410  23%   0.645 -CrCH2                                              
  142.975  11%   0.291 GPC+PCh                                             
  996.949   6%   2.027 NAA+NAAG                                            
  491.932   9%   1.000 Cr+PCr                                              
  698.826  38%   1.421 Glu+Gln                                             
    0.000 999%   0.000 Lip13a                                              
   81.185  88%   0.165 Lip13b                                              
   14.397 176% 2.9E-02 Lip09                                               
  749.816  15%   1.524 MM09                                                
   13.526 116% 2.7E-02 Lip20                                               
 1.72E+03  12%   3.503 MM20                                                
  133.720  47%   0.272 MM12                                                
 1.07E+03  16%   2.184 MM14                                                
  767.276  17%   1.560 MM17                                                
   81.185  88%   0.165 Lip13a+Lip13b                                       
 1.29E+03  16%   2.621 MM14+Lip13a+Lip13b+MM12                             
  764.214  15%   1.553 MM09+Lip09                                          
 1.74E+03  12%   3.530 MM20+Lip20                                          
   6 lines in following misc. output table
  FWHM = 0.054 ppm    S/N =   7                                            
  Data shift =-0.008 ppm                                                   
  Ph:  11 deg       5.5 deg/ppm                                            
  alphaB,S = 5.2E-01,   2.8E+01                                            
   14 spline knots.   Ns = 8(1)                                            
  (17) 6 infls.   (17) 3 extrs.                                            
  498 points on ppm-axis = NY
      4.000000     3.992357     3.984714     3.977070     3.969427     3.961784     3.954141     3.946497     3.938854     3.931211
      3.923568     3.915925     3.908281     3.900638     3.892995     3.885352     3.877708     3.870065     3.862422     3.854779
      3.847136     3.839492     3.831849     3.824206     3.816563     3.808919     3.801276     3.793633     3.785990     3.778347
      3.770703     3.763060     3.755417     3.747774     3.740130     3.732487     3.724844     3.717201     3.709558     3.701914
      3.694271     3.686628     3.678985     3.671341     3.663698     3.656055     3.648412     3.640769     3.633125     3.625482
      3.617839     3.610196     3.602552     3.594909     3.587266     3.579623     3.571980     3.564336     3.556693     3.549050
      3.541407     3.533763     3.526120     3.518477     3.510834     3.503191     3.495547     3.487904     3.480261     3.472618
      3.464974     3.457331     3.449688     3.442045     3.434402     3.426758     3.419115     3.411472     3.403829     3.396185
      3.388542     3.380899     3.373256     3.365613     3.357969     3.350326     3.342683     3.335040     3.327396     3.319753
      3.312110     3.304467     3.296824     3.289180     3.281537     3.273894     3.266251     3.258607     3.250964     3.243321
      3.235678     3.228034     3.220391     3.212748     3.205105     3.197462     3.189818     3.182175     3.174532     3.166889
      3.159245     3.151602     3.143959     3.136316     3.128673     3.121029     3.113386     3.105743     3.098100     3.090456
      3.082813     3.075170     3.067527     3.059884     3.052240     3.044597     3.036954     3.029311     3.021667     3.014024
      3.006381     2.998738     2.991095     2.983451     2.975808     2.968165     2.960522     2.952878     2.945235     2.937592
      2.929949     2.922306     2.914662     2.907019     2.899376     2.891733     2.884089     2.876446     2.868803     2.861160
      2.853517     2.845873     2.838230     2.830587     2.822944     2.815300     2.807657     2.800014     2.792371     2.784728
      2.777084     2.769441     2.761798     2.754155     2.746511     2.738868     2.731225     2.723582     2.715939     2.708295
      2.700652     2.693009     2.685366     2.677722     2.670079     2.662436     2.654793     2.647150     2.639506     2.631863
      2.624220     2.616577     2.608933     2.601290     2.593647     2.586004     2.578361     2.570717     2.563074     2.555431
      2.547788     2.540144     2.532501     2.524858     2.517215     2.509572     2.501928     2.494285     2.486642     2.478999
      2.471355     2.463712     2.456069     2.448426     2.440783     2.433139     2.425496     2.417853     2.410210     2.402566
      2.394923     2.387280     2.379637     2.371994     2.364350     2.356707     2.349064     2.341421     2.333777     2.326134
      2.318491     2.310848     2.303205     2.295561     2.287918     2.280275     2.272632     2.264988     2.257345     2.249702
      2.242059     2.234416     2.226772     2.219129     2.211486     2.203843     2.196199     2.188556     2.180913     2.173270
      2.165627     2.157983     2.150340     2.142697     2.135054     2.127410     2.119767     2.112124     2.104481     2.096838
      2.089194     2.081551     2.073908     2.066265     2.058621     2.050978     2.043335     2.035692     2.028049     2.020405
      2.012762     2.005119     1.997476     1.989833     1.982190     1.974546     1.966903     1.959260     1.951617     1.943974
      1.936331     1.928688     1.921045     1.913402     1.905759     1.898115     1.890472     1.882829     1.875186     1.867543
      1.859900     1.852257     1.844614     1.836971     1.829327     1.821684     1.814041     1.806398     1.798755     1.791112
      1.783469     1.775826     1.768183     1.760540     1.752896     1.745253     1.737610     1.729967     1.722324     1.714681
      1.707038     1.699395     1.691752     1.684108     1.676465     1.668822     1.661179     1.653536     1.645893     1.638250
      1.630607     1.622964     1.615321     1.607677     1.600034     1.592391     1.584748     1.577105     1.569462     1.561819
      1.554176     1.546533     1.538890     1.531246     1.523603     1.515960     1.508317     1.500674     1.493031     1.485388
      1.477745     1.470102     1.462458     1.454815     1.447172     1.439529     1.431886     1.424243     1.416600     1.408957
      1.401314     1.393671     1.386027     1.378384     1.370741     1.363098     1.355455     1.347812     1.340169     1.332526
      1.324883     1.317240     1.309596     1.301953     1.294310     1.286667     1.279024     1.271381     1.263738     1.256095
      1.248452     1.240808     1.233165     1.225522     1.217879     1.210236     1.202593     1.194950     1.187307     1.179664
      1.172021     1.164377     1.156734     1.149091     1.141448     1.133805     1.126162     1.118519     1.110876     1.103233
      1.095590     1.087946     1.080303     1.072660     1.065017     1.057374     1.049731     1.042088     1.034445     1.026802
      1.019158     1.011515     1.003872     0.996229     0.988586     0.980943     0.973300     0.965657     0.958014     0.950371
      0.942727     0.935084     0.927441     0.919798     0.912155     0.904512     0.896869     0.889226     0.881583     0.873940
      0.866296     0.858653     0.851010     0.843367     0.835724     0.828081     0.820438     0.812795     0.805152     0.797508
      0.789865     0.782222     0.774579     0.766936     0.759293     0.751650     0.744007     0.736364     0.728721     0.721077
      0.713434     0.705791     0.698148     0.690505     0.682862     0.675219     0.667576     0.659933     0.652290     0.644646
      0.637003     0.629360     0.621717     0.614074     0.606431     0.598788     0.591145     0.583502     0.575858     0.568215
      0.560572     0.552929     0.545286     0.537643     0.530000     0.522357     0.514714     0.507071     0.499427     0.491784
      0.484141     0.476498     0.468855     0.461212     0.453569     0.445925     0.438282     0.430639     0.422996     0.415353
      0.407710     0.400067     0.392424     0.384780     0.377137     0.369494     0.361851     0.354208     0.346565     0.338922
      0.331278     0.323635     0.315992     0.308349     0.300706     0.293063     0.285420     0.277777     0.270133     0.262490
      0.254847     0.247204     0.239561     0.231918     0.224275     0.216631     0.208988     0.201345
 NY phased data points follow
   2.11630E+00  2.29659E+00 -4.46411E-01  2.59869E+00  1.62223E+00  3.51203E+00  3.85395E+00  6.31998E+00  5.45810E+00  4.44096E+00
   4.62352E+00  7.85166E+00  3.21282E+00  6.74987E+00  2.10648E+00  5.35550E+00  3.03816E+00  1.24925E+00  3.50958E+00  2.27154E+00
   1.12056E+00  3.37690E+00  3.67517E+00  2.88081E+00  3.68185E+00  4.50192E+00  4.01985E+00  7.88104E+00  3.96627E+00  5.37980E+00
   5.47569E+00  7.78141E+00  2.54546E+00  2.88863E+00  3.52134E+00  3.29753E+00  4.61471E+00  8.57121E+00  2.78272E+00  5.82967E+00
   6.23753E+00  4.14081E+00  7.86118E+00  6.77411E+00  5.29809E+00  7.49168E+00  8.77672E+00  4.32739E+00  4.22769E+00  8.87260E+00
   1.89105E+00  3.98430E+00  1.96724E+00  6.46555E+00  1.71189E+00  2.90141E+00  4.41671E+00  6.74467E+00  4.91927E+00  4.40339E+00
   3.51800E+00  2.30835E+00  4.22837E+00  4.15668E+00  4.91426E+00  1.41104E+00  1.72636E+00  2.83755E+00 -1.17674E-01  5.01090E+00
   7.68710E+00  1.37954E+00  4.07335E+00  3.62776E+00  6.53081E+00  2.64688E+00  2.09581E+00  4.76469E+00  3.63135E+00  2.69059E+00
  -3.40916E+00  2.33323E+00  4.51411E+00  4.89491E+00  4.09922E+00  4.37753E-01  4.21539E+00  3.07997E+00  2.82710E+00  4.91306E+00
   4.14757E+00  3.78646E+00  5.73557E+00  4.31259E+00  5.08391E+00  2.57392E+00  2.02660E+00  5.00030E+00  5.58981E+00  8.05952E+00
   1.23682E+01  1.48218E+01  1.73328E+01  1.58940E+01  1.17345E+01  1.18720E+01  8.26835E+00  7.47332E+00  4.15618E+00  3.09642E+00
   5.60534E+00  6.14330E+00  6.53526E+00  5.87629E+00  7.60555E+00  3.74213E+00  4.94525E+00  7.10599E+00  5.56271E+00  8.44330E+00
   2.76829E+00  6.79649E+00  1.07833E+01  7.35392E+00  1.45698E+01  1.94542E+01  1.95540E+01  2.19085E+01  1.86179E+01  1.41091E+01
   1.24760E+01  9.15080E+00  8.00189E+00  6.57333E+00  5.01157E+00  5.21815E+00  2.89258E+00  6.36561E+00  5.30289E+00  5.02383E+00
   5.53923E+00  5.96887E+00  2.99660E+00  4.47100E+00  5.12515E+00 -6.74636E-01  2.88959E+00  3.26438E+00  4.91437E+00  5.27654E+00
   1.61679E+00  1.82845E+00  1.43650E-01 -4.26523E-01  3.94121E+00  2.26434E+00  7.56538E-01  1.92935E+00  5.44139E+00  1.29445E+00
  -1.17212E-01  1.87459E+00 -5.14961E-01  2.67045E+00 -2.39097E-01  1.68755E+00  2.95919E+00  6.73102E-01  8.06858E-01  4.98455E+00
   6.29329E-01  1.98718E+00 -2.99938E+00 -1.28512E+00 -2.92463E+00 -1.82297E+00 -7.62058E-01  4.29001E-01 -9.72669E-01 -3.12928E+00
  -4.01297E+00 -2.14802E+00  1.06058E+00  2.10952E+00 -2.36906E+00 -1.11104E+00 -2.37733E+00 -5.77737E-01  4.65381E+00  7.71556E-01
   3.51556E+00  8.92086E-01  3.84106E+00  4.30729E+00  2.89042E+00  5.93037E-01  6.00201E-01 -3.20004E-01 -1.12039E+00  1.10738E+00
   3.93573E+00  2.03155E+00  4.12711E+00  4.31770E+00  2.94368E+00 -1.06421E+00  1.03250E+00  2.99436E+00 -1.02175E+00  3.84615E+00
   2.00220E-01  2.83009E+00  1.22657E+00  4.04580E+00  3.11574E+00  9.83316E+00  7.43651E+00  5.17109E+00  6.83038E+00  3.26149E+00
   1.94163E+00  7.35980E+00  2.85000E+00  4.74296E+00  7.22680E+00  5.28665E+00  6.28036E+00  5.04906E+00  5.38498E+00  2.85271E+00
   2.25242E+00  7.02610E+00  5.67727E+00  5.61285E+00  6.51445E+00  4.96688E+00  8.54776E+00  5.22492E+00  8.33525E+00  8.80857E+00
   2.92617E+00  8.47117E+00  7.36595E+00  3.24051E+00  3.66518E+00  1.16573E+01  5.34374E+00  7.68063E+00  1.14370E+01  9.08904E+00
   1.11483E+01  1.00003E+01  1.17051E+01  1.53643E+01  1.42238E+01  1.76400E+01  2.28700E+01  2.94979E+01  2.93676E+01  3.48438E+01
   3.39991E+01  3.23139E+01  2.57545E+01  2.75809E+01  1.72707E+01  1.54620E+01  1.19222E+01  1.30711E+01  9.20510E+00  7.79625E+00
   1.15553E+01  1.03257E+01  7.41267E+00  8.03724E+00  3.67731E+00  4.25904E+00  4.81832E+00  4.27373E+00  1.84657E+00  4.81338E+00
   2.86411E+00  2.58091E+00  2.99446E+00  1.59882E+00  1.15473E+00  2.77939E+00  4.20870E+00  3.54669E+00  2.43455E+00  3.08520E+00
   3.74532E+00  4.25750E+00  2.15994E+00  4.81455E+00 -2.50729E+00  3.39240E+00  3.05114E+00  1.09150E+00  1.71580E+00  5.67300E+00
   7.06963E+00  6.07465E+00  6.14841E+00  5.15885E+00  3.30414E+00  6.26656E+00  7.33699E+00  9.52750E+00  7.45754E+00  8.34657E+00
   9.57493E+00  1.01342E+01  9.31273E+00  4.93035E+00  6.37779E+00  4.60873E+00  5.61869E+00  5.04164E+00  5.86924E+00  5.71839E+00
   3.05573E+00  9.34411E+00  6.21523E+00  7.10187E+00  3.03382E+00  6.07760E+00  8.59114E+00  8.30168E+00  5.69131E+00  1.70309E+00
   7.32219E+00  2.53133E+00  8.36382E+00  4.64124E+00  7.11289E-01  4.30011E+00  1.64353E+00  1.13967E+00  3.48753E+00  2.49050E+00
   4.10156E+00  9.37003E-01  6.86671E+00  1.09451E+00  5.34382E+00 -1.33108E+00 -9.29708E-01  2.66881E+00 -9.08707E-01  3.79722E+00
  -5.84326E-01  1.31788E+00  2.62367E+00 -4.87087E-01  8.35615E-01 -6.62545E-02  1.68516E-01  2.40185E+00 -2.63792E+00 -2.00192E+00
  -1.38715E+00 -5.50859E-01 -1.06745E+00 -1.72441E+00 -3.52078E+00 -2.77088E+00 -3.68015E+00 -3.73588E+00 -5.47689E+00 -5.95181E+00
  -8.69349E+00 -5.92370E+00 -6.33650E+00 -4.57999E+00 -7.74850E+00 -4.92935E+00 -7.62288E+00 -2.86467E+00 -3.84892E+00 -4.34745E+00
  -6.66507E+00 -5.04452E+00 -5.65470E+00 -2.78623E+00 -7.62851E-01 -1.06647E-01 -1.36063E+00 -6.82713E-01 -3.76958E+00 -1.64517E+00
  -2.28127E+00  3.49260E-01  2.82733E-01  6.41867E-01 -2.67808E+00  1.65742E+00 -1.71301E+00  1.12105E+00  2.50293E+00 -2.03758E-01
  -3.78432E-01  3.83131E+00  2.02003E+00  3.25457E+00  1.78705E+00  3.06040E+00  2.07530E+00  2.80642E+00  2.51816E+00 -4.80240E-01
   3.49943E+00  3.80321E+00  1.35986E+00  3.17826E+00 -1.47084E+00 -7.74556E-01 -8.57424E-01 -3.59350E+00 -7.61887E-02 -4.85617E+00
  -1.81444E+00  1.75313E+00 -2.69892E-01 -3.04452E+00 -5.07302E-01 -5.89598E+00 -3.85434E+00 -2.30272E+00 -4.64655E+00 -2.67541E+00
  -4.32534E+00 -5.07810E+00 -2.40446E+00 -5.13961E+00 -3.37355E+00 -2.86639E+00 -2.93545E+00 -4.12614E+00 -3.45026E+00 -4.98175E+00
  -3.35310E+00 -2.70672E+00 -8.92349E-01 -6.88779E+00 -5.43759E+00 -1.84446E+00 -2.45980E+00 -9.82903E-01 -1.68192E+00 -1.32236E+00
  -3.33382E+00 -3.92432E+00 -3.03106E+00 -2.52899E+00 -4.67302E+00  3.74576E-01 -3.97613E+00  5.62780E-03  1.52430E-01 -6.35948E+00
   4.17755E-01 -2.74470E+00 -1.71543E+00 -3.49504E+00 -2.77638E+00 -2.69713E+00 -3.73520E+00 -9.24150E-01 -1.84069E+00 -2.45892E+00
  -3.14032E+00 -2.42340E+00 -3.69751E+00 -2.89132E+00 -2.97450E+00 -1.41177E+00 -4.79593E+00 -3.79281E+00 -6.12369E+00 -3.32163E+00
  -2.21639E+00 -8.31176E-01 -2.49693E+00 -2.03261E+00 -2.72403E+00 -9.69614E-01 -1.16355E+00 -1.49673E+00 -4.04303E+00 -4.35042E+00
   8.86431E-01  2.10266E-01 -9.71933E-01  1.88102E+00 -1.45956E+00 -2.11164E-01 -3.09760E+00 -5.83713E-01
 NY points of the fit to the data follow
   2.62717E+00  2.57821E+00  2.59990E+00  2.81474E+00  3.19329E+00  3.66869E+00  4.32743E+00  5.06966E+00  5.68687E+00  6.02229E+00
   6.02277E+00  5.76676E+00  5.33395E+00  4.84315E+00  4.41423E+00  4.07483E+00  3.85913E+00  3.72876E+00  3.52355E+00  3.35847E+00
   3.21927E+00  3.10553E+00  3.09477E+00  2.97947E+00  3.03591E+00  3.30848E+00  3.86917E+00  4.80670E+00  5.85533E+00  6.70496E+00
   7.08302E+00  6.97916E+00  6.49204E+00  5.65325E+00  4.74812E+00  4.09225E+00  3.74690E+00  3.66340E+00  3.62330E+00  3.52546E+00
   3.58137E+00  3.72073E+00  4.11761E+00  4.74118E+00  5.48275E+00  6.18096E+00  6.51703E+00  6.35959E+00  5.82249E+00  5.11799E+00
   4.42523E+00  3.82856E+00  3.41578E+00  3.35302E+00  3.55359E+00  3.72175E+00  3.75747E+00  3.82660E+00  3.98083E+00  4.05776E+00
   3.95544E+00  3.75673E+00  3.50522E+00  3.30110E+00  3.18855E+00  3.17659E+00  3.30568E+00  3.51539E+00  3.67272E+00  3.76482E+00
   3.83147E+00  3.90100E+00  3.95517E+00  4.00020E+00  4.01523E+00  3.92759E+00  3.73833E+00  3.55826E+00  3.43985E+00  3.37733E+00
   3.33863E+00  3.41640E+00  3.58602E+00  3.73898E+00  3.76849E+00  3.61451E+00  3.33643E+00  3.03715E+00  2.83702E+00  2.72576E+00
   2.68038E+00  2.69750E+00  2.74243E+00  2.83056E+00  3.02415E+00  3.47500E+00  3.71386E+00  4.57033E+00  6.50497E+00  9.07432E+00
   1.19252E+01  1.44129E+01  1.56224E+01  1.51854E+01  1.35910E+01  1.16071E+01  9.45238E+00  7.47097E+00  6.15445E+00  5.76721E+00
   5.87757E+00  5.54856E+00  4.33165E+00  3.56469E+00  3.37944E+00  3.31101E+00  3.28976E+00  3.30401E+00  3.53773E+00  4.25125E+00
   4.75578E+00  5.90371E+00  8.32067E+00  1.15275E+01  1.50479E+01  1.81041E+01  1.95781E+01  1.90586E+01  1.72308E+01  1.49571E+01
   1.23848E+01  9.96776E+00  8.23239E+00  7.42920E+00  7.12722E+00  6.38480E+00  4.80790E+00  3.95086E+00  3.91787E+00  4.07333E+00
   4.20690E+00  4.22909E+00  4.09732E+00  3.92197E+00  3.77991E+00  3.63680E+00  3.51751E+00  3.42281E+00  3.29588E+00  3.13229E+00
   2.93799E+00  2.77071E+00  2.64765E+00  2.54918E+00  2.48278E+00  2.43207E+00  2.33422E+00  2.18547E+00  1.97250E+00  1.74295E+00
   1.59926E+00  1.56877E+00  1.62986E+00  1.73588E+00  1.79853E+00  1.75908E+00  1.62864E+00  1.43658E+00  1.21064E+00  1.03063E+00
   9.69597E-01  9.09710E-01  7.66807E-01  5.70431E-01  3.61231E-01  2.63447E-01  2.87022E-01  3.35354E-01  3.68592E-01  3.68384E-01
   3.80888E-01  4.38528E-01  4.75730E-01  5.17257E-01  6.56065E-01  9.56758E-01  1.40742E+00  1.88407E+00  2.28656E+00  2.59055E+00
   2.75404E+00  2.73549E+00  2.47799E+00  2.10005E+00  1.76820E+00  1.63104E+00  1.82672E+00  2.28200E+00  2.80562E+00  3.39475E+00
   3.94353E+00  4.32346E+00  4.46974E+00  4.41560E+00  3.90334E+00  2.98381E+00  1.97269E+00  1.11414E+00  5.53610E-01  4.33516E-01
   7.72874E-01  1.47658E+00  2.32209E+00  3.14558E+00  3.75119E+00  4.02044E+00  3.94066E+00  3.65850E+00  3.39174E+00  3.23799E+00
   3.00648E+00  2.94922E+00  3.27330E+00  3.78262E+00  4.22114E+00  4.47661E+00  4.58201E+00  4.57076E+00  4.41846E+00  4.29209E+00
   4.24249E+00  4.38782E+00  4.72173E+00  5.06907E+00  5.39282E+00  5.82531E+00  6.30311E+00  6.59346E+00  6.63783E+00  6.56665E+00
   6.42988E+00  6.20346E+00  6.01966E+00  6.06367E+00  6.35461E+00  6.79927E+00  7.22519E+00  7.72336E+00  8.33699E+00  8.79026E+00
   9.34970E+00  1.04004E+01  1.21836E+01  1.44058E+01  1.60234E+01  1.86391E+01  2.25776E+01  2.71209E+01  3.17116E+01  3.49075E+01
   3.51755E+01  3.24876E+01  2.82415E+01  2.36063E+01  1.86130E+01  1.41074E+01  1.13671E+01  1.05075E+01  1.01770E+01  8.60566E+00
   5.91283E+00  4.60853E+00  4.16629E+00  3.89041E+00  3.65940E+00  3.43773E+00  3.18782E+00  2.93073E+00  2.69186E+00  2.47834E+00
   2.29127E+00  2.14447E+00  2.02838E+00  1.92791E+00  1.84656E+00  1.78298E+00  1.73924E+00  1.72166E+00  1.73040E+00  1.76970E+00
   1.84770E+00  1.96020E+00  2.10514E+00  2.28398E+00  2.49560E+00  2.73769E+00  3.01356E+00  3.32429E+00  3.66674E+00  4.03738E+00
   4.42501E+00  4.81251E+00  5.19074E+00  5.55136E+00  5.87989E+00  6.16542E+00  6.39959E+00  6.57876E+00  6.70005E+00  6.76012E+00
   6.76043E+00  6.70721E+00  6.60726E+00  6.47083E+00  6.30865E+00  6.13297E+00  5.95509E+00  5.78689E+00  5.63950E+00  5.52385E+00
   5.42571E+00  5.36282E+00  5.35059E+00  5.34980E+00  5.33078E+00  5.27002E+00  5.14435E+00  4.97597E+00  4.79297E+00  4.60794E+00
   4.45893E+00  4.36155E+00  4.32074E+00  4.32158E+00  4.30696E+00  4.20374E+00  3.98919E+00  3.72914E+00  3.44529E+00  3.10822E+00
   2.74343E+00  2.38847E+00  2.07045E+00  1.78462E+00  1.49063E+00  1.19326E+00  9.45281E-01  7.47315E-01  5.94490E-01  4.83409E-01
   4.06851E-01  3.55047E-01  3.14451E-01  2.71181E-01  2.11208E-01  1.24442E-01  4.60491E-03 -1.47980E-01 -3.28500E-01 -5.27063E-01
  -7.32594E-01 -9.33140E-01 -1.11957E+00 -1.28486E+00 -1.42629E+00 -1.54327E+00 -1.63838E+00 -1.71458E+00 -1.77615E+00 -1.82615E+00
  -1.86786E+00 -1.90279E+00 -1.93263E+00 -1.95742E+00 -1.97764E+00 -1.99238E+00 -2.00137E+00 -2.00324E+00 -1.99738E+00 -1.98214E+00
  -1.95664E+00 -1.91897E+00 -1.86801E+00 -1.80165E+00 -1.71868E+00 -1.61691E+00 -1.49513E+00 -1.35136E+00 -1.18474E+00 -9.93950E-01
  -7.79083E-01 -5.40014E-01 -2.78353E-01  4.22778E-03  3.04044E-01  6.17163E-01  9.37595E-01  1.25921E+00  1.57406E+00  1.87444E+00
   2.15137E+00  2.39677E+00  2.60213E+00  2.76067E+00  2.86601E+00  2.91423E+00  2.90240E+00  2.83049E+00  2.69967E+00  2.51397E+00
   2.27830E+00  1.99994E+00  1.68635E+00  1.34656E+00  9.88955E-01  6.22633E-01  2.55254E-01 -1.05487E-01 -4.53852E-01 -7.84391E-01
  -1.09377E+00 -1.37896E+00 -1.63896E+00 -1.87287E+00 -2.08149E+00 -2.26538E+00 -2.42644E+00 -2.56602E+00 -2.68653E+00 -2.78957E+00
  -2.87758E+00 -2.95201E+00 -3.01505E+00 -3.06785E+00 -3.11228E+00 -3.14913E+00 -3.17993E+00 -3.20513E+00 -3.22594E+00 -3.24259E+00
  -3.25608E+00 -3.26642E+00 -3.27444E+00 -3.28002E+00 -3.28386E+00 -3.28577E+00 -3.28638E+00 -3.28542E+00 -3.28346E+00 -3.28019E+00
  -3.27614E+00 -3.27098E+00 -3.26523E+00 -3.25851E+00 -3.25133E+00 -3.24328E+00 -3.23486E+00 -3.22569E+00 -3.21623E+00 -3.20608E+00
  -3.19571E+00 -3.18469E+00 -3.17350E+00 -3.16174E+00 -3.14985E+00 -3.13742E+00 -3.12489E+00 -3.11185E+00 -3.09877E+00 -3.08522E+00
  -3.07163E+00 -3.05760E+00 -3.04356E+00 -3.02909E+00 -3.01465E+00 -2.99981E+00 -2.98501E+00 -2.96982E+00 -2.95468E+00 -2.93918E+00
  -2.92375E+00 -2.90798E+00 -2.89228E+00 -2.87625E+00 -2.86031E+00 -2.84405E+00 -2.82790E+00 -2.81143E+00 -2.79507E+00 -2.77840E+00
  -2.76186E+00 -2.74501E+00 -2.72829E+00 -2.71126E+00 -2.69436E+00 -2.67714E+00 -2.66004E+00 -2.64264E+00
 NY background values follow
     1.511E+00    1.521E+00    1.531E+00    1.540E+00    1.550E+00    1.560E+00    1.570E+00    1.580E+00    1.590E+00    1.600E+00
     1.609E+00    1.619E+00    1.629E+00    1.639E+00    1.649E+00    1.658E+00    1.668E+00    1.678E+00    1.687E+00    1.697E+00
     1.707E+00    1.716E+00    1.726E+00    1.735E+00    1.745E+00    1.754E+00    1.764E+00    1.773E+00    1.782E+00    1.791E+00
     1.801E+00    1.810E+00    1.819E+00    1.828E+00    1.837E+00    1.846E+00    1.854E+00    1.863E+00    1.872E+00    1.880E+00
     1.889E+00    1.897E+00    1.906E+00    1.914E+00    1.922E+00    1.930E+00    1.938E+00    1.946E+00    1.954E+00    1.962E+00
     1.969E+00    1.977E+00    1.984E+00    1.992E+00    1.999E+00    2.006E+00    2.013E+00    2.020E+00    2.027E+00    2.033E+00
     2.040E+00    2.046E+00    2.053E+00    2.059E+00    2.065E+00    2.071E+00    2.077E+00    2.083E+00    2.088E+00    2.094E+00
     2.099E+00    2.105E+00    2.110E+00    2.115E+00    2.120E+00    2.125E+00    2.129E+00    2.134E+00    2.138E+00    2.142E+00
     2.147E+00    2.151E+00    2.154E+00    2.158E+00    2.162E+00    2.165E+00    2.169E+00    2.172E+00    2.175E+00    2.178E+00
     2.180E+00    2.183E+00    2.185E+00    2.188E+00    2.190E+00    2.192E+00    2.193E+00    2.195E+00    2.197E+00    2.198E+00
     2.199E+00    2.200E+00    2.201E+00    2.202E+00    2.203E+00    2.203E+00    2.204E+00    2.204E+00    2.204E+00    2.204E+00
     2.204E+00    2.204E+00    2.203E+00    2.203E+00    2.202E+00    2.201E+00    2.200E+00    2.199E+00    2.198E+00    2.197E+00
     2.195E+00    2.193E+00    2.192E+00    2.190E+00    2.188E+00    2.185E+00    2.183E+00    2.181E+00    2.178E+00    2.176E+00
     2.173E+00    2.170E+00    2.167E+00    2.164E+00    2.160E+00    2.157E+00    2.153E+00    2.150E+00    2.146E+00    2.142E+00
     2.138E+00    2.134E+00    2.130E+00    2.125E+00    2.121E+00    2.116E+00    2.112E+00    2.107E+00    2.102E+00    2.097E+00
     2.092E+00    2.087E+00    2.082E+00    2.076E+00    2.071E+00    2.066E+00    2.060E+00    2.054E+00    2.049E+00    2.043E+00
     2.037E+00    2.031E+00    2.025E+00    2.019E+00    2.013E+00    2.007E+00    2.001E+00    1.995E+00    1.989E+00    1.983E+00
     1.976E+00    1.970E+00    1.963E+00    1.957E+00    1.951E+00    1.944E+00    1.938E+00    1.931E+00    1.925E+00    1.918E+00
     1.911E+00    1.905E+00    1.898E+00    1.891E+00    1.885E+00    1.878E+00    1.871E+00    1.865E+00    1.858E+00    1.851E+00
     1.844E+00    1.837E+00    1.830E+00    1.823E+00    1.815E+00    1.808E+00    1.800E+00    1.793E+00    1.785E+00    1.777E+00
     1.769E+00    1.761E+00    1.753E+00    1.745E+00    1.736E+00    1.727E+00    1.719E+00    1.710E+00    1.700E+00    1.691E+00
     1.681E+00    1.672E+00    1.662E+00    1.651E+00    1.641E+00    1.630E+00    1.619E+00    1.608E+00    1.597E+00    1.585E+00
     1.573E+00    1.561E+00    1.549E+00    1.536E+00    1.523E+00    1.510E+00    1.497E+00    1.483E+00    1.469E+00    1.454E+00
     1.439E+00    1.424E+00    1.409E+00    1.393E+00    1.377E+00    1.361E+00    1.345E+00    1.328E+00    1.311E+00    1.293E+00
     1.275E+00    1.257E+00    1.238E+00    1.220E+00    1.201E+00    1.181E+00    1.161E+00    1.141E+00    1.121E+00    1.100E+00
     1.079E+00    1.057E+00    1.036E+00    1.014E+00    9.911E-01    9.683E-01    9.452E-01    9.218E-01    8.980E-01    8.738E-01
     8.493E-01    8.245E-01    7.993E-01    7.737E-01    7.479E-01    7.216E-01    6.950E-01    6.681E-01    6.408E-01    6.131E-01
     5.851E-01    5.567E-01    5.279E-01    4.988E-01    4.694E-01    4.396E-01    4.095E-01    3.790E-01    3.482E-01    3.171E-01
     2.857E-01    2.539E-01    2.219E-01    1.896E-01    1.570E-01    1.241E-01    9.091E-02    5.747E-02    2.376E-02   -1.020E-02
    -4.441E-02   -7.887E-02   -1.136E-01   -1.485E-01   -1.837E-01   -2.190E-01   -2.546E-01   -2.904E-01   -3.264E-01   -3.626E-01
    -3.990E-01   -4.356E-01   -4.723E-01   -5.092E-01   -5.463E-01   -5.835E-01   -6.209E-01   -6.585E-01   -6.961E-01   -7.339E-01
    -7.719E-01   -8.099E-01   -8.481E-01   -8.864E-01   -9.248E-01   -9.632E-01   -1.002E+00   -1.040E+00   -1.079E+00   -1.118E+00
    -1.157E+00   -1.196E+00   -1.235E+00   -1.273E+00   -1.312E+00   -1.351E+00   -1.390E+00   -1.429E+00   -1.468E+00   -1.506E+00
    -1.545E+00   -1.583E+00   -1.622E+00   -1.660E+00   -1.698E+00   -1.736E+00   -1.774E+00   -1.811E+00   -1.849E+00   -1.886E+00
    -1.923E+00   -1.960E+00   -1.996E+00   -2.033E+00   -2.069E+00   -2.105E+00   -2.140E+00   -2.175E+00   -2.210E+00   -2.245E+00
    -2.279E+00   -2.313E+00   -2.346E+00   -2.379E+00   -2.412E+00   -2.444E+00   -2.476E+00   -2.507E+00   -2.538E+00   -2.569E+00
    -2.599E+00   -2.628E+00   -2.657E+00   -2.686E+00   -2.714E+00   -2.741E+00   -2.768E+00   -2.795E+00   -2.820E+00   -2.846E+00
    -2.871E+00   -2.895E+00   -2.919E+00   -2.942E+00   -2.965E+00   -2.988E+00   -3.009E+00   -3.031E+00   -3.051E+00   -3.072E+00
    -3.091E+00   -3.110E+00   -3.129E+00   -3.147E+00   -3.165E+00   -3.182E+00   -3.198E+00   -3.214E+00   -3.229E+00   -3.244E+00
    -3.258E+00   -3.272E+00   -3.285E+00   -3.298E+00   -3.310E+00   -3.322E+00   -3.333E+00   -3.343E+00   -3.353E+00   -3.362E+00
    -3.371E+00   -3.379E+00   -3.387E+00   -3.394E+00   -3.401E+00   -3.406E+00   -3.412E+00   -3.417E+00   -3.421E+00   -3.425E+00
    -3.428E+00   -3.430E+00   -3.432E+00   -3.434E+00   -3.435E+00   -3.436E+00   -3.436E+00   -3.435E+00   -3.434E+00   -3.433E+00
    -3.431E+00   -3.428E+00   -3.426E+00   -3.422E+00   -3.419E+00   -3.415E+00   -3.410E+00   -3.405E+00   -3.400E+00   -3.394E+00
    -3.388E+00   -3.381E+00   -3.374E+00   -3.367E+00   -3.360E+00   -3.352E+00   -3.343E+00   -3.335E+00   -3.326E+00   -3.317E+00
    -3.307E+00   -3.297E+00   -3.287E+00   -3.277E+00   -3.266E+00   -3.255E+00   -3.244E+00   -3.233E+00   -3.221E+00   -3.209E+00
    -3.197E+00   -3.184E+00   -3.172E+00   -3.159E+00   -3.146E+00   -3.133E+00   -3.120E+00   -3.106E+00   -3.093E+00   -3.079E+00
    -3.065E+00   -3.051E+00   -3.036E+00   -3.022E+00   -3.007E+00   -2.992E+00   -2.977E+00   -2.962E+00   -2.947E+00   -2.932E+00
    -2.917E+00   -2.901E+00   -2.886E+00   -2.870E+00   -2.854E+00   -2.838E+00   -2.822E+00   -2.806E+00   -2.790E+00   -2.774E+00
    -2.758E+00   -2.742E+00   -2.725E+00   -2.709E+00   -2.693E+00   -2.676E+00   -2.660E+00   -2.643E+00   -2.627E+00   -2.610E+00
    -2.594E+00   -2.577E+00   -2.560E+00   -2.544E+00   -2.527E+00   -2.511E+00   -2.494E+00   -2.478E+00
 Ala      Conc. = 3.55E+01
