 LCModel (Version 6.3-1L) Copyright: S.W. Provencher.          Ref.: Magn. Reson. Med. 30:672-679 (1993).                
 Slice#1 Row#12 Col#4  PD_05_press_1_raw_act
 36 lines in following concentration table = NCONC+1
    Conc.  %SD /Cr+PCr  Metabolite                                         
   69.970  60%   0.349 Ala                                                 
   43.525 103%   0.217 Asp                                                 
    0.000 999%   0.000 Cr                                                  
  200.544  12%   1.000 PCr                                                 
   16.582 165% 8.3E-02 GABA                                                
   26.886 102%   0.134 Glc                                                 
   70.106 121%   0.350 Gln                                                 
  204.323  47%   1.019 Glu                                                 
    0.000 999%   0.000 GPC                                                 
   55.495  15%   0.277 PCh                                                 
  115.837  26%   0.578 GSH                                                 
  428.060  24%   2.134 Ins                                                 
   63.858  72%   0.318 Lac                                                 
  403.017   9%   2.010 NAA                                                 
   43.764  86%   0.218 NAAG                                                
   13.033  58% 6.5E-02 Scyllo                                              
   82.328  53%   0.411 Tau                                                 
  187.366  20%   0.934 -CrCH2                                              
   55.495  15%   0.277 GPC+PCh                                             
  446.781   8%   2.228 NAA+NAAG                                            
  200.544  12%   1.000 Cr+PCr                                              
  274.429  47%   1.368 Glu+Gln                                             
  922.081  18%   4.598 Lip13a                                              
    0.000 999%   0.000 Lip13b                                              
  132.201  70%   0.659 Lip09                                               
  273.618  34%   1.364 MM09                                                
  105.222  66%   0.525 Lip20                                               
  394.681  36%   1.968 MM20                                                
   91.651  44%   0.457 MM12                                                
  243.596  44%   1.215 MM14                                                
  256.430  25%   1.279 MM17                                                
  922.081  18%   4.598 Lip13a+Lip13b                                       
 1.26E+03  15%   6.270 MM14+Lip13a+Lip13b+MM12                             
  405.819  19%   2.024 MM09+Lip09                                          
  499.903  29%   2.493 MM20+Lip20                                          
   6 lines in following misc. output table
  FWHM = 0.054 ppm    S/N =   5                                            
  Data shift = 0.000 ppm                                                   
  Ph: -17 deg      -1.7 deg/ppm                                            
  alphaB,S = 1.2E+00,   1.1E+01                                            
   14 spline knots.   Ns = 6(1)                                            
  ( 8) 3 infls.   (10) 1 extrs.                                            
  498 points on ppm-axis = NY
      4.000000     3.992357     3.984714     3.977070     3.969427     3.961784     3.954141     3.946497     3.938854     3.931211
      3.923568     3.915925     3.908281     3.900638     3.892995     3.885352     3.877708     3.870065     3.862422     3.854779
      3.847136     3.839492     3.831849     3.824206     3.816563     3.808919     3.801276     3.793633     3.785990     3.778347
      3.770703     3.763060     3.755417     3.747774     3.740130     3.732487     3.724844     3.717201     3.709558     3.701914
      3.694271     3.686628     3.678985     3.671341     3.663698     3.656055     3.648412     3.640769     3.633125     3.625482
      3.617839     3.610196     3.602552     3.594909     3.587266     3.579623     3.571980     3.564336     3.556693     3.549050
      3.541407     3.533763     3.526120     3.518477     3.510834     3.503191     3.495547     3.487904     3.480261     3.472618
      3.464974     3.457331     3.449688     3.442045     3.434402     3.426758     3.419115     3.411472     3.403829     3.396185
      3.388542     3.380899     3.373256     3.365613     3.357969     3.350326     3.342683     3.335040     3.327396     3.319753
      3.312110     3.304467     3.296824     3.289180     3.281537     3.273894     3.266251     3.258607     3.250964     3.243321
      3.235678     3.228034     3.220391     3.212748     3.205105     3.197462     3.189818     3.182175     3.174532     3.166889
      3.159245     3.151602     3.143959     3.136316     3.128673     3.121029     3.113386     3.105743     3.098100     3.090456
      3.082813     3.075170     3.067527     3.059884     3.052240     3.044597     3.036954     3.029311     3.021667     3.014024
      3.006381     2.998738     2.991095     2.983451     2.975808     2.968165     2.960522     2.952878     2.945235     2.937592
      2.929949     2.922306     2.914662     2.907019     2.899376     2.891733     2.884089     2.876446     2.868803     2.861160
      2.853517     2.845873     2.838230     2.830587     2.822944     2.815300     2.807657     2.800014     2.792371     2.784728
      2.777084     2.769441     2.761798     2.754155     2.746511     2.738868     2.731225     2.723582     2.715939     2.708295
      2.700652     2.693009     2.685366     2.677722     2.670079     2.662436     2.654793     2.647150     2.639506     2.631863
      2.624220     2.616577     2.608933     2.601290     2.593647     2.586004     2.578361     2.570717     2.563074     2.555431
      2.547788     2.540144     2.532501     2.524858     2.517215     2.509572     2.501928     2.494285     2.486642     2.478999
      2.471355     2.463712     2.456069     2.448426     2.440783     2.433139     2.425496     2.417853     2.410210     2.402566
      2.394923     2.387280     2.379637     2.371994     2.364350     2.356707     2.349064     2.341421     2.333777     2.326134
      2.318491     2.310848     2.303205     2.295561     2.287918     2.280275     2.272632     2.264988     2.257345     2.249702
      2.242059     2.234416     2.226772     2.219129     2.211486     2.203843     2.196199     2.188556     2.180913     2.173270
      2.165627     2.157983     2.150340     2.142697     2.135054     2.127410     2.119767     2.112124     2.104481     2.096838
      2.089194     2.081551     2.073908     2.066265     2.058621     2.050978     2.043335     2.035692     2.028049     2.020405
      2.012762     2.005119     1.997476     1.989833     1.982190     1.974546     1.966903     1.959260     1.951617     1.943974
      1.936331     1.928688     1.921045     1.913402     1.905759     1.898115     1.890472     1.882829     1.875186     1.867543
      1.859900     1.852257     1.844614     1.836971     1.829327     1.821684     1.814041     1.806398     1.798755     1.791112
      1.783469     1.775826     1.768183     1.760540     1.752896     1.745253     1.737610     1.729967     1.722324     1.714681
      1.707038     1.699395     1.691752     1.684108     1.676465     1.668822     1.661179     1.653536     1.645893     1.638250
      1.630607     1.622964     1.615321     1.607677     1.600034     1.592391     1.584748     1.577105     1.569462     1.561819
      1.554176     1.546533     1.538890     1.531246     1.523603     1.515960     1.508317     1.500674     1.493031     1.485388
      1.477745     1.470102     1.462458     1.454815     1.447172     1.439529     1.431886     1.424243     1.416600     1.408957
      1.401314     1.393671     1.386027     1.378384     1.370741     1.363098     1.355455     1.347812     1.340169     1.332526
      1.324883     1.317240     1.309596     1.301953     1.294310     1.286667     1.279024     1.271381     1.263738     1.256095
      1.248452     1.240808     1.233165     1.225522     1.217879     1.210236     1.202593     1.194950     1.187307     1.179664
      1.172021     1.164377     1.156734     1.149091     1.141448     1.133805     1.126162     1.118519     1.110876     1.103233
      1.095590     1.087946     1.080303     1.072660     1.065017     1.057374     1.049731     1.042088     1.034445     1.026802
      1.019158     1.011515     1.003872     0.996229     0.988586     0.980943     0.973300     0.965657     0.958014     0.950371
      0.942727     0.935084     0.927441     0.919798     0.912155     0.904512     0.896869     0.889226     0.881583     0.873940
      0.866296     0.858653     0.851010     0.843367     0.835724     0.828081     0.820438     0.812795     0.805152     0.797508
      0.789865     0.782222     0.774579     0.766936     0.759293     0.751650     0.744007     0.736364     0.728721     0.721077
      0.713434     0.705791     0.698148     0.690505     0.682862     0.675219     0.667576     0.659933     0.652290     0.644646
      0.637003     0.629360     0.621717     0.614074     0.606431     0.598788     0.591145     0.583502     0.575858     0.568215
      0.560572     0.552929     0.545286     0.537643     0.530000     0.522357     0.514714     0.507071     0.499427     0.491784
      0.484141     0.476498     0.468855     0.461212     0.453569     0.445925     0.438282     0.430639     0.422996     0.415353
      0.407710     0.400067     0.392424     0.384780     0.377137     0.369494     0.361851     0.354208     0.346565     0.338922
      0.331278     0.323635     0.315992     0.308349     0.300706     0.293063     0.285420     0.277777     0.270133     0.262490
      0.254847     0.247204     0.239561     0.231918     0.224275     0.216631     0.208988     0.201345
 NY phased data points follow
  -3.34723E+01 -3.42856E+01 -3.09467E+01 -3.40966E+01 -3.14139E+01 -2.99549E+01 -3.19754E+01 -2.82641E+01 -2.86918E+01 -2.61444E+01
  -2.75836E+01 -2.82946E+01 -2.93005E+01 -2.87375E+01 -2.88777E+01 -2.81348E+01 -2.88993E+01 -2.95572E+01 -2.99441E+01 -2.78881E+01
  -2.83632E+01 -2.55509E+01 -2.53139E+01 -2.69921E+01 -2.48764E+01 -2.52266E+01 -2.32191E+01 -2.42234E+01 -2.44179E+01 -2.22409E+01
  -2.02002E+01 -2.22004E+01 -2.08172E+01 -2.22750E+01 -2.13625E+01 -2.31544E+01 -2.32630E+01 -2.44750E+01 -2.42582E+01 -2.10487E+01
  -2.38144E+01 -2.10015E+01 -1.97413E+01 -2.30900E+01 -2.06228E+01 -1.96912E+01 -1.86529E+01 -2.13611E+01 -2.09591E+01 -2.23366E+01
  -2.25273E+01 -2.14957E+01 -2.10237E+01 -1.99122E+01 -1.99968E+01 -1.86713E+01 -1.83778E+01 -1.76280E+01 -1.92571E+01 -1.83397E+01
  -1.90060E+01 -1.97965E+01 -1.86237E+01 -2.09429E+01 -2.16187E+01 -2.11289E+01 -2.10268E+01 -1.81815E+01 -1.80715E+01 -1.85692E+01
  -1.82085E+01 -1.80723E+01 -1.54949E+01 -2.03979E+01 -1.75727E+01 -1.94880E+01 -1.71524E+01 -1.82828E+01 -1.77803E+01 -1.79733E+01
  -1.90896E+01 -1.94821E+01 -1.78578E+01 -2.03120E+01 -1.88709E+01 -1.62651E+01 -1.54967E+01 -1.73219E+01 -1.77716E+01 -1.69676E+01
  -1.44696E+01 -1.59125E+01 -1.76354E+01 -1.64425E+01 -1.34874E+01 -1.61457E+01 -1.33041E+01 -1.51853E+01 -1.28932E+01 -1.34507E+01
  -1.32192E+01 -1.29193E+01 -1.10234E+01 -1.05468E+01 -1.14486E+01 -1.17795E+01 -1.42151E+01 -1.28910E+01 -1.62479E+01 -1.28888E+01
  -1.44984E+01 -1.28908E+01 -1.51905E+01 -1.57830E+01 -1.14429E+01 -1.24188E+01 -1.48316E+01 -1.15697E+01 -1.52328E+01 -1.22734E+01
  -1.45115E+01 -1.16038E+01 -1.14121E+01 -1.10211E+01 -8.66460E+00 -8.93135E+00 -3.80030E+00 -9.84695E+00 -7.27775E+00 -4.78504E+00
  -1.14766E+01 -9.81138E+00 -1.29194E+01 -1.43365E+01 -1.16955E+01 -1.23389E+01 -1.22289E+01 -1.15286E+01 -1.04603E+01 -1.44748E+01
  -1.21848E+01 -1.26579E+01 -1.39300E+01 -1.19936E+01 -1.25004E+01 -1.39851E+01 -1.11163E+01 -1.44152E+01 -1.22153E+01 -1.33532E+01
  -1.46306E+01 -1.52254E+01 -1.19993E+01 -1.34387E+01 -1.32224E+01 -1.04418E+01 -1.18165E+01 -1.19072E+01 -1.38424E+01 -1.33420E+01
  -1.31806E+01 -1.41728E+01 -1.04800E+01 -1.32969E+01 -1.05291E+01 -1.21416E+01 -1.24089E+01 -1.25814E+01 -1.15283E+01 -1.35874E+01
  -1.27596E+01 -1.30539E+01 -1.15396E+01 -1.54263E+01 -1.57909E+01 -1.33634E+01 -1.23429E+01 -1.10756E+01 -1.31020E+01 -1.31006E+01
  -1.12400E+01 -1.11703E+01 -1.49081E+01 -1.31997E+01 -7.20993E+00 -1.14892E+01 -1.26552E+01 -1.24659E+01 -1.04594E+01 -1.26169E+01
  -1.06398E+01 -1.23979E+01 -1.22437E+01 -9.66451E+00 -1.20138E+01 -1.19759E+01 -1.36982E+01 -1.35259E+01 -1.27842E+01 -1.30815E+01
  -1.16497E+01 -1.00542E+01 -1.14088E+01 -1.28656E+01 -8.48965E+00 -1.00642E+01 -1.06012E+01 -1.13467E+01 -1.09590E+01 -1.21733E+01
  -1.09459E+01 -8.24797E+00 -9.54672E+00 -9.96630E+00 -1.17129E+01 -8.91322E+00 -8.72830E+00 -9.67563E+00 -1.17646E+01 -9.64809E+00
  -1.20255E+01 -1.23719E+01 -1.11696E+01 -1.06116E+01 -1.05363E+01 -1.07786E+01 -9.34724E+00 -9.33606E+00 -8.27680E+00 -9.83211E+00
  -9.82446E+00 -1.11854E+01 -9.59840E+00 -8.18125E+00 -1.23074E+01 -9.21816E+00 -8.19321E+00 -9.33381E+00 -8.30884E+00 -9.42893E+00
  -7.80086E+00 -9.73206E+00 -8.63383E+00 -1.03292E+01 -8.34927E+00 -8.59130E+00 -8.79399E+00 -7.56789E+00 -8.98313E+00 -7.05729E+00
  -5.53986E+00 -5.20761E+00 -3.51835E+00 -4.90216E+00 -1.57210E+00 -3.06550E+00 -6.17199E-01  4.96712E+00  3.25785E+00  7.69572E+00
   8.65818E+00  6.14187E+00  4.37880E+00 -6.10444E-01 -5.02844E+00 -7.75963E+00 -7.82112E+00 -6.84497E+00 -6.75676E+00 -7.25697E+00
  -7.84830E+00 -7.89044E+00 -9.20601E+00 -9.17736E+00 -8.02904E+00 -6.52390E+00 -7.49200E+00 -7.06222E+00 -8.13917E+00 -7.39308E+00
  -8.47624E+00 -8.41355E+00 -7.09971E+00 -8.67668E+00 -1.10252E+01 -6.59443E+00 -5.77744E+00 -6.96649E+00 -6.69183E+00 -7.44589E+00
  -1.20703E+01 -1.03836E+01 -7.75358E+00 -8.27565E+00 -7.05150E+00 -6.57186E+00 -7.72167E+00 -7.73229E+00 -7.00185E+00 -6.87471E+00
  -4.44683E+00 -6.46245E+00 -6.28879E+00 -5.89052E+00 -5.76265E+00 -4.54117E+00 -3.80518E+00 -4.24296E+00 -4.91130E+00 -3.40152E+00
  -7.49689E+00 -2.92805E+00 -3.36644E+00 -4.17500E+00 -5.38269E+00 -5.13030E+00 -6.47356E+00 -6.25196E+00 -4.14442E+00 -7.19871E+00
  -3.84645E+00 -3.17374E-01 -4.25523E+00 -4.23199E+00 -4.51830E+00 -4.99531E+00 -3.89415E+00 -7.21884E+00 -3.74419E+00 -7.33785E+00
  -5.82216E+00 -4.20546E+00 -6.13732E+00 -4.07133E+00 -4.09149E+00 -7.14228E+00 -3.28107E+00 -3.99687E+00 -4.38347E+00 -3.95566E+00
  -2.14536E+00 -2.65624E+00 -3.77957E+00 -3.33066E+00 -1.32827E+00 -3.04185E+00 -1.95615E+00 -4.86989E+00 -4.91684E+00 -2.87760E+00
  -2.91852E+00 -3.35594E+00 -3.21675E+00 -2.70203E+00 -3.68703E-01  1.93209E+00 -3.61761E+00 -3.65669E+00 -1.83627E+00 -1.47695E+00
  -1.74342E+00 -3.29227E+00 -3.44187E+00 -2.06568E+00 -2.45364E+00 -4.88151E+00 -1.82642E+00 -2.73423E+00 -4.54899E+00 -7.73716E-01
  -1.52739E+00 -3.01545E+00 -3.21726E+00 -1.93861E+00 -4.25575E+00 -1.58028E-01 -2.36906E+00 -2.76848E+00 -1.77123E+00 -5.85646E+00
  -1.79634E+00 -2.74644E+00 -7.38653E-01 -4.73202E+00 -1.46259E+00 -5.98716E+00 -1.76856E+00 -6.34500E+00 -2.58238E+00 -2.43817E+00
  -4.36822E+00 -5.36659E+00 -3.71329E+00 -3.20043E+00 -4.81302E+00 -4.78405E+00 -4.00663E+00  1.53843E-01 -1.52881E+00 -3.69526E+00
  -3.93988E+00 -3.62946E+00 -2.65273E+00 -4.02336E+00 -1.06871E+00 -2.05776E+00 -1.64457E+00 -3.01671E+00 -2.11239E+00 -2.92919E+00
  -2.89579E+00 -1.74492E+00 -2.15438E+00 -4.11345E+00 -7.43027E+00 -2.56287E+00 -1.93506E+00 -3.68673E+00 -4.58558E+00 -3.62789E+00
  -4.46005E+00 -3.30898E+00 -6.88602E+00 -5.54019E+00 -5.83855E+00 -5.34078E+00 -8.06721E+00 -3.01630E+00 -6.20410E+00 -4.14468E+00
  -5.60692E+00 -5.13374E+00 -4.39193E+00 -2.67160E+00 -5.68181E+00 -4.49925E+00 -4.44485E+00 -4.99716E+00 -4.38555E+00 -6.24391E+00
  -3.20762E+00 -3.63237E+00 -5.36866E+00 -4.82522E+00 -3.03509E+00 -6.35965E+00 -4.47169E+00 -3.53289E+00 -4.88311E+00 -2.06397E+00
  -4.37000E+00 -5.67592E+00 -5.39921E+00 -1.37630E+00 -5.41723E+00 -4.71324E+00 -4.77358E+00 -4.55192E+00 -5.25251E+00 -5.03081E+00
  -6.81111E+00 -3.09596E+00 -5.43354E+00 -4.41869E+00 -2.65247E+00 -5.70198E+00 -4.75567E+00 -4.66970E+00 -3.14052E+00 -1.81022E+00
  -2.42069E+00 -3.76726E+00 -2.43094E+00 -4.76183E+00 -2.74673E+00 -4.25707E+00 -2.36988E+00 -2.71581E+00 -2.74647E+00 -2.72529E+00
  -7.55729E-01 -6.12119E+00 -4.66552E+00 -1.71164E+00 -3.69651E+00 -5.39181E+00 -2.80629E+00 -4.22302E+00 -3.76664E+00 -2.99322E+00
  -3.28677E+00 -9.19919E-01  1.13357E+00 -3.60436E+00 -1.50775E+00 -2.27821E+00 -2.91109E+00 -1.81944E+00
 NY points of the fit to the data follow
  -2.98695E+01 -2.97728E+01 -2.99908E+01 -3.00713E+01 -2.96224E+01 -2.94426E+01 -2.94033E+01 -2.93331E+01 -2.86306E+01 -2.79462E+01
  -2.75949E+01 -2.71812E+01 -2.71455E+01 -2.73318E+01 -2.76740E+01 -2.77202E+01 -2.73852E+01 -2.72412E+01 -2.70321E+01 -2.67903E+01
  -2.65143E+01 -2.62733E+01 -2.61095E+01 -2.59640E+01 -2.55703E+01 -2.49769E+01 -2.45816E+01 -2.40752E+01 -2.32570E+01 -2.22493E+01
  -2.15892E+01 -2.13508E+01 -2.14417E+01 -2.20666E+01 -2.28651E+01 -2.35307E+01 -2.38851E+01 -2.40862E+01 -2.42305E+01 -2.40697E+01
  -2.35299E+01 -2.26781E+01 -2.18927E+01 -2.12571E+01 -2.06137E+01 -1.99441E+01 -1.95814E+01 -1.98142E+01 -2.04572E+01 -2.13012E+01
  -2.21047E+01 -2.25879E+01 -2.24768E+01 -2.19280E+01 -2.13730E+01 -2.09130E+01 -2.05028E+01 -2.00893E+01 -1.97886E+01 -1.96438E+01
  -1.96279E+01 -1.97605E+01 -1.99512E+01 -2.00988E+01 -2.00692E+01 -1.97793E+01 -1.94270E+01 -1.90648E+01 -1.87884E+01 -1.85199E+01
  -1.82454E+01 -1.81209E+01 -1.80449E+01 -1.79833E+01 -1.79315E+01 -1.79324E+01 -1.79749E+01 -1.79798E+01 -1.80291E+01 -1.80788E+01
  -1.80409E+01 -1.78897E+01 -1.78044E+01 -1.77605E+01 -1.77357E+01 -1.77237E+01 -1.77611E+01 -1.77940E+01 -1.77241E+01 -1.75814E+01
  -1.73550E+01 -1.71404E+01 -1.69494E+01 -1.67779E+01 -1.67359E+01 -1.67298E+01 -1.65233E+01 -1.55783E+01 -1.44874E+01 -1.37390E+01
  -1.29193E+01 -1.17804E+01 -1.06849E+01 -1.05324E+01 -1.10493E+01 -1.19736E+01 -1.33055E+01 -1.45098E+01 -1.52202E+01 -1.52431E+01
  -1.51419E+01 -1.52059E+01 -1.51900E+01 -1.51424E+01 -1.50804E+01 -1.50228E+01 -1.49548E+01 -1.48765E+01 -1.47800E+01 -1.46240E+01
  -1.42151E+01 -1.29471E+01 -1.15379E+01 -1.05519E+01 -9.46900E+00 -7.98879E+00 -6.62153E+00 -6.48378E+00 -7.17882E+00 -8.44564E+00
  -1.02746E+01 -1.19052E+01 -1.28709E+01 -1.30126E+01 -1.31172E+01 -1.34854E+01 -1.36642E+01 -1.37399E+01 -1.36365E+01 -1.33555E+01
  -1.29813E+01 -1.26640E+01 -1.25239E+01 -1.24840E+01 -1.25262E+01 -1.26218E+01 -1.26989E+01 -1.27594E+01 -1.27780E+01 -1.28057E+01
  -1.28255E+01 -1.28174E+01 -1.27984E+01 -1.27812E+01 -1.27732E+01 -1.27903E+01 -1.27974E+01 -1.27861E+01 -1.27792E+01 -1.27824E+01
  -1.28223E+01 -1.28245E+01 -1.27580E+01 -1.26283E+01 -1.25002E+01 -1.24540E+01 -1.24670E+01 -1.25488E+01 -1.26415E+01 -1.27021E+01
  -1.27594E+01 -1.27839E+01 -1.27588E+01 -1.27558E+01 -1.27916E+01 -1.28727E+01 -1.28657E+01 -1.27586E+01 -1.26418E+01 -1.25545E+01
  -1.25574E+01 -1.25941E+01 -1.25885E+01 -1.24798E+01 -1.22960E+01 -1.21025E+01 -1.18661E+01 -1.15877E+01 -1.12854E+01 -1.09561E+01
  -1.06612E+01 -1.05241E+01 -1.06746E+01 -1.09468E+01 -1.11520E+01 -1.12981E+01 -1.14113E+01 -1.14167E+01 -1.11780E+01 -1.08551E+01
  -1.05302E+01 -1.02141E+01 -9.96268E+00 -9.86255E+00 -1.00580E+01 -1.03282E+01 -1.06105E+01 -1.09610E+01 -1.12588E+01 -1.13509E+01
  -1.10768E+01 -1.07636E+01 -1.04249E+01 -9.98930E+00 -9.56638E+00 -9.34804E+00 -9.55364E+00 -9.92908E+00 -1.03252E+01 -1.07373E+01
  -1.10637E+01 -1.11548E+01 -1.08882E+01 -1.04239E+01 -9.92264E+00 -9.46646E+00 -9.15437E+00 -9.03223E+00 -9.07015E+00 -9.19531E+00
  -9.31638E+00 -9.30529E+00 -9.12725E+00 -8.87962E+00 -8.66474E+00 -8.44015E+00 -8.23977E+00 -8.25443E+00 -8.44411E+00 -8.67308E+00
  -8.83744E+00 -8.99270E+00 -9.01723E+00 -8.80591E+00 -8.45740E+00 -8.07878E+00 -7.77079E+00 -7.51774E+00 -7.37007E+00 -7.25419E+00
  -6.93728E+00 -6.62309E+00 -6.25813E+00 -5.54406E+00 -3.33361E+00 -2.58828E-01  1.42750E+00  2.92306E+00  4.96932E+00  7.28933E+00
   7.61168E+00  5.85472E+00  3.33006E+00 -4.21424E-01 -4.13431E+00 -6.63731E+00 -7.34098E+00 -7.18951E+00 -7.60847E+00 -7.80895E+00
  -7.86802E+00 -7.89442E+00 -7.89230E+00 -7.86495E+00 -7.84874E+00 -7.85387E+00 -7.87871E+00 -7.91497E+00 -7.95686E+00 -7.99157E+00
  -8.00567E+00 -8.00307E+00 -7.98983E+00 -7.96755E+00 -7.93596E+00 -7.89966E+00 -7.86059E+00 -7.81870E+00 -7.76951E+00 -7.71258E+00
  -7.64507E+00 -7.56551E+00 -7.47523E+00 -7.37729E+00 -7.26961E+00 -7.15292E+00 -7.02701E+00 -6.89242E+00 -6.74649E+00 -6.59141E+00
  -6.43079E+00 -6.26680E+00 -6.10254E+00 -5.94311E+00 -5.79204E+00 -5.65341E+00 -5.52823E+00 -5.41930E+00 -5.32786E+00 -5.25484E+00
  -5.19990E+00 -5.16284E+00 -5.14148E+00 -5.13370E+00 -5.13549E+00 -5.14315E+00 -5.15139E+00 -5.15488E+00 -5.14548E+00 -5.11118E+00
  -5.02319E+00 -4.85637E+00 -4.78787E+00 -4.81148E+00 -4.81983E+00 -4.82938E+00 -4.97401E+00 -5.33480E+00 -5.72324E+00 -5.93940E+00
  -5.95203E+00 -5.81891E+00 -5.51570E+00 -5.01317E+00 -4.43467E+00 -3.95976E+00 -3.59370E+00 -3.33726E+00 -3.24576E+00 -3.24834E+00
  -3.22213E+00 -3.02283E+00 -2.86305E+00 -2.81154E+00 -2.74277E+00 -2.67814E+00 -2.76080E+00 -3.05633E+00 -3.34213E+00 -3.44278E+00
  -3.44789E+00 -3.31946E+00 -3.02294E+00 -2.52852E+00 -2.06422E+00 -1.77466E+00 -1.57761E+00 -1.53663E+00 -1.65522E+00 -1.85565E+00
  -2.04342E+00 -2.12984E+00 -2.22670E+00 -2.34443E+00 -2.46088E+00 -2.58076E+00 -2.70463E+00 -2.83209E+00 -2.96131E+00 -3.09088E+00
  -3.21861E+00 -3.34305E+00 -3.46218E+00 -3.57476E+00 -3.67893E+00 -3.77367E+00 -3.85747E+00 -3.92970E+00 -3.98920E+00 -4.03559E+00
  -4.06791E+00 -4.08598E+00 -4.08911E+00 -4.07745E+00 -4.05063E+00 -4.00905E+00 -3.95264E+00 -3.88221E+00 -3.79826E+00 -3.70225E+00
  -3.59531E+00 -3.47953E+00 -3.35670E+00 -3.22963E+00 -3.10081E+00 -2.97363E+00 -2.85096E+00 -2.73631E+00 -2.63249E+00 -2.54278E+00
  -2.46954E+00 -2.41527E+00 -2.38126E+00 -2.36879E+00 -2.37786E+00 -2.40844E+00 -2.45926E+00 -2.52901E+00 -2.61526E+00 -2.71575E+00
  -2.82744E+00 -2.94774E+00 -3.07344E+00 -3.20201E+00 -3.33049E+00 -3.45681E+00 -3.57869E+00 -3.69480E+00 -3.80359E+00 -3.90440E+00
  -3.99633E+00 -4.07939E+00 -4.15329E+00 -4.21852E+00 -4.27515E+00 -4.32387E+00 -4.36493E+00 -4.39921E+00 -4.42705E+00 -4.44934E+00
  -4.46636E+00 -4.47888E+00 -4.48712E+00 -4.49183E+00 -4.49317E+00 -4.49178E+00 -4.48768E+00 -4.48140E+00 -4.47292E+00 -4.46276E+00
  -4.45085E+00 -4.43761E+00 -4.42288E+00 -4.40704E+00 -4.38996E+00 -4.37202E+00 -4.35303E+00 -4.33331E+00 -4.31264E+00 -4.29132E+00
  -4.26918E+00 -4.24653E+00 -4.22315E+00 -4.19930E+00 -4.17474E+00 -4.14977E+00 -4.12420E+00 -4.09832E+00 -4.07189E+00 -4.04515E+00
  -4.01787E+00 -3.99035E+00 -3.96237E+00 -3.93421E+00 -3.90559E+00 -3.87677E+00 -3.84754E+00 -3.81816E+00 -3.78843E+00 -3.75858E+00
  -3.72836E+00 -3.69801E+00 -3.66734E+00 -3.63659E+00 -3.60557E+00 -3.57447E+00 -3.54306E+00 -3.51159E+00 -3.47986E+00 -3.44813E+00
  -3.41616E+00 -3.38416E+00 -3.35190E+00 -3.31963E+00 -3.28716E+00 -3.25473E+00 -3.22210E+00 -3.18946E+00 -3.15662E+00 -3.12382E+00
  -3.09087E+00 -3.05798E+00 -3.02491E+00 -2.99187E+00 -2.95866E+00 -2.92553E+00 -2.89227E+00 -2.85908E+00
 NY background values follow
    -3.029E+01   -3.013E+01   -2.998E+01   -2.982E+01   -2.967E+01   -2.951E+01   -2.935E+01   -2.920E+01   -2.904E+01   -2.888E+01
    -2.873E+01   -2.857E+01   -2.842E+01   -2.826E+01   -2.810E+01   -2.795E+01   -2.779E+01   -2.764E+01   -2.748E+01   -2.733E+01
    -2.717E+01   -2.702E+01   -2.687E+01   -2.671E+01   -2.656E+01   -2.640E+01   -2.625E+01   -2.610E+01   -2.595E+01   -2.579E+01
    -2.564E+01   -2.549E+01   -2.534E+01   -2.519E+01   -2.504E+01   -2.489E+01   -2.474E+01   -2.459E+01   -2.445E+01   -2.430E+01
    -2.415E+01   -2.400E+01   -2.386E+01   -2.371E+01   -2.357E+01   -2.342E+01   -2.328E+01   -2.314E+01   -2.300E+01   -2.285E+01
    -2.271E+01   -2.257E+01   -2.243E+01   -2.229E+01   -2.216E+01   -2.202E+01   -2.188E+01   -2.175E+01   -2.161E+01   -2.148E+01
    -2.134E+01   -2.121E+01   -2.108E+01   -2.095E+01   -2.081E+01   -2.068E+01   -2.056E+01   -2.043E+01   -2.030E+01   -2.017E+01
    -2.005E+01   -1.992E+01   -1.980E+01   -1.968E+01   -1.955E+01   -1.943E+01   -1.931E+01   -1.919E+01   -1.907E+01   -1.896E+01
    -1.884E+01   -1.872E+01   -1.861E+01   -1.850E+01   -1.838E+01   -1.827E+01   -1.816E+01   -1.805E+01   -1.794E+01   -1.783E+01
    -1.773E+01   -1.762E+01   -1.752E+01   -1.742E+01   -1.731E+01   -1.721E+01   -1.711E+01   -1.701E+01   -1.691E+01   -1.682E+01
    -1.672E+01   -1.663E+01   -1.653E+01   -1.644E+01   -1.635E+01   -1.626E+01   -1.617E+01   -1.608E+01   -1.599E+01   -1.590E+01
    -1.582E+01   -1.573E+01   -1.565E+01   -1.557E+01   -1.548E+01   -1.540E+01   -1.532E+01   -1.524E+01   -1.517E+01   -1.509E+01
    -1.501E+01   -1.494E+01   -1.487E+01   -1.479E+01   -1.472E+01   -1.465E+01   -1.458E+01   -1.451E+01   -1.444E+01   -1.437E+01
    -1.431E+01   -1.424E+01   -1.418E+01   -1.412E+01   -1.405E+01   -1.399E+01   -1.393E+01   -1.387E+01   -1.381E+01   -1.375E+01
    -1.370E+01   -1.364E+01   -1.359E+01   -1.353E+01   -1.348E+01   -1.343E+01   -1.337E+01   -1.332E+01   -1.327E+01   -1.322E+01
    -1.317E+01   -1.312E+01   -1.308E+01   -1.303E+01   -1.298E+01   -1.294E+01   -1.289E+01   -1.285E+01   -1.280E+01   -1.276E+01
    -1.272E+01   -1.268E+01   -1.263E+01   -1.259E+01   -1.255E+01   -1.251E+01   -1.247E+01   -1.243E+01   -1.240E+01   -1.236E+01
    -1.232E+01   -1.228E+01   -1.224E+01   -1.221E+01   -1.217E+01   -1.214E+01   -1.210E+01   -1.207E+01   -1.203E+01   -1.200E+01
    -1.196E+01   -1.193E+01   -1.189E+01   -1.186E+01   -1.183E+01   -1.179E+01   -1.176E+01   -1.173E+01   -1.169E+01   -1.166E+01
    -1.163E+01   -1.160E+01   -1.156E+01   -1.153E+01   -1.150E+01   -1.147E+01   -1.144E+01   -1.141E+01   -1.138E+01   -1.134E+01
    -1.131E+01   -1.128E+01   -1.125E+01   -1.122E+01   -1.119E+01   -1.116E+01   -1.113E+01   -1.110E+01   -1.107E+01   -1.104E+01
    -1.101E+01   -1.098E+01   -1.095E+01   -1.092E+01   -1.089E+01   -1.086E+01   -1.083E+01   -1.080E+01   -1.077E+01   -1.073E+01
    -1.070E+01   -1.067E+01   -1.064E+01   -1.061E+01   -1.058E+01   -1.055E+01   -1.052E+01   -1.049E+01   -1.046E+01   -1.043E+01
    -1.040E+01   -1.036E+01   -1.033E+01   -1.030E+01   -1.027E+01   -1.024E+01   -1.021E+01   -1.018E+01   -1.014E+01   -1.011E+01
    -1.008E+01   -1.005E+01   -1.002E+01   -9.983E+00   -9.951E+00   -9.919E+00   -9.886E+00   -9.854E+00   -9.821E+00   -9.789E+00
    -9.756E+00   -9.724E+00   -9.691E+00   -9.659E+00   -9.626E+00   -9.593E+00   -9.561E+00   -9.528E+00   -9.495E+00   -9.462E+00
    -9.430E+00   -9.397E+00   -9.364E+00   -9.331E+00   -9.298E+00   -9.266E+00   -9.233E+00   -9.200E+00   -9.167E+00   -9.134E+00
    -9.101E+00   -9.069E+00   -9.036E+00   -9.003E+00   -8.970E+00   -8.937E+00   -8.905E+00   -8.872E+00   -8.839E+00   -8.807E+00
    -8.774E+00   -8.742E+00   -8.709E+00   -8.677E+00   -8.644E+00   -8.612E+00   -8.579E+00   -8.547E+00   -8.515E+00   -8.483E+00
    -8.451E+00   -8.419E+00   -8.387E+00   -8.355E+00   -8.323E+00   -8.291E+00   -8.260E+00   -8.228E+00   -8.197E+00   -8.165E+00
    -8.134E+00   -8.103E+00   -8.072E+00   -8.041E+00   -8.010E+00   -7.979E+00   -7.948E+00   -7.918E+00   -7.887E+00   -7.857E+00
    -7.827E+00   -7.797E+00   -7.767E+00   -7.737E+00   -7.707E+00   -7.678E+00   -7.648E+00   -7.619E+00   -7.590E+00   -7.561E+00
    -7.532E+00   -7.504E+00   -7.475E+00   -7.447E+00   -7.418E+00   -7.390E+00   -7.362E+00   -7.335E+00   -7.307E+00   -7.279E+00
    -7.252E+00   -7.225E+00   -7.198E+00   -7.171E+00   -7.144E+00   -7.117E+00   -7.091E+00   -7.064E+00   -7.038E+00   -7.012E+00
    -6.986E+00   -6.960E+00   -6.935E+00   -6.909E+00   -6.884E+00   -6.859E+00   -6.834E+00   -6.809E+00   -6.784E+00   -6.759E+00
    -6.735E+00   -6.711E+00   -6.687E+00   -6.663E+00   -6.639E+00   -6.615E+00   -6.591E+00   -6.568E+00   -6.545E+00   -6.521E+00
    -6.498E+00   -6.476E+00   -6.453E+00   -6.430E+00   -6.408E+00   -6.386E+00   -6.364E+00   -6.342E+00   -6.320E+00   -6.298E+00
    -6.276E+00   -6.254E+00   -6.233E+00   -6.212E+00   -6.190E+00   -6.169E+00   -6.148E+00   -6.127E+00   -6.105E+00   -6.084E+00
    -6.063E+00   -6.042E+00   -6.021E+00   -6.001E+00   -5.980E+00   -5.959E+00   -5.938E+00   -5.917E+00   -5.896E+00   -5.875E+00
    -5.854E+00   -5.833E+00   -5.813E+00   -5.792E+00   -5.771E+00   -5.749E+00   -5.728E+00   -5.707E+00   -5.686E+00   -5.665E+00
    -5.643E+00   -5.622E+00   -5.600E+00   -5.578E+00   -5.557E+00   -5.535E+00   -5.513E+00   -5.491E+00   -5.469E+00   -5.446E+00
    -5.424E+00   -5.401E+00   -5.379E+00   -5.356E+00   -5.333E+00   -5.310E+00   -5.286E+00   -5.263E+00   -5.239E+00   -5.216E+00
    -5.192E+00   -5.168E+00   -5.144E+00   -5.119E+00   -5.095E+00   -5.070E+00   -5.046E+00   -5.021E+00   -4.996E+00   -4.970E+00
    -4.945E+00   -4.919E+00   -4.894E+00   -4.868E+00   -4.842E+00   -4.815E+00   -4.789E+00   -4.762E+00   -4.736E+00   -4.709E+00
    -4.681E+00   -4.654E+00   -4.626E+00   -4.599E+00   -4.571E+00   -4.543E+00   -4.514E+00   -4.486E+00   -4.457E+00   -4.428E+00
    -4.399E+00   -4.369E+00   -4.340E+00   -4.310E+00   -4.280E+00   -4.250E+00   -4.219E+00   -4.189E+00   -4.158E+00   -4.127E+00
    -4.096E+00   -4.065E+00   -4.033E+00   -4.001E+00   -3.970E+00   -3.938E+00   -3.906E+00   -3.874E+00   -3.841E+00   -3.809E+00
    -3.776E+00   -3.743E+00   -3.711E+00   -3.678E+00   -3.645E+00   -3.612E+00   -3.578E+00   -3.545E+00   -3.512E+00   -3.478E+00
    -3.445E+00   -3.411E+00   -3.378E+00   -3.344E+00   -3.310E+00   -3.277E+00   -3.243E+00   -3.209E+00   -3.175E+00   -3.141E+00
    -3.108E+00   -3.074E+00   -3.040E+00   -3.006E+00   -2.972E+00   -2.938E+00   -2.904E+00   -2.871E+00
 Ala      Conc. = 7.00E+01
