 LCModel (Version 6.3-1L) Copyright: S.W. Provencher.          Ref.: Magn. Reson. Med. 30:672-679 (1993).                
 Slice#1 Row#12 Col#13  PD_05_press_1_raw_act
 36 lines in following concentration table = NCONC+1
    Conc.  %SD /Cr+PCr  Metabolite                                         
 3.00E+03  10%   0.000 Ala                                                 
    1.076 302%   0.000 Asp                                                 
    0.000 999%   0.000 Cr                                                  
    0.000 999%   0.000 PCr                                                 
    0.643 303%   0.000 GABA                                                
    0.676 289%   0.000 Glc                                                 
  335.836  78%   0.000 Gln                                                 
  333.145  97%   0.000 Glu                                                 
    0.000 999%   0.000 GPC                                                 
    7.458 709%   0.000 PCh                                                 
    0.000 999%   0.000 GSH                                                 
   19.049 590%   0.000 Ins                                                 
 1.74E+03  17%   0.000 Lac                                                 
    0.000 999%   0.000 NAA                                                 
    0.000 999%   0.000 NAAG                                                
    0.253 256%   0.000 Scyllo                                              
    1.175 274%   0.000 Tau                                                 
    2.105 361%   0.000 -CrCH2                                              
    7.458 142%   0.000 GPC+PCh                                             
    0.000 999%   0.000 NAA+NAAG                                            
    0.000 999%   0.000 Cr+PCr                                              
  668.981  66%   0.000 Glu+Gln                                             
    0.000 999%   0.000 Lip13a                                              
    0.000 999%   0.000 Lip13b                                              
    0.000 999%   0.000 Lip09                                               
  395.658  15%   0.000 MM09                                                
    0.000 999%   0.000 Lip20                                               
  400.082  22%   0.000 MM20                                                
  118.340  22%   0.000 MM12                                                
  774.036   8%   0.000+MM14                                                
  325.153  17%   0.000 MM17                                                
    0.000 999%   0.000 Lip13a+Lip13b                                       
  892.376   9%   0.000 MM14+Lip13a+Lip13b+MM12                             
  395.658  16%   0.000 MM09+Lip09                                          
  400.082  22%   0.000 MM20+Lip20                                          
   6 lines in following misc. output table
  FWHM = 0.183 ppm    S/N =   5                                            
  Data shift = 0.268 ppm                                                   
  Ph: -61 deg     -65.6 deg/ppm                                            
  alphaB,S = 8.5E+01,   4.1E+02                                            
    6 spline knots.   Ns = 9(2)                                            
   2 inflections.     1 extrema                                            
  498 points on ppm-axis = NY
      4.000000     3.992357     3.984714     3.977070     3.969427     3.961784     3.954141     3.946497     3.938854     3.931211
      3.923568     3.915925     3.908281     3.900638     3.892995     3.885352     3.877708     3.870065     3.862422     3.854779
      3.847136     3.839492     3.831849     3.824206     3.816563     3.808919     3.801276     3.793633     3.785990     3.778347
      3.770703     3.763060     3.755417     3.747774     3.740130     3.732487     3.724844     3.717201     3.709558     3.701914
      3.694271     3.686628     3.678985     3.671341     3.663698     3.656055     3.648412     3.640769     3.633125     3.625482
      3.617839     3.610196     3.602552     3.594909     3.587266     3.579623     3.571980     3.564336     3.556693     3.549050
      3.541407     3.533763     3.526120     3.518477     3.510834     3.503191     3.495547     3.487904     3.480261     3.472618
      3.464974     3.457331     3.449688     3.442045     3.434402     3.426758     3.419115     3.411472     3.403829     3.396185
      3.388542     3.380899     3.373256     3.365613     3.357969     3.350326     3.342683     3.335040     3.327396     3.319753
      3.312110     3.304467     3.296824     3.289180     3.281537     3.273894     3.266251     3.258607     3.250964     3.243321
      3.235678     3.228034     3.220391     3.212748     3.205105     3.197462     3.189818     3.182175     3.174532     3.166889
      3.159245     3.151602     3.143959     3.136316     3.128673     3.121029     3.113386     3.105743     3.098100     3.090456
      3.082813     3.075170     3.067527     3.059884     3.052240     3.044597     3.036954     3.029311     3.021667     3.014024
      3.006381     2.998738     2.991095     2.983451     2.975808     2.968165     2.960522     2.952878     2.945235     2.937592
      2.929949     2.922306     2.914662     2.907019     2.899376     2.891733     2.884089     2.876446     2.868803     2.861160
      2.853517     2.845873     2.838230     2.830587     2.822944     2.815300     2.807657     2.800014     2.792371     2.784728
      2.777084     2.769441     2.761798     2.754155     2.746511     2.738868     2.731225     2.723582     2.715939     2.708295
      2.700652     2.693009     2.685366     2.677722     2.670079     2.662436     2.654793     2.647150     2.639506     2.631863
      2.624220     2.616577     2.608933     2.601290     2.593647     2.586004     2.578361     2.570717     2.563074     2.555431
      2.547788     2.540144     2.532501     2.524858     2.517215     2.509572     2.501928     2.494285     2.486642     2.478999
      2.471355     2.463712     2.456069     2.448426     2.440783     2.433139     2.425496     2.417853     2.410210     2.402566
      2.394923     2.387280     2.379637     2.371994     2.364350     2.356707     2.349064     2.341421     2.333777     2.326134
      2.318491     2.310848     2.303205     2.295561     2.287918     2.280275     2.272632     2.264988     2.257345     2.249702
      2.242059     2.234416     2.226772     2.219129     2.211486     2.203843     2.196199     2.188556     2.180913     2.173270
      2.165627     2.157983     2.150340     2.142697     2.135054     2.127410     2.119767     2.112124     2.104481     2.096838
      2.089194     2.081551     2.073908     2.066265     2.058621     2.050978     2.043335     2.035692     2.028049     2.020405
      2.012762     2.005119     1.997476     1.989833     1.982190     1.974546     1.966903     1.959260     1.951617     1.943974
      1.936331     1.928688     1.921045     1.913402     1.905759     1.898115     1.890472     1.882829     1.875186     1.867543
      1.859900     1.852257     1.844614     1.836971     1.829327     1.821684     1.814041     1.806398     1.798755     1.791112
      1.783469     1.775826     1.768183     1.760540     1.752896     1.745253     1.737610     1.729967     1.722324     1.714681
      1.707038     1.699395     1.691752     1.684108     1.676465     1.668822     1.661179     1.653536     1.645893     1.638250
      1.630607     1.622964     1.615321     1.607677     1.600034     1.592391     1.584748     1.577105     1.569462     1.561819
      1.554176     1.546533     1.538890     1.531246     1.523603     1.515960     1.508317     1.500674     1.493031     1.485388
      1.477745     1.470102     1.462458     1.454815     1.447172     1.439529     1.431886     1.424243     1.416600     1.408957
      1.401314     1.393671     1.386027     1.378384     1.370741     1.363098     1.355455     1.347812     1.340169     1.332526
      1.324883     1.317240     1.309596     1.301953     1.294310     1.286667     1.279024     1.271381     1.263738     1.256095
      1.248452     1.240808     1.233165     1.225522     1.217879     1.210236     1.202593     1.194950     1.187307     1.179664
      1.172021     1.164377     1.156734     1.149091     1.141448     1.133805     1.126162     1.118519     1.110876     1.103233
      1.095590     1.087946     1.080303     1.072660     1.065017     1.057374     1.049731     1.042088     1.034445     1.026802
      1.019158     1.011515     1.003872     0.996229     0.988586     0.980943     0.973300     0.965657     0.958014     0.950371
      0.942727     0.935084     0.927441     0.919798     0.912155     0.904512     0.896869     0.889226     0.881583     0.873940
      0.866296     0.858653     0.851010     0.843367     0.835724     0.828081     0.820438     0.812795     0.805152     0.797508
      0.789865     0.782222     0.774579     0.766936     0.759293     0.751650     0.744007     0.736364     0.728721     0.721077
      0.713434     0.705791     0.698148     0.690505     0.682862     0.675219     0.667576     0.659933     0.652290     0.644646
      0.637003     0.629360     0.621717     0.614074     0.606431     0.598788     0.591145     0.583502     0.575858     0.568215
      0.560572     0.552929     0.545286     0.537643     0.530000     0.522357     0.514714     0.507071     0.499427     0.491784
      0.484141     0.476498     0.468855     0.461212     0.453569     0.445925     0.438282     0.430639     0.422996     0.415353
      0.407710     0.400067     0.392424     0.384780     0.377137     0.369494     0.361851     0.354208     0.346565     0.338922
      0.331278     0.323635     0.315992     0.308349     0.300706     0.293063     0.285420     0.277777     0.270133     0.262490
      0.254847     0.247204     0.239561     0.231918     0.224275     0.216631     0.208988     0.201345
 NY phased data points follow
   1.65993E+00  8.80744E-01 -1.26598E+00 -9.17877E-02  1.83019E+00  1.89318E+00  7.04977E-01 -8.00695E-01  1.64457E+00  1.47844E+00
   1.73435E+00  1.93769E+00  1.98797E+00 -4.63769E-01  5.58165E-01  4.79597E-01  1.46757E+00  2.74268E+00  1.91649E+00 -2.33181E-01
   8.61839E-01  1.91002E-01  1.44822E+00  2.65177E-01  1.59933E+00  1.49719E+00  2.39420E+00  2.38923E+00  2.12485E+00  2.30045E-01
   9.44426E-02  6.96328E-01  9.19964E-01  6.22940E-01  2.42840E+00  4.01835E-01 -1.43608E-01  1.79653E+00  8.34925E-01  2.29980E+00
   2.91940E+00  1.00773E+00  1.32427E+00  1.94542E+00  4.88589E-01  3.08603E+00  1.72132E+00  1.87801E+00  2.15738E+00  2.73072E+00
   1.86936E+00  4.55637E-01  1.53685E+00  1.00069E+00  2.72089E+00  1.82865E+00  1.03788E+00  2.73681E+00  9.57425E-01  1.50560E+00
   7.84901E-01  1.60187E+00 -2.43812E-01  1.56367E+00  1.59956E+00  1.37126E+00  8.13726E-01  3.15197E+00  3.35337E+00  1.26059E+00
   1.09899E+00  1.27850E+00  1.12624E+00  8.60116E-02  1.38844E+00  8.53837E-01  2.03248E+00  9.36776E-01  2.40017E+00  1.68955E-01
   3.41650E+00  2.55535E+00  1.39279E+00  2.31481E+00  5.74528E-01  2.64924E+00  2.48812E+00  2.18090E+00  1.08413E+00  6.93676E-01
   2.68557E+00  2.07482E+00  1.29365E+00  2.49753E+00  2.41425E+00  3.41420E+00  2.80117E+00  2.36126E+00  6.05399E-01  1.37756E+00
   2.38789E+00  7.97289E-01  1.62911E+00  3.23533E+00  2.23746E+00 -1.96399E-01  1.63200E+00  2.30729E+00  2.21863E+00  1.75125E+00
   1.83821E+00  6.41523E-01  4.53014E-01  1.67786E+00  1.87436E+00  8.72867E-01  1.95476E+00  3.02648E+00  1.05684E+00  3.46906E+00
   1.21633E+00  1.23746E+00  1.94075E+00  2.43318E+00  2.62943E+00  2.42701E+00  2.73956E+00  3.81691E-01  1.23090E+00  9.15615E-01
   3.79147E-01  2.97725E+00  8.28273E-01  1.56303E+00  7.97135E-01  1.53123E+00  1.53387E+00  1.18625E+00  1.30368E+00  2.31675E+00
   1.94213E+00  1.43095E+00  1.08497E+00  1.56279E+00  2.58643E+00  3.55222E-01  1.56655E+00  1.31262E+00  2.02393E+00  1.94232E+00
   2.92202E+00  2.76687E+00  3.15135E+00 -1.03482E-01  1.93520E+00  2.69910E+00  2.30821E+00  2.68829E+00  1.31877E+00  2.59404E+00
   2.67204E+00  1.52148E+00  2.61973E+00  2.88014E+00  1.46784E+00  2.94734E+00  2.72303E+00  2.39440E+00  2.57715E+00  1.65994E+00
   2.16281E+00  2.64639E+00  1.89359E+00  2.00604E+00  2.18003E+00  1.82856E+00  2.40223E+00  1.52217E+00 -1.83096E-02  1.45918E+00
   1.51830E+00  2.44491E+00  3.19637E+00  2.97317E+00  2.85160E+00  3.60281E+00  2.33534E+00  2.01267E+00  3.13395E+00  2.09032E+00
   2.28608E+00  2.13944E+00  2.12375E+00  2.36499E+00  1.04404E+00  3.17223E+00  5.67051E-02  2.76821E+00  1.27709E+00  2.91395E+00
   2.30697E+00  1.16556E+00  1.82440E+00  2.22964E-01  3.52436E+00  2.50896E+00  1.75211E+00  1.53695E+00  7.82214E-01  3.87207E+00
   2.04869E+00  2.83557E+00  1.99221E+00  2.16984E+00  3.19432E+00  1.31513E+00  2.57042E+00  2.74989E+00  2.64171E+00  2.15917E+00
   2.19745E+00  2.71645E+00  2.06968E+00  1.70899E+00  2.84316E+00  1.15647E+00  2.23430E+00  3.97664E+00  3.35017E+00  2.36152E+00
   2.37186E+00  3.10356E+00  4.00453E+00  3.72112E+00  2.81441E+00  1.98747E+00  2.67527E+00  3.65112E+00  3.27621E+00  3.76102E+00
   3.71158E+00  4.79140E+00  3.30026E+00  1.37810E+00  3.65777E+00  2.62919E+00  4.51183E+00  3.39844E+00  2.16459E+00  3.34887E+00
   2.89251E+00  4.24680E+00  3.63091E+00  2.49942E+00  2.18965E+00  4.28215E+00  2.68314E+00  2.82357E+00  2.40504E+00  4.67277E+00
   2.62089E+00  2.67852E+00  2.01989E+00  1.96668E+00  2.60893E+00  4.20253E+00  2.26535E+00  3.03654E+00  2.74550E+00  2.35170E+00
   3.33520E+00  3.61645E+00  4.91668E+00  5.38875E+00  2.29929E+00  5.71275E+00  3.01911E+00  4.45911E+00  4.19995E+00  4.28696E+00
   2.65428E+00  3.43722E+00  5.87338E+00  5.57234E+00  4.21492E+00  5.48532E+00  6.25948E+00  5.61611E+00  6.75347E+00  5.70418E+00
   5.13843E+00  5.43451E+00  5.31107E+00  8.44105E+00  5.70303E+00  7.56500E+00  7.35096E+00  6.35091E+00  6.98007E+00  6.93192E+00
   7.74679E+00  7.30514E+00  6.51180E+00  7.15423E+00  8.60052E+00  7.24445E+00  1.00741E+01  9.49915E+00  9.24923E+00  9.53410E+00
   1.17153E+01  1.00603E+01  1.07939E+01  1.15027E+01  1.12487E+01  1.33997E+01  1.12660E+01  1.23635E+01  1.24941E+01  1.18060E+01
   1.45124E+01  1.32432E+01  1.41377E+01  1.37935E+01  1.42367E+01  1.49800E+01  1.54837E+01  1.37175E+01  1.40858E+01  1.54972E+01
   1.34561E+01  1.47403E+01  1.27261E+01  1.51108E+01  1.28188E+01  1.39671E+01  1.31770E+01  1.46720E+01  1.14385E+01  1.16263E+01
   1.17070E+01  1.32581E+01  1.12487E+01  1.27835E+01  1.23830E+01  9.82846E+00  1.15650E+01  1.06728E+01  1.21139E+01  1.01237E+01
   9.95742E+00  1.03332E+01  9.27809E+00  9.18424E+00  9.10379E+00  9.33914E+00  1.01714E+01  6.15679E+00  7.97226E+00  7.54182E+00
   7.86283E+00  7.19295E+00  8.30849E+00  7.85542E+00  9.22404E+00  8.16454E+00  6.19376E+00  4.37396E+00  7.75164E+00  6.07948E+00
   7.63128E+00  7.43258E+00  7.19597E+00  5.88158E+00  6.86015E+00  5.53225E+00  8.23674E+00  6.28860E+00  9.01854E+00  6.99259E+00
   6.58929E+00  5.75278E+00  7.61320E+00  6.30656E+00  6.48858E+00  7.61860E+00  6.90069E+00  4.88493E+00  6.36326E+00  6.21367E+00
   4.47823E+00  5.41787E+00  4.30531E+00  5.50437E+00  5.81865E+00  5.04922E+00  4.74276E+00  5.92149E+00  2.50230E+00  4.29057E+00
   4.57583E+00  6.19032E+00  4.30021E+00  5.05272E+00  5.63308E+00  4.83156E+00  3.60043E+00  4.41114E+00  5.10540E+00  3.75013E+00
   3.07418E+00  5.27323E+00  4.27667E+00  3.39528E+00  5.21921E+00  3.57530E+00  5.67263E+00  5.72312E+00  4.38581E+00  3.25044E+00
   4.72651E+00  4.05761E+00  2.89208E+00  4.40344E+00  3.06394E+00  3.56787E+00  2.34053E+00  3.03095E+00  3.96056E+00  2.96330E+00
   4.30575E+00  4.93927E+00  4.66773E+00  3.06968E+00  3.34081E+00  2.42823E+00  4.40756E+00  3.82726E+00  4.92126E+00  4.07819E+00
   4.33110E+00  3.10395E+00  3.69184E+00  4.38918E+00  3.62555E+00  3.13913E+00  3.78172E+00  2.55163E+00  3.55341E+00  1.83862E+00
   3.79518E+00  2.96460E+00  3.41043E+00  2.44557E+00  4.10466E+00  3.21587E+00  4.23379E+00  2.91422E+00  3.14829E+00  5.24489E+00
   3.96827E+00  2.83982E+00  2.66544E+00  1.72143E+00  4.18867E+00  2.34109E+00  4.33164E+00  2.32290E+00  3.96763E+00  3.01749E+00
   3.00586E+00  4.55944E+00  2.35265E+00  3.74528E+00  1.63166E+00  9.73287E-01  3.65238E+00  2.36595E+00  3.00897E+00  3.44405E+00
   2.31790E+00  4.34357E+00  4.46130E+00  3.54624E+00  1.79261E+00  3.44449E+00  3.91929E+00  3.51362E+00  3.77219E+00  2.09261E+00
   1.71428E+00  1.78688E+00  1.94929E+00  2.03836E+00  1.99464E+00  3.57443E+00  1.20699E+00  3.13645E+00
 NY points of the fit to the data follow
   9.66447E-01  1.22248E+00  9.04916E-01  1.18570E+00  9.83355E-01  1.35492E+00  1.25972E+00  1.68867E+00  1.52015E+00  1.84817E+00
   1.53225E+00  1.75083E+00  1.29705E+00  1.52343E+00  1.00824E+00  1.38007E+00  9.33335E-01  1.41601E+00  1.01983E+00  1.54181E+00
   1.13302E+00  1.67850E+00  1.21462E+00  1.69755E+00  1.19730E+00  1.59412E+00  1.10680E+00  1.43615E+00  1.03631E+00  1.32892E+00
   1.05085E+00  1.30751E+00  1.14938E+00  1.34354E+00  1.27920E+00  1.38029E+00  1.39398E+00  1.40588E+00  1.46412E+00  1.37757E+00
   1.44122E+00  1.30639E+00  1.41241E+00  1.25446E+00  1.42772E+00  1.31423E+00  1.56700E+00  1.51633E+00  1.68664E+00  1.57510E+00
   1.66430E+00  1.50373E+00  1.51420E+00  1.34534E+00  1.33946E+00  1.29167E+00  1.35030E+00  1.34518E+00  1.41291E+00  1.42504E+00
   1.47567E+00  1.49564E+00  1.50213E+00  1.49988E+00  1.49992E+00  1.49560E+00  1.49533E+00  1.49170E+00  1.49281E+00  1.49084E+00
   1.49325E+00  1.49110E+00  1.49335E+00  1.49066E+00  1.49311E+00  1.49033E+00  1.49315E+00  1.49040E+00  1.49386E+00  1.49137E+00
   1.49527E+00  1.49368E+00  1.49842E+00  1.49812E+00  1.50612E+00  1.51875E+00  1.53556E+00  1.55126E+00  1.57412E+00  1.58842E+00
   1.61588E+00  1.62774E+00  1.65912E+00  1.66729E+00  1.70193E+00  1.70592E+00  1.74292E+00  1.74333E+00  1.78240E+00  1.77905E+00
   1.81933E+00  1.81113E+00  1.85096E+00  1.83624E+00  1.87347E+00  1.85208E+00  1.88530E+00  1.86049E+00  1.88978E+00  1.86379E+00
   1.88899E+00  1.86373E+00  1.88519E+00  1.86228E+00  1.88049E+00  1.86266E+00  1.87875E+00  1.86646E+00  1.88072E+00  1.87267E+00
   1.88428E+00  1.87902E+00  1.88785E+00  1.88805E+00  1.89680E+00  1.90782E+00  1.91870E+00  1.92855E+00  1.93741E+00  1.94489E+00
   1.95115E+00  1.95589E+00  1.95934E+00  1.96128E+00  1.96198E+00  1.96127E+00  1.95944E+00  1.95638E+00  1.95236E+00  1.94740E+00
   1.94167E+00  1.93531E+00  1.92839E+00  1.92121E+00  1.91369E+00  1.90629E+00  1.89866E+00  1.89151E+00  1.88424E+00  1.87778E+00
   1.87125E+00  1.86581E+00  1.86023E+00  1.85590E+00  1.85146E+00  1.84835E+00  1.84514E+00  1.84332E+00  1.84132E+00  1.84068E+00
   1.83970E+00  1.84012E+00  1.84012E+00  1.84147E+00  1.84249E+00  1.84475E+00  1.84695E+00  1.85014E+00  1.85326E+00  1.85753E+00
   1.86170E+00  1.86654E+00  1.87168E+00  1.87700E+00  1.88306E+00  1.88705E+00  1.88751E+00  1.89031E+00  1.87743E+00  1.87776E+00
   1.85588E+00  1.85685E+00  1.83220E+00  1.84972E+00  1.83740E+00  1.87359E+00  1.86887E+00  1.93045E+00  1.92538E+00  1.99299E+00
   1.97362E+00  2.01770E+00  1.93857E+00  1.98727E+00  1.88646E+00  1.95798E+00  1.86332E+00  1.97646E+00  1.92146E+00  2.04989E+00
   2.01933E+00  2.13856E+00  2.11533E+00  2.19717E+00  2.15104E+00  2.19061E+00  2.15115E+00  2.17365E+00  2.15610E+00  2.18139E+00
   2.19953E+00  2.23010E+00  2.28870E+00  2.31077E+00  2.39372E+00  2.39913E+00  2.48555E+00  2.46610E+00  2.52371E+00  2.50251E+00
   2.55251E+00  2.55375E+00  2.60795E+00  2.65874E+00  2.71139E+00  2.78018E+00  2.82829E+00  2.90810E+00  2.94813E+00  3.01056E+00
   3.03224E+00  3.06137E+00  3.04523E+00  3.07586E+00  3.06876E+00  3.11758E+00  3.14050E+00  3.21075E+00  3.27724E+00  3.33223E+00
   3.40913E+00  3.43319E+00  3.51269E+00  3.50301E+00  3.57490E+00  3.54975E+00  3.63976E+00  3.61372E+00  3.70893E+00  3.68762E+00
   3.77813E+00  3.75936E+00  3.83715E+00  3.81572E+00  3.87313E+00  3.84676E+00  3.88246E+00  3.84651E+00  3.85269E+00  3.82418E+00
   3.82269E+00  3.81034E+00  3.80009E+00  3.80119E+00  3.77644E+00  3.76631E+00  3.73740E+00  3.72385E+00  3.69091E+00  3.67567E+00
   3.64667E+00  3.63174E+00  3.60952E+00  3.60500E+00  3.59976E+00  3.61393E+00  3.63071E+00  3.66589E+00  3.70510E+00  3.76327E+00
   3.82861E+00  3.91771E+00  4.02241E+00  4.15232E+00  4.29894E+00  4.46864E+00  4.65534E+00  4.85550E+00  5.06936E+00  5.28858E+00
   5.51154E+00  5.72887E+00  5.93863E+00  6.13215E+00  6.30813E+00  6.46202E+00  6.59292E+00  6.69944E+00  6.78425E+00  6.85080E+00
   6.90573E+00  6.95787E+00  7.01807E+00  7.10153E+00  7.22556E+00  7.41438E+00  7.70210E+00  8.15051E+00  8.88904E+00  9.89405E+00
   1.04156E+01  1.13934E+01  1.14912E+01  1.22800E+01  1.19000E+01  1.23763E+01  1.14601E+01  1.23107E+01  1.14805E+01  1.26452E+01
   1.19037E+01  1.32079E+01  1.24366E+01  1.37474E+01  1.28693E+01  1.40347E+01  1.30156E+01  1.39705E+01  1.30294E+01  1.41136E+01
   1.32365E+01  1.40596E+01  1.33153E+01  1.37891E+01  1.32199E+01  1.31988E+01  1.27207E+01  1.26347E+01  1.25061E+01  1.23761E+01
   1.25143E+01  1.22742E+01  1.25345E+01  1.21097E+01  1.24095E+01  1.17286E+01  1.21133E+01  1.13737E+01  1.19334E+01  1.13254E+01
   1.16161E+01  1.08104E+01  1.09338E+01  9.99205E+00  9.92349E+00  8.91430E+00  8.74874E+00  8.13368E+00  8.26553E+00  7.84040E+00
   8.04014E+00  7.69609E+00  7.87665E+00  7.53237E+00  7.65974E+00  7.28196E+00  7.39930E+00  7.17658E+00  7.35678E+00  7.40602E+00
   7.44520E+00  7.27552E+00  7.19005E+00  6.81929E+00  6.60358E+00  6.13750E+00  5.86648E+00  5.71362E+00  5.62179E+00  5.56946E+00
   5.54549E+00  5.54323E+00  5.55772E+00  5.58525E+00  5.62236E+00  5.66604E+00  5.71318E+00  5.76101E+00  5.80667E+00  5.84767E+00
   5.88147E+00  5.90600E+00  5.91927E+00  5.91991E+00  5.90676E+00  5.87933E+00  5.83738E+00  5.78132E+00  5.71177E+00  5.62997E+00
   5.53727E+00  5.43546E+00  5.32630E+00  5.21180E+00  5.09378E+00  4.97424E+00  4.85481E+00  4.73715E+00  4.62251E+00  4.51210E+00
   4.40670E+00  4.30708E+00  4.21357E+00  4.12652E+00  4.04588E+00  3.97167E+00  3.90362E+00  3.84156E+00  3.78505E+00  3.73383E+00
   3.68740E+00  3.64545E+00  3.60751E+00  3.57331E+00  3.54240E+00  3.51454E+00  3.48931E+00  3.46657E+00  3.44595E+00  3.42736E+00
   3.41047E+00  3.39522E+00  3.38133E+00  3.36878E+00  3.35735E+00  3.34703E+00  3.33761E+00  3.32911E+00  3.32135E+00  3.31437E+00
   3.30801E+00  3.30232E+00  3.29712E+00  3.29250E+00  3.28829E+00  3.28459E+00  3.28124E+00  3.27834E+00  3.27572E+00  3.27349E+00
   3.27150E+00  3.26987E+00  3.26845E+00  3.26734E+00  3.26640E+00  3.26574E+00  3.26524E+00  3.26499E+00  3.26487E+00  3.26498E+00
   3.26520E+00  3.26563E+00  3.26616E+00  3.26689E+00  3.26769E+00  3.26868E+00  3.26972E+00  3.27095E+00  3.27223E+00  3.27367E+00
   3.27515E+00  3.27679E+00  3.27846E+00  3.28028E+00  3.28213E+00  3.28412E+00  3.28613E+00  3.28827E+00  3.29044E+00  3.29273E+00
   3.29504E+00  3.29748E+00  3.29993E+00  3.30249E+00  3.30508E+00  3.30779E+00  3.31051E+00  3.31335E+00  3.31621E+00  3.31919E+00
   3.32220E+00  3.32535E+00  3.32854E+00  3.33187E+00  3.33526E+00  3.33884E+00  3.34252E+00  3.34645E+00
 NY background values follow
     1.007E+00    1.012E+00    1.016E+00    1.021E+00    1.025E+00    1.030E+00    1.035E+00    1.039E+00    1.044E+00    1.049E+00
     1.053E+00    1.058E+00    1.063E+00    1.067E+00    1.072E+00    1.076E+00    1.081E+00    1.086E+00    1.090E+00    1.095E+00
     1.100E+00    1.104E+00    1.109E+00    1.114E+00    1.118E+00    1.123E+00    1.127E+00    1.132E+00    1.137E+00    1.141E+00
     1.146E+00    1.151E+00    1.155E+00    1.160E+00    1.165E+00    1.169E+00    1.174E+00    1.178E+00    1.183E+00    1.188E+00
     1.192E+00    1.197E+00    1.202E+00    1.206E+00    1.211E+00    1.216E+00    1.220E+00    1.225E+00    1.229E+00    1.234E+00
     1.239E+00    1.243E+00    1.248E+00    1.253E+00    1.257E+00    1.262E+00    1.266E+00    1.271E+00    1.276E+00    1.280E+00
     1.285E+00    1.290E+00    1.294E+00    1.299E+00    1.303E+00    1.308E+00    1.313E+00    1.317E+00    1.322E+00    1.327E+00
     1.331E+00    1.336E+00    1.340E+00    1.345E+00    1.350E+00    1.354E+00    1.359E+00    1.364E+00    1.368E+00    1.373E+00
     1.377E+00    1.382E+00    1.387E+00    1.391E+00    1.396E+00    1.401E+00    1.405E+00    1.410E+00    1.414E+00    1.419E+00
     1.424E+00    1.428E+00    1.433E+00    1.438E+00    1.442E+00    1.447E+00    1.451E+00    1.456E+00    1.461E+00    1.465E+00
     1.470E+00    1.475E+00    1.479E+00    1.484E+00    1.488E+00    1.493E+00    1.498E+00    1.502E+00    1.507E+00    1.511E+00
     1.516E+00    1.521E+00    1.525E+00    1.530E+00    1.535E+00    1.539E+00    1.544E+00    1.548E+00    1.553E+00    1.558E+00
     1.562E+00    1.567E+00    1.571E+00    1.576E+00    1.581E+00    1.585E+00    1.590E+00    1.594E+00    1.599E+00    1.604E+00
     1.608E+00    1.613E+00    1.617E+00    1.622E+00    1.627E+00    1.631E+00    1.636E+00    1.641E+00    1.645E+00    1.650E+00
     1.654E+00    1.659E+00    1.664E+00    1.668E+00    1.673E+00    1.677E+00    1.682E+00    1.687E+00    1.691E+00    1.696E+00
     1.700E+00    1.705E+00    1.710E+00    1.714E+00    1.719E+00    1.723E+00    1.728E+00    1.732E+00    1.737E+00    1.742E+00
     1.746E+00    1.751E+00    1.755E+00    1.760E+00    1.765E+00    1.769E+00    1.774E+00    1.778E+00    1.783E+00    1.788E+00
     1.792E+00    1.797E+00    1.801E+00    1.806E+00    1.811E+00    1.815E+00    1.820E+00    1.824E+00    1.829E+00    1.833E+00
     1.838E+00    1.843E+00    1.847E+00    1.852E+00    1.856E+00    1.861E+00    1.866E+00    1.870E+00    1.875E+00    1.879E+00
     1.884E+00    1.888E+00    1.893E+00    1.898E+00    1.902E+00    1.907E+00    1.911E+00    1.916E+00    1.920E+00    1.925E+00
     1.930E+00    1.934E+00    1.939E+00    1.943E+00    1.948E+00    1.952E+00    1.957E+00    1.962E+00    1.966E+00    1.971E+00
     1.975E+00    1.980E+00    1.984E+00    1.989E+00    1.994E+00    1.998E+00    2.003E+00    2.007E+00    2.012E+00    2.016E+00
     2.021E+00    2.026E+00    2.030E+00    2.035E+00    2.039E+00    2.044E+00    2.048E+00    2.053E+00    2.057E+00    2.062E+00
     2.067E+00    2.071E+00    2.076E+00    2.080E+00    2.085E+00    2.089E+00    2.094E+00    2.098E+00    2.103E+00    2.107E+00
     2.112E+00    2.117E+00    2.121E+00    2.126E+00    2.130E+00    2.135E+00    2.139E+00    2.144E+00    2.148E+00    2.153E+00
     2.157E+00    2.162E+00    2.167E+00    2.171E+00    2.176E+00    2.180E+00    2.185E+00    2.189E+00    2.194E+00    2.198E+00
     2.203E+00    2.207E+00    2.212E+00    2.216E+00    2.221E+00    2.225E+00    2.230E+00    2.235E+00    2.239E+00    2.244E+00
     2.248E+00    2.253E+00    2.257E+00    2.262E+00    2.266E+00    2.271E+00    2.275E+00    2.280E+00    2.284E+00    2.289E+00
     2.293E+00    2.298E+00    2.302E+00    2.307E+00    2.311E+00    2.316E+00    2.320E+00    2.325E+00    2.329E+00    2.334E+00
     2.338E+00    2.343E+00    2.348E+00    2.352E+00    2.357E+00    2.361E+00    2.366E+00    2.370E+00    2.375E+00    2.379E+00
     2.384E+00    2.388E+00    2.393E+00    2.397E+00    2.402E+00    2.406E+00    2.411E+00    2.415E+00    2.420E+00    2.424E+00
     2.429E+00    2.433E+00    2.437E+00    2.442E+00    2.446E+00    2.451E+00    2.455E+00    2.460E+00    2.464E+00    2.469E+00
     2.473E+00    2.478E+00    2.482E+00    2.487E+00    2.491E+00    2.496E+00    2.500E+00    2.505E+00    2.509E+00    2.514E+00
     2.518E+00    2.523E+00    2.527E+00    2.532E+00    2.536E+00    2.541E+00    2.545E+00    2.549E+00    2.554E+00    2.558E+00
     2.563E+00    2.567E+00    2.572E+00    2.576E+00    2.581E+00    2.585E+00    2.590E+00    2.594E+00    2.599E+00    2.603E+00
     2.607E+00    2.612E+00    2.616E+00    2.621E+00    2.625E+00    2.630E+00    2.634E+00    2.639E+00    2.643E+00    2.648E+00
     2.652E+00    2.656E+00    2.661E+00    2.665E+00    2.670E+00    2.674E+00    2.679E+00    2.683E+00    2.688E+00    2.692E+00
     2.696E+00    2.701E+00    2.705E+00    2.710E+00    2.714E+00    2.719E+00    2.723E+00    2.728E+00    2.732E+00    2.736E+00
     2.741E+00    2.745E+00    2.750E+00    2.754E+00    2.759E+00    2.763E+00    2.767E+00    2.772E+00    2.776E+00    2.781E+00
     2.785E+00    2.790E+00    2.794E+00    2.798E+00    2.803E+00    2.807E+00    2.812E+00    2.816E+00    2.821E+00    2.825E+00
     2.829E+00    2.834E+00    2.838E+00    2.843E+00    2.847E+00    2.851E+00    2.856E+00    2.860E+00    2.865E+00    2.869E+00
     2.874E+00    2.878E+00    2.882E+00    2.887E+00    2.891E+00    2.896E+00    2.900E+00    2.904E+00    2.909E+00    2.913E+00
     2.918E+00    2.922E+00    2.927E+00    2.931E+00    2.935E+00    2.940E+00    2.944E+00    2.949E+00    2.953E+00    2.957E+00
     2.962E+00    2.966E+00    2.971E+00    2.975E+00    2.979E+00    2.984E+00    2.988E+00    2.993E+00    2.997E+00    3.001E+00
     3.006E+00    3.010E+00    3.015E+00    3.019E+00    3.023E+00    3.028E+00    3.032E+00    3.037E+00    3.041E+00    3.045E+00
     3.050E+00    3.054E+00    3.059E+00    3.063E+00    3.067E+00    3.072E+00    3.076E+00    3.081E+00    3.085E+00    3.089E+00
     3.094E+00    3.098E+00    3.103E+00    3.107E+00    3.111E+00    3.116E+00    3.120E+00    3.125E+00    3.129E+00    3.133E+00
     3.138E+00    3.142E+00    3.147E+00    3.151E+00    3.155E+00    3.160E+00    3.164E+00    3.168E+00    3.173E+00    3.177E+00
     3.182E+00    3.186E+00    3.190E+00    3.195E+00    3.199E+00    3.204E+00    3.208E+00    3.212E+00    3.217E+00    3.221E+00
     3.226E+00    3.230E+00    3.234E+00    3.239E+00    3.243E+00    3.248E+00    3.252E+00    3.256E+00
 Ala      Conc. = 3.00E+03
