 LCModel (Version 6.3-1L) Copyright: S.W. Provencher.          Ref.: Magn. Reson. Med. 30:672-679 (1993).                
 Slice#3 Row#3 Col#11  PD_05_press_1_raw_act
 36 lines in following concentration table = NCONC+1
    Conc.  %SD /Cr+PCr  Metabolite                                         
 3.01E+03  24%   7.401 Ala                                                 
  149.013  71%   0.366 Asp                                                 
    0.000 999%   0.000 Cr                                                  
  407.043  20%   1.000 PCr                                                 
   50.252 131%   0.123 GABA                                                
   52.893 124%   0.130 Glc                                                 
 1.12E+03  59%   2.748 Gln                                                 
 2.78E+03  33%   6.820 Glu                                                 
    0.000 999%   0.000 GPC                                                 
  162.674  17%   0.400 PCh                                                 
    0.000 999%   0.000 GSH                                                 
  652.578  47%   1.603 Ins                                                 
 3.93E+03  25%   9.662 Lac                                                 
  491.386  17%   1.207 NAA                                                 
    0.000 999%   0.000 NAAG                                                
   66.989  30%   0.165 Scyllo                                              
  115.260  92%   0.283 Tau                                                 
   18.877 659% 4.6E-02 -CrCH2                                              
  162.674  17%   0.400 GPC+PCh                                             
  491.386  17%   1.207 NAA+NAAG                                            
  407.043  20%   1.000 Cr+PCr                                              
 3.89E+03  36%   9.568 Glu+Gln                                             
 1.43E+04   7%  35.239 Lip13a                                              
  438.276  49%   1.077 Lip13b                                              
    0.000 999%   0.000 Lip09                                               
  643.769  33%   1.582 MM09                                                
 2.29E+03  27%   5.634 Lip20                                               
  976.545  33%   2.399 MM20                                                
  192.699  35%   0.473 MM12                                                
  572.638  31%   1.407 MM14                                                
  215.757  47%   0.530 MM17                                                
 1.48E+04   6%  36.316 Lip13a+Lip13b                                       
 1.55E+04   6%  38.196 MM14+Lip13a+Lip13b+MM12                             
  643.769  33%   1.582 MM09+Lip09                                          
 3.27E+03  15%   8.033 MM20+Lip20                                          
   6 lines in following misc. output table
  FWHM = 0.153 ppm    S/N =  24                                            
  Data shift =-0.046 ppm                                                   
  Ph: -71 deg     -35.6 deg/ppm                                            
  alphaB,S = 5.8E-01,   5.2E+02                                            
   12 spline knots.   Ns = 9(2)                                            
  (13) 2 infls.   ( 9) 1 extrs.                                            
  498 points on ppm-axis = NY
      4.000000     3.992357     3.984714     3.977070     3.969427     3.961784     3.954141     3.946497     3.938854     3.931211
      3.923568     3.915925     3.908281     3.900638     3.892995     3.885352     3.877708     3.870065     3.862422     3.854779
      3.847136     3.839492     3.831849     3.824206     3.816563     3.808919     3.801276     3.793633     3.785990     3.778347
      3.770703     3.763060     3.755417     3.747774     3.740130     3.732487     3.724844     3.717201     3.709558     3.701914
      3.694271     3.686628     3.678985     3.671341     3.663698     3.656055     3.648412     3.640769     3.633125     3.625482
      3.617839     3.610196     3.602552     3.594909     3.587266     3.579623     3.571980     3.564336     3.556693     3.549050
      3.541407     3.533763     3.526120     3.518477     3.510834     3.503191     3.495547     3.487904     3.480261     3.472618
      3.464974     3.457331     3.449688     3.442045     3.434402     3.426758     3.419115     3.411472     3.403829     3.396185
      3.388542     3.380899     3.373256     3.365613     3.357969     3.350326     3.342683     3.335040     3.327396     3.319753
      3.312110     3.304467     3.296824     3.289180     3.281537     3.273894     3.266251     3.258607     3.250964     3.243321
      3.235678     3.228034     3.220391     3.212748     3.205105     3.197462     3.189818     3.182175     3.174532     3.166889
      3.159245     3.151602     3.143959     3.136316     3.128673     3.121029     3.113386     3.105743     3.098100     3.090456
      3.082813     3.075170     3.067527     3.059884     3.052240     3.044597     3.036954     3.029311     3.021667     3.014024
      3.006381     2.998738     2.991095     2.983451     2.975808     2.968165     2.960522     2.952878     2.945235     2.937592
      2.929949     2.922306     2.914662     2.907019     2.899376     2.891733     2.884089     2.876446     2.868803     2.861160
      2.853517     2.845873     2.838230     2.830587     2.822944     2.815300     2.807657     2.800014     2.792371     2.784728
      2.777084     2.769441     2.761798     2.754155     2.746511     2.738868     2.731225     2.723582     2.715939     2.708295
      2.700652     2.693009     2.685366     2.677722     2.670079     2.662436     2.654793     2.647150     2.639506     2.631863
      2.624220     2.616577     2.608933     2.601290     2.593647     2.586004     2.578361     2.570717     2.563074     2.555431
      2.547788     2.540144     2.532501     2.524858     2.517215     2.509572     2.501928     2.494285     2.486642     2.478999
      2.471355     2.463712     2.456069     2.448426     2.440783     2.433139     2.425496     2.417853     2.410210     2.402566
      2.394923     2.387280     2.379637     2.371994     2.364350     2.356707     2.349064     2.341421     2.333777     2.326134
      2.318491     2.310848     2.303205     2.295561     2.287918     2.280275     2.272632     2.264988     2.257345     2.249702
      2.242059     2.234416     2.226772     2.219129     2.211486     2.203843     2.196199     2.188556     2.180913     2.173270
      2.165627     2.157983     2.150340     2.142697     2.135054     2.127410     2.119767     2.112124     2.104481     2.096838
      2.089194     2.081551     2.073908     2.066265     2.058621     2.050978     2.043335     2.035692     2.028049     2.020405
      2.012762     2.005119     1.997476     1.989833     1.982190     1.974546     1.966903     1.959260     1.951617     1.943974
      1.936331     1.928688     1.921045     1.913402     1.905759     1.898115     1.890472     1.882829     1.875186     1.867543
      1.859900     1.852257     1.844614     1.836971     1.829327     1.821684     1.814041     1.806398     1.798755     1.791112
      1.783469     1.775826     1.768183     1.760540     1.752896     1.745253     1.737610     1.729967     1.722324     1.714681
      1.707038     1.699395     1.691752     1.684108     1.676465     1.668822     1.661179     1.653536     1.645893     1.638250
      1.630607     1.622964     1.615321     1.607677     1.600034     1.592391     1.584748     1.577105     1.569462     1.561819
      1.554176     1.546533     1.538890     1.531246     1.523603     1.515960     1.508317     1.500674     1.493031     1.485388
      1.477745     1.470102     1.462458     1.454815     1.447172     1.439529     1.431886     1.424243     1.416600     1.408957
      1.401314     1.393671     1.386027     1.378384     1.370741     1.363098     1.355455     1.347812     1.340169     1.332526
      1.324883     1.317240     1.309596     1.301953     1.294310     1.286667     1.279024     1.271381     1.263738     1.256095
      1.248452     1.240808     1.233165     1.225522     1.217879     1.210236     1.202593     1.194950     1.187307     1.179664
      1.172021     1.164377     1.156734     1.149091     1.141448     1.133805     1.126162     1.118519     1.110876     1.103233
      1.095590     1.087946     1.080303     1.072660     1.065017     1.057374     1.049731     1.042088     1.034445     1.026802
      1.019158     1.011515     1.003872     0.996229     0.988586     0.980943     0.973300     0.965657     0.958014     0.950371
      0.942727     0.935084     0.927441     0.919798     0.912155     0.904512     0.896869     0.889226     0.881583     0.873940
      0.866296     0.858653     0.851010     0.843367     0.835724     0.828081     0.820438     0.812795     0.805152     0.797508
      0.789865     0.782222     0.774579     0.766936     0.759293     0.751650     0.744007     0.736364     0.728721     0.721077
      0.713434     0.705791     0.698148     0.690505     0.682862     0.675219     0.667576     0.659933     0.652290     0.644646
      0.637003     0.629360     0.621717     0.614074     0.606431     0.598788     0.591145     0.583502     0.575858     0.568215
      0.560572     0.552929     0.545286     0.537643     0.530000     0.522357     0.514714     0.507071     0.499427     0.491784
      0.484141     0.476498     0.468855     0.461212     0.453569     0.445925     0.438282     0.430639     0.422996     0.415353
      0.407710     0.400067     0.392424     0.384780     0.377137     0.369494     0.361851     0.354208     0.346565     0.338922
      0.331278     0.323635     0.315992     0.308349     0.300706     0.293063     0.285420     0.277777     0.270133     0.262490
      0.254847     0.247204     0.239561     0.231918     0.224275     0.216631     0.208988     0.201345
 NY phased data points follow
   2.33324E+01  2.25143E+01  2.35445E+01  2.38863E+01  2.12111E+01  2.32383E+01  2.17697E+01  2.44019E+01  2.39958E+01  2.19150E+01
   2.24927E+01  2.31271E+01  2.19339E+01  2.22640E+01  2.38730E+01  2.28205E+01  2.06073E+01  2.23698E+01  2.21476E+01  2.68110E+01
   2.10570E+01  1.93278E+01  2.33126E+01  2.34945E+01  2.04440E+01  2.20706E+01  1.85593E+01  1.93602E+01  2.34054E+01  2.13095E+01
   2.29538E+01  2.18124E+01  2.30204E+01  2.24413E+01  2.28072E+01  2.26479E+01  2.45452E+01  2.46991E+01  2.37896E+01  2.23535E+01
   2.27111E+01  2.41507E+01  2.39465E+01  2.44066E+01  2.42419E+01  2.63610E+01  2.40608E+01  2.33914E+01  2.56572E+01  2.27298E+01
   2.25096E+01  2.34283E+01  2.49600E+01  2.37102E+01  2.31818E+01  2.27406E+01  2.38407E+01  2.32470E+01  2.37445E+01  2.33875E+01
   2.54836E+01  2.06801E+01  2.52493E+01  2.34651E+01  2.41216E+01  2.36514E+01  2.34550E+01  2.38207E+01  2.47460E+01  2.44645E+01
   2.42950E+01  2.41867E+01  2.56332E+01  2.57879E+01  2.57568E+01  2.55878E+01  2.61437E+01  2.75423E+01  2.44402E+01  2.68650E+01
   2.80691E+01  2.67712E+01  2.74558E+01  2.82576E+01  2.84040E+01  2.84904E+01  2.88240E+01  2.96557E+01  3.09190E+01  2.99902E+01
   2.92603E+01  2.87303E+01  3.09973E+01  3.02934E+01  3.07363E+01  2.87755E+01  3.02633E+01  3.07830E+01  3.16074E+01  3.07181E+01
   3.24985E+01  3.03969E+01  3.31500E+01  3.43310E+01  3.34382E+01  3.20969E+01  3.38338E+01  3.49325E+01  3.50307E+01  3.42644E+01
   3.14271E+01  3.17627E+01  3.51746E+01  3.53072E+01  3.18975E+01  3.29431E+01  3.35472E+01  3.33220E+01  3.43009E+01  3.36644E+01
   3.45297E+01  3.52340E+01  3.45357E+01  3.38027E+01  3.49891E+01  3.86586E+01  3.61712E+01  3.70035E+01  3.67525E+01  3.83755E+01
   3.67723E+01  3.98016E+01  3.76866E+01  4.05269E+01  3.59354E+01  3.76653E+01  3.61097E+01  3.85157E+01  3.87219E+01  3.69864E+01
   3.70923E+01  3.63555E+01  3.67584E+01  3.67049E+01  3.58883E+01  3.45866E+01  3.66368E+01  3.87024E+01  3.73695E+01  3.64121E+01
   3.73013E+01  3.62503E+01  3.95510E+01  3.64822E+01  3.81821E+01  3.82868E+01  3.85377E+01  3.94877E+01  3.89460E+01  4.08607E+01
   3.92136E+01  3.76400E+01  4.33616E+01  4.29584E+01  4.07973E+01  4.05516E+01  4.09585E+01  4.28798E+01  4.36914E+01  4.60635E+01
   4.32253E+01  4.36819E+01  4.26683E+01  4.32524E+01  4.31917E+01  4.36316E+01  4.49005E+01  4.53349E+01  4.69425E+01  4.53374E+01
   4.28586E+01  4.50902E+01  4.36126E+01  4.70234E+01  4.57576E+01  4.35994E+01  4.71554E+01  4.82782E+01  4.71142E+01  4.63456E+01
   4.94924E+01  4.78147E+01  4.79390E+01  4.77168E+01  4.94821E+01  5.06218E+01  4.87597E+01  4.73196E+01  4.89437E+01  4.75396E+01
   5.08820E+01  5.14081E+01  5.13203E+01  5.17401E+01  5.23082E+01  5.42644E+01  5.23330E+01  5.25174E+01  5.45904E+01  5.55071E+01
   5.33749E+01  5.33134E+01  5.52987E+01  5.79729E+01  5.41254E+01  5.80256E+01  5.79521E+01  5.87203E+01  5.96890E+01  6.06893E+01
   6.07773E+01  5.84017E+01  6.12850E+01  6.02857E+01  6.20544E+01  6.26356E+01  6.30419E+01  6.54669E+01  6.76686E+01  6.81161E+01
   6.47037E+01  6.54740E+01  6.79867E+01  6.73355E+01  6.82305E+01  7.10209E+01  7.11916E+01  7.18785E+01  7.05761E+01  7.43747E+01
   7.20047E+01  7.65406E+01  7.60034E+01  7.64119E+01  7.88475E+01  8.04436E+01  7.84367E+01  8.01236E+01  8.21112E+01  8.12300E+01
   8.54336E+01  8.40107E+01  8.42182E+01  8.54980E+01  8.30677E+01  8.58359E+01  8.56385E+01  8.74025E+01  8.79851E+01  8.96493E+01
   9.17419E+01  8.93725E+01  8.73592E+01  8.93614E+01  8.95858E+01  9.29306E+01  9.16102E+01  9.11275E+01  8.96938E+01  8.67274E+01
   8.63740E+01  8.89075E+01  9.06386E+01  8.93828E+01  8.74970E+01  8.75382E+01  8.88275E+01  8.58655E+01  8.31109E+01  8.54081E+01
   8.68668E+01  8.64484E+01  8.32869E+01  8.30708E+01  8.49494E+01  8.46566E+01  8.60839E+01  8.35330E+01  8.48483E+01  8.46488E+01
   8.22232E+01  8.50671E+01  8.61053E+01  8.44359E+01  8.42288E+01  8.59588E+01  8.43706E+01  8.18158E+01  8.18169E+01  8.31880E+01
   8.62296E+01  8.53881E+01  8.46149E+01  8.46177E+01  8.21798E+01  8.34046E+01  8.60952E+01  8.32356E+01  8.76201E+01  8.63081E+01
   8.70849E+01  8.72297E+01  8.65853E+01  8.63575E+01  8.81525E+01  8.81090E+01  8.77396E+01  8.71476E+01  8.89512E+01  8.87101E+01
   9.00672E+01  8.81287E+01  8.94878E+01  8.93463E+01  8.95437E+01  8.87854E+01  8.98473E+01  8.95073E+01  8.79594E+01  8.60417E+01
   9.04089E+01  8.99099E+01  8.91314E+01  9.07207E+01  9.07265E+01  9.17383E+01  9.15723E+01  9.20533E+01  9.29845E+01  9.34069E+01
   9.16467E+01  9.31882E+01  9.24339E+01  9.63030E+01  9.35313E+01  9.36970E+01  9.77467E+01  9.56800E+01  9.76345E+01  9.85119E+01
   1.02036E+02  1.02799E+02  1.05427E+02  1.05432E+02  1.07714E+02  1.13169E+02  1.12497E+02  1.17563E+02  1.17996E+02  1.22533E+02
   1.26565E+02  1.25750E+02  1.29672E+02  1.28728E+02  1.34856E+02  1.35174E+02  1.39579E+02  1.39451E+02  1.41089E+02  1.41675E+02
   1.41947E+02  1.42907E+02  1.40582E+02  1.39593E+02  1.34367E+02  1.33005E+02  1.28775E+02  1.25035E+02  1.21130E+02  1.16403E+02
   1.10671E+02  1.07427E+02  1.03855E+02  9.59950E+01  9.30487E+01  9.01532E+01  8.65863E+01  8.41882E+01  7.98458E+01  7.87625E+01
   7.45320E+01  7.19527E+01  7.01176E+01  7.10268E+01  6.39155E+01  6.57682E+01  6.56581E+01  6.23952E+01  5.96564E+01  5.82544E+01
   5.70741E+01  5.58788E+01  5.37655E+01  5.25142E+01  5.26537E+01  5.14909E+01  5.10957E+01  4.65299E+01  5.00843E+01  4.72777E+01
   4.69437E+01  4.52586E+01  4.49779E+01  4.63614E+01  4.14499E+01  4.44258E+01  4.32536E+01  4.55398E+01  4.03228E+01  4.18703E+01
   4.04218E+01  3.95695E+01  3.83923E+01  3.85155E+01  3.95222E+01  3.95037E+01  3.54987E+01  3.85713E+01  3.64268E+01  3.58831E+01
   3.54545E+01  3.47227E+01  3.64478E+01  3.37971E+01  3.54416E+01  3.29797E+01  3.35234E+01  3.27028E+01  3.46759E+01  3.32580E+01
   3.28899E+01  3.10232E+01  3.37657E+01  3.11268E+01  2.98588E+01  3.07820E+01  2.94616E+01  2.97550E+01  2.89297E+01  2.86724E+01
   2.97937E+01  2.85936E+01  2.82939E+01  2.85573E+01  2.76666E+01  2.97580E+01  2.99795E+01  2.90659E+01  2.67270E+01  2.42485E+01
   2.66194E+01  2.42319E+01  2.83804E+01  2.57835E+01  2.77634E+01  2.55803E+01  2.47693E+01  2.71142E+01  2.48464E+01  2.57464E+01
   2.48387E+01  2.53613E+01  2.41383E+01  2.25213E+01  2.19767E+01  2.46313E+01  2.28578E+01  2.40096E+01  2.43492E+01  2.27459E+01
   2.30013E+01  2.60348E+01  2.27719E+01  2.21540E+01  2.25629E+01  2.23155E+01  2.07559E+01  2.34425E+01  2.26233E+01  2.29729E+01
   2.13661E+01  2.30641E+01  2.30921E+01  2.27413E+01  2.12557E+01  2.01773E+01  2.13657E+01  2.21468E+01
 NY points of the fit to the data follow
   2.10301E+01  2.24881E+01  2.14561E+01  2.29450E+01  2.20384E+01  2.34841E+01  2.25248E+01  2.37979E+01  2.27069E+01  2.36982E+01
   2.25096E+01  2.33029E+01  2.21465E+01  2.30212E+01  2.20373E+01  2.29544E+01  2.21776E+01  2.29975E+01  2.23787E+01  2.29721E+01
   2.24071E+01  2.28176E+01  2.23377E+01  2.24991E+01  2.21639E+01  2.20867E+01  2.19859E+01  2.17598E+01  2.19809E+01  2.17222E+01
   2.22812E+01  2.20279E+01  2.27542E+01  2.24122E+01  2.31849E+01  2.27141E+01  2.34504E+01  2.28595E+01  2.35300E+01  2.28766E+01
   2.35133E+01  2.29800E+01  2.36837E+01  2.33210E+01  2.40469E+01  2.37897E+01  2.44118E+01  2.41797E+01  2.44678E+01  2.40874E+01
   2.41646E+01  2.38222E+01  2.38516E+01  2.36698E+01  2.38177E+01  2.38103E+01  2.40399E+01  2.39983E+01  2.41986E+01  2.41065E+01
   2.42618E+01  2.42080E+01  2.43183E+01  2.42522E+01  2.43692E+01  2.43228E+01  2.44698E+01  2.44837E+01  2.47239E+01  2.47892E+01
   2.51004E+01  2.51358E+01  2.54498E+01  2.54255E+01  2.57491E+01  2.56725E+01  2.60093E+01  2.58931E+01  2.62553E+01  2.61176E+01
   2.65161E+01  2.63636E+01  2.67956E+01  2.66237E+01  2.71020E+01  2.70591E+01  2.75926E+01  2.76062E+01  2.81610E+01  2.82146E+01
   2.87852E+01  2.88796E+01  2.94564E+01  2.95816E+01  3.01770E+01  3.03274E+01  3.09289E+01  3.11040E+01  3.16961E+01  3.18375E+01
   3.23884E+01  3.24477E+01  3.29376E+01  3.28736E+01  3.32967E+01  3.31005E+01  3.34739E+01  3.31975E+01  3.36418E+01  3.33857E+01
   3.37609E+01  3.36002E+01  3.38861E+01  3.38633E+01  3.40387E+01  3.41552E+01  3.41838E+01  3.44438E+01  3.43211E+01  3.47773E+01
   3.45212E+01  3.52434E+01  3.48569E+01  3.58859E+01  3.53957E+01  3.67369E+01  3.61210E+01  3.74423E+01  3.66640E+01  3.78851E+01
   3.70098E+01  3.80943E+01  3.71789E+01  3.80995E+01  3.72355E+01  3.80148E+01  3.72417E+01  3.78836E+01  3.72107E+01  3.77005E+01
   3.71447E+01  3.74743E+01  3.70732E+01  3.72689E+01  3.70633E+01  3.71847E+01  3.72080E+01  3.73553E+01  3.76078E+01  3.78774E+01
   3.81399E+01  3.84124E+01  3.86625E+01  3.89307E+01  3.91620E+01  3.94199E+01  3.96304E+01  3.98761E+01  4.00621E+01  4.02964E+01
   4.04641E+01  4.06908E+01  4.08418E+01  4.10557E+01  4.11916E+01  4.13959E+01  4.15312E+01  4.17283E+01  4.18656E+01  4.20492E+01
   4.21933E+01  4.23722E+01  4.25333E+01  4.27152E+01  4.28971E+01  4.30804E+01  4.32776E+01  4.34684E+01  4.36666E+01  4.38734E+01
   4.40694E+01  4.42980E+01  4.44984E+01  4.47875E+01  4.50182E+01  4.53917E+01  4.56592E+01  4.61433E+01  4.64053E+01  4.69550E+01
   4.71854E+01  4.76840E+01  4.78209E+01  4.83154E+01  4.84310E+01  4.89806E+01  4.91717E+01  4.99188E+01  5.01817E+01  5.10230E+01
   5.13103E+01  5.21354E+01  5.23580E+01  5.29930E+01  5.30682E+01  5.35947E+01  5.36741E+01  5.41647E+01  5.43471E+01  5.48808E+01
   5.52129E+01  5.57858E+01  5.62384E+01  5.67607E+01  5.72633E+01  5.76602E+01  5.81798E+01  5.84219E+01  5.89586E+01  5.91582E+01
   5.98248E+01  6.01017E+01  6.09784E+01  6.14882E+01  6.24949E+01  6.31735E+01  6.41872E+01  6.49343E+01  6.57871E+01  6.64505E+01
   6.70699E+01  6.76417E+01  6.80571E+01  6.88116E+01  6.92503E+01  7.03281E+01  7.08154E+01  7.22014E+01  7.25929E+01  7.39197E+01
   7.41147E+01  7.53273E+01  7.54978E+01  7.66499E+01  7.68090E+01  7.80919E+01  7.84183E+01  7.97842E+01  8.02623E+01  8.16690E+01
   8.22046E+01  8.35633E+01  8.40815E+01  8.53176E+01  8.58125E+01  8.69376E+01  8.73559E+01  8.83404E+01  8.85915E+01  8.94396E+01
   8.95093E+01  9.01772E+01  9.00080E+01  9.04959E+01  9.00802E+01  9.03491E+01  8.97678E+01  8.98460E+01  8.91679E+01  8.91222E+01
   8.84159E+01  8.82631E+01  8.75370E+01  8.73211E+01  8.66345E+01  8.63651E+01  8.57529E+01  8.54337E+01  8.49401E+01  8.46061E+01
   8.43111E+01  8.41010E+01  8.40922E+01  8.40688E+01  8.40787E+01  8.41256E+01  8.41346E+01  8.41920E+01  8.42089E+01  8.42674E+01
   8.42811E+01  8.43315E+01  8.43431E+01  8.43870E+01  8.44096E+01  8.44634E+01  8.45002E+01  8.45554E+01  8.46002E+01  8.46556E+01
   8.47062E+01  8.47645E+01  8.48257E+01  8.49046E+01  8.50002E+01  8.51315E+01  8.53093E+01  8.55751E+01  8.60040E+01  8.66472E+01
   8.69747E+01  8.76482E+01  8.77373E+01  8.83185E+01  8.80941E+01  8.84718E+01  8.78186E+01  8.83439E+01  8.76847E+01  8.83545E+01
   8.77576E+01  8.85048E+01  8.79024E+01  8.85858E+01  8.79815E+01  8.84834E+01  8.79471E+01  8.82922E+01  8.81666E+01  8.88488E+01
   8.90603E+01  8.96053E+01  9.01178E+01  9.03105E+01  9.11189E+01  9.08076E+01  9.16644E+01  9.13382E+01  9.23484E+01  9.19934E+01
   9.31023E+01  9.27140E+01  9.38092E+01  9.35389E+01  9.47426E+01  9.47424E+01  9.61940E+01  9.66429E+01  9.84011E+01  9.95414E+01
   1.01295E+02  1.02802E+02  1.04719E+02  1.06704E+02  1.08834E+02  1.11323E+02  1.13567E+02  1.16501E+02  1.19040E+02  1.21791E+02
   1.24297E+02  1.26659E+02  1.29120E+02  1.31368E+02  1.33847E+02  1.36071E+02  1.38406E+02  1.40361E+02  1.42080E+02  1.43199E+02
   1.43366E+02  1.42441E+02  1.40989E+02  1.38317E+02  1.35438E+02  1.31594E+02  1.27755E+02  1.23803E+02  1.19687E+02  1.15438E+02
   1.11114E+02  1.06777E+02  1.02491E+02  9.83118E+01  9.42881E+01  9.04590E+01  8.68512E+01  8.34832E+01  8.03617E+01  7.74868E+01
   7.48494E+01  7.24368E+01  7.02301E+01  6.82102E+01  6.63544E+01  6.46425E+01  6.30532E+01  6.15687E+01  6.01715E+01  5.88489E+01
   5.75883E+01  5.63820E+01  5.52222E+01  5.41053E+01  5.30272E+01  5.19872E+01  5.09832E+01  5.00161E+01  4.90845E+01  4.81897E+01
   4.73302E+01  4.65069E+01  4.57180E+01  4.49637E+01  4.42417E+01  4.35515E+01  4.28904E+01  4.22578E+01  4.16508E+01  4.10685E+01
   4.05082E+01  3.99690E+01  3.94484E+01  3.89459E+01  3.84590E+01  3.79877E+01  3.75296E+01  3.70850E+01  3.66517E+01  3.62303E+01
   3.58189E+01  3.54181E+01  3.50262E+01  3.46440E+01  3.42699E+01  3.39047E+01  3.35471E+01  3.31979E+01  3.28558E+01  3.25217E+01
   3.21943E+01  3.18747E+01  3.15616E+01  3.12559E+01  3.09564E+01  3.06639E+01  3.03772E+01  3.00971E+01  2.98224E+01  2.95540E+01
   2.92907E+01  2.90333E+01  2.87807E+01  2.85338E+01  2.82913E+01  2.80542E+01  2.78213E+01  2.75936E+01  2.73698E+01  2.71509E+01
   2.69357E+01  2.67252E+01  2.65181E+01  2.63155E+01  2.61161E+01  2.59209E+01  2.57288E+01  2.55406E+01  2.53553E+01  2.51738E+01
   2.49949E+01  2.48196E+01  2.46467E+01  2.44773E+01  2.43100E+01  2.41460E+01  2.39840E+01  2.38251E+01  2.36680E+01  2.35137E+01
   2.33611E+01  2.32111E+01  2.30627E+01  2.29167E+01  2.27720E+01  2.26296E+01  2.24884E+01  2.23492E+01  2.22110E+01  2.20748E+01
   2.19393E+01  2.18057E+01  2.16726E+01  2.15412E+01  2.14102E+01  2.12807E+01  2.11515E+01  2.10236E+01
 NY background values follow
     1.655E+01    1.656E+01    1.658E+01    1.660E+01    1.662E+01    1.664E+01    1.667E+01    1.670E+01    1.673E+01    1.676E+01
     1.679E+01    1.683E+01    1.687E+01    1.691E+01    1.696E+01    1.700E+01    1.705E+01    1.710E+01    1.715E+01    1.721E+01
     1.726E+01    1.732E+01    1.738E+01    1.744E+01    1.751E+01    1.757E+01    1.764E+01    1.771E+01    1.778E+01    1.785E+01
     1.792E+01    1.799E+01    1.807E+01    1.815E+01    1.822E+01    1.830E+01    1.838E+01    1.847E+01    1.855E+01    1.863E+01
     1.872E+01    1.880E+01    1.889E+01    1.898E+01    1.907E+01    1.916E+01    1.925E+01    1.934E+01    1.943E+01    1.952E+01
     1.962E+01    1.971E+01    1.981E+01    1.990E+01    2.000E+01    2.009E+01    2.019E+01    2.029E+01    2.038E+01    2.048E+01
     2.058E+01    2.068E+01    2.078E+01    2.088E+01    2.098E+01    2.108E+01    2.118E+01    2.128E+01    2.138E+01    2.149E+01
     2.159E+01    2.170E+01    2.180E+01    2.191E+01    2.202E+01    2.213E+01    2.224E+01    2.235E+01    2.246E+01    2.257E+01
     2.269E+01    2.280E+01    2.292E+01    2.303E+01    2.315E+01    2.327E+01    2.339E+01    2.351E+01    2.364E+01    2.376E+01
     2.389E+01    2.402E+01    2.414E+01    2.427E+01    2.441E+01    2.454E+01    2.467E+01    2.481E+01    2.495E+01    2.509E+01
     2.523E+01    2.537E+01    2.552E+01    2.566E+01    2.581E+01    2.596E+01    2.611E+01    2.627E+01    2.642E+01    2.658E+01
     2.674E+01    2.690E+01    2.706E+01    2.723E+01    2.739E+01    2.756E+01    2.774E+01    2.791E+01    2.808E+01    2.826E+01
     2.844E+01    2.862E+01    2.880E+01    2.899E+01    2.917E+01    2.936E+01    2.955E+01    2.974E+01    2.993E+01    3.013E+01
     3.033E+01    3.053E+01    3.073E+01    3.093E+01    3.113E+01    3.134E+01    3.155E+01    3.175E+01    3.197E+01    3.218E+01
     3.239E+01    3.261E+01    3.283E+01    3.304E+01    3.327E+01    3.349E+01    3.371E+01    3.394E+01    3.417E+01    3.439E+01
     3.463E+01    3.486E+01    3.509E+01    3.533E+01    3.556E+01    3.580E+01    3.604E+01    3.628E+01    3.653E+01    3.677E+01
     3.702E+01    3.726E+01    3.751E+01    3.776E+01    3.801E+01    3.827E+01    3.852E+01    3.878E+01    3.903E+01    3.929E+01
     3.955E+01    3.981E+01    4.008E+01    4.034E+01    4.061E+01    4.088E+01    4.115E+01    4.142E+01    4.170E+01    4.197E+01
     4.225E+01    4.253E+01    4.282E+01    4.310E+01    4.339E+01    4.368E+01    4.397E+01    4.427E+01    4.456E+01    4.486E+01
     4.517E+01    4.547E+01    4.578E+01    4.609E+01    4.640E+01    4.672E+01    4.703E+01    4.736E+01    4.768E+01    4.801E+01
     4.834E+01    4.867E+01    4.901E+01    4.935E+01    4.969E+01    5.004E+01    5.039E+01    5.074E+01    5.110E+01    5.146E+01
     5.182E+01    5.219E+01    5.256E+01    5.294E+01    5.332E+01    5.370E+01    5.409E+01    5.448E+01    5.487E+01    5.527E+01
     5.567E+01    5.608E+01    5.649E+01    5.690E+01    5.732E+01    5.774E+01    5.817E+01    5.859E+01    5.902E+01    5.945E+01
     5.989E+01    6.032E+01    6.076E+01    6.119E+01    6.163E+01    6.207E+01    6.251E+01    6.295E+01    6.338E+01    6.382E+01
     6.426E+01    6.469E+01    6.513E+01    6.556E+01    6.599E+01    6.641E+01    6.684E+01    6.726E+01    6.767E+01    6.809E+01
     6.850E+01    6.890E+01    6.931E+01    6.970E+01    7.009E+01    7.048E+01    7.086E+01    7.124E+01    7.160E+01    7.197E+01
     7.232E+01    7.267E+01    7.301E+01    7.334E+01    7.367E+01    7.399E+01    7.430E+01    7.460E+01    7.489E+01    7.517E+01
     7.544E+01    7.570E+01    7.596E+01    7.620E+01    7.643E+01    7.665E+01    7.686E+01    7.706E+01    7.724E+01    7.741E+01
     7.758E+01    7.773E+01    7.787E+01    7.800E+01    7.812E+01    7.822E+01    7.832E+01    7.840E+01    7.848E+01    7.854E+01
     7.860E+01    7.864E+01    7.867E+01    7.870E+01    7.871E+01    7.871E+01    7.870E+01    7.869E+01    7.866E+01    7.862E+01
     7.858E+01    7.852E+01    7.845E+01    7.838E+01    7.830E+01    7.820E+01    7.810E+01    7.799E+01    7.787E+01    7.774E+01
     7.760E+01    7.746E+01    7.730E+01    7.714E+01    7.697E+01    7.679E+01    7.660E+01    7.641E+01    7.620E+01    7.599E+01
     7.577E+01    7.555E+01    7.531E+01    7.507E+01    7.482E+01    7.456E+01    7.430E+01    7.403E+01    7.375E+01    7.346E+01
     7.317E+01    7.287E+01    7.257E+01    7.225E+01    7.194E+01    7.161E+01    7.128E+01    7.094E+01    7.060E+01    7.025E+01
     6.990E+01    6.954E+01    6.917E+01    6.880E+01    6.843E+01    6.805E+01    6.766E+01    6.727E+01    6.688E+01    6.648E+01
     6.608E+01    6.568E+01    6.527E+01    6.486E+01    6.444E+01    6.402E+01    6.360E+01    6.317E+01    6.275E+01    6.232E+01
     6.188E+01    6.145E+01    6.101E+01    6.057E+01    6.013E+01    5.969E+01    5.924E+01    5.879E+01    5.835E+01    5.790E+01
     5.745E+01    5.700E+01    5.654E+01    5.609E+01    5.564E+01    5.519E+01    5.473E+01    5.428E+01    5.383E+01    5.338E+01
     5.292E+01    5.247E+01    5.202E+01    5.157E+01    5.113E+01    5.068E+01    5.023E+01    4.979E+01    4.935E+01    4.891E+01
     4.847E+01    4.803E+01    4.760E+01    4.716E+01    4.673E+01    4.630E+01    4.587E+01    4.545E+01    4.503E+01    4.461E+01
     4.419E+01    4.377E+01    4.336E+01    4.295E+01    4.254E+01    4.214E+01    4.173E+01    4.134E+01    4.094E+01    4.054E+01
     4.015E+01    3.976E+01    3.938E+01    3.900E+01    3.862E+01    3.824E+01    3.787E+01    3.750E+01    3.714E+01    3.677E+01
     3.642E+01    3.606E+01    3.571E+01    3.536E+01    3.502E+01    3.468E+01    3.434E+01    3.401E+01    3.368E+01    3.336E+01
     3.303E+01    3.272E+01    3.241E+01    3.210E+01    3.180E+01    3.150E+01    3.120E+01    3.091E+01    3.063E+01    3.034E+01
     3.007E+01    2.980E+01    2.953E+01    2.927E+01    2.901E+01    2.876E+01    2.851E+01    2.827E+01    2.803E+01    2.779E+01
     2.756E+01    2.733E+01    2.711E+01    2.689E+01    2.668E+01    2.647E+01    2.626E+01    2.606E+01    2.586E+01    2.566E+01
     2.547E+01    2.528E+01    2.509E+01    2.491E+01    2.473E+01    2.456E+01    2.438E+01    2.421E+01    2.404E+01    2.388E+01
     2.372E+01    2.356E+01    2.340E+01    2.325E+01    2.309E+01    2.294E+01    2.280E+01    2.265E+01    2.251E+01    2.237E+01
     2.223E+01    2.209E+01    2.195E+01    2.182E+01    2.169E+01    2.155E+01    2.142E+01    2.130E+01    2.117E+01    2.104E+01
     2.092E+01    2.079E+01    2.067E+01    2.055E+01    2.043E+01    2.031E+01    2.019E+01    2.007E+01
 Ala      Conc. = 3.01E+03
