 LCModel (Version 6.3-1L) Copyright: S.W. Provencher.          Ref.: Magn. Reson. Med. 30:672-679 (1993).                
 Slice#1 Row#13 Col#14  PD_05_press_1_raw_act
 36 lines in following concentration table = NCONC+1
    Conc.  %SD /Cr+PCr  Metabolite                                         
    6.833 347%   0.193 Ala                                                 
    4.576  74%   0.129 Asp                                                 
    0.000 999%   0.000 Cr                                                  
   35.444  31%   1.000 PCr                                                 
    2.631  78% 7.4E-02 GABA                                                
    2.679  76% 7.6E-02 Glc                                                 
    0.000 999%   0.000 Gln                                                 
    0.000 999%   0.000 Glu                                                 
    0.000 999%   0.000 GPC                                                 
    8.701  48%   0.245 PCh                                                 
    5.214 285%   0.147 GSH                                                 
   74.702  66%   2.108 Ins                                                 
    0.000 999%   0.000 Lac                                                 
   12.388 118%   0.350 NAA                                                 
   15.261  93%   0.431 NAAG                                                
    0.864  79% 2.4E-02 Scyllo                                              
    4.339  78%   0.122 Tau                                                 
    3.090 175% 8.7E-02 -CrCH2                                              
    8.701  48%   0.245 GPC+PCh                                             
   27.649  46%   0.780 NAA+NAAG                                            
   35.444  31%   1.000 Cr+PCr                                              
    0.000 999%   0.000 Glu+Gln                                             
  694.344  16%  19.590 Lip13a                                              
    0.000 999%   0.000 Lip13b                                              
  230.945  24%   6.516 Lip09                                               
   42.847 114%   1.209 MM09                                                
   74.479  57%   2.101 Lip20                                               
    0.000 999%   0.000 MM20                                                
   19.240 163%   0.543 MM12                                                
    0.000 999%   0.000 MM14                                                
   90.288  44%   2.547 MM17                                                
  694.344  16%  19.590 Lip13a+Lip13b                                       
  713.584  14%  20.133 MM14+Lip13a+Lip13b+MM12                             
  273.792  15%   7.725 MM09+Lip09                                          
   74.479  57%   2.101 MM20+Lip20                                          
   6 lines in following misc. output table
  FWHM = 0.061 ppm    S/N =   1                                            
  Data shift =-0.015 ppm                                                   
  Ph:  -7 deg     -20.6 deg/ppm                                            
  alphaB,S = 8.5E+01,   2.6E+01                                            
   14 spline knots.   Ns = 7(1)                                            
   2 inflections.     1 extrema                                            
  498 points on ppm-axis = NY
      4.000000     3.992357     3.984714     3.977070     3.969427     3.961784     3.954141     3.946497     3.938854     3.931211
      3.923568     3.915925     3.908281     3.900638     3.892995     3.885352     3.877708     3.870065     3.862422     3.854779
      3.847136     3.839492     3.831849     3.824206     3.816563     3.808919     3.801276     3.793633     3.785990     3.778347
      3.770703     3.763060     3.755417     3.747774     3.740130     3.732487     3.724844     3.717201     3.709558     3.701914
      3.694271     3.686628     3.678985     3.671341     3.663698     3.656055     3.648412     3.640769     3.633125     3.625482
      3.617839     3.610196     3.602552     3.594909     3.587266     3.579623     3.571980     3.564336     3.556693     3.549050
      3.541407     3.533763     3.526120     3.518477     3.510834     3.503191     3.495547     3.487904     3.480261     3.472618
      3.464974     3.457331     3.449688     3.442045     3.434402     3.426758     3.419115     3.411472     3.403829     3.396185
      3.388542     3.380899     3.373256     3.365613     3.357969     3.350326     3.342683     3.335040     3.327396     3.319753
      3.312110     3.304467     3.296824     3.289180     3.281537     3.273894     3.266251     3.258607     3.250964     3.243321
      3.235678     3.228034     3.220391     3.212748     3.205105     3.197462     3.189818     3.182175     3.174532     3.166889
      3.159245     3.151602     3.143959     3.136316     3.128673     3.121029     3.113386     3.105743     3.098100     3.090456
      3.082813     3.075170     3.067527     3.059884     3.052240     3.044597     3.036954     3.029311     3.021667     3.014024
      3.006381     2.998738     2.991095     2.983451     2.975808     2.968165     2.960522     2.952878     2.945235     2.937592
      2.929949     2.922306     2.914662     2.907019     2.899376     2.891733     2.884089     2.876446     2.868803     2.861160
      2.853517     2.845873     2.838230     2.830587     2.822944     2.815300     2.807657     2.800014     2.792371     2.784728
      2.777084     2.769441     2.761798     2.754155     2.746511     2.738868     2.731225     2.723582     2.715939     2.708295
      2.700652     2.693009     2.685366     2.677722     2.670079     2.662436     2.654793     2.647150     2.639506     2.631863
      2.624220     2.616577     2.608933     2.601290     2.593647     2.586004     2.578361     2.570717     2.563074     2.555431
      2.547788     2.540144     2.532501     2.524858     2.517215     2.509572     2.501928     2.494285     2.486642     2.478999
      2.471355     2.463712     2.456069     2.448426     2.440783     2.433139     2.425496     2.417853     2.410210     2.402566
      2.394923     2.387280     2.379637     2.371994     2.364350     2.356707     2.349064     2.341421     2.333777     2.326134
      2.318491     2.310848     2.303205     2.295561     2.287918     2.280275     2.272632     2.264988     2.257345     2.249702
      2.242059     2.234416     2.226772     2.219129     2.211486     2.203843     2.196199     2.188556     2.180913     2.173270
      2.165627     2.157983     2.150340     2.142697     2.135054     2.127410     2.119767     2.112124     2.104481     2.096838
      2.089194     2.081551     2.073908     2.066265     2.058621     2.050978     2.043335     2.035692     2.028049     2.020405
      2.012762     2.005119     1.997476     1.989833     1.982190     1.974546     1.966903     1.959260     1.951617     1.943974
      1.936331     1.928688     1.921045     1.913402     1.905759     1.898115     1.890472     1.882829     1.875186     1.867543
      1.859900     1.852257     1.844614     1.836971     1.829327     1.821684     1.814041     1.806398     1.798755     1.791112
      1.783469     1.775826     1.768183     1.760540     1.752896     1.745253     1.737610     1.729967     1.722324     1.714681
      1.707038     1.699395     1.691752     1.684108     1.676465     1.668822     1.661179     1.653536     1.645893     1.638250
      1.630607     1.622964     1.615321     1.607677     1.600034     1.592391     1.584748     1.577105     1.569462     1.561819
      1.554176     1.546533     1.538890     1.531246     1.523603     1.515960     1.508317     1.500674     1.493031     1.485388
      1.477745     1.470102     1.462458     1.454815     1.447172     1.439529     1.431886     1.424243     1.416600     1.408957
      1.401314     1.393671     1.386027     1.378384     1.370741     1.363098     1.355455     1.347812     1.340169     1.332526
      1.324883     1.317240     1.309596     1.301953     1.294310     1.286667     1.279024     1.271381     1.263738     1.256095
      1.248452     1.240808     1.233165     1.225522     1.217879     1.210236     1.202593     1.194950     1.187307     1.179664
      1.172021     1.164377     1.156734     1.149091     1.141448     1.133805     1.126162     1.118519     1.110876     1.103233
      1.095590     1.087946     1.080303     1.072660     1.065017     1.057374     1.049731     1.042088     1.034445     1.026802
      1.019158     1.011515     1.003872     0.996229     0.988586     0.980943     0.973300     0.965657     0.958014     0.950371
      0.942727     0.935084     0.927441     0.919798     0.912155     0.904512     0.896869     0.889226     0.881583     0.873940
      0.866296     0.858653     0.851010     0.843367     0.835724     0.828081     0.820438     0.812795     0.805152     0.797508
      0.789865     0.782222     0.774579     0.766936     0.759293     0.751650     0.744007     0.736364     0.728721     0.721077
      0.713434     0.705791     0.698148     0.690505     0.682862     0.675219     0.667576     0.659933     0.652290     0.644646
      0.637003     0.629360     0.621717     0.614074     0.606431     0.598788     0.591145     0.583502     0.575858     0.568215
      0.560572     0.552929     0.545286     0.537643     0.530000     0.522357     0.514714     0.507071     0.499427     0.491784
      0.484141     0.476498     0.468855     0.461212     0.453569     0.445925     0.438282     0.430639     0.422996     0.415353
      0.407710     0.400067     0.392424     0.384780     0.377137     0.369494     0.361851     0.354208     0.346565     0.338922
      0.331278     0.323635     0.315992     0.308349     0.300706     0.293063     0.285420     0.277777     0.270133     0.262490
      0.254847     0.247204     0.239561     0.231918     0.224275     0.216631     0.208988     0.201345
 NY phased data points follow
   1.59080E-01  7.43869E-04  4.97303E-01 -9.03339E-01 -3.10708E-01 -1.07925E+00 -9.03981E-02 -1.82814E-01 -2.25381E-01  3.55613E-01
   5.02648E-01  7.95986E-01  5.10641E-01  6.69696E-01 -6.16405E-01  3.08250E-01 -8.45120E-01 -8.89369E-01 -1.23927E+00 -2.30599E+00
   1.57031E-01 -8.43490E-01 -4.84168E-02 -9.81319E-01 -3.64295E-02 -7.61650E-01 -1.29409E+00  2.58604E-02  3.09128E-02 -1.39504E-01
  -8.33113E-01 -7.03668E-02  3.69766E-01  3.03273E-01 -5.86360E-01 -2.87819E-01 -3.12643E-01  1.73735E-01 -1.53218E+00 -8.79223E-01
   1.26890E+00  4.62741E-01  2.78679E-01 -5.32943E-01 -4.18144E-01  1.73243E+00  4.80092E-01 -1.86148E-02 -3.65959E-01  1.69728E-01
  -1.50430E-01 -8.60525E-01 -4.10581E-01  2.09450E-01 -1.77017E-02 -7.90260E-01 -8.02939E-01  1.17465E+00 -8.48953E-01 -1.14406E+00
   1.41397E+00 -7.84465E-01  5.62565E-01 -1.94903E-01 -6.72717E-01 -8.33668E-01  1.02306E-01 -6.47944E-01  4.55141E-01 -5.13496E-01
  -9.44431E-01 -8.49838E-01 -6.36787E-02  4.41990E-01 -2.48380E-03 -7.29833E-01 -8.93556E-02  6.59676E-01 -5.56138E-01 -3.15143E-01
  -1.07306E+00  1.03550E+00  2.37241E-01 -8.45430E-02 -4.59012E-01  7.34490E-01 -1.12486E+00  1.60119E-01 -1.64741E+00  1.67634E-01
  -7.08886E-01  2.35722E-01 -1.66412E+00 -3.74612E-01  6.76496E-01 -8.95577E-01  6.77365E-01 -1.63552E-01 -8.15546E-01 -1.22731E-01
   1.09438E-01  8.61352E-01 -1.78736E-01  2.81099E-01  2.16237E-01  9.97579E-01  2.79184E-01  7.40146E-01 -4.96192E-02 -7.11728E-02
   1.84507E-01 -7.94908E-03 -5.45617E-01 -4.19203E-01  8.34253E-01 -2.32212E-01 -3.49897E-01 -1.27048E-01 -1.60967E-01  9.03313E-01
  -1.52608E+00  8.74033E-01 -5.10119E-01  7.14874E-01 -5.88200E-02  9.75194E-01  1.34014E+00  1.12490E+00  4.06198E-01  2.32925E-01
   4.67104E-01  1.18997E+00  1.61102E-01  9.09292E-01 -1.15534E+00  1.36021E+00  1.15130E+00 -2.52015E-01 -8.42959E-01 -1.50680E-01
  -1.10882E+00  4.25940E-01  2.40223E-01  2.98367E-01 -3.06732E-01 -6.55421E-01 -4.82075E-01  8.90122E-01  2.46170E-01 -1.75038E+00
  -4.18962E-01  4.48517E-01 -9.23092E-02 -6.57677E-01 -2.49152E-01  1.68067E-02  4.38057E-01  9.82453E-01 -1.22865E+00 -9.93108E-01
   6.68169E-01 -1.02008E+00  1.84351E-01 -1.11252E+00  5.61007E-01 -4.89330E-01  6.08248E-01  3.34087E-01 -9.67936E-01  2.95416E-01
  -7.80816E-01 -6.70617E-01  3.18168E-01 -2.11484E-01  2.98647E-01  1.71093E-01 -1.65837E+00 -6.72141E-01 -4.84448E-01 -7.42071E-01
   1.20274E+00 -6.27366E-01  7.87400E-01  1.12251E+00  1.31219E+00  3.52212E-01  9.53663E-01 -7.11985E-01  1.22069E+00 -1.09040E+00
   7.16867E-01  3.58781E-01  2.06780E-01  1.26397E+00  1.57095E+00  1.41056E+00 -1.01748E+00 -4.29704E-01  1.09192E+00 -4.15706E-01
   9.51052E-02 -7.35091E-02 -3.27939E-01 -1.63027E-01 -4.67467E-01  3.32229E-01  4.58764E-01 -1.01484E+00  2.93946E-01 -1.05941E-01
  -2.86559E-01  8.48866E-01  5.28010E-01 -1.11702E+00  7.26071E-01  2.18557E-01 -5.09759E-01  1.45057E+00 -8.74880E-02 -2.49751E-01
   1.58929E+00 -1.09368E-01  3.73180E-01  7.24310E-01  4.93354E-01 -1.13652E+00  6.98806E-01 -7.62027E-01  3.64596E-01 -2.23371E-01
  -6.84414E-01  1.20152E+00 -3.01975E-01 -1.52862E-01 -3.80221E-02 -2.54918E-02  8.55162E-01 -3.56411E-01  7.08160E-01 -2.26239E-02
   9.76890E-01 -1.30308E+00  1.03507E+00  1.00286E+00 -1.07360E-01  1.33652E+00 -3.42151E-02  4.14374E-01  2.73383E-01  8.98809E-01
   2.70730E-01 -1.43285E+00 -9.04481E-01 -1.06346E-01  8.38336E-01  1.33699E+00  2.71440E+00  9.36321E-03  3.06238E-01  1.03022E+00
   1.67825E+00  7.92626E-01  1.38727E+00  5.79850E-01  4.65130E-01  1.11585E+00  4.46431E-02  1.71042E+00  3.47974E-01  1.01246E+00
   2.05876E-01 -1.28286E+00  2.01317E+00  3.85287E-01  4.51277E-01  4.20784E-01  1.95195E+00  9.03924E-01 -2.32778E-01  1.08329E+00
   1.48410E-01  3.67225E-01 -7.47526E-01  5.75090E-01  1.34887E+00  1.34227E+00  3.34353E-01  2.09104E+00  6.49016E-01  1.87875E+00
   4.44478E-01  1.28471E+00  1.13600E+00  1.01320E+00 -3.07726E-01  1.10909E+00 -3.35740E-01  1.48920E+00  1.82671E+00  1.69007E-01
   1.92458E+00  9.64166E-01  3.43181E-01  1.56909E+00  7.30760E-01  4.10892E-01  5.03286E-01  1.76283E+00  8.98008E-01  3.28292E-01
  -2.40947E-01  1.76357E+00  4.05664E-01  9.73255E-01 -2.55505E-01  1.10523E+00  9.70321E-01  1.61075E-01  4.76366E-01  2.17662E-01
   2.73426E+00  1.10559E+00  2.03679E+00  5.78042E-01  8.62483E-01 -9.41980E-02  1.55430E+00  1.25476E+00  4.78700E-01  2.33551E+00
  -9.60865E-02  6.84620E-01  7.26354E-01  1.00892E+00  8.72020E-01  1.73129E+00 -2.78498E-01  1.09445E+00  1.97179E+00  2.09578E+00
   8.17330E-01  6.20424E-01  1.86573E+00  1.85321E+00  1.15112E+00  2.49954E+00  2.00618E+00  2.71293E+00  3.00735E+00  2.26952E+00
   3.95751E+00  3.39857E+00  3.31377E+00  2.97751E+00  1.53101E+00  2.26162E+00  4.01312E+00  1.34892E+00  1.79393E+00  2.66795E+00
   2.60210E+00  2.15991E+00  1.69958E+00  3.13018E+00  2.17464E+00  1.14789E+00  1.63094E+00  2.29064E+00  2.48800E+00  2.80158E+00
   2.13916E+00  3.02553E+00  1.86870E+00  2.71691E+00  2.83928E+00  3.17904E+00  2.22134E+00  2.18400E+00  2.07487E+00  1.94226E+00
   2.47195E+00  3.48259E+00  3.06662E+00  2.15292E+00  2.61886E+00  1.46146E+00  2.50531E+00  2.69272E+00  1.01132E+00  3.46645E+00
   3.79297E+00  2.40473E+00  4.49989E-01  1.67117E+00  1.46314E+00  1.43741E+00  3.19933E+00  1.93595E+00  2.40532E+00  1.48589E+00
   1.08820E+00  2.45535E+00  2.28642E+00  3.60949E+00  1.66149E+00  2.76708E+00  2.67150E+00  1.57807E+00  2.56253E+00  1.56459E+00
   2.63200E+00  1.77874E+00  2.23982E+00  1.38248E+00  1.21934E+00  1.30861E+00  3.42190E+00  1.90001E+00  2.33192E+00  1.33142E+00
   2.83691E+00  1.02078E+00  1.50680E+00  5.21812E-01  1.28095E+00  1.79637E+00 -2.48706E-01  4.98387E-01  1.16857E+00  8.07533E-01
  -1.25267E-01  4.54789E-01 -3.69645E-01  3.20970E-01  2.06401E+00  9.29095E-01  6.78805E-01  1.70984E+00 -3.88075E-01  9.14653E-02
   5.93751E-02  1.39635E+00  6.17669E-01  1.73764E+00 -2.06200E-02 -6.12825E-01  6.42720E-01  1.16250E-01  8.62655E-01  2.60587E-01
   1.07196E+00  3.58113E-01  3.43543E-01  1.18487E-01  1.49314E+00  5.20969E-01  1.26239E+00  1.74780E+00  1.84693E+00  6.77789E-01
  -3.70167E-02  1.43049E+00  1.27580E+00  2.45088E+00  9.50750E-01  6.70568E-01  6.12160E-01  1.37944E-01  2.98058E-01  9.22050E-01
   9.01296E-01  7.55946E-01 -7.06257E-03  6.54132E-01  1.00490E+00  5.49270E-01  1.66279E+00  7.83449E-01  4.68695E-01  5.04138E-01
   4.26233E-01  1.56718E+00 -3.04021E-01 -2.58698E-01 -2.24929E-02  1.00800E-01  3.72831E-02  1.41069E+00  5.60803E-01 -3.98348E-02
   1.22483E+00  5.13229E-01 -1.56078E-02  7.31850E-01 -1.28836E-01 -1.80360E-01  1.54418E-01  1.23225E-01
 NY points of the fit to the data follow
  -2.73027E-01 -3.21432E-01 -3.54760E-01 -3.73351E-01 -3.55310E-01 -2.72052E-01 -1.27810E-01  3.70099E-02  1.69971E-01  2.37393E-01
   2.39615E-01  1.99601E-01  1.37108E-01  5.59798E-02 -4.49679E-02 -1.58217E-01 -2.67740E-01 -3.48734E-01 -3.84751E-01 -3.92877E-01
  -3.91610E-01 -3.86645E-01 -3.81091E-01 -3.76418E-01 -3.72220E-01 -3.64116E-01 -3.46366E-01 -3.18597E-01 -2.87364E-01 -2.61102E-01
  -2.43885E-01 -2.33916E-01 -2.26087E-01 -2.15224E-01 -2.01565E-01 -1.93108E-01 -1.98849E-01 -2.21777E-01 -2.55966E-01 -2.90869E-01
  -3.21113E-01 -3.43595E-01 -3.46639E-01 -3.08469E-01 -2.15475E-01 -8.36059E-02  4.49765E-02  1.26452E-01  1.40946E-01  1.01964E-01
   3.67743E-02 -3.77145E-02 -1.17530E-01 -2.00106E-01 -2.74644E-01 -3.19184E-01 -3.13118E-01 -2.59688E-01 -1.86536E-01 -1.22981E-01
  -8.58646E-02 -7.85358E-02 -9.39556E-02 -1.21053E-01 -1.49557E-01 -1.73252E-01 -1.91114E-01 -2.00185E-01 -1.93718E-01 -1.70839E-01
  -1.38055E-01 -1.04561E-01 -7.89511E-02 -6.45800E-02 -6.11860E-02 -6.67251E-02 -7.90208E-02 -9.58345E-02 -1.13717E-01 -1.30288E-01
  -1.42819E-01 -1.49391E-01 -1.54153E-01 -1.64430E-01 -1.87020E-01 -2.23752E-01 -2.68926E-01 -3.11128E-01 -3.40138E-01 -3.52024E-01
  -3.48696E-01 -3.33399E-01 -3.08473E-01 -2.77484E-01 -2.46071E-01 -2.21642E-01 -2.10033E-01 -2.08883E-01 -1.97646E-01 -1.35519E-01
  -7.15568E-04  1.81517E-01  3.53598E-01  4.64371E-01  4.98344E-01  4.75340E-01  4.21010E-01  3.44861E-01  2.44992E-01  1.25300E-01
   1.49430E-03 -1.02200E-01 -1.60482E-01 -1.78703E-01 -1.84617E-01 -1.87648E-01 -1.90169E-01 -1.92382E-01 -1.93820E-01 -1.92611E-01
  -1.84776E-01 -1.59368E-01 -7.58960E-02  1.06389E-01  3.74159E-01  6.55101E-01  8.64931E-01  9.59038E-01  9.49939E-01  8.79745E-01
   7.76663E-01  6.41601E-01  4.72280E-01  2.84015E-01  1.06597E-01 -1.77670E-02 -7.05566E-02 -8.60652E-02 -8.86618E-02 -8.47441E-02
  -7.73679E-02 -6.79167E-02 -5.65872E-02 -4.44513E-02 -3.37783E-02 -2.59662E-02 -2.14180E-02 -1.94937E-02 -1.86089E-02 -1.79184E-02
  -1.78157E-02 -1.87225E-02 -2.02971E-02 -2.09962E-02 -1.92251E-02 -1.48861E-02 -1.01868E-02 -7.74291E-03 -8.38115E-03 -1.10442E-02
  -1.37259E-02 -1.51439E-02 -1.56858E-02 -1.67188E-02 -1.88078E-02 -2.16697E-02 -2.49988E-02 -2.78233E-02 -2.91524E-02 -2.90337E-02
  -2.81674E-02 -2.81950E-02 -3.09247E-02 -3.61191E-02 -4.14566E-02 -4.48822E-02 -4.61982E-02 -4.73478E-02 -5.07462E-02 -5.61322E-02
  -5.99239E-02 -5.90630E-02 -5.38371E-02 -4.67709E-02 -4.01679E-02 -3.37178E-02 -2.46058E-02 -1.07725E-02  6.60047E-03  2.35626E-02
   3.59114E-02  4.16794E-02  4.18275E-02  3.82534E-02  3.17911E-02  2.38826E-02  1.71784E-02  1.42579E-02  1.60868E-02  2.20281E-02
   3.09905E-02  4.17516E-02  5.27118E-02  6.23989E-02  6.93508E-02  7.25983E-02  7.23337E-02  7.00919E-02  6.83357E-02  6.79330E-02
   6.83217E-02  6.95497E-02  7.25453E-02  7.80359E-02  8.56765E-02  9.47585E-02  1.04719E-01  1.15199E-01  1.26319E-01  1.38843E-01
   1.53105E-01  1.68463E-01  1.83686E-01  1.97615E-01  2.09200E-01  2.17779E-01  2.22726E-01  2.23379E-01  2.20279E-01  2.15793E-01
   2.13590E-01  2.17052E-01  2.27507E-01  2.43556E-01  2.61754E-01  2.78230E-01  2.90105E-01  2.95783E-01  2.95290E-01  2.89959E-01
   2.82408E-01  2.76875E-01  2.77002E-01  2.84001E-01  2.96907E-01  3.13339E-01  3.31112E-01  3.48824E-01  3.65896E-01  3.83160E-01
   4.03700E-01  4.42789E-01  5.19856E-01  6.34611E-01  7.61151E-01  8.71265E-01  9.59265E-01  1.03450E+00  1.09899E+00  1.13696E+00
   1.12637E+00  1.06122E+00  9.59002E-01  8.45381E-01  7.42318E-01  6.57638E-01  5.79929E-01  5.05725E-01  4.45385E-01  4.10855E-01
   3.98377E-01  3.94001E-01  3.92785E-01  3.93016E-01  3.93788E-01  3.94920E-01  3.96625E-01  3.99267E-01  4.03221E-01  4.08970E-01
   4.17164E-01  4.28280E-01  4.42458E-01  4.59618E-01  4.79470E-01  5.01495E-01  5.25112E-01  5.50195E-01  5.77007E-01  6.05766E-01
   6.36295E-01  6.68116E-01  7.00602E-01  7.32975E-01  7.64454E-01  7.94400E-01  8.22125E-01  8.47096E-01  8.69004E-01  8.87595E-01
   9.02726E-01  9.14378E-01  9.22405E-01  9.26750E-01  9.27554E-01  9.25070E-01  9.19629E-01  9.11601E-01  9.01470E-01  8.89937E-01
   8.77724E-01  8.65493E-01  8.53875E-01  8.43447E-01  8.34733E-01  8.28200E-01  8.24262E-01  8.23291E-01  8.25643E-01  8.31725E-01
   8.42092E-01  8.57566E-01  8.80071E-01  9.10099E-01  9.42972E-01  9.70921E-01  9.88757E-01  9.97238E-01  1.00183E+00  1.00794E+00
   1.01928E+00  1.04092E+00  1.07916E+00  1.13744E+00  1.21331E+00  1.30041E+00  1.39155E+00  1.48038E+00  1.56561E+00  1.64855E+00
   1.72857E+00  1.80471E+00  1.87705E+00  1.94773E+00  2.02110E+00  2.09853E+00  2.17739E+00  2.25577E+00  2.33229E+00  2.40577E+00
   2.47508E+00  2.53917E+00  2.59706E+00  2.64787E+00  2.69079E+00  2.72517E+00  2.75051E+00  2.76645E+00  2.77284E+00  2.76969E+00
   2.75718E+00  2.73570E+00  2.70578E+00  2.66812E+00  2.62354E+00  2.57294E+00  2.51735E+00  2.45781E+00  2.39541E+00  2.33124E+00
   2.26636E+00  2.20181E+00  2.13857E+00  2.07753E+00  2.01954E+00  1.96535E+00  1.91565E+00  1.87101E+00  1.83198E+00  1.79899E+00
   1.77241E+00  1.75255E+00  1.73963E+00  1.73383E+00  1.73523E+00  1.74383E+00  1.75953E+00  1.78213E+00  1.81131E+00  1.84661E+00
   1.88744E+00  1.93301E+00  1.98243E+00  2.03460E+00  2.08832E+00  2.14223E+00  2.19490E+00  2.24482E+00  2.29049E+00  2.33044E+00
   2.36331E+00  2.38789E+00  2.40315E+00  2.40834E+00  2.40298E+00  2.38688E+00  2.36017E+00  2.32326E+00  2.27687E+00  2.22191E+00
   2.15953E+00  2.09098E+00  2.01761E+00  1.94080E+00  1.86190E+00  1.78220E+00  1.70285E+00  1.62491E+00  1.54923E+00  1.47655E+00
   1.40740E+00  1.34217E+00  1.28112E+00  1.22437E+00  1.17191E+00  1.12369E+00  1.07954E+00  1.03927E+00  1.00264E+00  9.69403E-01
   9.39296E-01  9.12053E-01  8.87418E-01  8.65149E-01  8.45017E-01  8.26810E-01  8.10336E-01  7.95416E-01  7.81895E-01  7.69629E-01
   7.58493E-01  7.48373E-01  7.39169E-01  7.30790E-01  7.23160E-01  7.16206E-01  7.09868E-01  7.04090E-01  6.98820E-01  6.94016E-01
   6.89639E-01  6.85653E-01  6.82027E-01  6.78732E-01  6.75741E-01  6.73032E-01  6.70585E-01  6.68381E-01  6.66401E-01  6.64631E-01
   6.63055E-01  6.61662E-01  6.60438E-01  6.59375E-01  6.58460E-01  6.57684E-01  6.57040E-01  6.56519E-01  6.56115E-01  6.55820E-01
   6.55629E-01  6.55535E-01  6.55533E-01  6.55619E-01  6.55788E-01  6.56035E-01  6.56356E-01  6.56748E-01  6.57207E-01  6.57730E-01
   6.58314E-01  6.58956E-01  6.59653E-01  6.60403E-01  6.61203E-01  6.62052E-01  6.62947E-01  6.63886E-01  6.64868E-01  6.65890E-01
   6.66951E-01  6.68050E-01  6.69186E-01  6.70356E-01  6.71559E-01  6.72796E-01  6.74064E-01  6.75363E-01
 NY background values follow
    -4.764E-01   -4.742E-01   -4.719E-01   -4.697E-01   -4.675E-01   -4.652E-01   -4.630E-01   -4.608E-01   -4.586E-01   -4.563E-01
    -4.541E-01   -4.519E-01   -4.496E-01   -4.474E-01   -4.452E-01   -4.430E-01   -4.407E-01   -4.385E-01   -4.363E-01   -4.340E-01
    -4.318E-01   -4.296E-01   -4.273E-01   -4.251E-01   -4.229E-01   -4.207E-01   -4.184E-01   -4.162E-01   -4.140E-01   -4.117E-01
    -4.095E-01   -4.073E-01   -4.050E-01   -4.028E-01   -4.006E-01   -3.983E-01   -3.961E-01   -3.939E-01   -3.916E-01   -3.894E-01
    -3.872E-01   -3.849E-01   -3.827E-01   -3.805E-01   -3.782E-01   -3.760E-01   -3.738E-01   -3.715E-01   -3.693E-01   -3.671E-01
    -3.648E-01   -3.626E-01   -3.604E-01   -3.581E-01   -3.559E-01   -3.537E-01   -3.514E-01   -3.492E-01   -3.470E-01   -3.447E-01
    -3.425E-01   -3.403E-01   -3.380E-01   -3.358E-01   -3.336E-01   -3.313E-01   -3.291E-01   -3.269E-01   -3.246E-01   -3.224E-01
    -3.201E-01   -3.179E-01   -3.157E-01   -3.134E-01   -3.112E-01   -3.090E-01   -3.067E-01   -3.045E-01   -3.023E-01   -3.000E-01
    -2.978E-01   -2.955E-01   -2.933E-01   -2.911E-01   -2.888E-01   -2.866E-01   -2.844E-01   -2.821E-01   -2.799E-01   -2.776E-01
    -2.754E-01   -2.732E-01   -2.709E-01   -2.687E-01   -2.664E-01   -2.642E-01   -2.620E-01   -2.597E-01   -2.575E-01   -2.553E-01
    -2.530E-01   -2.508E-01   -2.485E-01   -2.463E-01   -2.441E-01   -2.418E-01   -2.396E-01   -2.373E-01   -2.351E-01   -2.329E-01
    -2.306E-01   -2.284E-01   -2.261E-01   -2.239E-01   -2.217E-01   -2.194E-01   -2.172E-01   -2.149E-01   -2.127E-01   -2.105E-01
    -2.082E-01   -2.060E-01   -2.037E-01   -2.015E-01   -1.992E-01   -1.970E-01   -1.948E-01   -1.925E-01   -1.903E-01   -1.880E-01
    -1.858E-01   -1.836E-01   -1.813E-01   -1.791E-01   -1.768E-01   -1.746E-01   -1.723E-01   -1.701E-01   -1.679E-01   -1.656E-01
    -1.634E-01   -1.611E-01   -1.589E-01   -1.566E-01   -1.544E-01   -1.522E-01   -1.499E-01   -1.477E-01   -1.454E-01   -1.432E-01
    -1.409E-01   -1.387E-01   -1.365E-01   -1.342E-01   -1.320E-01   -1.297E-01   -1.275E-01   -1.252E-01   -1.230E-01   -1.208E-01
    -1.185E-01   -1.163E-01   -1.140E-01   -1.118E-01   -1.095E-01   -1.073E-01   -1.050E-01   -1.028E-01   -1.006E-01   -9.831E-02
    -9.607E-02   -9.382E-02   -9.158E-02   -8.933E-02   -8.709E-02   -8.484E-02   -8.260E-02   -8.035E-02   -7.811E-02   -7.586E-02
    -7.362E-02   -7.137E-02   -6.913E-02   -6.688E-02   -6.464E-02   -6.239E-02   -6.015E-02   -5.790E-02   -5.565E-02   -5.341E-02
    -5.116E-02   -4.892E-02   -4.667E-02   -4.443E-02   -4.218E-02   -3.993E-02   -3.769E-02   -3.544E-02   -3.320E-02   -3.095E-02
    -2.870E-02   -2.646E-02   -2.421E-02   -2.197E-02   -1.972E-02   -1.747E-02   -1.523E-02   -1.298E-02   -1.073E-02   -8.487E-03
    -6.240E-03   -3.993E-03   -1.747E-03    4.999E-04    2.747E-03    4.993E-03    7.240E-03    9.487E-03    1.173E-02    1.398E-02
     1.623E-02    1.847E-02    2.072E-02    2.297E-02    2.522E-02    2.746E-02    2.971E-02    3.196E-02    3.420E-02    3.645E-02
     3.870E-02    4.095E-02    4.319E-02    4.544E-02    4.769E-02    4.994E-02    5.218E-02    5.443E-02    5.668E-02    5.893E-02
     6.117E-02    6.342E-02    6.567E-02    6.792E-02    7.016E-02    7.241E-02    7.466E-02    7.691E-02    7.915E-02    8.140E-02
     8.365E-02    8.590E-02    8.814E-02    9.039E-02    9.264E-02    9.489E-02    9.714E-02    9.938E-02    1.016E-01    1.039E-01
     1.061E-01    1.084E-01    1.106E-01    1.129E-01    1.151E-01    1.174E-01    1.196E-01    1.219E-01    1.241E-01    1.264E-01
     1.286E-01    1.309E-01    1.331E-01    1.354E-01    1.376E-01    1.398E-01    1.421E-01    1.443E-01    1.466E-01    1.488E-01
     1.511E-01    1.533E-01    1.556E-01    1.578E-01    1.601E-01    1.623E-01    1.646E-01    1.668E-01    1.691E-01    1.713E-01
     1.736E-01    1.758E-01    1.781E-01    1.803E-01    1.826E-01    1.848E-01    1.871E-01    1.893E-01    1.916E-01    1.938E-01
     1.961E-01    1.983E-01    2.005E-01    2.028E-01    2.050E-01    2.073E-01    2.095E-01    2.118E-01    2.140E-01    2.163E-01
     2.185E-01    2.208E-01    2.230E-01    2.253E-01    2.275E-01    2.298E-01    2.320E-01    2.343E-01    2.365E-01    2.388E-01
     2.410E-01    2.433E-01    2.455E-01    2.478E-01    2.500E-01    2.523E-01    2.545E-01    2.567E-01    2.590E-01    2.612E-01
     2.635E-01    2.657E-01    2.680E-01    2.702E-01    2.725E-01    2.747E-01    2.770E-01    2.792E-01    2.815E-01    2.837E-01
     2.860E-01    2.882E-01    2.905E-01    2.927E-01    2.950E-01    2.972E-01    2.994E-01    3.017E-01    3.039E-01    3.062E-01
     3.084E-01    3.107E-01    3.129E-01    3.152E-01    3.174E-01    3.197E-01    3.219E-01    3.242E-01    3.264E-01    3.287E-01
     3.309E-01    3.332E-01    3.354E-01    3.377E-01    3.399E-01    3.421E-01    3.444E-01    3.466E-01    3.489E-01    3.511E-01
     3.534E-01    3.556E-01    3.579E-01    3.601E-01    3.624E-01    3.646E-01    3.669E-01    3.691E-01    3.713E-01    3.736E-01
     3.758E-01    3.781E-01    3.803E-01    3.826E-01    3.848E-01    3.871E-01    3.893E-01    3.916E-01    3.938E-01    3.961E-01
     3.983E-01    4.005E-01    4.028E-01    4.050E-01    4.073E-01    4.095E-01    4.118E-01    4.140E-01    4.163E-01    4.185E-01
     4.208E-01    4.230E-01    4.252E-01    4.275E-01    4.297E-01    4.320E-01    4.342E-01    4.365E-01    4.387E-01    4.410E-01
     4.432E-01    4.454E-01    4.477E-01    4.499E-01    4.522E-01    4.544E-01    4.567E-01    4.589E-01    4.612E-01    4.634E-01
     4.656E-01    4.679E-01    4.701E-01    4.724E-01    4.746E-01    4.769E-01    4.791E-01    4.814E-01    4.836E-01    4.858E-01
     4.881E-01    4.903E-01    4.926E-01    4.948E-01    4.971E-01    4.993E-01    5.015E-01    5.038E-01    5.060E-01    5.083E-01
     5.105E-01    5.128E-01    5.150E-01    5.172E-01    5.195E-01    5.217E-01    5.240E-01    5.262E-01    5.284E-01    5.307E-01
     5.329E-01    5.352E-01    5.374E-01    5.397E-01    5.419E-01    5.441E-01    5.464E-01    5.486E-01    5.509E-01    5.531E-01
     5.553E-01    5.576E-01    5.598E-01    5.621E-01    5.643E-01    5.666E-01    5.688E-01    5.710E-01    5.733E-01    5.755E-01
     5.778E-01    5.800E-01    5.822E-01    5.845E-01    5.867E-01    5.890E-01    5.912E-01    5.934E-01    5.957E-01    5.979E-01
     6.001E-01    6.024E-01    6.046E-01    6.069E-01    6.091E-01    6.113E-01    6.136E-01    6.158E-01    6.181E-01    6.203E-01
     6.225E-01    6.248E-01    6.270E-01    6.293E-01    6.315E-01    6.337E-01    6.360E-01    6.382E-01
 Ala      Conc. = 6.83E+00
