 LCModel (Version 6.3-1L) Copyright: S.W. Provencher.          Ref.: Magn. Reson. Med. 30:672-679 (1993).                
 Slice#2 Row#1 Col#5  PD_05_press_1_raw_act
 36 lines in following concentration table = NCONC+1
    Conc.  %SD /Cr+PCr  Metabolite                                         
    0.000 999%   0.000 Ala                                                 
    5.829  66%   0.353 Asp                                                 
   16.525  47%   1.000 Cr                                                  
    0.000 999%   0.000 PCr                                                 
    3.990  58%   0.241 GABA                                                
    3.614  64%   0.219 Glc                                                 
   17.929  90%   1.085 Gln                                                 
    3.300 474%   0.200 Glu                                                 
    0.000 999%   0.000 GPC                                                 
    7.633  43%   0.462 PCh                                                 
    6.595  98%   0.399 GSH                                                 
   48.655  51%   2.944 Ins                                                 
    0.000 999%   0.000 Lac                                                 
   38.464  39%   2.328 NAA                                                 
   46.384  37%   2.807 NAAG                                                
    1.284  60% 7.8E-02 Scyllo                                              
    5.680  68%   0.344 Tau                                                 
    2.115 141%   0.128 -CrCH2                                              
    7.633  43%   0.462 GPC+PCh                                             
   84.849  36%   5.135 NAA+NAAG                                            
   16.525  47%   1.000 Cr+PCr                                              
   21.229  91%   1.285 Glu+Gln                                             
    0.000 999%   0.000 Lip13a                                              
    0.000 999%   0.000 Lip13b                                              
    0.000 999%   0.000 Lip09                                               
  325.032  21%  19.669 MM09                                                
 6.34E-04 999% 3.8E-05 Lip20                                               
  491.315  21%  29.732 MM20                                                
   96.204  22%   5.822 MM12                                                
  242.596  22%  14.681 MM14                                                
  125.453  23%   7.592 MM17                                                
    0.000 999%   0.000 Lip13a+Lip13b                                       
  338.800  22%  20.503 MM14+Lip13a+Lip13b+MM12                             
  325.032  21%  19.669 MM09+Lip09                                          
  491.316  21%  29.732 MM20+Lip20                                          
   6 lines in following misc. output table
  FWHM = 0.023 ppm    S/N =   2                                            
  Data shift =-0.031 ppm                                                   
  Ph:  66 deg      36.4 deg/ppm                                            
  alphaB,S = 4.3E+01,   1.7E+00                                            
   14 spline knots.   Ns = 6(1)                                            
  ( 9) 2 infls.   ( 7) 2 extrs.                                            
  498 points on ppm-axis = NY
      4.000000     3.992357     3.984714     3.977070     3.969427     3.961784     3.954141     3.946497     3.938854     3.931211
      3.923568     3.915925     3.908281     3.900638     3.892995     3.885352     3.877708     3.870065     3.862422     3.854779
      3.847136     3.839492     3.831849     3.824206     3.816563     3.808919     3.801276     3.793633     3.785990     3.778347
      3.770703     3.763060     3.755417     3.747774     3.740130     3.732487     3.724844     3.717201     3.709558     3.701914
      3.694271     3.686628     3.678985     3.671341     3.663698     3.656055     3.648412     3.640769     3.633125     3.625482
      3.617839     3.610196     3.602552     3.594909     3.587266     3.579623     3.571980     3.564336     3.556693     3.549050
      3.541407     3.533763     3.526120     3.518477     3.510834     3.503191     3.495547     3.487904     3.480261     3.472618
      3.464974     3.457331     3.449688     3.442045     3.434402     3.426758     3.419115     3.411472     3.403829     3.396185
      3.388542     3.380899     3.373256     3.365613     3.357969     3.350326     3.342683     3.335040     3.327396     3.319753
      3.312110     3.304467     3.296824     3.289180     3.281537     3.273894     3.266251     3.258607     3.250964     3.243321
      3.235678     3.228034     3.220391     3.212748     3.205105     3.197462     3.189818     3.182175     3.174532     3.166889
      3.159245     3.151602     3.143959     3.136316     3.128673     3.121029     3.113386     3.105743     3.098100     3.090456
      3.082813     3.075170     3.067527     3.059884     3.052240     3.044597     3.036954     3.029311     3.021667     3.014024
      3.006381     2.998738     2.991095     2.983451     2.975808     2.968165     2.960522     2.952878     2.945235     2.937592
      2.929949     2.922306     2.914662     2.907019     2.899376     2.891733     2.884089     2.876446     2.868803     2.861160
      2.853517     2.845873     2.838230     2.830587     2.822944     2.815300     2.807657     2.800014     2.792371     2.784728
      2.777084     2.769441     2.761798     2.754155     2.746511     2.738868     2.731225     2.723582     2.715939     2.708295
      2.700652     2.693009     2.685366     2.677722     2.670079     2.662436     2.654793     2.647150     2.639506     2.631863
      2.624220     2.616577     2.608933     2.601290     2.593647     2.586004     2.578361     2.570717     2.563074     2.555431
      2.547788     2.540144     2.532501     2.524858     2.517215     2.509572     2.501928     2.494285     2.486642     2.478999
      2.471355     2.463712     2.456069     2.448426     2.440783     2.433139     2.425496     2.417853     2.410210     2.402566
      2.394923     2.387280     2.379637     2.371994     2.364350     2.356707     2.349064     2.341421     2.333777     2.326134
      2.318491     2.310848     2.303205     2.295561     2.287918     2.280275     2.272632     2.264988     2.257345     2.249702
      2.242059     2.234416     2.226772     2.219129     2.211486     2.203843     2.196199     2.188556     2.180913     2.173270
      2.165627     2.157983     2.150340     2.142697     2.135054     2.127410     2.119767     2.112124     2.104481     2.096838
      2.089194     2.081551     2.073908     2.066265     2.058621     2.050978     2.043335     2.035692     2.028049     2.020405
      2.012762     2.005119     1.997476     1.989833     1.982190     1.974546     1.966903     1.959260     1.951617     1.943974
      1.936331     1.928688     1.921045     1.913402     1.905759     1.898115     1.890472     1.882829     1.875186     1.867543
      1.859900     1.852257     1.844614     1.836971     1.829327     1.821684     1.814041     1.806398     1.798755     1.791112
      1.783469     1.775826     1.768183     1.760540     1.752896     1.745253     1.737610     1.729967     1.722324     1.714681
      1.707038     1.699395     1.691752     1.684108     1.676465     1.668822     1.661179     1.653536     1.645893     1.638250
      1.630607     1.622964     1.615321     1.607677     1.600034     1.592391     1.584748     1.577105     1.569462     1.561819
      1.554176     1.546533     1.538890     1.531246     1.523603     1.515960     1.508317     1.500674     1.493031     1.485388
      1.477745     1.470102     1.462458     1.454815     1.447172     1.439529     1.431886     1.424243     1.416600     1.408957
      1.401314     1.393671     1.386027     1.378384     1.370741     1.363098     1.355455     1.347812     1.340169     1.332526
      1.324883     1.317240     1.309596     1.301953     1.294310     1.286667     1.279024     1.271381     1.263738     1.256095
      1.248452     1.240808     1.233165     1.225522     1.217879     1.210236     1.202593     1.194950     1.187307     1.179664
      1.172021     1.164377     1.156734     1.149091     1.141448     1.133805     1.126162     1.118519     1.110876     1.103233
      1.095590     1.087946     1.080303     1.072660     1.065017     1.057374     1.049731     1.042088     1.034445     1.026802
      1.019158     1.011515     1.003872     0.996229     0.988586     0.980943     0.973300     0.965657     0.958014     0.950371
      0.942727     0.935084     0.927441     0.919798     0.912155     0.904512     0.896869     0.889226     0.881583     0.873940
      0.866296     0.858653     0.851010     0.843367     0.835724     0.828081     0.820438     0.812795     0.805152     0.797508
      0.789865     0.782222     0.774579     0.766936     0.759293     0.751650     0.744007     0.736364     0.728721     0.721077
      0.713434     0.705791     0.698148     0.690505     0.682862     0.675219     0.667576     0.659933     0.652290     0.644646
      0.637003     0.629360     0.621717     0.614074     0.606431     0.598788     0.591145     0.583502     0.575858     0.568215
      0.560572     0.552929     0.545286     0.537643     0.530000     0.522357     0.514714     0.507071     0.499427     0.491784
      0.484141     0.476498     0.468855     0.461212     0.453569     0.445925     0.438282     0.430639     0.422996     0.415353
      0.407710     0.400067     0.392424     0.384780     0.377137     0.369494     0.361851     0.354208     0.346565     0.338922
      0.331278     0.323635     0.315992     0.308349     0.300706     0.293063     0.285420     0.277777     0.270133     0.262490
      0.254847     0.247204     0.239561     0.231918     0.224275     0.216631     0.208988     0.201345
 NY phased data points follow
   3.89195E-01  2.41621E+00  3.22534E-01  5.34372E-01 -7.07405E-01  2.80708E+00 -7.77100E-01  8.54333E-01  8.09396E-01 -9.25560E-01
   4.04165E-03  9.92688E-01  2.05051E+00 -1.72329E-01  2.67012E+00  2.47370E+00  2.08430E+00  3.86483E+00  1.45994E+00  1.01461E+00
   6.17783E-01  1.81364E+00  3.90288E+00  3.60774E+00  8.24849E-01  2.23419E+00  7.69323E-01  1.45429E+00  2.61188E+00  9.39197E-01
  -1.39463E+00  1.98377E+00  1.81294E+00  1.42871E+00  1.68832E+00  1.94059E+00  1.13364E+00  2.79267E+00  2.10576E+00  1.97342E+00
   2.79378E+00 -5.87121E-01 -3.29763E-01 -4.52223E-01  2.60640E+00  3.17785E-01  1.79709E+00  2.61046E+00  1.33432E+00  3.55780E+00
   2.00088E+00  8.40548E-01  2.27631E+00 -7.08947E-01 -6.18498E-01 -1.49866E+00 -3.73620E-02  4.94839E-01  1.50696E-01  1.01599E+00
  -2.59441E+00  3.21786E+00 -7.57658E-01  1.26030E+00  1.19846E+00  1.36181E+00  2.51219E+00 -7.36259E-01  2.39620E-01 -1.67625E+00
  -8.05088E-01  3.09253E-01  2.04685E+00 -2.20429E+00 -7.80440E-02  2.39335E+00  7.33578E-01  2.75285E+00 -1.09564E+00 -2.29784E-01
   2.11090E+00  7.03369E-01  9.70317E-01  5.08310E-01  4.23634E-01 -2.99966E-01  1.81575E+00 -4.38697E-01  7.71453E-02 -4.06687E-01
   3.04737E+00  1.57173E+00 -1.02602E+00  4.60730E-01  2.85501E+00  6.64244E-01  7.17754E-01  4.69315E+00  3.93815E-01 -1.66756E+00
  -3.59290E+00 -2.87310E+00 -1.76343E+00 -2.09351E+00 -5.66150E-01 -7.42701E-01  1.71381E+00  3.15194E+00  3.63647E+00  2.03526E+00
   1.83682E+00 -1.27477E-01  6.21064E-01 -5.40726E-01  1.07612E+00  9.54044E-01  1.88662E+00  7.85690E-01 -4.17798E-01  5.26921E-01
   2.16207E+00  2.39387E+00 -7.92838E-01 -9.25473E-01 -2.59708E+00 -1.45138E+00 -1.27048E+00 -1.53803E+00 -3.09185E-01 -6.05819E-01
   9.70684E-01  2.72509E+00  1.78856E+00  3.93112E+00  3.23447E+00  1.80270E+00  1.79861E+00  2.18362E+00  1.10220E+00  1.64836E+00
   6.96732E-01  2.06266E+00 -1.37822E+00  1.76875E+00  2.39887E+00  3.06848E+00  7.33186E-02  2.99031E+00  1.42899E+00  1.32146E+00
   1.84311E+00 -2.93007E+00 -1.13644E+00 -9.34520E-01 -5.65787E-01  8.06235E-01  3.84168E-01 -2.03379E+00  1.73536E+00  6.72833E-01
  -8.85390E-01  8.83104E-01  1.10151E+00 -3.66431E-01  1.01417E+00  1.71299E+00  9.32248E-01 -1.05660E+00 -1.28104E+00 -8.06508E-01
   2.39560E+00  6.25930E-01 -2.01428E+00 -1.52390E+00 -1.98992E-02 -1.43678E+00 -3.87005E-01  1.95747E-01  6.22567E-01  2.47961E-01
  -1.35984E+00  1.67882E+00 -5.39836E-01 -2.32085E+00 -1.07864E+00 -5.46543E-01 -9.27859E-01 -2.64494E+00 -1.95400E+00 -4.04734E-03
  -2.41163E+00 -7.03362E-01 -3.41470E+00  9.48153E-01  4.82615E-01  3.59605E-01  1.06256E-01 -5.15955E-01 -8.37932E-01 -1.03491E+00
  -5.27005E-01  1.13249E+00 -7.98956E-01 -3.76844E+00  3.42072E-01 -2.15777E-01  1.38522E+00 -6.56818E-01  1.42200E+00 -1.96817E+00
  -1.38271E+00 -1.33946E-01 -3.71912E-02 -1.72159E-01 -3.64400E+00  1.68415E+00 -7.31465E-01  1.05033E+00  1.75903E+00 -1.15900E+00
   1.51450E+00 -2.36598E+00 -6.10423E-01 -1.76360E+00 -2.00886E+00 -5.24264E-01 -1.13899E-01 -2.24881E+00 -1.12414E-01  9.50975E-01
  -1.71791E-01  9.08393E-01  1.07186E+00 -8.77204E-01  1.05988E+00  1.83409E+00  7.09538E-01  2.48175E-01 -2.64764E+00 -4.79747E-01
  -3.27747E-01  1.53910E+00  1.44630E-01 -1.06011E+00  2.08688E+00  2.66896E-01  1.56249E+00 -1.04198E+00  1.42473E+00  1.61782E+00
  -4.04745E-01  5.85672E-01  2.51266E-01 -1.53712E+00 -8.80212E-01 -8.83141E-01 -4.98370E+00 -4.01081E+00 -1.69557E+00 -2.76010E-02
   9.15160E-01  4.56216E+00  3.63445E+00  2.18439E+00  3.75319E+00  4.65023E+00  5.03125E+00  3.66931E+00  4.04071E+00  2.78827E+00
   1.85835E+00  1.38190E+00  2.42188E+00  2.23145E+00  1.98370E+00  1.05775E+00  6.60756E-01  1.12258E+00 -5.27483E-01  1.13086E+00
   1.23616E+00  6.48837E-01 -3.01820E+00 -2.42185E-01  9.30169E-01  2.45281E-02 -5.27536E-01 -2.48323E+00 -3.34783E-01 -1.39829E+00
  -2.18796E+00  2.52963E+00  2.83159E-01 -1.45759E+00 -9.58430E-01  1.13289E-01  1.39807E-01 -7.83572E-01 -1.60067E+00 -8.78970E-01
  -7.56124E-01 -7.29324E-01 -6.77678E-01  8.42550E-02  9.98389E-01 -9.40237E-01 -6.26689E-01 -1.00601E+00  1.50617E+00  5.57418E-01
  -2.12477E+00 -5.86990E-01  7.71570E-02 -9.96773E-01  3.67013E-01 -9.78022E-01 -1.66034E+00 -1.17431E+00 -1.03733E+00 -1.26246E+00
  -1.10851E+00  4.59871E-01 -9.65114E-03 -6.71959E-01  1.42950E+00 -1.36905E+00 -1.32745E+00 -1.46211E+00 -3.34607E-01 -9.58253E-02
  -4.04330E+00 -1.34344E+00  3.04954E-01  2.74843E-01 -7.30140E-01  5.32608E-01 -1.29644E+00  1.47939E-01  8.08846E-01  2.58902E+00
   7.52257E-01  2.70798E+00 -1.20518E+00  1.76952E+00 -5.36402E-01 -9.00225E-02  2.76543E-01  6.98219E-01  4.33228E-01 -1.76475E-01
   1.53707E+00 -8.49082E-01 -1.02505E+00 -1.97895E+00 -3.05943E+00 -1.64882E+00 -6.51569E-01 -2.96167E+00 -2.21576E+00 -5.63344E+00
  -5.05973E+00 -5.22230E+00 -6.22375E+00 -2.29918E+00 -6.44073E+00 -5.19041E+00 -5.53031E+00 -4.13388E+00 -5.16837E+00 -8.61135E-01
  -4.61258E+00 -3.88832E+00 -3.58152E+00 -4.19261E+00 -4.05071E+00 -7.29004E+00 -4.56544E+00 -3.79125E+00 -2.23085E+00 -6.51547E+00
  -5.75674E+00 -3.97283E+00 -1.33350E+00 -3.65616E+00 -2.12049E+00 -9.92183E-01 -2.91167E+00 -6.58248E+00 -3.83527E+00 -2.48512E+00
  -1.50626E+00 -2.70995E+00 -4.30250E+00 -2.25392E-02 -2.65218E+00 -1.85958E-01 -2.01625E-01 -6.48724E-01 -5.13418E-01 -3.33277E+00
  -2.35070E+00 -2.99757E+00 -4.01607E+00 -4.54223E+00 -1.68192E+00 -1.01261E+00 -2.58673E+00 -2.00411E+00 -7.22011E-01 -2.20502E+00
  -1.65974E+00 -1.39502E+00 -1.57674E+00 -4.49031E-01  9.42811E-01 -5.06360E-01  3.65148E-02 -1.19192E-01  4.28451E-01  1.91693E+00
  -1.12917E+00  2.49780E-01  9.75528E-01 -1.23778E+00  1.21159E+00  1.35091E+00 -3.42963E+00  1.36652E+00 -1.25148E+00 -2.91609E-01
  -2.31094E+00 -2.72226E+00 -1.00318E-01 -2.35262E-01  1.78155E-01 -3.49255E+00 -1.56040E-01 -4.57165E-01 -9.01004E-01  2.09495E-01
  -8.88103E-01 -2.00967E-01 -1.54246E+00  5.87404E-01  1.08986E+00  1.44245E-01 -2.20548E+00 -1.22807E+00 -3.75682E+00  2.08841E+00
  -9.69575E-01 -4.03536E+00  3.82240E-01  4.56616E-01 -6.39301E-01  2.95779E-01  2.14931E+00 -1.83343E+00  8.18569E-02  1.00307E+00
  -1.51902E-01 -1.58657E-01  1.84545E+00  6.49683E-01  2.98770E-01  5.53301E-01 -1.02337E+00  1.03889E+00  6.74592E-01 -3.74628E-01
  -1.22438E+00  9.48121E-01 -2.00452E-01  8.38614E-01  1.43453E+00 -1.02700E+00  2.37024E+00  7.62841E-01 -1.18568E+00  4.11443E-01
  -5.50101E-02  1.11096E+00 -1.78642E-01 -2.37314E-01  7.38768E-01  1.13344E+00 -1.83279E+00  1.85442E+00  7.66911E-01  1.10114E+00
   1.86912E-01  1.57581E+00 -4.23712E-01  1.96807E+00 -2.57928E-01 -7.68403E-01  6.89149E-01 -6.97956E-01
 NY points of the fit to the data follow
   1.23506E+00  1.08044E+00  8.98666E-01  9.37839E-01  1.10937E+00  1.28679E+00  1.12703E+00  6.57060E-01  5.44431E-01  6.37127E-01
   6.71759E-01  7.59611E-01  1.13330E+00  1.72527E+00  2.34329E+00  2.78287E+00  2.76753E+00  2.14518E+00  1.14995E+00  5.93945E-01
   6.83213E-01  8.35955E-01  9.64959E-01  1.10551E+00  1.23116E+00  1.13868E+00  1.04630E+00  9.33483E-01  8.15843E-01  7.67348E-01
   8.80665E-01  1.14797E+00  1.49009E+00  1.91890E+00  2.22920E+00  2.23681E+00  1.87030E+00  1.40549E+00  1.20370E+00  1.13834E+00
   1.22660E+00  1.12812E+00  6.98045E-01  3.35037E-01  3.32499E-01  5.53872E-01  8.23918E-01  1.23228E+00  1.82559E+00  2.45538E+00
   2.84970E+00  2.80774E+00  2.28549E+00  1.28939E+00  3.82970E-01  1.49037E-01  3.22648E-01  5.60239E-01  7.78700E-01  9.89652E-01
   1.24086E+00  1.48569E+00  1.66307E+00  1.77136E+00  1.72127E+00  1.45933E+00  1.06596E+00  7.66194E-01  6.69743E-01  8.04179E-01
   9.61801E-01  1.07939E+00  1.19361E+00  1.26399E+00  1.30384E+00  1.33416E+00  1.36444E+00  1.34894E+00  1.25821E+00  1.22444E+00
   1.20883E+00  1.09878E+00  9.62171E-01  9.67950E-01  1.05794E+00  1.13430E+00  1.21149E+00  1.25965E+00  1.20514E+00  1.08359E+00
   9.09930E-01  7.02914E-01  5.92721E-01  6.30469E-01  8.15268E-01  1.07324E+00  1.33538E+00  1.72524E+00  1.43112E+00  3.45800E-01
  -2.04674E-01 -2.63201E-01 -3.48713E-01 -2.51506E-01  4.64324E-01  1.61467E+00  2.87209E+00  3.89893E+00  4.30042E+00  3.61068E+00
   1.82691E+00  5.36977E-01  4.63000E-01  5.80625E-01  6.57734E-01  7.18798E-01  7.75940E-01  8.09722E-01  8.43534E-01  8.89217E-01
   9.65100E-01  1.19636E+00  1.14780E+00  3.99303E-01 -7.43861E-02 -1.56899E-01 -2.06691E-01 -1.82472E-01  2.03031E-01  9.50121E-01
   1.90904E+00  2.77824E+00  3.25426E+00  3.02725E+00  1.89466E+00  8.00449E-01  6.03447E-01  5.67544E-01  4.83853E-01  3.50046E-01
   1.86626E-01  7.54800E-02  9.58168E-02  1.88014E-01  2.98423E-01  3.79557E-01  3.88163E-01  3.44313E-01  2.67650E-01  2.43112E-01
   2.85293E-01  2.93401E-01  2.68280E-01  2.16335E-01  1.09924E-01  1.06048E-02 -4.06699E-02 -7.83312E-02 -1.19088E-01 -1.02451E-01
  -3.20712E-02  9.89722E-02  1.62035E-01  7.58314E-02 -9.78643E-02 -2.18922E-01 -2.65930E-01 -2.12680E-01 -1.22794E-01 -1.17821E-01
  -1.88069E-01 -2.61772E-01 -3.35261E-01 -3.90383E-01 -3.95699E-01 -3.47208E-01 -2.34974E-01 -1.35769E-01 -1.76425E-01 -3.72140E-01
  -5.58113E-01 -6.03018E-01 -4.61357E-01 -3.36656E-01 -4.24151E-01 -6.17598E-01 -7.42414E-01 -8.18925E-01 -7.82164E-01 -6.26353E-01
  -5.63386E-01 -6.17783E-01 -5.82117E-01 -3.14376E-01  3.04217E-02  1.83198E-01  1.37109E-01 -2.96241E-02 -3.20290E-01 -6.79657E-01
  -9.31712E-01 -1.05200E+00 -1.09075E+00 -1.03568E+00 -8.16426E-01 -3.44330E-01  4.39870E-02  1.68778E-01  2.46260E-01  2.86344E-01
   1.31900E-01 -2.74984E-01 -7.61171E-01 -1.15025E+00 -1.37953E+00 -1.38251E+00 -1.11333E+00 -7.46533E-01 -5.66672E-01 -5.15711E-01
  -4.37006E-01 -4.02058E-01 -4.74130E-01 -5.63308E-01 -6.28377E-01 -6.95433E-01 -6.75645E-01 -5.39167E-01 -3.60478E-01 -1.97538E-01
  -1.45470E-01 -1.40836E-01 -1.65571E-01 -2.71454E-01 -4.22586E-01 -5.21501E-01 -6.50144E-01 -6.65268E-01 -3.94939E-01 -1.15322E-01
   5.17736E-02  1.65957E-01  2.79406E-01  3.99899E-01  4.38848E-01  3.78803E-01  2.62949E-01  1.17057E-01  5.99066E-02  6.19140E-01
   1.90025E+00  1.15242E+00 -6.49729E-01 -1.61877E+00 -1.58391E+00 -1.82495E+00 -3.39198E+00 -3.93482E+00 -2.64286E+00 -5.43028E-01
   1.51979E+00  3.42993E+00  3.87349E+00  2.69891E+00  3.11294E+00  4.82477E+00  5.77917E+00  4.34027E+00  1.71238E+00  5.58108E-01
   1.21811E-01 -1.80001E-01 -4.03248E-01 -5.72302E-01 -6.95384E-01 -7.64769E-01 -7.70908E-01 -7.25326E-01 -7.12066E-01 -7.75920E-01
  -8.64239E-01 -9.86500E-01 -1.14078E+00 -1.26132E+00 -1.31200E+00 -1.33092E+00 -1.31558E+00 -1.28905E+00 -1.26340E+00 -1.24385E+00
  -1.25221E+00 -1.27966E+00 -1.30720E+00 -1.35129E+00 -1.37061E+00 -1.35454E+00 -1.31626E+00 -1.24921E+00 -1.17475E+00 -1.13951E+00
  -1.13068E+00 -1.13277E+00 -1.14669E+00 -1.17110E+00 -1.20088E+00 -1.22011E+00 -1.21886E+00 -1.22092E+00 -1.23382E+00 -1.25169E+00
  -1.27406E+00 -1.29836E+00 -1.32270E+00 -1.34538E+00 -1.36505E+00 -1.38061E+00 -1.39129E+00 -1.39606E+00 -1.39434E+00 -1.38599E+00
  -1.37082E+00 -1.34821E+00 -1.31855E+00 -1.28223E+00 -1.24013E+00 -1.19331E+00 -1.14323E+00 -1.09122E+00 -1.03869E+00 -9.86894E-01
  -9.37459E-01 -8.91895E-01 -8.51796E-01 -8.18217E-01 -7.92047E-01 -7.73868E-01 -7.64325E-01 -7.63678E-01 -7.71994E-01 -7.88756E-01
  -8.13364E-01 -8.44958E-01 -8.82828E-01 -9.25953E-01 -9.73259E-01 -1.02337E+00 -1.07516E+00 -1.12753E+00 -1.17972E+00 -1.23079E+00
  -1.27998E+00 -1.32648E+00 -1.36989E+00 -1.40990E+00 -1.44651E+00 -1.47957E+00 -1.50911E+00 -1.53514E+00 -1.55806E+00 -1.57820E+00
  -1.59609E+00 -1.61197E+00 -1.62626E+00 -1.63926E+00 -1.65159E+00 -1.66364E+00 -1.67588E+00 -1.68843E+00 -1.70159E+00 -1.71553E+00
  -1.73062E+00 -1.74694E+00 -1.76459E+00 -1.78340E+00 -1.80341E+00 -1.82452E+00 -1.84681E+00 -1.87004E+00 -1.89405E+00 -1.91845E+00
  -1.94313E+00 -1.96781E+00 -1.99233E+00 -2.01620E+00 -2.03901E+00 -2.06015E+00 -2.07924E+00 -2.09565E+00 -2.10874E+00 -2.11752E+00
  -2.12109E+00 -2.11835E+00 -2.10836E+00 -2.08994E+00 -2.06197E+00 -2.02312E+00 -1.97237E+00 -1.90877E+00 -1.83180E+00 -1.74099E+00
  -1.63633E+00 -1.51805E+00 -1.38712E+00 -1.24488E+00 -1.09331E+00 -9.34628E-01 -7.71511E-01 -6.06833E-01 -4.43897E-01 -2.85928E-01
  -1.36175E-01  2.59310E-03  1.27811E-01  2.37472E-01  3.29878E-01  4.04097E-01  4.59724E-01  4.97154E-01  5.17131E-01  5.20937E-01
   5.10022E-01  4.86301E-01  4.51768E-01  4.08652E-01  3.58922E-01  3.04521E-01  2.47076E-01  1.88232E-01  1.29304E-01  7.15111E-02
   1.56060E-02 -3.77594E-02 -8.82391E-02 -1.35423E-01 -1.79168E-01 -2.19341E-01 -2.56117E-01 -2.89581E-01 -3.19951E-01 -3.47260E-01
  -3.71720E-01 -3.93467E-01 -4.12831E-01 -4.29955E-01 -4.45044E-01 -4.58121E-01 -4.69387E-01 -4.78954E-01 -4.87077E-01 -4.93797E-01
  -4.99226E-01 -5.03333E-01 -5.06286E-01 -5.08150E-01 -5.09103E-01 -5.09105E-01 -5.08215E-01 -5.06393E-01 -5.03796E-01 -5.00455E-01
  -4.96482E-01 -4.91791E-01 -4.86432E-01 -4.80374E-01 -4.73770E-01 -4.66620E-01 -4.58988E-01 -4.50769E-01 -4.42020E-01 -4.32732E-01
  -4.23044E-01 -4.12920E-01 -4.02391E-01 -3.91355E-01 -3.79893E-01 -3.68008E-01 -3.55815E-01 -3.43246E-01 -3.30315E-01 -3.16940E-01
  -3.03221E-01 -2.89163E-01 -2.74852E-01 -2.60192E-01 -2.45199E-01 -2.29819E-01 -2.14166E-01 -1.98232E-01 -1.82071E-01 -1.65574E-01
  -1.48772E-01 -1.31639E-01 -1.14290E-01 -9.66958E-02 -7.88810E-02 -6.07423E-02 -4.23310E-02 -2.36425E-02
 NY background values follow
     6.912E-01    6.960E-01    7.007E-01    7.053E-01    7.097E-01    7.140E-01    7.180E-01    7.220E-01    7.257E-01    7.294E-01
     7.328E-01    7.361E-01    7.393E-01    7.423E-01    7.451E-01    7.478E-01    7.503E-01    7.527E-01    7.549E-01    7.570E-01
     7.589E-01    7.607E-01    7.623E-01    7.638E-01    7.651E-01    7.662E-01    7.672E-01    7.681E-01    7.688E-01    7.693E-01
     7.697E-01    7.700E-01    7.701E-01    7.700E-01    7.698E-01    7.695E-01    7.690E-01    7.684E-01    7.676E-01    7.666E-01
     7.656E-01    7.643E-01    7.630E-01    7.614E-01    7.598E-01    7.580E-01    7.560E-01    7.540E-01    7.517E-01    7.494E-01
     7.468E-01    7.442E-01    7.414E-01    7.385E-01    7.354E-01    7.322E-01    7.288E-01    7.253E-01    7.217E-01    7.180E-01
     7.141E-01    7.100E-01    7.059E-01    7.016E-01    6.972E-01    6.926E-01    6.879E-01    6.831E-01    6.781E-01    6.731E-01
     6.678E-01    6.625E-01    6.570E-01    6.514E-01    6.457E-01    6.399E-01    6.339E-01    6.278E-01    6.216E-01    6.153E-01
     6.088E-01    6.022E-01    5.955E-01    5.887E-01    5.817E-01    5.747E-01    5.675E-01    5.602E-01    5.528E-01    5.453E-01
     5.376E-01    5.299E-01    5.220E-01    5.140E-01    5.060E-01    4.978E-01    4.894E-01    4.810E-01    4.725E-01    4.639E-01
     4.551E-01    4.463E-01    4.374E-01    4.283E-01    4.192E-01    4.099E-01    4.006E-01    3.911E-01    3.816E-01    3.719E-01
     3.622E-01    3.523E-01    3.424E-01    3.324E-01    3.222E-01    3.120E-01    3.017E-01    2.913E-01    2.808E-01    2.703E-01
     2.596E-01    2.488E-01    2.380E-01    2.271E-01    2.161E-01    2.050E-01    1.938E-01    1.826E-01    1.713E-01    1.599E-01
     1.484E-01    1.368E-01    1.252E-01    1.135E-01    1.017E-01    8.984E-02    7.791E-02    6.592E-02    5.385E-02    4.172E-02
     2.952E-02    1.725E-02    4.916E-03   -7.480E-03   -1.994E-02   -3.246E-02   -4.504E-02   -5.769E-02   -7.039E-02   -8.314E-02
    -9.596E-02   -1.088E-01   -1.218E-01   -1.347E-01   -1.478E-01   -1.608E-01   -1.740E-01   -1.871E-01   -2.004E-01   -2.136E-01
    -2.270E-01   -2.403E-01   -2.537E-01   -2.672E-01   -2.807E-01   -2.942E-01   -3.078E-01   -3.214E-01   -3.350E-01   -3.487E-01
    -3.624E-01   -3.761E-01   -3.899E-01   -4.037E-01   -4.176E-01   -4.314E-01   -4.453E-01   -4.592E-01   -4.732E-01   -4.871E-01
    -5.011E-01   -5.151E-01   -5.292E-01   -5.432E-01   -5.573E-01   -5.714E-01   -5.855E-01   -5.996E-01   -6.137E-01   -6.278E-01
    -6.420E-01   -6.561E-01   -6.703E-01   -6.845E-01   -6.987E-01   -7.128E-01   -7.270E-01   -7.412E-01   -7.554E-01   -7.696E-01
    -7.838E-01   -7.980E-01   -8.122E-01   -8.264E-01   -8.405E-01   -8.547E-01   -8.689E-01   -8.830E-01   -8.971E-01   -9.113E-01
    -9.254E-01   -9.395E-01   -9.536E-01   -9.676E-01   -9.817E-01   -9.957E-01   -1.010E+00   -1.024E+00   -1.038E+00   -1.052E+00
    -1.066E+00   -1.079E+00   -1.093E+00   -1.107E+00   -1.121E+00   -1.135E+00   -1.148E+00   -1.162E+00   -1.176E+00   -1.190E+00
    -1.203E+00   -1.217E+00   -1.230E+00   -1.244E+00   -1.257E+00   -1.271E+00   -1.284E+00   -1.297E+00   -1.310E+00   -1.324E+00
    -1.337E+00   -1.350E+00   -1.363E+00   -1.376E+00   -1.389E+00   -1.402E+00   -1.415E+00   -1.428E+00   -1.440E+00   -1.453E+00
    -1.466E+00   -1.478E+00   -1.491E+00   -1.503E+00   -1.516E+00   -1.528E+00   -1.540E+00   -1.552E+00   -1.564E+00   -1.576E+00
    -1.588E+00   -1.600E+00   -1.612E+00   -1.624E+00   -1.636E+00   -1.647E+00   -1.659E+00   -1.670E+00   -1.681E+00   -1.693E+00
    -1.704E+00   -1.715E+00   -1.726E+00   -1.737E+00   -1.748E+00   -1.758E+00   -1.769E+00   -1.780E+00   -1.790E+00   -1.801E+00
    -1.811E+00   -1.821E+00   -1.831E+00   -1.841E+00   -1.851E+00   -1.861E+00   -1.871E+00   -1.880E+00   -1.890E+00   -1.899E+00
    -1.909E+00   -1.918E+00   -1.927E+00   -1.936E+00   -1.945E+00   -1.954E+00   -1.962E+00   -1.971E+00   -1.979E+00   -1.988E+00
    -1.996E+00   -2.004E+00   -2.012E+00   -2.020E+00   -2.028E+00   -2.035E+00   -2.043E+00   -2.050E+00   -2.057E+00   -2.065E+00
    -2.072E+00   -2.079E+00   -2.085E+00   -2.092E+00   -2.099E+00   -2.105E+00   -2.111E+00   -2.117E+00   -2.123E+00   -2.129E+00
    -2.135E+00   -2.141E+00   -2.146E+00   -2.151E+00   -2.157E+00   -2.162E+00   -2.167E+00   -2.172E+00   -2.176E+00   -2.181E+00
    -2.185E+00   -2.189E+00   -2.194E+00   -2.198E+00   -2.201E+00   -2.205E+00   -2.209E+00   -2.212E+00   -2.215E+00   -2.218E+00
    -2.221E+00   -2.224E+00   -2.227E+00   -2.229E+00   -2.232E+00   -2.234E+00   -2.236E+00   -2.238E+00   -2.239E+00   -2.241E+00
    -2.242E+00   -2.244E+00   -2.245E+00   -2.246E+00   -2.247E+00   -2.247E+00   -2.248E+00   -2.248E+00   -2.248E+00   -2.248E+00
    -2.248E+00   -2.248E+00   -2.247E+00   -2.247E+00   -2.246E+00   -2.245E+00   -2.244E+00   -2.243E+00   -2.241E+00   -2.240E+00
    -2.238E+00   -2.236E+00   -2.234E+00   -2.231E+00   -2.229E+00   -2.226E+00   -2.223E+00   -2.220E+00   -2.217E+00   -2.214E+00
    -2.211E+00   -2.207E+00   -2.203E+00   -2.199E+00   -2.195E+00   -2.191E+00   -2.186E+00   -2.181E+00   -2.176E+00   -2.171E+00
    -2.166E+00   -2.161E+00   -2.155E+00   -2.149E+00   -2.144E+00   -2.137E+00   -2.131E+00   -2.125E+00   -2.118E+00   -2.111E+00
    -2.104E+00   -2.097E+00   -2.090E+00   -2.082E+00   -2.075E+00   -2.067E+00   -2.059E+00   -2.050E+00   -2.042E+00   -2.033E+00
    -2.024E+00   -2.016E+00   -2.006E+00   -1.997E+00   -1.988E+00   -1.978E+00   -1.968E+00   -1.958E+00   -1.948E+00   -1.937E+00
    -1.927E+00   -1.916E+00   -1.905E+00   -1.894E+00   -1.882E+00   -1.871E+00   -1.859E+00   -1.847E+00   -1.835E+00   -1.823E+00
    -1.810E+00   -1.798E+00   -1.785E+00   -1.772E+00   -1.759E+00   -1.746E+00   -1.732E+00   -1.718E+00   -1.704E+00   -1.690E+00
    -1.676E+00   -1.662E+00   -1.647E+00   -1.632E+00   -1.617E+00   -1.602E+00   -1.587E+00   -1.571E+00   -1.555E+00   -1.539E+00
    -1.523E+00   -1.507E+00   -1.491E+00   -1.474E+00   -1.457E+00   -1.440E+00   -1.423E+00   -1.406E+00   -1.388E+00   -1.370E+00
    -1.353E+00   -1.335E+00   -1.316E+00   -1.298E+00   -1.279E+00   -1.260E+00   -1.242E+00   -1.222E+00   -1.203E+00   -1.184E+00
    -1.164E+00   -1.144E+00   -1.124E+00   -1.104E+00   -1.084E+00   -1.063E+00   -1.042E+00   -1.021E+00   -1.000E+00   -9.791E-01
    -9.577E-01   -9.362E-01   -9.144E-01   -8.925E-01   -8.704E-01   -8.482E-01   -8.258E-01   -8.032E-01   -7.804E-01   -7.575E-01
    -7.344E-01   -7.111E-01   -6.877E-01   -6.641E-01   -6.403E-01   -6.164E-01   -5.923E-01   -5.681E-01
 Asp      Conc. = 5.83E+00
