 LCModel (Version 6.3-1L) Copyright: S.W. Provencher.          Ref.: Magn. Reson. Med. 30:672-679 (1993).                
 Slice#2 Row#13 Col#3  PD_05_press_1_raw_act
 36 lines in following concentration table = NCONC+1
    Conc.  %SD /Cr+PCr  Metabolite                                         
 3.23E+03  13%   9.212 Ala                                                 
    0.000 999%   0.000 Asp                                                 
    0.000 999%   0.000 Cr                                                  
  351.108  13%   1.000 PCr                                                 
    0.966 999% 2.8E-03 GABA                                                
   23.661 218% 6.7E-02 Glc                                                 
 2.16E+03  18%   6.149 Gln                                                 
    0.000 999%   0.000 Glu                                                 
   54.273  38%   0.155 GPC                                                 
    0.000 999%   0.000 PCh                                                 
  317.149  24%   0.903 GSH                                                 
  887.366  26%   2.527 Ins                                                 
 4.34E+03  13%  12.355 Lac                                                 
    0.000 999%   0.000 NAA                                                 
    0.000 999%   0.000 NAAG                                                
   38.821  38%   0.111 Scyllo                                              
  118.532  68%   0.338 Tau                                                 
    0.000 999%   0.000 -CrCH2                                              
   54.273  38%   0.155 GPC+PCh                                             
    0.000 999%   0.000 NAA+NAAG                                            
  351.108  13%   1.000 Cr+PCr                                              
 2.16E+03  18%   6.149 Glu+Gln                                             
 2.62E+03  30%   7.471 Lip13a                                              
   57.686 183%   0.164 Lip13b                                              
  748.094  23%   2.131 Lip09                                               
 1.79E+03   6%   5.091 MM09                                                
  376.566  35%   1.073 Lip20                                               
 2.68E+03   6%   7.635 MM20                                                
  536.230   6%   1.527 MM12                                                
 1.34E+03   6%   3.828 MM14                                                
  670.362   6%   1.909 MM17                                                
 2.68E+03  27%   7.636 Lip13a+Lip13b                                       
 4.56E+03  15%  12.991 MM14+Lip13a+Lip13b+MM12                             
 2.54E+03   7%   7.222 MM09+Lip09                                          
 3.06E+03   6%   8.707 MM20+Lip20                                          
   6 lines in following misc. output table
  FWHM = 0.153 ppm    S/N =   9                                            
  Data shift = 0.084 ppm                                                   
  Ph:  85 deg     -26.3 deg/ppm                                            
  alphaB,S = 2.6E+00,   3.4E+02                                            
    8 spline knots.   Ns = 9(2)                                            
  (13) 4 infls.   ( 1) 1 extrs.                                            
  498 points on ppm-axis = NY
      4.000000     3.992357     3.984714     3.977070     3.969427     3.961784     3.954141     3.946497     3.938854     3.931211
      3.923568     3.915925     3.908281     3.900638     3.892995     3.885352     3.877708     3.870065     3.862422     3.854779
      3.847136     3.839492     3.831849     3.824206     3.816563     3.808919     3.801276     3.793633     3.785990     3.778347
      3.770703     3.763060     3.755417     3.747774     3.740130     3.732487     3.724844     3.717201     3.709558     3.701914
      3.694271     3.686628     3.678985     3.671341     3.663698     3.656055     3.648412     3.640769     3.633125     3.625482
      3.617839     3.610196     3.602552     3.594909     3.587266     3.579623     3.571980     3.564336     3.556693     3.549050
      3.541407     3.533763     3.526120     3.518477     3.510834     3.503191     3.495547     3.487904     3.480261     3.472618
      3.464974     3.457331     3.449688     3.442045     3.434402     3.426758     3.419115     3.411472     3.403829     3.396185
      3.388542     3.380899     3.373256     3.365613     3.357969     3.350326     3.342683     3.335040     3.327396     3.319753
      3.312110     3.304467     3.296824     3.289180     3.281537     3.273894     3.266251     3.258607     3.250964     3.243321
      3.235678     3.228034     3.220391     3.212748     3.205105     3.197462     3.189818     3.182175     3.174532     3.166889
      3.159245     3.151602     3.143959     3.136316     3.128673     3.121029     3.113386     3.105743     3.098100     3.090456
      3.082813     3.075170     3.067527     3.059884     3.052240     3.044597     3.036954     3.029311     3.021667     3.014024
      3.006381     2.998738     2.991095     2.983451     2.975808     2.968165     2.960522     2.952878     2.945235     2.937592
      2.929949     2.922306     2.914662     2.907019     2.899376     2.891733     2.884089     2.876446     2.868803     2.861160
      2.853517     2.845873     2.838230     2.830587     2.822944     2.815300     2.807657     2.800014     2.792371     2.784728
      2.777084     2.769441     2.761798     2.754155     2.746511     2.738868     2.731225     2.723582     2.715939     2.708295
      2.700652     2.693009     2.685366     2.677722     2.670079     2.662436     2.654793     2.647150     2.639506     2.631863
      2.624220     2.616577     2.608933     2.601290     2.593647     2.586004     2.578361     2.570717     2.563074     2.555431
      2.547788     2.540144     2.532501     2.524858     2.517215     2.509572     2.501928     2.494285     2.486642     2.478999
      2.471355     2.463712     2.456069     2.448426     2.440783     2.433139     2.425496     2.417853     2.410210     2.402566
      2.394923     2.387280     2.379637     2.371994     2.364350     2.356707     2.349064     2.341421     2.333777     2.326134
      2.318491     2.310848     2.303205     2.295561     2.287918     2.280275     2.272632     2.264988     2.257345     2.249702
      2.242059     2.234416     2.226772     2.219129     2.211486     2.203843     2.196199     2.188556     2.180913     2.173270
      2.165627     2.157983     2.150340     2.142697     2.135054     2.127410     2.119767     2.112124     2.104481     2.096838
      2.089194     2.081551     2.073908     2.066265     2.058621     2.050978     2.043335     2.035692     2.028049     2.020405
      2.012762     2.005119     1.997476     1.989833     1.982190     1.974546     1.966903     1.959260     1.951617     1.943974
      1.936331     1.928688     1.921045     1.913402     1.905759     1.898115     1.890472     1.882829     1.875186     1.867543
      1.859900     1.852257     1.844614     1.836971     1.829327     1.821684     1.814041     1.806398     1.798755     1.791112
      1.783469     1.775826     1.768183     1.760540     1.752896     1.745253     1.737610     1.729967     1.722324     1.714681
      1.707038     1.699395     1.691752     1.684108     1.676465     1.668822     1.661179     1.653536     1.645893     1.638250
      1.630607     1.622964     1.615321     1.607677     1.600034     1.592391     1.584748     1.577105     1.569462     1.561819
      1.554176     1.546533     1.538890     1.531246     1.523603     1.515960     1.508317     1.500674     1.493031     1.485388
      1.477745     1.470102     1.462458     1.454815     1.447172     1.439529     1.431886     1.424243     1.416600     1.408957
      1.401314     1.393671     1.386027     1.378384     1.370741     1.363098     1.355455     1.347812     1.340169     1.332526
      1.324883     1.317240     1.309596     1.301953     1.294310     1.286667     1.279024     1.271381     1.263738     1.256095
      1.248452     1.240808     1.233165     1.225522     1.217879     1.210236     1.202593     1.194950     1.187307     1.179664
      1.172021     1.164377     1.156734     1.149091     1.141448     1.133805     1.126162     1.118519     1.110876     1.103233
      1.095590     1.087946     1.080303     1.072660     1.065017     1.057374     1.049731     1.042088     1.034445     1.026802
      1.019158     1.011515     1.003872     0.996229     0.988586     0.980943     0.973300     0.965657     0.958014     0.950371
      0.942727     0.935084     0.927441     0.919798     0.912155     0.904512     0.896869     0.889226     0.881583     0.873940
      0.866296     0.858653     0.851010     0.843367     0.835724     0.828081     0.820438     0.812795     0.805152     0.797508
      0.789865     0.782222     0.774579     0.766936     0.759293     0.751650     0.744007     0.736364     0.728721     0.721077
      0.713434     0.705791     0.698148     0.690505     0.682862     0.675219     0.667576     0.659933     0.652290     0.644646
      0.637003     0.629360     0.621717     0.614074     0.606431     0.598788     0.591145     0.583502     0.575858     0.568215
      0.560572     0.552929     0.545286     0.537643     0.530000     0.522357     0.514714     0.507071     0.499427     0.491784
      0.484141     0.476498     0.468855     0.461212     0.453569     0.445925     0.438282     0.430639     0.422996     0.415353
      0.407710     0.400067     0.392424     0.384780     0.377137     0.369494     0.361851     0.354208     0.346565     0.338922
      0.331278     0.323635     0.315992     0.308349     0.300706     0.293063     0.285420     0.277777     0.270133     0.262490
      0.254847     0.247204     0.239561     0.231918     0.224275     0.216631     0.208988     0.201345
 NY phased data points follow
   5.42623E+01  5.50524E+01  5.39551E+01  5.19226E+01  5.05003E+01  5.10080E+01  5.20332E+01  4.85531E+01  5.05332E+01  4.96204E+01
   4.92040E+01  4.72595E+01  4.64013E+01  4.73342E+01  4.78485E+01  4.62897E+01  4.52039E+01  4.61686E+01  4.53646E+01  4.50692E+01
   4.32698E+01  4.40295E+01  4.33119E+01  4.35225E+01  4.41184E+01  4.31783E+01  4.23405E+01  4.20864E+01  4.12592E+01  4.21522E+01
   4.07275E+01  4.04945E+01  4.03320E+01  3.91080E+01  4.04418E+01  3.60573E+01  3.88397E+01  3.76013E+01  3.85780E+01  3.73358E+01
   3.59365E+01  3.55413E+01  3.74630E+01  3.41326E+01  3.53443E+01  3.45310E+01  3.50379E+01  3.39449E+01  3.22057E+01  3.17188E+01
   3.16721E+01  3.10774E+01  3.08985E+01  3.03289E+01  3.21385E+01  3.15997E+01  2.98683E+01  2.93370E+01  2.95597E+01  3.01318E+01
   2.96267E+01  2.90336E+01  2.83896E+01  2.65587E+01  2.76506E+01  2.86541E+01  2.77134E+01  2.71254E+01  2.57998E+01  2.74481E+01
   2.68093E+01  2.53854E+01  2.60340E+01  2.61034E+01  2.35601E+01  2.47412E+01  2.19609E+01  2.39437E+01  2.40557E+01  2.46725E+01
   2.16834E+01  2.18780E+01  2.15602E+01  2.29088E+01  2.13373E+01  1.96422E+01  2.04859E+01  2.08036E+01  1.90560E+01  1.91291E+01
   1.89296E+01  2.00472E+01  1.98520E+01  1.92316E+01  1.67831E+01  1.89024E+01  1.90700E+01  1.95697E+01  1.75309E+01  1.72262E+01
   1.83868E+01  1.71530E+01  1.65649E+01  1.51048E+01  1.45322E+01  1.60472E+01  1.55567E+01  1.41413E+01  1.31975E+01  1.36783E+01
   1.19931E+01  1.42911E+01  1.18914E+01  1.42502E+01  1.24324E+01  1.25052E+01  1.42067E+01  1.36378E+01  1.32009E+01  1.51034E+01
   1.28654E+01  1.40989E+01  1.35427E+01  1.28524E+01  1.40016E+01  1.29010E+01  1.35288E+01  1.23411E+01  1.26755E+01  1.31308E+01
   1.26264E+01  1.13058E+01  1.12467E+01  1.22676E+01  1.22460E+01  1.09972E+01  1.26559E+01  1.04833E+01  1.16462E+01  8.94949E+00
   8.74572E+00  9.65457E+00  1.08197E+01  7.86643E+00  7.76878E+00  9.23518E+00  7.38260E+00  7.43562E+00  5.74112E+00  5.87851E+00
   6.40473E+00  4.35985E+00  6.00218E+00  4.84369E+00  2.87477E+00  3.90264E+00  3.20212E+00  3.63473E+00  2.84792E+00  2.77917E+00
   3.37774E+00  3.06980E+00  1.78442E+00  2.27510E+00  6.73917E-01  2.36788E+00 -1.26509E-01 -1.20018E+00  2.09456E-01 -2.83949E+00
  -2.64125E+00 -1.58800E+00 -1.88385E+00 -2.97801E+00 -2.90502E+00 -2.94788E+00 -3.00165E+00 -2.77523E+00 -6.10425E+00 -3.40061E+00
  -5.65302E+00 -6.34199E+00 -5.01213E+00 -4.17202E+00 -3.75287E+00 -5.53990E+00 -4.20557E+00 -5.92696E+00 -5.03318E+00 -5.23882E+00
  -4.63912E+00 -5.13256E+00 -5.59673E+00 -3.82699E+00 -5.01181E+00 -5.07142E+00 -2.91279E+00 -2.87937E+00 -2.99240E+00 -1.99531E+00
  -3.53718E+00 -2.89295E+00 -2.21151E+00 -4.28578E+00 -2.26783E+00 -3.28124E+00 -1.79992E+00 -3.77128E+00 -3.20353E+00 -1.34845E+00
  -1.55076E+00 -1.11138E+00 -1.74091E+00 -2.51197E+00 -2.61155E+00 -2.93151E+00 -1.76336E+00 -8.07188E-01  2.55488E-01 -1.66183E+00
   6.59420E-01  3.49835E-01  9.12403E-01  1.29388E+00  1.14347E+00 -5.52309E-03  9.23373E-01  6.31009E-01  2.46429E+00  1.40240E+00
   2.34270E+00  4.30365E+00  3.17390E+00  3.60568E+00  3.83727E+00  3.03142E+00  3.35839E+00  3.89594E+00  1.47444E+00  3.01059E+00
   1.72695E+00  3.37657E+00  3.19308E+00  3.38671E+00  2.24718E+00  3.22247E+00  3.30580E+00  4.92792E+00  2.75778E+00  1.24608E+00
   3.98872E+00  3.04986E+00  4.42473E+00  3.02145E+00  4.95284E+00  4.44503E+00  2.63049E+00  3.84219E+00  2.22892E+00  1.55063E+00
   3.10827E+00  3.77356E+00  1.78396E+00  2.11472E+00 -1.53548E-01  2.58420E+00  2.06896E+00  2.23593E+00  4.00575E+00  1.97085E+00
   2.88987E+00  2.01375E+00  2.52236E+00  2.82859E+00  4.39453E-01  9.38408E-01  3.36052E+00  6.86292E-01  1.96933E-01  2.69699E+00
   1.66640E+00  3.17881E+00  1.42731E+00  1.72420E+00  1.54896E+00  2.98118E+00  5.21173E-01  3.09003E+00  2.38896E+00  6.96131E-01
   2.61741E+00  4.52543E+00  2.90068E+00  5.17936E+00  2.17093E+00  4.13974E+00  4.45133E+00  3.90871E+00  5.65663E+00  3.81948E+00
   5.96518E+00  5.32968E+00  7.21585E+00  6.15822E+00  6.26764E+00  9.45617E+00  6.14247E+00  7.65287E+00  8.72156E+00  1.03532E+01
   9.94931E+00  9.42769E+00  9.91344E+00  1.22987E+01  1.29072E+01  1.27223E+01  1.41818E+01  1.57256E+01  1.61451E+01  1.84693E+01
   1.95104E+01  1.68791E+01  1.87320E+01  1.97097E+01  2.13231E+01  2.11056E+01  2.28205E+01  2.38645E+01  2.36973E+01  2.44070E+01
   2.37316E+01  2.37540E+01  2.53112E+01  2.29618E+01  2.51925E+01  2.64243E+01  2.73332E+01  2.48993E+01  2.51993E+01  2.63850E+01
   2.67606E+01  2.58549E+01  2.70326E+01  2.61106E+01  2.59789E+01  2.52879E+01  2.41766E+01  2.57923E+01  2.48205E+01  2.62247E+01
   2.43042E+01  2.47948E+01  2.54575E+01  2.39832E+01  2.33684E+01  2.52958E+01  2.43164E+01  2.63383E+01  2.41631E+01  2.38536E+01
   2.31058E+01  2.21967E+01  2.37536E+01  2.31430E+01  2.29077E+01  2.36347E+01  2.30756E+01  2.18414E+01  2.36348E+01  2.19657E+01
   2.23717E+01  2.34333E+01  2.19507E+01  2.19554E+01  2.12966E+01  2.17959E+01  2.14360E+01  2.01452E+01  1.83761E+01  1.94438E+01
   1.84184E+01  1.94529E+01  1.94838E+01  1.79809E+01  1.78732E+01  1.76985E+01  1.97579E+01  1.81918E+01  1.80501E+01  1.75095E+01
   1.84663E+01  1.79820E+01  1.72255E+01  1.60202E+01  1.56900E+01  1.84224E+01  1.68219E+01  1.72879E+01  1.50744E+01  1.49603E+01
   1.75377E+01  1.70081E+01  1.68780E+01  1.54672E+01  1.36420E+01  1.46517E+01  1.49059E+01  1.51064E+01  1.48169E+01  1.54611E+01
   1.23681E+01  1.28970E+01  1.37931E+01  1.25931E+01  1.16055E+01  1.26255E+01  1.22073E+01  1.25737E+01  1.28772E+01  1.09939E+01
   1.23746E+01  1.20578E+01  1.06286E+01  1.16175E+01  1.14357E+01  1.16599E+01  1.03418E+01  8.31456E+00  1.05399E+01  1.12096E+01
   1.09651E+01  1.05706E+01  1.07051E+01  9.28383E+00  1.05188E+01  9.09031E+00  8.95792E+00  7.21567E+00  9.17838E+00  8.22336E+00
   1.04349E+01  7.98286E+00  7.83594E+00  7.89897E+00  1.02176E+01  6.73688E+00  8.43552E+00  6.24632E+00  7.92299E+00  8.67849E+00
   7.92746E+00  8.74664E+00  7.06950E+00  8.98922E+00  6.23723E+00  7.74324E+00  7.21662E+00  6.39452E+00  6.27394E+00  7.00025E+00
   6.79536E+00  5.43816E+00  6.05348E+00  5.63735E+00  6.72155E+00  7.93028E+00  6.32387E+00  6.42597E+00  5.79843E+00  4.01683E+00
   5.19461E+00  4.49930E+00  5.93159E+00  5.05662E+00  4.50548E+00  5.14757E+00  5.05640E+00  4.60521E+00  5.44174E+00  5.11040E+00
   4.16627E+00  4.47500E+00  4.68502E+00  5.35749E+00  3.76773E+00  2.26437E+00  3.57070E+00  2.42316E+00  4.57782E+00  1.10209E+00
   2.17976E+00  3.64836E+00  2.94875E+00  3.55269E+00  1.68771E+00  2.03154E+00  1.53310E+00  2.25445E+00
 NY points of the fit to the data follow
   5.11306E+01  5.15203E+01  5.07182E+01  5.08775E+01  5.04330E+01  5.05250E+01  5.01612E+01  5.00964E+01  4.96520E+01  4.91817E+01
   4.86925E+01  4.79338E+01  4.75645E+01  4.69613E+01  4.67221E+01  4.62676E+01  4.61680E+01  4.56936E+01  4.56448E+01  4.49943E+01
   4.49179E+01  4.43093E+01  4.42448E+01  4.35493E+01  4.35214E+01  4.27361E+01  4.27278E+01  4.18068E+01  4.18758E+01  4.09359E+01
   4.11920E+01  4.03675E+01  4.07634E+01  3.98476E+01  4.01762E+01  3.91248E+01  3.94143E+01  3.83311E+01  3.86118E+01  3.75231E+01
   3.76930E+01  3.66558E+01  3.67628E+01  3.57867E+01  3.58716E+01  3.50384E+01  3.51313E+01  3.45295E+01  3.43447E+01  3.36636E+01
   3.32900E+01  3.26660E+01  3.22501E+01  3.16213E+01  3.12457E+01  3.08475E+01  3.05380E+01  3.01898E+01  2.98486E+01  2.95046E+01
   2.91006E+01  2.88551E+01  2.83544E+01  2.80982E+01  2.75801E+01  2.73488E+01  2.68085E+01  2.65904E+01  2.60887E+01  2.59232E+01
   2.54828E+01  2.53875E+01  2.49198E+01  2.47957E+01  2.43039E+01  2.41521E+01  2.36371E+01  2.34644E+01  2.29213E+01  2.27448E+01
   2.21783E+01  2.19916E+01  2.14340E+01  2.12789E+01  2.07847E+01  2.06922E+01  2.01563E+01  2.00855E+01  1.94922E+01  1.94510E+01
   1.88640E+01  1.88841E+01  1.82995E+01  1.83718E+01  1.77903E+01  1.79284E+01  1.73100E+01  1.74869E+01  1.68494E+01  1.70416E+01
   1.63904E+01  1.65818E+01  1.59150E+01  1.60908E+01  1.53947E+01  1.55279E+01  1.48505E+01  1.49517E+01  1.43835E+01  1.45981E+01
   1.41642E+01  1.43100E+01  1.39544E+01  1.40215E+01  1.37857E+01  1.38506E+01  1.37797E+01  1.37793E+01  1.38566E+01  1.37638E+01
   1.39595E+01  1.37356E+01  1.40160E+01  1.36988E+01  1.41200E+01  1.37210E+01  1.41257E+01  1.35877E+01  1.39334E+01  1.32387E+01
   1.34778E+01  1.26854E+01  1.28074E+01  1.19700E+01  1.19777E+01  1.11383E+01  1.10453E+01  1.02075E+01  1.00125E+01  9.21139E+00
   8.92932E+00  8.20953E+00  7.86177E+00  7.21846E+00  6.82212E+00  6.22457E+00  5.78778E+00  5.28608E+00  4.86535E+00  4.61662E+00
   4.30252E+00  4.05525E+00  3.76296E+00  3.51597E+00  3.25812E+00  3.04214E+00  2.80095E+00  2.55907E+00  2.31587E+00  2.04930E+00
   1.80773E+00  1.55311E+00  1.32808E+00  1.10473E+00  8.96234E-01  6.85253E-01  4.81919E-01  2.70929E-01  7.40802E-02 -1.33411E-01
  -3.16865E-01 -5.10937E-01 -6.70924E-01 -8.48445E-01 -9.87547E-01 -1.16973E+00 -1.32582E+00 -1.52299E+00 -1.70802E+00 -1.95444E+00
  -2.13165E+00 -2.38274E+00 -2.54087E+00 -2.74606E+00 -2.83156E+00 -3.01020E+00 -3.06988E+00 -3.19369E+00 -3.22565E+00 -3.32950E+00
  -3.34943E+00 -3.49857E+00 -3.68621E+00 -3.80620E+00 -3.91599E+00 -3.97679E+00 -4.03744E+00 -4.07286E+00 -4.14873E+00 -4.15175E+00
  -4.20342E+00 -4.17462E+00 -4.19652E+00 -4.14658E+00 -4.11885E+00 -4.06880E+00 -4.00281E+00 -3.95486E+00 -3.81135E+00 -3.71973E+00
  -3.45760E+00 -3.28594E+00 -2.85284E+00 -2.63739E+00 -2.12776E+00 -1.90933E+00 -1.40854E+00 -1.25254E+00 -9.20307E-01 -8.13249E-01
  -4.67820E-01 -3.23849E-01  7.54798E-02  3.24877E-01  7.28364E-01  9.15469E-01  1.25590E+00  1.42767E+00  1.75559E+00  1.86147E+00
   2.12920E+00  2.02250E+00  2.06661E+00  1.89854E+00  2.08987E+00  1.88511E+00  2.19844E+00  1.98574E+00  2.44297E+00  2.19001E+00
   2.76211E+00  2.44356E+00  3.08324E+00  2.70000E+00  3.36634E+00  2.97635E+00  3.67691E+00  3.29725E+00  4.01300E+00  3.64567E+00
   4.31327E+00  3.91820E+00  4.48674E+00  4.05444E+00  4.52783E+00  4.09637E+00  4.47741E+00  4.01302E+00  4.18120E+00  3.74900E+00
   3.86248E+00  3.51301E+00  3.60328E+00  3.39097E+00  3.42821E+00  3.14363E+00  3.11653E+00  2.81018E+00  2.71482E+00  2.40601E+00
   2.28317E+00  1.99908E+00  1.88130E+00  1.69161E+00  1.61344E+00  1.50067E+00  1.45509E+00  1.41205E+00  1.38478E+00  1.38331E+00
   1.38858E+00  1.41326E+00  1.46214E+00  1.53598E+00  1.63637E+00  1.76113E+00  1.91232E+00  2.08758E+00  2.28574E+00  2.50404E+00
   2.74041E+00  2.99104E+00  3.25308E+00  3.52262E+00  3.79632E+00  4.07042E+00  4.34215E+00  4.60924E+00  4.87124E+00  5.12801E+00
   5.38169E+00  5.63585E+00  5.89732E+00  6.17445E+00  6.48093E+00  6.83433E+00  7.26379E+00  7.81879E+00  8.61856E+00  9.74976E+00
   1.03532E+01  1.13512E+01  1.18013E+01  1.27368E+01  1.31451E+01  1.41102E+01  1.41679E+01  1.55256E+01  1.58564E+01  1.71876E+01
   1.74838E+01  1.84362E+01  1.86356E+01  1.94618E+01  1.97953E+01  2.04115E+01  2.09797E+01  2.13901E+01  2.24974E+01  2.29646E+01
   2.40110E+01  2.37753E+01  2.49390E+01  2.42436E+01  2.56848E+01  2.47457E+01  2.60998E+01  2.54253E+01  2.67632E+01  2.59352E+01
   2.69040E+01  2.58066E+01  2.63733E+01  2.57202E+01  2.60280E+01  2.56169E+01  2.56749E+01  2.56358E+01  2.55293E+01  2.59618E+01
   2.52336E+01  2.57007E+01  2.48051E+01  2.54554E+01  2.43501E+01  2.50926E+01  2.35684E+01  2.44479E+01  2.33510E+01  2.39805E+01
   2.31172E+01  2.36415E+01  2.29747E+01  2.35022E+01  2.29794E+01  2.31413E+01  2.28407E+01  2.28584E+01  2.30369E+01  2.36332E+01
   2.34460E+01  2.33593E+01  2.29461E+01  2.21837E+01  2.15072E+01  2.01381E+01  1.93494E+01  1.88978E+01  1.86197E+01  1.84501E+01
   1.83549E+01  1.83124E+01  1.83069E+01  1.83260E+01  1.83589E+01  1.83965E+01  1.84303E+01  1.84530E+01  1.84583E+01  1.84412E+01
   1.83977E+01  1.83249E+01  1.82212E+01  1.80862E+01  1.79206E+01  1.77263E+01  1.75061E+01  1.72633E+01  1.70021E+01  1.67266E+01
   1.64414E+01  1.61510E+01  1.58596E+01  1.55710E+01  1.52883E+01  1.50141E+01  1.47505E+01  1.44987E+01  1.42594E+01  1.40323E+01
   1.38169E+01  1.36120E+01  1.34164E+01  1.32281E+01  1.30453E+01  1.28661E+01  1.26887E+01  1.25112E+01  1.23323E+01  1.21507E+01
   1.19655E+01  1.17760E+01  1.15821E+01  1.13837E+01  1.11814E+01  1.09756E+01  1.07671E+01  1.05569E+01  1.03460E+01  1.01355E+01
   9.92652E+00  9.72009E+00  9.51717E+00  9.31862E+00  9.12522E+00  8.93757E+00  8.75616E+00  8.58129E+00  8.41319E+00  8.25195E+00
   8.09758E+00  7.94998E+00  7.80893E+00  7.67420E+00  7.54548E+00  7.42248E+00  7.30485E+00  7.19223E+00  7.08424E+00  6.98052E+00
   6.88071E+00  6.78450E+00  6.69156E+00  6.60158E+00  6.51424E+00  6.42928E+00  6.34647E+00  6.26557E+00  6.18636E+00  6.10863E+00
   6.03220E+00  5.95688E+00  5.88256E+00  5.80907E+00  5.73628E+00  5.66406E+00  5.59230E+00  5.52089E+00  5.44977E+00  5.37883E+00
   5.30800E+00  5.23717E+00  5.16630E+00  5.09533E+00  5.02421E+00  4.95286E+00  4.88125E+00  4.80931E+00  4.73701E+00  4.66433E+00
   4.59122E+00  4.51764E+00  4.44356E+00  4.36894E+00  4.29378E+00  4.21804E+00  4.14172E+00  4.06477E+00  3.98718E+00  3.90894E+00
   3.83005E+00  3.75050E+00  3.67027E+00  3.58937E+00  3.50779E+00  3.42557E+00  3.34272E+00  3.25929E+00
 NY background values follow
     4.705E+01    4.666E+01    4.628E+01    4.590E+01    4.551E+01    4.513E+01    4.475E+01    4.437E+01    4.400E+01    4.362E+01
     4.324E+01    4.287E+01    4.249E+01    4.212E+01    4.174E+01    4.137E+01    4.100E+01    4.063E+01    4.026E+01    3.990E+01
     3.953E+01    3.916E+01    3.880E+01    3.844E+01    3.807E+01    3.771E+01    3.735E+01    3.699E+01    3.663E+01    3.628E+01
     3.592E+01    3.556E+01    3.521E+01    3.486E+01    3.450E+01    3.415E+01    3.380E+01    3.345E+01    3.311E+01    3.276E+01
     3.241E+01    3.207E+01    3.173E+01    3.138E+01    3.104E+01    3.070E+01    3.036E+01    3.002E+01    2.969E+01    2.935E+01
     2.902E+01    2.868E+01    2.835E+01    2.802E+01    2.769E+01    2.736E+01    2.703E+01    2.671E+01    2.638E+01    2.606E+01
     2.573E+01    2.541E+01    2.509E+01    2.477E+01    2.445E+01    2.414E+01    2.382E+01    2.351E+01    2.319E+01    2.288E+01
     2.257E+01    2.226E+01    2.195E+01    2.164E+01    2.134E+01    2.103E+01    2.073E+01    2.043E+01    2.012E+01    1.982E+01
     1.953E+01    1.923E+01    1.893E+01    1.864E+01    1.834E+01    1.805E+01    1.776E+01    1.747E+01    1.718E+01    1.689E+01
     1.661E+01    1.632E+01    1.604E+01    1.576E+01    1.547E+01    1.520E+01    1.492E+01    1.464E+01    1.436E+01    1.409E+01
     1.382E+01    1.355E+01    1.327E+01    1.301E+01    1.274E+01    1.247E+01    1.221E+01    1.194E+01    1.168E+01    1.142E+01
     1.116E+01    1.090E+01    1.065E+01    1.039E+01    1.014E+01    9.890E+00    9.640E+00    9.391E+00    9.144E+00    8.899E+00
     8.655E+00    8.413E+00    8.173E+00    7.934E+00    7.697E+00    7.461E+00    7.227E+00    6.995E+00    6.764E+00    6.535E+00
     6.308E+00    6.083E+00    5.859E+00    5.637E+00    5.417E+00    5.199E+00    4.982E+00    4.768E+00    4.555E+00    4.344E+00
     4.134E+00    3.927E+00    3.722E+00    3.518E+00    3.316E+00    3.117E+00    2.919E+00    2.723E+00    2.529E+00    2.337E+00
     2.147E+00    1.959E+00    1.773E+00    1.589E+00    1.407E+00    1.227E+00    1.049E+00    8.735E-01    6.998E-01    5.282E-01
     3.587E-01    1.914E-01    2.617E-02   -1.369E-01   -2.978E-01   -4.565E-01   -6.131E-01   -7.674E-01   -9.195E-01   -1.069E+00
    -1.217E+00   -1.362E+00   -1.506E+00   -1.646E+00   -1.785E+00   -1.921E+00   -2.055E+00   -2.187E+00   -2.316E+00   -2.443E+00
    -2.567E+00   -2.690E+00   -2.809E+00   -2.927E+00   -3.041E+00   -3.154E+00   -3.264E+00   -3.371E+00   -3.477E+00   -3.579E+00
    -3.679E+00   -3.777E+00   -3.872E+00   -3.964E+00   -4.054E+00   -4.142E+00   -4.226E+00   -4.309E+00   -4.388E+00   -4.465E+00
    -4.539E+00   -4.611E+00   -4.680E+00   -4.747E+00   -4.811E+00   -4.872E+00   -4.931E+00   -4.988E+00   -5.042E+00   -5.094E+00
    -5.143E+00   -5.190E+00   -5.235E+00   -5.277E+00   -5.317E+00   -5.354E+00   -5.389E+00   -5.423E+00   -5.453E+00   -5.482E+00
    -5.508E+00   -5.533E+00   -5.555E+00   -5.575E+00   -5.593E+00   -5.609E+00   -5.622E+00   -5.634E+00   -5.644E+00   -5.652E+00
    -5.657E+00   -5.661E+00   -5.663E+00   -5.663E+00   -5.661E+00   -5.658E+00   -5.652E+00   -5.645E+00   -5.636E+00   -5.625E+00
    -5.612E+00   -5.598E+00   -5.582E+00   -5.564E+00   -5.545E+00   -5.524E+00   -5.501E+00   -5.477E+00   -5.451E+00   -5.424E+00
    -5.395E+00   -5.365E+00   -5.333E+00   -5.299E+00   -5.265E+00   -5.229E+00   -5.191E+00   -5.152E+00   -5.112E+00   -5.070E+00
    -5.027E+00   -4.983E+00   -4.938E+00   -4.891E+00   -4.843E+00   -4.794E+00   -4.744E+00   -4.693E+00   -4.640E+00   -4.587E+00
    -4.532E+00   -4.476E+00   -4.419E+00   -4.362E+00   -4.303E+00   -4.243E+00   -4.182E+00   -4.121E+00   -4.058E+00   -3.995E+00
    -3.931E+00   -3.866E+00   -3.800E+00   -3.733E+00   -3.665E+00   -3.597E+00   -3.528E+00   -3.458E+00   -3.388E+00   -3.317E+00
    -3.245E+00   -3.173E+00   -3.100E+00   -3.027E+00   -2.953E+00   -2.878E+00   -2.803E+00   -2.728E+00   -2.652E+00   -2.575E+00
    -2.498E+00   -2.421E+00   -2.344E+00   -2.266E+00   -2.187E+00   -2.108E+00   -2.029E+00   -1.950E+00   -1.870E+00   -1.790E+00
    -1.710E+00   -1.630E+00   -1.549E+00   -1.468E+00   -1.387E+00   -1.306E+00   -1.224E+00   -1.143E+00   -1.061E+00   -9.794E-01
    -8.975E-01   -8.155E-01   -7.334E-01   -6.513E-01   -5.691E-01   -4.869E-01   -4.047E-01   -3.226E-01   -2.404E-01   -1.584E-01
    -7.632E-02    5.629E-03    8.749E-02    1.692E-01    2.509E-01    3.323E-01    4.136E-01    4.948E-01    5.757E-01    6.565E-01
     7.370E-01    8.173E-01    8.973E-01    9.770E-01    1.057E+00    1.136E+00    1.214E+00    1.293E+00    1.371E+00    1.449E+00
     1.526E+00    1.603E+00    1.680E+00    1.756E+00    1.832E+00    1.907E+00    1.982E+00    2.056E+00    2.130E+00    2.203E+00
     2.275E+00    2.347E+00    2.419E+00    2.490E+00    2.560E+00    2.630E+00    2.699E+00    2.767E+00    2.835E+00    2.902E+00
     2.968E+00    3.034E+00    3.098E+00    3.162E+00    3.226E+00    3.288E+00    3.350E+00    3.411E+00    3.471E+00    3.530E+00
     3.588E+00    3.646E+00    3.702E+00    3.758E+00    3.812E+00    3.866E+00    3.919E+00    3.970E+00    4.021E+00    4.071E+00
     4.120E+00    4.167E+00    4.214E+00    4.259E+00    4.304E+00    4.347E+00    4.389E+00    4.430E+00    4.470E+00    4.509E+00
     4.546E+00    4.582E+00    4.617E+00    4.651E+00    4.684E+00    4.716E+00    4.746E+00    4.776E+00    4.804E+00    4.831E+00
     4.856E+00    4.881E+00    4.905E+00    4.927E+00    4.948E+00    4.968E+00    4.987E+00    5.004E+00    5.021E+00    5.036E+00
     5.050E+00    5.063E+00    5.075E+00    5.086E+00    5.095E+00    5.103E+00    5.111E+00    5.117E+00    5.121E+00    5.125E+00
     5.128E+00    5.129E+00    5.129E+00    5.128E+00    5.126E+00    5.123E+00    5.118E+00    5.113E+00    5.106E+00    5.098E+00
     5.089E+00    5.079E+00    5.067E+00    5.055E+00    5.041E+00    5.026E+00    5.010E+00    4.993E+00    4.975E+00    4.955E+00
     4.935E+00    4.913E+00    4.890E+00    4.866E+00    4.841E+00    4.814E+00    4.787E+00    4.758E+00    4.728E+00    4.697E+00
     4.665E+00    4.632E+00    4.597E+00    4.562E+00    4.525E+00    4.487E+00    4.448E+00    4.408E+00    4.367E+00    4.324E+00
     4.281E+00    4.236E+00    4.190E+00    4.143E+00    4.095E+00    4.046E+00    3.995E+00    3.944E+00    3.891E+00    3.837E+00
     3.782E+00    3.726E+00    3.669E+00    3.610E+00    3.551E+00    3.490E+00    3.428E+00    3.365E+00    3.301E+00    3.236E+00
     3.169E+00    3.102E+00    3.033E+00    2.963E+00    2.892E+00    2.820E+00    2.747E+00    2.673E+00
 Ala      Conc. = 3.23E+03
