 LCModel (Version 6.3-1L) Copyright: S.W. Provencher.          Ref.: Magn. Reson. Med. 30:672-679 (1993).                
 Slice#2 Row#5 Col#14  PD_05_press_1_raw_act
 36 lines in following concentration table = NCONC+1
    Conc.  %SD /Cr+PCr  Metabolite                                         
    0.000 999%   0.000 Ala                                                 
   16.789  23%   0.190 Asp                                                 
   88.274  37%   1.000 Cr                                                  
    0.000 999%   0.000 PCr                                                 
   10.072  23%   0.114 GABA                                                
   10.072  23%   0.114 Glc                                                 
  347.220  75%   3.933 Gln                                                 
  373.895  79%   4.236 Glu                                                 
   10.681 472%   0.121 GPC                                                 
   31.987 155%   0.362 PCh                                                 
   45.719 123%   0.518 GSH                                                 
  556.792  30%   6.308 Ins                                                 
    0.000 999%   0.000 Lac                                                 
    0.000 999%   0.000 NAA                                                 
  119.482  31%   1.354 NAAG                                                
    3.357  23% 3.8E-02 Scyllo                                              
   16.787  23%   0.190 Tau                                                 
    8.440 104% 9.6E-02 -CrCH2                                              
   42.667  37%   0.483 GPC+PCh                                             
  119.482  31%   1.354 NAA+NAAG                                            
   88.274  37%   1.000 Cr+PCr                                              
  721.115  68%   8.169 Glu+Gln                                             
 6.68E+03  22%  75.679 Lip13a                                              
    0.000 999%   0.000 Lip13b                                              
 3.44E+03  17%  39.026 Lip09                                               
 2.98E+03  18%  33.730 MM09                                                
    0.000 999%   0.000 Lip20                                               
    0.000 999%   0.000 MM20                                                
 3.32E+03  20%  37.606 MM12                                                
  950.780  65%  10.771 MM14                                                
 1.06E+04   9% 120.160 MM17                                                
 6.68E+03  22%  75.679 Lip13a+Lip13b                                       
 1.10E+04  12% 124.055 MM14+Lip13a+Lip13b+MM12                             
 6.42E+03  10%  72.755 MM09+Lip09                                          
    0.000 999%   0.000 MM20+Lip20                                          
   6 lines in following misc. output table
  FWHM = 0.076 ppm    S/N =  18                                            
  Data shift = 0.092 ppm                                                   
  Ph:-164 deg      51.9 deg/ppm                                            
  alphaB,S = 2.5E+00,   5.2E+01                                            
    8 spline knots.   Ns = 9(2)                                            
  (10) 6 infls.   (11) 3 extrs.                                            
  498 points on ppm-axis = NY
      4.000000     3.992357     3.984714     3.977070     3.969427     3.961784     3.954141     3.946497     3.938854     3.931211
      3.923568     3.915925     3.908281     3.900638     3.892995     3.885352     3.877708     3.870065     3.862422     3.854779
      3.847136     3.839492     3.831849     3.824206     3.816563     3.808919     3.801276     3.793633     3.785990     3.778347
      3.770703     3.763060     3.755417     3.747774     3.740130     3.732487     3.724844     3.717201     3.709558     3.701914
      3.694271     3.686628     3.678985     3.671341     3.663698     3.656055     3.648412     3.640769     3.633125     3.625482
      3.617839     3.610196     3.602552     3.594909     3.587266     3.579623     3.571980     3.564336     3.556693     3.549050
      3.541407     3.533763     3.526120     3.518477     3.510834     3.503191     3.495547     3.487904     3.480261     3.472618
      3.464974     3.457331     3.449688     3.442045     3.434402     3.426758     3.419115     3.411472     3.403829     3.396185
      3.388542     3.380899     3.373256     3.365613     3.357969     3.350326     3.342683     3.335040     3.327396     3.319753
      3.312110     3.304467     3.296824     3.289180     3.281537     3.273894     3.266251     3.258607     3.250964     3.243321
      3.235678     3.228034     3.220391     3.212748     3.205105     3.197462     3.189818     3.182175     3.174532     3.166889
      3.159245     3.151602     3.143959     3.136316     3.128673     3.121029     3.113386     3.105743     3.098100     3.090456
      3.082813     3.075170     3.067527     3.059884     3.052240     3.044597     3.036954     3.029311     3.021667     3.014024
      3.006381     2.998738     2.991095     2.983451     2.975808     2.968165     2.960522     2.952878     2.945235     2.937592
      2.929949     2.922306     2.914662     2.907019     2.899376     2.891733     2.884089     2.876446     2.868803     2.861160
      2.853517     2.845873     2.838230     2.830587     2.822944     2.815300     2.807657     2.800014     2.792371     2.784728
      2.777084     2.769441     2.761798     2.754155     2.746511     2.738868     2.731225     2.723582     2.715939     2.708295
      2.700652     2.693009     2.685366     2.677722     2.670079     2.662436     2.654793     2.647150     2.639506     2.631863
      2.624220     2.616577     2.608933     2.601290     2.593647     2.586004     2.578361     2.570717     2.563074     2.555431
      2.547788     2.540144     2.532501     2.524858     2.517215     2.509572     2.501928     2.494285     2.486642     2.478999
      2.471355     2.463712     2.456069     2.448426     2.440783     2.433139     2.425496     2.417853     2.410210     2.402566
      2.394923     2.387280     2.379637     2.371994     2.364350     2.356707     2.349064     2.341421     2.333777     2.326134
      2.318491     2.310848     2.303205     2.295561     2.287918     2.280275     2.272632     2.264988     2.257345     2.249702
      2.242059     2.234416     2.226772     2.219129     2.211486     2.203843     2.196199     2.188556     2.180913     2.173270
      2.165627     2.157983     2.150340     2.142697     2.135054     2.127410     2.119767     2.112124     2.104481     2.096838
      2.089194     2.081551     2.073908     2.066265     2.058621     2.050978     2.043335     2.035692     2.028049     2.020405
      2.012762     2.005119     1.997476     1.989833     1.982190     1.974546     1.966903     1.959260     1.951617     1.943974
      1.936331     1.928688     1.921045     1.913402     1.905759     1.898115     1.890472     1.882829     1.875186     1.867543
      1.859900     1.852257     1.844614     1.836971     1.829327     1.821684     1.814041     1.806398     1.798755     1.791112
      1.783469     1.775826     1.768183     1.760540     1.752896     1.745253     1.737610     1.729967     1.722324     1.714681
      1.707038     1.699395     1.691752     1.684108     1.676465     1.668822     1.661179     1.653536     1.645893     1.638250
      1.630607     1.622964     1.615321     1.607677     1.600034     1.592391     1.584748     1.577105     1.569462     1.561819
      1.554176     1.546533     1.538890     1.531246     1.523603     1.515960     1.508317     1.500674     1.493031     1.485388
      1.477745     1.470102     1.462458     1.454815     1.447172     1.439529     1.431886     1.424243     1.416600     1.408957
      1.401314     1.393671     1.386027     1.378384     1.370741     1.363098     1.355455     1.347812     1.340169     1.332526
      1.324883     1.317240     1.309596     1.301953     1.294310     1.286667     1.279024     1.271381     1.263738     1.256095
      1.248452     1.240808     1.233165     1.225522     1.217879     1.210236     1.202593     1.194950     1.187307     1.179664
      1.172021     1.164377     1.156734     1.149091     1.141448     1.133805     1.126162     1.118519     1.110876     1.103233
      1.095590     1.087946     1.080303     1.072660     1.065017     1.057374     1.049731     1.042088     1.034445     1.026802
      1.019158     1.011515     1.003872     0.996229     0.988586     0.980943     0.973300     0.965657     0.958014     0.950371
      0.942727     0.935084     0.927441     0.919798     0.912155     0.904512     0.896869     0.889226     0.881583     0.873940
      0.866296     0.858653     0.851010     0.843367     0.835724     0.828081     0.820438     0.812795     0.805152     0.797508
      0.789865     0.782222     0.774579     0.766936     0.759293     0.751650     0.744007     0.736364     0.728721     0.721077
      0.713434     0.705791     0.698148     0.690505     0.682862     0.675219     0.667576     0.659933     0.652290     0.644646
      0.637003     0.629360     0.621717     0.614074     0.606431     0.598788     0.591145     0.583502     0.575858     0.568215
      0.560572     0.552929     0.545286     0.537643     0.530000     0.522357     0.514714     0.507071     0.499427     0.491784
      0.484141     0.476498     0.468855     0.461212     0.453569     0.445925     0.438282     0.430639     0.422996     0.415353
      0.407710     0.400067     0.392424     0.384780     0.377137     0.369494     0.361851     0.354208     0.346565     0.338922
      0.331278     0.323635     0.315992     0.308349     0.300706     0.293063     0.285420     0.277777     0.270133     0.262490
      0.254847     0.247204     0.239561     0.231918     0.224275     0.216631     0.208988     0.201345
 NY phased data points follow
  -5.27776E+00 -5.94830E+00 -4.31613E+00 -3.99504E+00 -5.22320E+00 -2.86404E+00 -4.01819E+00 -2.68932E+00 -4.46951E+00 -5.93157E+00
  -5.32421E+00 -4.14687E+00 -3.84726E+00 -4.42074E+00 -5.24603E+00 -5.89740E+00 -6.54943E+00 -7.12340E+00 -3.94997E+00 -6.98858E+00
  -4.41491E+00 -4.68757E+00 -4.05734E+00 -4.33686E+00 -3.29290E+00 -6.65134E+00 -6.04094E+00 -3.31255E+00 -5.85399E+00 -4.91230E+00
  -7.33534E+00 -4.82446E+00 -5.60231E+00 -5.08506E+00 -4.60691E+00 -4.74967E+00 -4.16497E+00 -4.47100E+00 -4.34595E+00 -4.08751E+00
  -4.14209E+00 -4.03676E+00 -3.38781E+00 -5.67771E+00 -5.71594E+00 -5.60726E+00 -4.02788E+00 -4.56316E+00 -3.63664E+00 -4.21402E+00
  -3.25836E+00 -6.28773E+00 -4.74935E+00 -5.36161E+00 -3.67412E+00 -5.98050E+00 -6.04451E+00 -5.58156E+00 -6.95821E+00 -5.98994E+00
  -5.44862E+00 -3.80631E+00 -5.38805E+00 -3.67967E+00 -4.67585E+00 -4.24569E+00 -5.83611E+00 -5.65469E+00 -5.56670E+00 -4.22844E+00
  -6.57725E+00 -6.03458E+00 -5.30711E+00 -5.26101E+00 -6.16678E+00 -6.84838E+00 -5.75761E+00 -7.47733E+00 -6.50438E+00 -7.93169E+00
  -4.52876E+00 -6.97265E+00 -5.58453E+00 -5.11211E+00 -5.42280E+00 -5.91923E+00 -6.57558E+00 -4.53334E+00 -4.44546E+00 -4.67740E+00
  -6.25825E+00 -7.75151E+00 -5.82990E+00 -6.19014E+00 -3.70320E+00 -4.27178E+00 -5.51527E+00 -4.24634E+00 -4.54209E+00 -4.19235E+00
  -4.70103E+00 -5.79114E+00 -5.92987E+00 -6.28168E+00 -6.13202E+00 -6.67828E+00 -7.74805E+00 -5.37963E+00 -5.63596E+00 -4.92569E+00
  -4.46304E+00 -4.15876E+00 -4.93735E+00 -4.72836E+00 -6.55688E+00 -5.46282E+00 -3.51026E+00 -6.20397E+00 -3.55594E+00 -4.25152E+00
  -5.73059E+00 -3.20594E+00 -5.19948E+00 -5.25881E+00 -3.89399E+00 -5.98543E+00 -5.13716E+00 -5.68435E+00 -5.92288E+00 -5.46879E+00
  -5.03192E+00 -6.11084E+00 -5.51535E+00 -6.63057E+00 -6.25608E+00 -5.05454E+00 -5.81781E+00 -5.37584E+00 -3.75022E+00 -5.01957E+00
  -5.91125E+00 -5.83538E+00 -5.90476E+00 -7.06032E+00 -4.38793E+00 -5.78963E+00 -5.91625E+00 -5.63004E+00 -5.71427E+00 -5.19367E+00
  -5.68294E+00 -6.02733E+00 -6.35226E+00 -6.43971E+00 -6.44809E+00 -5.31815E+00 -5.52347E+00 -6.05220E+00 -5.77026E+00 -5.36280E+00
  -5.87937E+00 -6.48109E+00 -5.07141E+00 -6.11525E+00 -5.03032E+00 -4.03309E+00 -6.52557E+00 -6.05437E+00 -6.72636E+00 -5.67992E+00
  -5.85847E+00 -5.11099E+00 -6.77972E+00 -4.56538E+00 -4.35932E+00 -3.67736E+00 -5.34263E+00 -5.57821E+00 -5.85935E+00 -4.51926E+00
  -5.69919E+00 -4.51997E+00 -3.75378E+00 -4.33648E+00 -3.70129E+00 -5.31377E+00 -5.30941E+00 -4.57863E+00 -7.42059E+00 -5.15703E+00
  -5.73471E+00 -5.73573E+00 -5.32470E+00 -3.69470E+00 -3.58722E+00 -4.82432E+00 -2.52408E+00 -3.63105E+00 -4.62060E+00 -3.66722E+00
  -4.46627E+00 -5.29294E+00 -5.22878E+00 -3.51004E+00 -4.95551E+00 -2.64756E+00 -3.10178E+00 -5.67745E+00 -3.76519E+00 -4.31733E+00
  -4.51203E+00 -4.72342E+00 -3.92091E+00 -3.49043E+00 -3.58533E+00 -5.70275E+00 -3.19528E+00 -3.81984E+00 -5.81326E+00 -2.81918E+00
  -3.36160E+00 -3.03118E+00 -3.69620E+00 -3.35978E+00 -5.04558E+00 -4.58737E+00 -3.63064E+00 -3.01399E+00 -2.46392E+00 -5.84205E+00
  -3.70407E+00 -2.21333E+00 -1.90926E+00 -4.68945E+00 -1.81254E+00 -5.51852E+00 -2.28216E+00 -3.58854E+00 -3.03947E+00 -3.15482E+00
  -2.23890E+00 -2.48584E+00 -1.13183E+00 -3.02043E+00 -7.51804E-01 -6.15801E-01 -3.99601E-01 -1.23183E-01 -1.03709E+00 -1.93037E+00
   5.42913E-01 -1.80366E+00  1.24170E+00 -3.32865E+00 -1.56136E+00 -2.44041E+00 -1.83742E+00 -1.76444E+00 -3.40547E+00 -2.64146E+00
  -1.74334E+00 -9.93545E-02 -8.18457E-01 -1.87216E+00  3.79626E-01 -2.94515E-01 -8.29304E-02 -3.01891E-01 -7.06119E-02 -2.47010E-01
   1.01686E+00 -7.77280E-03  8.83174E-01 -7.86935E-02 -1.25690E-02  1.13494E+00  1.58507E+00  1.73022E+00  4.67505E+00  2.79155E+00
   2.09441E+00  2.91012E+00  5.46065E+00  3.96099E+00  5.11695E+00  4.79368E+00  7.29405E+00  6.33224E+00  7.11230E+00  4.57344E+00
   7.40580E+00  8.72975E+00  1.00977E+01  1.07294E+01  1.05100E+01  1.25949E+01  1.25254E+01  1.31449E+01  1.53875E+01  1.53071E+01
   1.76774E+01  1.76982E+01  2.18680E+01  2.27617E+01  2.38242E+01  2.51113E+01  2.57344E+01  2.84610E+01  2.92460E+01  3.10087E+01
   3.15885E+01  3.33330E+01  3.33520E+01  3.49166E+01  3.62217E+01  3.63186E+01  3.64827E+01  3.81897E+01  3.74693E+01  3.81126E+01
   3.82890E+01  3.79180E+01  3.83270E+01  3.62495E+01  3.51909E+01  3.56799E+01  3.43884E+01  3.38474E+01  3.27811E+01  3.06765E+01
   2.99866E+01  2.77062E+01  2.77442E+01  2.91103E+01  2.72255E+01  2.78576E+01  2.84688E+01  2.75634E+01  2.50399E+01  2.45884E+01
   2.61088E+01  2.59724E+01  2.50686E+01  2.45880E+01  2.43411E+01  2.51422E+01  2.58783E+01  2.46858E+01  2.48037E+01  2.55624E+01
   2.59477E+01  2.67824E+01  2.50902E+01  2.65553E+01  2.52772E+01  2.52731E+01  2.81717E+01  2.67503E+01  2.79531E+01  3.01617E+01
   3.02946E+01  3.05334E+01  3.02015E+01  3.25567E+01  3.26418E+01  3.43785E+01  3.07624E+01  3.03760E+01  3.28254E+01  3.40069E+01
   3.34253E+01  3.37742E+01  3.20037E+01  3.30900E+01  3.21498E+01  3.23271E+01  3.20371E+01  3.27976E+01  3.23437E+01  3.01143E+01
   3.09450E+01  3.13475E+01  2.99605E+01  2.95293E+01  2.77994E+01  2.71178E+01  2.77774E+01  2.55270E+01  2.70565E+01  2.63111E+01
   2.50824E+01  2.30722E+01  2.36744E+01  2.49230E+01  2.29154E+01  2.02608E+01  2.21104E+01  2.23305E+01  2.09642E+01  2.02958E+01
   1.81606E+01  1.87649E+01  1.80276E+01  1.88906E+01  1.62309E+01  1.55878E+01  1.74996E+01  1.53134E+01  1.67037E+01  1.37077E+01
   1.60795E+01  1.23631E+01  1.15901E+01  1.26343E+01  1.12459E+01  1.08540E+01  9.24209E+00  1.02074E+01  9.56655E+00  7.20962E+00
   5.81609E+00  5.93901E+00  4.43000E+00  4.60441E+00  5.56638E+00  4.45433E+00  3.10939E+00  1.06040E+00  4.37297E-01  9.39687E-01
   1.36838E+00 -2.70401E+00 -6.89826E-01 -1.49255E+00 -1.80434E+00 -2.86196E+00 -4.48279E+00 -3.72576E+00 -4.89118E+00 -4.31710E+00
  -5.36653E+00 -5.14706E+00 -6.62360E+00 -6.45428E+00 -8.38644E+00 -8.05001E+00 -6.25886E+00 -8.60804E+00 -9.76637E+00 -9.35666E+00
  -9.20457E+00 -7.95521E+00 -1.01857E+01 -1.22492E+01 -1.21506E+01 -1.12223E+01 -1.24642E+01 -1.23168E+01 -1.21636E+01 -1.20190E+01
  -1.34246E+01 -1.33356E+01 -1.46485E+01 -1.25020E+01 -1.45752E+01 -1.51058E+01 -1.48476E+01 -1.52041E+01 -1.33523E+01 -1.54652E+01
  -1.53371E+01 -1.60548E+01 -1.79626E+01 -1.54422E+01 -1.58446E+01 -1.52405E+01 -1.49630E+01 -1.56410E+01 -1.59650E+01 -1.61459E+01
  -1.48544E+01 -1.57070E+01 -1.55316E+01 -1.61784E+01 -1.46204E+01 -1.67956E+01 -1.64162E+01 -1.58032E+01 -1.55619E+01 -1.53061E+01
  -1.71056E+01 -1.78747E+01 -1.83619E+01 -1.72216E+01 -1.68579E+01 -1.68763E+01 -1.43139E+01 -1.70339E+01
 NY points of the fit to the data follow
  -4.83716E+00 -4.76538E+00 -4.60504E+00 -4.62659E+00 -4.50219E+00 -4.60468E+00 -4.56155E+00 -4.71714E+00 -4.76499E+00 -4.95281E+00
  -5.06106E+00 -5.22892E+00 -5.29592E+00 -5.43736E+00 -5.41687E+00 -5.45775E+00 -5.38141E+00 -5.37956E+00 -5.21412E+00 -5.19555E+00
  -4.97802E+00 -4.94277E+00 -4.73743E+00 -4.69987E+00 -4.60230E+00 -4.63893E+00 -4.70145E+00 -4.84630E+00 -5.00676E+00 -5.14268E+00
  -5.22388E+00 -5.26828E+00 -5.21116E+00 -5.09297E+00 -4.88515E+00 -4.68353E+00 -4.41969E+00 -4.24492E+00 -4.08184E+00 -4.07956E+00
  -4.12318E+00 -4.28191E+00 -4.43840E+00 -4.65662E+00 -4.79206E+00 -4.93371E+00 -4.98010E+00 -5.00330E+00 -5.00933E+00 -5.01643E+00
  -5.04107E+00 -5.06303E+00 -5.03249E+00 -5.07953E+00 -4.98258E+00 -5.05624E+00 -4.98005E+00 -5.05865E+00 -4.98461E+00 -4.99928E+00
  -4.88252E+00 -4.88835E+00 -4.78307E+00 -4.87433E+00 -4.86108E+00 -5.06204E+00 -5.12649E+00 -5.32878E+00 -5.36849E+00 -5.47353E+00
  -5.45570E+00 -5.54517E+00 -5.54168E+00 -5.66497E+00 -5.67213E+00 -5.86347E+00 -5.87764E+00 -6.13281E+00 -6.12781E+00 -6.36136E+00
  -6.30913E+00 -6.43036E+00 -6.29782E+00 -6.32098E+00 -6.13471E+00 -6.06357E+00 -5.86108E+00 -5.79521E+00 -5.61941E+00 -5.54996E+00
  -5.36429E+00 -5.28570E+00 -5.05300E+00 -5.04768E+00 -4.77644E+00 -4.93800E+00 -4.70748E+00 -5.03270E+00 -4.89466E+00 -5.33120E+00
  -5.29196E+00 -5.69904E+00 -5.69368E+00 -5.94934E+00 -5.91187E+00 -6.01725E+00 -5.93280E+00 -5.92356E+00 -5.79565E+00 -5.70876E+00
  -5.57536E+00 -5.49437E+00 -5.35825E+00 -5.23207E+00 -5.05258E+00 -4.84394E+00 -4.60987E+00 -4.46576E+00 -4.27179E+00 -4.35068E+00
  -4.30147E+00 -4.60602E+00 -4.69502E+00 -5.06133E+00 -5.18111E+00 -5.41786E+00 -5.47691E+00 -5.61890E+00 -5.63214E+00 -5.69574E+00
  -5.66129E+00 -5.65361E+00 -5.58434E+00 -5.55084E+00 -5.47549E+00 -5.46646E+00 -5.40871E+00 -5.41054E+00 -5.36463E+00 -5.34813E+00
  -5.31478E+00 -5.32272E+00 -5.32417E+00 -5.39771E+00 -5.43517E+00 -5.56720E+00 -5.61398E+00 -5.71518E+00 -5.73667E+00 -5.73680E+00
  -5.73759E+00 -5.73059E+00 -5.73283E+00 -5.71146E+00 -5.70664E+00 -5.67438E+00 -5.66350E+00 -5.63936E+00 -5.63574E+00 -5.61268E+00
  -5.61502E+00 -5.58361E+00 -5.58227E+00 -5.54753E+00 -5.54712E+00 -5.51750E+00 -5.51520E+00 -5.49173E+00 -5.48352E+00 -5.46314E+00
  -5.44255E+00 -5.41778E+00 -5.37637E+00 -5.34504E+00 -5.28473E+00 -5.25450E+00 -5.19451E+00 -5.16757E+00 -5.11474E+00 -5.10603E+00
  -5.07560E+00 -5.08551E+00 -5.08774E+00 -5.10767E+00 -5.10829E+00 -5.12274E+00 -5.09481E+00 -5.06555E+00 -4.96876E+00 -4.88880E+00
  -4.73016E+00 -4.63779E+00 -4.52703E+00 -4.46194E+00 -4.41916E+00 -4.44019E+00 -4.49770E+00 -4.60823E+00 -4.69831E+00 -4.84393E+00
  -4.84519E+00 -4.93888E+00 -4.72695E+00 -4.75500E+00 -4.37670E+00 -4.41090E+00 -3.96608E+00 -4.09966E+00 -3.80245E+00 -4.05474E+00
  -3.97104E+00 -4.23421E+00 -4.23358E+00 -4.36550E+00 -4.32513E+00 -4.26412E+00 -4.14370E+00 -3.97609E+00 -3.84449E+00 -3.71040E+00
  -3.63436E+00 -3.60697E+00 -3.61450E+00 -3.63976E+00 -3.63432E+00 -3.64858E+00 -3.53574E+00 -3.49866E+00 -3.24336E+00 -3.27665E+00
  -3.02072E+00 -3.23453E+00 -3.10438E+00 -3.44928E+00 -3.35469E+00 -3.67058E+00 -3.52465E+00 -3.62897E+00 -3.26685E+00 -3.19604E+00
  -2.72769E+00 -2.56356E+00 -2.02635E+00 -1.91682E+00 -1.33072E+00 -1.38291E+00 -7.76300E-01 -1.04004E+00 -5.51274E-01 -9.66164E-01
  -6.30119E-01 -1.08524E+00 -8.90523E-01 -1.27780E+00 -1.14075E+00 -1.40846E+00 -1.25631E+00 -1.43050E+00 -1.27617E+00 -1.34554E+00
  -1.11995E+00 -1.08700E+00 -8.27479E-01 -7.49950E-01 -4.91388E-01 -4.20994E-01 -1.39390E-01 -4.83720E-02  2.70562E-01  3.14994E-01
   6.10096E-01  5.84232E-01  7.88023E-01  7.60498E-01  8.89237E-01  9.80887E-01  1.14286E+00  1.39768E+00  1.68551E+00  1.98741E+00
   2.30556E+00  2.64981E+00  3.01982E+00  3.43178E+00  3.87246E+00  4.35891E+00  4.88900E+00  5.45484E+00  6.07795E+00  6.73789E+00
   7.46087E+00  8.22383E+00  9.05700E+00  9.93943E+00  1.08985E+01  1.19176E+01  1.30147E+01  1.41720E+01  1.54005E+01  1.66828E+01
   1.80265E+01  1.94128E+01  2.08433E+01  2.22991E+01  2.37778E+01  2.52570E+01  2.67290E+01  2.81691E+01  2.95670E+01  3.08972E+01
   3.21474E+01  3.32959E+01  3.43310E+01  3.52356E+01  3.60021E+01  3.66176E+01  3.70794E+01  3.73824E+01  3.75286E+01  3.75218E+01
   3.73686E+01  3.70804E+01  3.66696E+01  3.61516E+01  3.55425E+01  3.48600E+01  3.41213E+01  3.33444E+01  3.25454E+01  3.17405E+01
   3.09435E+01  3.01675E+01  2.94227E+01  2.87186E+01  2.80620E+01  2.74587E+01  2.69123E+01  2.64256E+01  2.59996E+01  2.56351E+01
   2.53311E+01  2.50872E+01  2.49015E+01  2.47729E+01  2.46992E+01  2.46792E+01  2.47108E+01  2.47931E+01  2.49243E+01  2.51039E+01
   2.53304E+01  2.56033E+01  2.59213E+01  2.62834E+01  2.66875E+01  2.71314E+01  2.76113E+01  2.81230E+01  2.86602E+01  2.92158E+01
   2.97806E+01  3.03444E+01  3.08955E+01  3.14216E+01  3.19094E+01  3.23466E+01  3.27206E+01  3.30211E+01  3.32390E+01  3.33685E+01
   3.34059E+01  3.33518E+01  3.32089E+01  3.29840E+01  3.26858E+01  3.23259E+01  3.19163E+01  3.14705E+01  3.10009E+01  3.05196E+01
   3.00360E+01  2.95580E+01  2.90901E+01  2.86347E+01  2.81907E+01  2.77555E+01  2.73238E+01  2.68899E+01  2.64467E+01  2.59881E+01
   2.55081E+01  2.50026E+01  2.44685E+01  2.39054E+01  2.33142E+01  2.26982E+01  2.20617E+01  2.14108E+01  2.07515E+01  2.00909E+01
   1.94348E+01  1.87894E+01  1.81585E+01  1.75457E+01  1.69520E+01  1.63778E+01  1.58211E+01  1.52793E+01  1.47479E+01  1.42223E+01
   1.36968E+01  1.31662E+01  1.26246E+01  1.20676E+01  1.14907E+01  1.08908E+01  1.02655E+01  9.61406E+00  8.93607E+00  8.23312E+00
   7.50689E+00  6.76077E+00  5.99797E+00  5.22309E+00  4.44017E+00  3.65427E+00  2.86954E+00  2.09087E+00  1.32195E+00  5.66987E-01
  -1.71166E-01 -8.89259E-01 -1.58546E+00 -2.25754E+00 -2.90468E+00 -3.52561E+00 -4.12040E+00 -4.68854E+00 -5.23079E+00 -5.74722E+00
  -6.23906E+00 -6.70675E+00 -7.15177E+00 -7.57480E+00 -7.97743E+00 -8.36038E+00 -8.72528E+00 -9.07281E+00 -9.40455E+00 -9.72110E+00
  -1.00239E+01 -1.03136E+01 -1.05914E+01 -1.08577E+01 -1.11138E+01 -1.13600E+01 -1.15973E+01 -1.18260E+01 -1.20471E+01 -1.22607E+01
  -1.24677E+01 -1.26681E+01 -1.28628E+01 -1.30517E+01 -1.32357E+01 -1.34145E+01 -1.35891E+01 -1.37591E+01 -1.39252E+01 -1.40874E+01
  -1.42462E+01 -1.44014E+01 -1.45536E+01 -1.47026E+01 -1.48490E+01 -1.49925E+01 -1.51336E+01 -1.52720E+01 -1.54083E+01 -1.55422E+01
  -1.56743E+01 -1.58041E+01 -1.59322E+01 -1.60582E+01 -1.61827E+01 -1.63054E+01 -1.64266E+01 -1.65460E+01 -1.66642E+01 -1.67807E+01
  -1.68960E+01 -1.70098E+01 -1.71225E+01 -1.72337E+01 -1.73439E+01 -1.74527E+01 -1.75606E+01 -1.76671E+01
 NY background values follow
    -6.693E+00   -6.699E+00   -6.705E+00   -6.712E+00   -6.718E+00   -6.724E+00   -6.730E+00   -6.736E+00   -6.742E+00   -6.747E+00
    -6.753E+00   -6.759E+00   -6.765E+00   -6.770E+00   -6.776E+00   -6.781E+00   -6.787E+00   -6.792E+00   -6.798E+00   -6.803E+00
    -6.808E+00   -6.813E+00   -6.818E+00   -6.823E+00   -6.828E+00   -6.833E+00   -6.837E+00   -6.842E+00   -6.846E+00   -6.851E+00
    -6.855E+00   -6.859E+00   -6.863E+00   -6.867E+00   -6.871E+00   -6.875E+00   -6.878E+00   -6.882E+00   -6.885E+00   -6.889E+00
    -6.892E+00   -6.895E+00   -6.898E+00   -6.901E+00   -6.903E+00   -6.906E+00   -6.908E+00   -6.911E+00   -6.913E+00   -6.915E+00
    -6.917E+00   -6.919E+00   -6.920E+00   -6.922E+00   -6.923E+00   -6.924E+00   -6.925E+00   -6.926E+00   -6.927E+00   -6.927E+00
    -6.928E+00   -6.928E+00   -6.928E+00   -6.928E+00   -6.928E+00   -6.927E+00   -6.927E+00   -6.926E+00   -6.925E+00   -6.924E+00
    -6.922E+00   -6.921E+00   -6.919E+00   -6.917E+00   -6.915E+00   -6.913E+00   -6.910E+00   -6.908E+00   -6.905E+00   -6.902E+00
    -6.898E+00   -6.895E+00   -6.891E+00   -6.887E+00   -6.883E+00   -6.879E+00   -6.874E+00   -6.870E+00   -6.865E+00   -6.860E+00
    -6.854E+00   -6.848E+00   -6.843E+00   -6.837E+00   -6.830E+00   -6.824E+00   -6.817E+00   -6.810E+00   -6.802E+00   -6.795E+00
    -6.787E+00   -6.779E+00   -6.771E+00   -6.762E+00   -6.754E+00   -6.745E+00   -6.736E+00   -6.726E+00   -6.717E+00   -6.707E+00
    -6.697E+00   -6.687E+00   -6.676E+00   -6.666E+00   -6.655E+00   -6.644E+00   -6.633E+00   -6.621E+00   -6.610E+00   -6.598E+00
    -6.587E+00   -6.575E+00   -6.562E+00   -6.550E+00   -6.538E+00   -6.525E+00   -6.513E+00   -6.500E+00   -6.487E+00   -6.474E+00
    -6.461E+00   -6.447E+00   -6.434E+00   -6.421E+00   -6.407E+00   -6.393E+00   -6.380E+00   -6.366E+00   -6.352E+00   -6.338E+00
    -6.324E+00   -6.310E+00   -6.296E+00   -6.281E+00   -6.267E+00   -6.253E+00   -6.238E+00   -6.224E+00   -6.209E+00   -6.195E+00
    -6.180E+00   -6.166E+00   -6.151E+00   -6.137E+00   -6.122E+00   -6.107E+00   -6.093E+00   -6.078E+00   -6.064E+00   -6.049E+00
    -6.035E+00   -6.020E+00   -6.006E+00   -5.991E+00   -5.977E+00   -5.962E+00   -5.948E+00   -5.934E+00   -5.919E+00   -5.905E+00
    -5.891E+00   -5.877E+00   -5.863E+00   -5.849E+00   -5.835E+00   -5.822E+00   -5.808E+00   -5.794E+00   -5.781E+00   -5.767E+00
    -5.754E+00   -5.741E+00   -5.728E+00   -5.715E+00   -5.702E+00   -5.690E+00   -5.677E+00   -5.665E+00   -5.652E+00   -5.640E+00
    -5.628E+00   -5.617E+00   -5.605E+00   -5.593E+00   -5.582E+00   -5.571E+00   -5.560E+00   -5.549E+00   -5.539E+00   -5.528E+00
    -5.518E+00   -5.508E+00   -5.498E+00   -5.489E+00   -5.479E+00   -5.470E+00   -5.461E+00   -5.452E+00   -5.444E+00   -5.435E+00
    -5.427E+00   -5.420E+00   -5.412E+00   -5.405E+00   -5.398E+00   -5.391E+00   -5.384E+00   -5.378E+00   -5.372E+00   -5.366E+00
    -5.361E+00   -5.355E+00   -5.350E+00   -5.346E+00   -5.341E+00   -5.337E+00   -5.334E+00   -5.330E+00   -5.327E+00   -5.324E+00
    -5.322E+00   -5.319E+00   -5.318E+00   -5.316E+00   -5.315E+00   -5.314E+00   -5.313E+00   -5.313E+00   -5.313E+00   -5.314E+00
    -5.314E+00   -5.316E+00   -5.317E+00   -5.319E+00   -5.321E+00   -5.324E+00   -5.327E+00   -5.330E+00   -5.334E+00   -5.338E+00
    -5.343E+00   -5.348E+00   -5.353E+00   -5.359E+00   -5.365E+00   -5.372E+00   -5.379E+00   -5.386E+00   -5.394E+00   -5.402E+00
    -5.411E+00   -5.420E+00   -5.430E+00   -5.440E+00   -5.450E+00   -5.461E+00   -5.473E+00   -5.485E+00   -5.497E+00   -5.510E+00
    -5.523E+00   -5.537E+00   -5.551E+00   -5.566E+00   -5.581E+00   -5.596E+00   -5.613E+00   -5.629E+00   -5.647E+00   -5.664E+00
    -5.682E+00   -5.701E+00   -5.720E+00   -5.740E+00   -5.760E+00   -5.781E+00   -5.803E+00   -5.825E+00   -5.847E+00   -5.870E+00
    -5.894E+00   -5.918E+00   -5.942E+00   -5.968E+00   -5.993E+00   -6.020E+00   -6.047E+00   -6.074E+00   -6.102E+00   -6.131E+00
    -6.160E+00   -6.190E+00   -6.221E+00   -6.252E+00   -6.283E+00   -6.315E+00   -6.348E+00   -6.381E+00   -6.415E+00   -6.450E+00
    -6.485E+00   -6.520E+00   -6.556E+00   -6.593E+00   -6.630E+00   -6.668E+00   -6.706E+00   -6.745E+00   -6.784E+00   -6.824E+00
    -6.864E+00   -6.905E+00   -6.947E+00   -6.989E+00   -7.031E+00   -7.074E+00   -7.118E+00   -7.162E+00   -7.206E+00   -7.251E+00
    -7.297E+00   -7.343E+00   -7.389E+00   -7.436E+00   -7.484E+00   -7.531E+00   -7.580E+00   -7.629E+00   -7.678E+00   -7.728E+00
    -7.778E+00   -7.829E+00   -7.880E+00   -7.932E+00   -7.984E+00   -8.037E+00   -8.090E+00   -8.144E+00   -8.198E+00   -8.252E+00
    -8.307E+00   -8.362E+00   -8.418E+00   -8.474E+00   -8.531E+00   -8.588E+00   -8.645E+00   -8.703E+00   -8.762E+00   -8.820E+00
    -8.879E+00   -8.939E+00   -8.999E+00   -9.059E+00   -9.120E+00   -9.181E+00   -9.243E+00   -9.305E+00   -9.367E+00   -9.430E+00
    -9.493E+00   -9.556E+00   -9.620E+00   -9.684E+00   -9.749E+00   -9.814E+00   -9.879E+00   -9.945E+00   -1.001E+01   -1.008E+01
    -1.014E+01   -1.021E+01   -1.028E+01   -1.035E+01   -1.041E+01   -1.048E+01   -1.055E+01   -1.062E+01   -1.069E+01   -1.076E+01
    -1.083E+01   -1.090E+01   -1.097E+01   -1.104E+01   -1.111E+01   -1.119E+01   -1.126E+01   -1.133E+01   -1.140E+01   -1.148E+01
    -1.155E+01   -1.162E+01   -1.170E+01   -1.177E+01   -1.184E+01   -1.192E+01   -1.199E+01   -1.207E+01   -1.214E+01   -1.222E+01
    -1.230E+01   -1.237E+01   -1.245E+01   -1.253E+01   -1.260E+01   -1.268E+01   -1.276E+01   -1.283E+01   -1.291E+01   -1.299E+01
    -1.307E+01   -1.315E+01   -1.322E+01   -1.330E+01   -1.338E+01   -1.346E+01   -1.354E+01   -1.362E+01   -1.370E+01   -1.378E+01
    -1.386E+01   -1.394E+01   -1.402E+01   -1.410E+01   -1.418E+01   -1.426E+01   -1.434E+01   -1.442E+01   -1.450E+01   -1.458E+01
    -1.466E+01   -1.474E+01   -1.482E+01   -1.490E+01   -1.498E+01   -1.507E+01   -1.515E+01   -1.523E+01   -1.531E+01   -1.539E+01
    -1.547E+01   -1.555E+01   -1.564E+01   -1.572E+01   -1.580E+01   -1.588E+01   -1.596E+01   -1.604E+01   -1.612E+01   -1.621E+01
    -1.629E+01   -1.637E+01   -1.645E+01   -1.653E+01   -1.661E+01   -1.670E+01   -1.678E+01   -1.686E+01   -1.694E+01   -1.702E+01
    -1.710E+01   -1.718E+01   -1.726E+01   -1.734E+01   -1.743E+01   -1.751E+01   -1.759E+01   -1.767E+01   -1.775E+01   -1.783E+01
    -1.791E+01   -1.799E+01   -1.807E+01   -1.815E+01   -1.823E+01   -1.831E+01   -1.839E+01   -1.847E+01   -1.855E+01   -1.863E+01
    -1.870E+01   -1.878E+01   -1.886E+01   -1.894E+01   -1.902E+01   -1.910E+01   -1.917E+01   -1.925E+01
 Asp      Conc. = 1.68E+01
