 LCModel (Version 6.3-1L) Copyright: S.W. Provencher.          Ref.: Magn. Reson. Med. 30:672-679 (1993).                
 Slice#1 Row#7 Col#9  PD_05_press_1_raw_act
 36 lines in following concentration table = NCONC+1
    Conc.  %SD /Cr+PCr  Metabolite                                         
   48.706 160% 9.9E-02 Ala                                                 
    0.000 999%   0.000 Asp                                                 
    0.000 999%   0.000 Cr                                                  
  492.151   9%   1.000 PCr                                                 
   92.922  83%   0.189 GABA                                                
    0.000 999%   0.000 Glc                                                 
  206.461  77%   0.420 Gln                                                 
  784.036  24%   1.593 Glu                                                 
    0.000 999%   0.000 GPC                                                 
  279.747   6%   0.568 PCh                                                 
  163.467  33%   0.332 GSH                                                 
  520.822  35%   1.058 Ins                                                 
  239.591  42%   0.487 Lac                                                 
 1.14E+03   7%   2.323 NAA                                                 
   24.043 340% 4.9E-02 NAAG                                                
   61.847  30%   0.126 Scyllo                                              
  128.351  89%   0.261 Tau                                                 
  204.635  34%   0.416 -CrCH2                                              
  279.747   6%   0.568 GPC+PCh                                             
 1.17E+03   5%   2.372 NAA+NAAG                                            
  492.151   9%   1.000 Cr+PCr                                              
  990.497  25%   2.013 Glu+Gln                                             
    0.000 999%   0.000 Lip13a                                              
  746.592  11%   1.517 Lip13b                                              
    0.000 999%   0.000 Lip09                                               
  447.996  25%   0.910 MM09                                                
  289.873  33%   0.589 Lip20                                               
 1.10E+03  18%   2.239 MM20                                                
  131.561  41%   0.267 MM12                                                
   14.762 999% 3.0E-02 MM14                                                
  219.546  50%   0.446 MM17                                                
  746.592  11%   1.517 Lip13a+Lip13b                                       
  892.915  20%   1.814 MM14+Lip13a+Lip13b+MM12                             
  447.996  25%   0.910 MM09+Lip09                                          
 1.39E+03  15%   2.828 MM20+Lip20                                          
   6 lines in following misc. output table
  FWHM = 0.046 ppm    S/N =   7                                            
  Data shift =-0.023 ppm                                                   
  Ph: -72 deg     -12.6 deg/ppm                                            
  alphaB,S = 2.5E+00,   2.6E+01                                            
   14 spline knots.   Ns = 6(1)                                            
  (12) 4 infls.   (10) 3 extrs.                                            
  498 points on ppm-axis = NY
      4.000000     3.992357     3.984714     3.977070     3.969427     3.961784     3.954141     3.946497     3.938854     3.931211
      3.923568     3.915925     3.908281     3.900638     3.892995     3.885352     3.877708     3.870065     3.862422     3.854779
      3.847136     3.839492     3.831849     3.824206     3.816563     3.808919     3.801276     3.793633     3.785990     3.778347
      3.770703     3.763060     3.755417     3.747774     3.740130     3.732487     3.724844     3.717201     3.709558     3.701914
      3.694271     3.686628     3.678985     3.671341     3.663698     3.656055     3.648412     3.640769     3.633125     3.625482
      3.617839     3.610196     3.602552     3.594909     3.587266     3.579623     3.571980     3.564336     3.556693     3.549050
      3.541407     3.533763     3.526120     3.518477     3.510834     3.503191     3.495547     3.487904     3.480261     3.472618
      3.464974     3.457331     3.449688     3.442045     3.434402     3.426758     3.419115     3.411472     3.403829     3.396185
      3.388542     3.380899     3.373256     3.365613     3.357969     3.350326     3.342683     3.335040     3.327396     3.319753
      3.312110     3.304467     3.296824     3.289180     3.281537     3.273894     3.266251     3.258607     3.250964     3.243321
      3.235678     3.228034     3.220391     3.212748     3.205105     3.197462     3.189818     3.182175     3.174532     3.166889
      3.159245     3.151602     3.143959     3.136316     3.128673     3.121029     3.113386     3.105743     3.098100     3.090456
      3.082813     3.075170     3.067527     3.059884     3.052240     3.044597     3.036954     3.029311     3.021667     3.014024
      3.006381     2.998738     2.991095     2.983451     2.975808     2.968165     2.960522     2.952878     2.945235     2.937592
      2.929949     2.922306     2.914662     2.907019     2.899376     2.891733     2.884089     2.876446     2.868803     2.861160
      2.853517     2.845873     2.838230     2.830587     2.822944     2.815300     2.807657     2.800014     2.792371     2.784728
      2.777084     2.769441     2.761798     2.754155     2.746511     2.738868     2.731225     2.723582     2.715939     2.708295
      2.700652     2.693009     2.685366     2.677722     2.670079     2.662436     2.654793     2.647150     2.639506     2.631863
      2.624220     2.616577     2.608933     2.601290     2.593647     2.586004     2.578361     2.570717     2.563074     2.555431
      2.547788     2.540144     2.532501     2.524858     2.517215     2.509572     2.501928     2.494285     2.486642     2.478999
      2.471355     2.463712     2.456069     2.448426     2.440783     2.433139     2.425496     2.417853     2.410210     2.402566
      2.394923     2.387280     2.379637     2.371994     2.364350     2.356707     2.349064     2.341421     2.333777     2.326134
      2.318491     2.310848     2.303205     2.295561     2.287918     2.280275     2.272632     2.264988     2.257345     2.249702
      2.242059     2.234416     2.226772     2.219129     2.211486     2.203843     2.196199     2.188556     2.180913     2.173270
      2.165627     2.157983     2.150340     2.142697     2.135054     2.127410     2.119767     2.112124     2.104481     2.096838
      2.089194     2.081551     2.073908     2.066265     2.058621     2.050978     2.043335     2.035692     2.028049     2.020405
      2.012762     2.005119     1.997476     1.989833     1.982190     1.974546     1.966903     1.959260     1.951617     1.943974
      1.936331     1.928688     1.921045     1.913402     1.905759     1.898115     1.890472     1.882829     1.875186     1.867543
      1.859900     1.852257     1.844614     1.836971     1.829327     1.821684     1.814041     1.806398     1.798755     1.791112
      1.783469     1.775826     1.768183     1.760540     1.752896     1.745253     1.737610     1.729967     1.722324     1.714681
      1.707038     1.699395     1.691752     1.684108     1.676465     1.668822     1.661179     1.653536     1.645893     1.638250
      1.630607     1.622964     1.615321     1.607677     1.600034     1.592391     1.584748     1.577105     1.569462     1.561819
      1.554176     1.546533     1.538890     1.531246     1.523603     1.515960     1.508317     1.500674     1.493031     1.485388
      1.477745     1.470102     1.462458     1.454815     1.447172     1.439529     1.431886     1.424243     1.416600     1.408957
      1.401314     1.393671     1.386027     1.378384     1.370741     1.363098     1.355455     1.347812     1.340169     1.332526
      1.324883     1.317240     1.309596     1.301953     1.294310     1.286667     1.279024     1.271381     1.263738     1.256095
      1.248452     1.240808     1.233165     1.225522     1.217879     1.210236     1.202593     1.194950     1.187307     1.179664
      1.172021     1.164377     1.156734     1.149091     1.141448     1.133805     1.126162     1.118519     1.110876     1.103233
      1.095590     1.087946     1.080303     1.072660     1.065017     1.057374     1.049731     1.042088     1.034445     1.026802
      1.019158     1.011515     1.003872     0.996229     0.988586     0.980943     0.973300     0.965657     0.958014     0.950371
      0.942727     0.935084     0.927441     0.919798     0.912155     0.904512     0.896869     0.889226     0.881583     0.873940
      0.866296     0.858653     0.851010     0.843367     0.835724     0.828081     0.820438     0.812795     0.805152     0.797508
      0.789865     0.782222     0.774579     0.766936     0.759293     0.751650     0.744007     0.736364     0.728721     0.721077
      0.713434     0.705791     0.698148     0.690505     0.682862     0.675219     0.667576     0.659933     0.652290     0.644646
      0.637003     0.629360     0.621717     0.614074     0.606431     0.598788     0.591145     0.583502     0.575858     0.568215
      0.560572     0.552929     0.545286     0.537643     0.530000     0.522357     0.514714     0.507071     0.499427     0.491784
      0.484141     0.476498     0.468855     0.461212     0.453569     0.445925     0.438282     0.430639     0.422996     0.415353
      0.407710     0.400067     0.392424     0.384780     0.377137     0.369494     0.361851     0.354208     0.346565     0.338922
      0.331278     0.323635     0.315992     0.308349     0.300706     0.293063     0.285420     0.277777     0.270133     0.262490
      0.254847     0.247204     0.239561     0.231918     0.224275     0.216631     0.208988     0.201345
 NY phased data points follow
  -2.10824E+01 -1.88857E+01 -2.31106E+01 -1.63787E+01 -2.09976E+01 -1.75014E+01 -1.75115E+01 -1.52154E+01 -1.07615E+01 -4.71255E+00
  -6.11617E+00 -8.93579E+00 -1.10965E+01 -1.35819E+01 -1.34881E+01 -1.90194E+01 -1.37384E+01 -2.12463E+01 -1.29788E+01 -1.88017E+01
  -1.31826E+01 -1.66032E+01 -1.59438E+01 -1.49093E+01 -1.42378E+01 -1.81486E+01 -1.46134E+01 -1.29333E+01 -1.28521E+01 -1.63891E+01
  -7.42895E+00 -9.48436E+00 -9.20119E+00 -1.38120E+01 -1.29416E+01 -1.10498E+01 -1.53545E+01 -1.53372E+01 -1.36842E+01 -1.37684E+01
  -1.24246E+01 -1.20193E+01 -1.14628E+01 -9.69003E+00 -8.01581E+00 -4.62704E+00 -9.00642E+00 -9.76434E+00 -4.56927E+00 -9.90013E+00
  -1.23856E+01 -1.16386E+01 -1.26919E+01 -1.45448E+01 -1.24784E+01 -1.22458E+01 -1.18057E+01 -9.58885E+00 -8.43432E+00 -1.34216E+01
  -1.15808E+01 -1.21415E+01 -1.30022E+01 -1.58243E+01 -1.70462E+01 -1.21963E+01 -1.53266E+01 -1.20698E+01 -1.52439E+01 -1.15939E+01
  -1.37850E+01 -1.30947E+01 -1.43988E+01 -1.26500E+01 -4.28408E+00 -1.41345E+01 -1.44771E+01 -1.32074E+01 -1.04219E+01 -1.02301E+01
  -1.38451E+01 -1.20800E+01 -1.23436E+01 -9.31873E+00 -6.86997E+00 -1.13447E+01 -1.02659E+01 -1.06011E+01 -7.54075E+00 -6.44921E+00
  -2.37288E+00 -2.88990E+00 -2.60935E+00 -9.89584E+00 -1.05963E+01 -1.31734E+01 -1.27413E+01 -8.34625E+00 -2.03250E+00 -1.43326E+00
   4.06491E+00  1.47562E+01  1.74133E+01  1.87862E+01  1.86479E+01  1.17796E+01  5.96773E+00 -2.57791E+00 -5.13889E+00 -9.02962E+00
  -5.74143E+00 -4.72753E+00 -7.36643E+00 -8.82758E+00 -1.26326E+01 -1.23240E+01 -6.65071E+00 -1.01971E+01 -1.17829E+01 -1.55984E+01
  -1.13219E+01 -8.91475E+00 -6.58796E+00 -3.83997E+00 -1.69040E+00  5.64465E-01  6.89485E+00  1.03691E+01  1.28874E+01  9.89928E+00
   5.89762E-02 -3.35492E+00 -5.00478E+00 -7.20625E+00 -7.98876E+00 -1.26799E+01 -7.37132E+00 -1.52082E+01 -1.13708E+01 -1.33049E+01
  -9.14115E+00 -1.21397E+01 -9.46909E+00 -1.02988E+01 -1.04967E+01 -1.40323E+01 -7.33320E+00 -6.70187E+00 -1.06796E+01 -5.12720E+00
  -8.71930E+00 -8.19101E+00 -1.03316E+01 -1.27739E+01 -5.46636E+00 -4.46615E+00 -9.53092E+00 -8.70029E+00 -2.18945E+00 -5.73778E+00
  -1.24383E+01 -3.23346E+00 -5.19075E+00 -1.15736E+01 -6.97149E+00 -9.31966E+00 -4.30521E+00 -8.01690E+00 -4.76931E+00 -9.55498E+00
  -1.09207E+01 -1.35132E+01 -1.35985E+01 -1.51480E+01 -9.70420E+00 -1.59985E+01 -1.26017E+01 -1.60050E+01 -1.10224E+01 -9.50310E+00
  -1.22598E+01 -9.25627E+00 -7.89272E+00 -1.42779E+01 -7.14374E+00 -7.97398E+00 -5.30560E+00 -7.57808E+00 -2.15437E+00 -6.75501E+00
  -5.61952E-01 -5.27853E+00 -4.38712E+00 -3.98499E+00 -4.65661E+00 -8.34184E+00 -1.14644E+01 -8.69620E+00 -6.88873E+00 -7.74611E+00
  -3.27981E+00 -7.13024E+00 -4.88902E+00 -3.73240E+00 -1.17100E+00 -2.96256E+00 -1.98799E+00 -3.94472E+00 -6.66707E+00 -8.50225E+00
  -1.01689E+01 -6.91953E+00 -4.37027E+00 -4.83906E+00  1.32686E+00 -7.44144E-01  4.31003E+00  3.47633E+00 -1.90077E+00 -2.39511E+00
  -5.89654E+00 -4.76575E+00 -7.96619E+00 -3.51685E+00 -3.18385E+00 -4.88481E+00 -5.33896E+00 -4.65927E+00 -9.62019E-01 -1.70502E+00
  -1.02077E+00 -1.93816E+00 -3.08581E+00 -1.56375E+00  2.24775E-01  2.49287E+00 -1.52387E-01 -2.37179E+00  2.37861E+00  1.92022E+00
   1.12121E+00 -3.87495E+00 -4.74792E+00 -5.53297E+00 -2.39592E+00  7.89345E-01  6.69348E+00  3.91573E+00  9.20221E+00  5.69017E+00
   1.32290E+00 -1.35719E+00 -3.24694E+00 -1.69668E+00  3.51282E+00  7.22859E+00  1.63975E+01  1.76759E+01  2.64937E+01  3.16019E+01
   4.47370E+01  3.61108E+01  3.67504E+01  3.19100E+01  1.76053E+01  7.65347E+00  2.10291E+00  6.11756E+00  6.73109E+00  3.48968E+00
   1.23776E+00  3.39057E-01 -5.46605E+00 -1.00540E+00 -2.21938E+00 -3.73984E+00  8.58738E-01 -5.15005E+00 -4.73144E+00 -3.62870E+00
  -1.16344E+00 -1.69548E+00  1.05550E+00 -6.37789E+00  1.30077E-01 -1.83748E+00 -1.19419E+00 -2.99413E+00 -4.88777E+00 -2.23718E+00
  -4.33752E+00 -3.02458E+00 -9.78825E-01 -3.90937E+00 -3.46853E+00 -4.80897E-01 -5.02479E+00 -1.87588E+00 -5.23346E+00 -7.27004E-01
  -3.48331E+00 -2.05153E+00 -7.59207E+00 -2.50161E+00 -2.95400E+00 -2.20426E+00 -6.60560E+00 -7.69193E+00 -3.69535E+00 -2.56205E+00
  -7.74839E+00 -8.24061E+00  6.40662E-01 -3.40943E+00 -3.99374E+00 -7.41535E-01  1.46953E-01 -5.87925E+00 -2.36414E+00 -2.44101E+00
  -2.01066E+00 -3.22908E+00 -3.74698E+00  6.52384E-01  3.60689E-02 -2.44486E+00 -7.32227E+00 -3.28009E+00 -5.26152E+00 -6.12262E+00
  -7.54720E+00 -5.19464E+00 -4.31269E+00 -5.31246E+00 -5.28367E-01 -7.63406E+00 -4.26933E+00 -5.29602E+00 -5.93968E+00 -6.57036E+00
  -4.83476E+00 -6.37201E-01  4.19354E+00 -1.46058E+00 -1.26971E+00  3.88633E+00  6.40514E-01 -5.57401E-01  3.89090E+00 -5.83154E+00
   5.78337E-01  2.63569E+00  5.33067E+00  6.78093E+00  9.08027E+00  9.49095E+00  7.84748E+00  1.03219E+01  8.61393E+00  8.15914E+00
  -1.96480E+00  1.80963E+00 -3.88488E+00 -1.84413E+00 -4.66086E+00 -4.36667E+00 -2.96941E+00  1.08369E+00  9.88027E-01  3.79719E+00
  -1.56295E+00  6.77149E-01  9.33362E-01 -5.48825E+00 -4.63122E-01 -1.81079E+00 -3.19907E+00 -1.77582E+00 -1.61410E+00 -2.11747E+00
  -6.29473E+00 -7.64065E+00 -7.08576E+00 -4.00723E+00 -4.35114E+00 -8.34239E+00 -2.95863E+00 -7.66050E+00 -2.37343E+00 -1.51327E+00
  -6.95107E+00 -6.86498E+00 -3.06349E+00 -5.03762E+00  1.12921E+00 -2.46743E+00 -1.09797E+00 -2.22187E+00 -2.89461E+00 -2.23758E+00
   1.07275E+00 -7.20376E-01 -4.70321E+00  2.33937E-01 -2.11571E+00 -1.67386E+00 -1.99713E+00  2.93547E+00 -2.70098E-01  1.37697E+00
   2.83571E+00 -3.85246E+00 -1.74522E+00 -2.53802E+00  3.57756E-01  8.18785E-01 -1.74075E-02  9.85772E-01  4.46529E+00  2.48903E+00
  -1.55100E+00 -2.18108E+00 -6.35171E+00  3.69049E-01 -2.60882E+00 -3.04622E+00 -4.53715E+00 -4.49791E+00 -2.24838E+00 -1.56628E+00
  -4.64088E+00 -7.35042E+00 -3.50788E+00 -4.75841E+00 -7.65202E+00 -2.88450E+00 -6.64387E+00 -4.40715E+00 -4.47210E+00 -2.01319E+00
   1.33802E+00 -1.96284E+00  1.13064E+00  1.36573E+00 -2.71928E+00 -1.79582E+00  5.32966E+00 -2.68392E+00 -4.18600E+00 -4.38964E+00
  -2.70831E+00 -4.46037E+00 -1.06012E+00 -1.13268E+00 -2.52262E+00  3.55306E-01 -7.77353E+00 -8.65429E+00 -2.90941E-01 -1.46272E+00
  -3.31106E+00 -7.82999E-01  1.65205E+00 -1.96926E+00 -2.79049E+00 -4.18053E+00  1.16318E+00 -2.37786E+00 -1.75336E+00 -3.69896E+00
  -2.74596E+00  5.55101E-01 -1.57468E+00 -1.28986E+00 -4.50103E+00 -6.69530E-01 -3.66803E-01 -2.40604E+00 -1.60881E+00  9.77612E-01
  -2.28597E+00 -2.73273E+00 -1.86372E-01 -3.51738E+00 -3.28323E-01 -1.76012E+00 -4.95321E-01 -8.60996E-01 -6.41745E+00 -1.46726E+00
   1.45763E+00 -1.87662E+00  1.19338E+00 -6.43493E-01 -3.92427E+00 -1.10973E+00 -3.25903E+00 -2.64270E+00
 NY points of the fit to the data follow
  -1.63163E+01 -1.63427E+01 -1.63827E+01 -1.64679E+01 -1.60863E+01 -1.50730E+01 -1.41092E+01 -1.26654E+01 -1.05730E+01 -8.83309E+00
  -8.17260E+00 -8.38599E+00 -9.73316E+00 -1.19490E+01 -1.38124E+01 -1.43275E+01 -1.43622E+01 -1.48836E+01 -1.49421E+01 -1.48167E+01
  -1.46248E+01 -1.44364E+01 -1.42811E+01 -1.42334E+01 -1.41756E+01 -1.38975E+01 -1.36048E+01 -1.31711E+01 -1.22775E+01 -1.11451E+01
  -1.01485E+01 -9.34897E+00 -8.95506E+00 -9.29692E+00 -1.02923E+01 -1.13422E+01 -1.22881E+01 -1.35676E+01 -1.45121E+01 -1.47605E+01
  -1.45388E+01 -1.39383E+01 -1.30448E+01 -1.20864E+01 -1.12542E+01 -1.03892E+01 -9.60612E+00 -9.37019E+00 -9.91297E+00 -1.10197E+01
  -1.23585E+01 -1.34063E+01 -1.37578E+01 -1.35921E+01 -1.33263E+01 -1.30391E+01 -1.26494E+01 -1.21697E+01 -1.17039E+01 -1.14231E+01
  -1.13651E+01 -1.15345E+01 -1.18924E+01 -1.22954E+01 -1.25031E+01 -1.24829E+01 -1.22949E+01 -1.19995E+01 -1.17311E+01 -1.15131E+01
  -1.13094E+01 -1.11394E+01 -1.10393E+01 -1.09790E+01 -1.09604E+01 -1.10219E+01 -1.11804E+01 -1.13261E+01 -1.15278E+01 -1.17449E+01
  -1.17958E+01 -1.15291E+01 -1.09588E+01 -1.04022E+01 -9.79962E+00 -9.09274E+00 -8.54695E+00 -8.40973E+00 -8.60783E+00 -9.13060E+00
  -9.88030E+00 -1.04847E+01 -1.06948E+01 -1.06242E+01 -1.07047E+01 -1.06989E+01 -1.02633E+01 -8.56371E+00 -4.81235E+00 -3.74262E-01
   5.01477E+00  1.18612E+01  1.77195E+01  1.98705E+01  1.82921E+01  1.31450E+01  5.26746E+00 -1.93965E+00 -5.58260E+00 -6.64393E+00
  -8.43137E+00 -9.69099E+00 -1.00090E+01 -1.01005E+01 -1.01111E+01 -1.01176E+01 -1.01013E+01 -1.00717E+01 -1.00455E+01 -9.97383E+00
  -9.75248E+00 -9.02447E+00 -7.04242E+00 -4.20752E+00 -1.01871E+00  3.17183E+00  7.47446E+00  9.86560E+00  9.73484E+00  7.36367E+00
   2.91019E+00 -1.99284E+00 -5.12682E+00 -6.25988E+00 -7.49419E+00 -9.00878E+00 -9.64042E+00 -9.82441E+00 -9.63409E+00 -9.15764E+00
  -8.62583E+00 -8.22551E+00 -7.99723E+00 -7.98188E+00 -8.10358E+00 -8.25179E+00 -8.38481E+00 -8.46275E+00 -8.50394E+00 -8.56702E+00
  -8.61164E+00 -8.64279E+00 -8.66642E+00 -8.67123E+00 -8.63904E+00 -8.59449E+00 -8.61068E+00 -8.68246E+00 -8.78218E+00 -8.95363E+00
  -9.13947E+00 -9.23570E+00 -9.19577E+00 -8.99258E+00 -8.69727E+00 -8.50918E+00 -8.57875E+00 -8.89719E+00 -9.29687E+00 -9.60330E+00
  -9.78340E+00 -9.89404E+00 -1.00819E+01 -1.02757E+01 -1.04218E+01 -1.05531E+01 -1.05707E+01 -1.04172E+01 -1.01515E+01 -9.90015E+00
  -9.76979E+00 -9.79536E+00 -9.93177E+00 -9.98725E+00 -9.77011E+00 -9.48866E+00 -9.17349E+00 -8.68621E+00 -7.94101E+00 -7.05049E+00
  -6.25848E+00 -5.77879E+00 -5.73121E+00 -6.05145E+00 -6.43085E+00 -6.69724E+00 -6.88697E+00 -6.90522E+00 -6.71154E+00 -6.30926E+00
  -5.76109E+00 -5.12950E+00 -4.51682E+00 -4.09184E+00 -4.03493E+00 -4.41146E+00 -5.15075E+00 -6.18005E+00 -7.36783E+00 -8.29286E+00
  -8.52302E+00 -8.08231E+00 -7.03932E+00 -5.58781E+00 -3.90404E+00 -2.41420E+00 -1.73097E+00 -2.05337E+00 -3.43800E+00 -5.56479E+00
  -7.67016E+00 -9.13183E+00 -9.55445E+00 -8.92395E+00 -7.68053E+00 -5.87192E+00 -4.03552E+00 -2.76644E+00 -2.37500E+00 -2.55972E+00
  -2.76457E+00 -2.84912E+00 -2.81426E+00 -2.55280E+00 -2.08379E+00 -1.52312E+00 -1.06226E+00 -9.00828E-01 -1.00405E+00 -1.25277E+00
  -1.67978E+00 -2.18360E+00 -2.46586E+00 -2.24920E+00 -1.67559E+00 -9.60911E-01 -2.00224E-01  4.09139E-01  7.05678E-01  7.09382E-01
   7.40972E-01  1.00799E+00  1.47006E+00  2.21559E+00  3.75447E+00  7.23131E+00  1.28527E+01  1.88111E+01  2.61455E+01  3.47605E+01
   4.08503E+01  4.15686E+01  3.73898E+01  2.85303E+01  1.70179E+01  7.76235E+00  3.61305E+00  1.75369E+00 -1.21628E+00 -2.76318E+00
  -3.22676E+00 -3.43855E+00 -3.51421E+00 -3.40688E+00 -3.25128E+00 -3.14195E+00 -3.11221E+00 -3.18613E+00 -3.36303E+00 -3.57814E+00
  -3.77043E+00 -3.91905E+00 -4.01578E+00 -4.05644E+00 -4.04028E+00 -3.98003E+00 -3.91097E+00 -3.85149E+00 -3.79250E+00 -3.74464E+00
  -3.70523E+00 -3.65960E+00 -3.61252E+00 -3.57033E+00 -3.52645E+00 -3.47878E+00 -3.43017E+00 -3.38294E+00 -3.33607E+00 -3.29362E+00
  -3.25904E+00 -3.23005E+00 -3.20796E+00 -3.19434E+00 -3.19019E+00 -3.19531E+00 -3.20847E+00 -3.22909E+00 -3.25525E+00 -3.28474E+00
  -3.31606E+00 -3.34854E+00 -3.38039E+00 -3.41019E+00 -3.43639E+00 -3.45777E+00 -3.47294E+00 -3.48047E+00 -3.47827E+00 -3.46331E+00
  -3.42907E+00 -3.36366E+00 -3.26976E+00 -3.19825E+00 -3.14962E+00 -3.12616E+00 -3.19828E+00 -3.39717E+00 -3.66450E+00 -3.93592E+00
  -4.11408E+00 -4.11866E+00 -3.94883E+00 -3.64548E+00 -3.29354E+00 -2.91600E+00 -2.55989E+00 -2.28238E+00 -2.11072E+00 -1.99264E+00
  -1.76955E+00 -1.28369E+00 -6.12493E-01 -2.48607E-02  5.94080E-01  1.20481E+00  1.44131E+00  1.19582E+00  7.89458E-01  5.55680E-01
   8.94394E-01  1.97174E+00  3.78774E+00  5.91642E+00  7.63895E+00  8.83452E+00  9.30833E+00  8.78815E+00  7.29253E+00  5.32428E+00
   3.54658E+00  2.12217E+00  7.13385E-01 -4.49829E-01 -1.30480E+00 -1.91955E+00 -2.34260E+00 -2.61804E+00 -2.78569E+00 -2.87920E+00
  -2.92451E+00 -2.94046E+00 -2.93946E+00 -2.92913E+00 -2.91346E+00 -2.89437E+00 -2.87238E+00 -2.84751E+00 -2.81927E+00 -2.78706E+00
  -2.74997E+00 -2.70723E+00 -2.65800E+00 -2.60161E+00 -2.53726E+00 -2.46421E+00 -2.38156E+00 -2.28867E+00 -2.18488E+00 -2.06987E+00
  -1.94327E+00 -1.80509E+00 -1.65547E+00 -1.49515E+00 -1.32522E+00 -1.14742E+00 -9.63789E-01 -7.77016E-01 -5.90159E-01 -4.06910E-01
  -2.31188E-01 -6.72176E-02  8.09374E-02  2.09250E-01  3.14150E-01  3.92425E-01  4.41711E-01  4.60410E-01  4.48052E-01  4.05028E-01
   3.32801E-01  2.33572E-01  1.10490E-01 -3.27625E-02 -1.91908E-01 -3.62593E-01 -5.40355E-01 -7.21042E-01 -9.00671E-01 -1.07581E+00
  -1.24343E+00 -1.40127E+00 -1.54759E+00 -1.68133E+00 -1.80182E+00 -1.90897E+00 -2.00292E+00 -2.08433E+00 -2.15395E+00 -2.21278E+00
  -2.26174E+00 -2.30189E+00 -2.33418E+00 -2.35966E+00 -2.37919E+00 -2.39366E+00 -2.40369E+00 -2.40996E+00 -2.41297E+00 -2.41330E+00
  -2.41130E+00 -2.40738E+00 -2.40172E+00 -2.39462E+00 -2.38625E+00 -2.37687E+00 -2.36657E+00 -2.35552E+00 -2.34372E+00 -2.33134E+00
  -2.31840E+00 -2.30507E+00 -2.29131E+00 -2.27721E+00 -2.26273E+00 -2.24798E+00 -2.23296E+00 -2.21776E+00 -2.20233E+00 -2.18673E+00
  -2.17090E+00 -2.15496E+00 -2.13887E+00 -2.12269E+00 -2.10637E+00 -2.08994E+00 -2.07337E+00 -2.05675E+00 -2.04005E+00 -2.02330E+00
  -2.00643E+00 -1.98950E+00 -1.97246E+00 -1.95541E+00 -1.93829E+00 -1.92113E+00 -1.90387E+00 -1.88655E+00 -1.86917E+00 -1.85178E+00
  -1.83432E+00 -1.81682E+00 -1.79921E+00 -1.78157E+00 -1.76385E+00 -1.74612E+00 -1.72831E+00 -1.71042E+00 -1.69242E+00 -1.67437E+00
  -1.65624E+00 -1.63805E+00 -1.61973E+00 -1.60131E+00 -1.58273E+00 -1.56405E+00 -1.54523E+00 -1.52627E+00
 NY background values follow
    -1.688E+01   -1.683E+01   -1.678E+01   -1.672E+01   -1.667E+01   -1.662E+01   -1.657E+01   -1.652E+01   -1.647E+01   -1.642E+01
    -1.637E+01   -1.632E+01   -1.627E+01   -1.622E+01   -1.617E+01   -1.612E+01   -1.607E+01   -1.601E+01   -1.596E+01   -1.591E+01
    -1.586E+01   -1.581E+01   -1.576E+01   -1.571E+01   -1.566E+01   -1.561E+01   -1.556E+01   -1.551E+01   -1.546E+01   -1.541E+01
    -1.535E+01   -1.530E+01   -1.525E+01   -1.520E+01   -1.515E+01   -1.510E+01   -1.505E+01   -1.500E+01   -1.495E+01   -1.490E+01
    -1.485E+01   -1.480E+01   -1.475E+01   -1.470E+01   -1.465E+01   -1.460E+01   -1.455E+01   -1.450E+01   -1.445E+01   -1.439E+01
    -1.434E+01   -1.429E+01   -1.424E+01   -1.419E+01   -1.414E+01   -1.409E+01   -1.404E+01   -1.399E+01   -1.394E+01   -1.389E+01
    -1.384E+01   -1.379E+01   -1.374E+01   -1.369E+01   -1.364E+01   -1.359E+01   -1.354E+01   -1.349E+01   -1.344E+01   -1.339E+01
    -1.335E+01   -1.330E+01   -1.325E+01   -1.320E+01   -1.315E+01   -1.310E+01   -1.305E+01   -1.300E+01   -1.295E+01   -1.290E+01
    -1.285E+01   -1.280E+01   -1.275E+01   -1.271E+01   -1.266E+01   -1.261E+01   -1.256E+01   -1.251E+01   -1.246E+01   -1.241E+01
    -1.236E+01   -1.232E+01   -1.227E+01   -1.222E+01   -1.217E+01   -1.212E+01   -1.207E+01   -1.203E+01   -1.198E+01   -1.193E+01
    -1.188E+01   -1.183E+01   -1.179E+01   -1.174E+01   -1.169E+01   -1.164E+01   -1.160E+01   -1.155E+01   -1.150E+01   -1.145E+01
    -1.141E+01   -1.136E+01   -1.131E+01   -1.127E+01   -1.122E+01   -1.117E+01   -1.113E+01   -1.108E+01   -1.103E+01   -1.099E+01
    -1.094E+01   -1.089E+01   -1.085E+01   -1.080E+01   -1.076E+01   -1.071E+01   -1.066E+01   -1.062E+01   -1.057E+01   -1.053E+01
    -1.048E+01   -1.044E+01   -1.039E+01   -1.035E+01   -1.030E+01   -1.025E+01   -1.021E+01   -1.016E+01   -1.012E+01   -1.008E+01
    -1.003E+01   -9.986E+00   -9.942E+00   -9.897E+00   -9.853E+00   -9.809E+00   -9.765E+00   -9.721E+00   -9.677E+00   -9.634E+00
    -9.590E+00   -9.547E+00   -9.503E+00   -9.460E+00   -9.417E+00   -9.374E+00   -9.331E+00   -9.288E+00   -9.245E+00   -9.202E+00
    -9.160E+00   -9.118E+00   -9.075E+00   -9.033E+00   -8.991E+00   -8.949E+00   -8.908E+00   -8.866E+00   -8.824E+00   -8.783E+00
    -8.742E+00   -8.701E+00   -8.660E+00   -8.619E+00   -8.578E+00   -8.537E+00   -8.497E+00   -8.456E+00   -8.416E+00   -8.376E+00
    -8.336E+00   -8.296E+00   -8.257E+00   -8.217E+00   -8.178E+00   -8.139E+00   -8.099E+00   -8.060E+00   -8.022E+00   -7.983E+00
    -7.944E+00   -7.906E+00   -7.868E+00   -7.830E+00   -7.792E+00   -7.754E+00   -7.716E+00   -7.679E+00   -7.642E+00   -7.604E+00
    -7.567E+00   -7.530E+00   -7.494E+00   -7.457E+00   -7.421E+00   -7.385E+00   -7.348E+00   -7.312E+00   -7.277E+00   -7.241E+00
    -7.206E+00   -7.170E+00   -7.135E+00   -7.100E+00   -7.065E+00   -7.031E+00   -6.996E+00   -6.962E+00   -6.928E+00   -6.894E+00
    -6.860E+00   -6.826E+00   -6.793E+00   -6.760E+00   -6.727E+00   -6.694E+00   -6.661E+00   -6.628E+00   -6.596E+00   -6.563E+00
    -6.531E+00   -6.499E+00   -6.468E+00   -6.436E+00   -6.405E+00   -6.374E+00   -6.342E+00   -6.312E+00   -6.281E+00   -6.250E+00
    -6.220E+00   -6.190E+00   -6.160E+00   -6.130E+00   -6.100E+00   -6.070E+00   -6.041E+00   -6.012E+00   -5.983E+00   -5.954E+00
    -5.925E+00   -5.896E+00   -5.868E+00   -5.840E+00   -5.811E+00   -5.784E+00   -5.756E+00   -5.728E+00   -5.701E+00   -5.673E+00
    -5.646E+00   -5.619E+00   -5.592E+00   -5.566E+00   -5.539E+00   -5.513E+00   -5.486E+00   -5.460E+00   -5.434E+00   -5.409E+00
    -5.383E+00   -5.358E+00   -5.332E+00   -5.307E+00   -5.282E+00   -5.257E+00   -5.232E+00   -5.208E+00   -5.183E+00   -5.159E+00
    -5.135E+00   -5.111E+00   -5.087E+00   -5.063E+00   -5.040E+00   -5.016E+00   -4.993E+00   -4.969E+00   -4.946E+00   -4.923E+00
    -4.901E+00   -4.878E+00   -4.855E+00   -4.833E+00   -4.810E+00   -4.788E+00   -4.766E+00   -4.744E+00   -4.722E+00   -4.700E+00
    -4.679E+00   -4.657E+00   -4.636E+00   -4.614E+00   -4.593E+00   -4.572E+00   -4.551E+00   -4.530E+00   -4.509E+00   -4.488E+00
    -4.468E+00   -4.447E+00   -4.427E+00   -4.406E+00   -4.386E+00   -4.366E+00   -4.346E+00   -4.326E+00   -4.306E+00   -4.286E+00
    -4.266E+00   -4.247E+00   -4.227E+00   -4.208E+00   -4.188E+00   -4.169E+00   -4.150E+00   -4.131E+00   -4.112E+00   -4.092E+00
    -4.074E+00   -4.055E+00   -4.036E+00   -4.017E+00   -3.998E+00   -3.980E+00   -3.961E+00   -3.943E+00   -3.924E+00   -3.906E+00
    -3.888E+00   -3.870E+00   -3.851E+00   -3.833E+00   -3.815E+00   -3.797E+00   -3.779E+00   -3.761E+00   -3.743E+00   -3.726E+00
    -3.708E+00   -3.690E+00   -3.673E+00   -3.655E+00   -3.637E+00   -3.620E+00   -3.602E+00   -3.585E+00   -3.568E+00   -3.550E+00
    -3.533E+00   -3.516E+00   -3.498E+00   -3.481E+00   -3.464E+00   -3.447E+00   -3.430E+00   -3.413E+00   -3.395E+00   -3.378E+00
    -3.361E+00   -3.344E+00   -3.327E+00   -3.311E+00   -3.294E+00   -3.277E+00   -3.260E+00   -3.243E+00   -3.226E+00   -3.210E+00
    -3.193E+00   -3.176E+00   -3.159E+00   -3.143E+00   -3.126E+00   -3.109E+00   -3.093E+00   -3.076E+00   -3.059E+00   -3.043E+00
    -3.026E+00   -3.010E+00   -2.993E+00   -2.976E+00   -2.960E+00   -2.943E+00   -2.927E+00   -2.910E+00   -2.894E+00   -2.877E+00
    -2.861E+00   -2.844E+00   -2.828E+00   -2.811E+00   -2.795E+00   -2.778E+00   -2.762E+00   -2.745E+00   -2.729E+00   -2.712E+00
    -2.696E+00   -2.679E+00   -2.663E+00   -2.646E+00   -2.630E+00   -2.613E+00   -2.597E+00   -2.580E+00   -2.564E+00   -2.547E+00
    -2.531E+00   -2.514E+00   -2.498E+00   -2.481E+00   -2.465E+00   -2.448E+00   -2.432E+00   -2.415E+00   -2.399E+00   -2.382E+00
    -2.366E+00   -2.350E+00   -2.333E+00   -2.317E+00   -2.300E+00   -2.284E+00   -2.267E+00   -2.251E+00   -2.234E+00   -2.218E+00
    -2.201E+00   -2.185E+00   -2.168E+00   -2.152E+00   -2.135E+00   -2.119E+00   -2.102E+00   -2.086E+00   -2.069E+00   -2.053E+00
    -2.036E+00   -2.020E+00   -2.003E+00   -1.987E+00   -1.970E+00   -1.954E+00   -1.937E+00   -1.921E+00   -1.905E+00   -1.888E+00
    -1.872E+00   -1.855E+00   -1.839E+00   -1.822E+00   -1.806E+00   -1.789E+00   -1.773E+00   -1.756E+00   -1.740E+00   -1.723E+00
    -1.707E+00   -1.690E+00   -1.674E+00   -1.658E+00   -1.641E+00   -1.625E+00   -1.608E+00   -1.592E+00   -1.575E+00   -1.559E+00
    -1.543E+00   -1.526E+00   -1.510E+00   -1.493E+00   -1.477E+00   -1.460E+00   -1.444E+00   -1.428E+00   -1.411E+00   -1.395E+00
    -1.378E+00   -1.362E+00   -1.346E+00   -1.329E+00   -1.313E+00   -1.297E+00   -1.280E+00   -1.264E+00
 Ala      Conc. = 4.87E+01
