 LCModel (Version 6.3-1L) Copyright: S.W. Provencher.          Ref.: Magn. Reson. Med. 30:672-679 (1993).                
 Slice#2 Row#10 Col#11  PD_05_press_1_raw_act
 36 lines in following concentration table = NCONC+1
    Conc.  %SD /Cr+PCr  Metabolite                                         
  118.572  67%   0.128 Ala                                                 
    0.000 999%   0.000 Asp                                                 
  218.515  92%   0.237 Cr                                                  
  704.773  29%   0.763 PCr                                                 
    0.000 999%   0.000 GABA                                                
   25.423 416% 2.8E-02 Glc                                                 
  674.865  25%   0.731 Gln                                                 
 1.28E+03  15%   1.386 Glu                                                 
  262.241   6%   0.284 GPC                                                 
    0.000 999%   0.000 PCh                                                 
  185.126  28%   0.201 GSH                                                 
  733.053  24%   0.794 Ins                                                 
   63.318 138% 6.9E-02 Lac                                                 
 1.71E+03   7%   1.847 NAA                                                 
  324.119  37%   0.351 NAAG                                                
   92.495  20%   0.100 Scyllo                                              
  211.867  66%   0.229 Tau                                                 
  563.138  14%   0.610 -CrCH2                                              
  262.241   6%   0.284 GPC+PCh                                             
 2.03E+03   3%   2.198 NAA+NAAG                                            
  923.289   4%   1.000 Cr+PCr                                              
 1.95E+03  14%   2.116 Glu+Gln                                             
 1.37E+03  36%   1.482 Lip13a                                              
    0.268 999% 2.9E-04 Lip13b                                              
  155.489 147%   0.168 Lip09                                               
 1.12E+03  22%   1.209 MM09                                                
  331.320  48%   0.359 Lip20                                               
 2.45E+03  12%   2.649 MM20                                                
  312.329  51%   0.338 MM12                                                
  816.417  36%   0.884 MM14                                                
  820.432  22%   0.889 MM17                                                
 1.37E+03  31%   1.482 Lip13a+Lip13b                                       
 2.50E+03  11%   2.705 MM14+Lip13a+Lip13b+MM12                             
 1.27E+03  11%   1.377 MM09+Lip09                                          
 2.78E+03  10%   3.008 MM20+Lip20                                          
   6 lines in following misc. output table
  FWHM = 0.061 ppm    S/N =  15                                            
  Data shift = 0.015 ppm                                                   
  Ph: -21 deg     -12.9 deg/ppm                                            
  alphaB,S = 8.2E-01,   2.1E+02                                            
   14 spline knots.   Ns = 8(1)                                            
  (11) 4 infls.   ( 5) 1 extrs.                                            
  498 points on ppm-axis = NY
      4.000000     3.992357     3.984714     3.977070     3.969427     3.961784     3.954141     3.946497     3.938854     3.931211
      3.923568     3.915925     3.908281     3.900638     3.892995     3.885352     3.877708     3.870065     3.862422     3.854779
      3.847136     3.839492     3.831849     3.824206     3.816563     3.808919     3.801276     3.793633     3.785990     3.778347
      3.770703     3.763060     3.755417     3.747774     3.740130     3.732487     3.724844     3.717201     3.709558     3.701914
      3.694271     3.686628     3.678985     3.671341     3.663698     3.656055     3.648412     3.640769     3.633125     3.625482
      3.617839     3.610196     3.602552     3.594909     3.587266     3.579623     3.571980     3.564336     3.556693     3.549050
      3.541407     3.533763     3.526120     3.518477     3.510834     3.503191     3.495547     3.487904     3.480261     3.472618
      3.464974     3.457331     3.449688     3.442045     3.434402     3.426758     3.419115     3.411472     3.403829     3.396185
      3.388542     3.380899     3.373256     3.365613     3.357969     3.350326     3.342683     3.335040     3.327396     3.319753
      3.312110     3.304467     3.296824     3.289180     3.281537     3.273894     3.266251     3.258607     3.250964     3.243321
      3.235678     3.228034     3.220391     3.212748     3.205105     3.197462     3.189818     3.182175     3.174532     3.166889
      3.159245     3.151602     3.143959     3.136316     3.128673     3.121029     3.113386     3.105743     3.098100     3.090456
      3.082813     3.075170     3.067527     3.059884     3.052240     3.044597     3.036954     3.029311     3.021667     3.014024
      3.006381     2.998738     2.991095     2.983451     2.975808     2.968165     2.960522     2.952878     2.945235     2.937592
      2.929949     2.922306     2.914662     2.907019     2.899376     2.891733     2.884089     2.876446     2.868803     2.861160
      2.853517     2.845873     2.838230     2.830587     2.822944     2.815300     2.807657     2.800014     2.792371     2.784728
      2.777084     2.769441     2.761798     2.754155     2.746511     2.738868     2.731225     2.723582     2.715939     2.708295
      2.700652     2.693009     2.685366     2.677722     2.670079     2.662436     2.654793     2.647150     2.639506     2.631863
      2.624220     2.616577     2.608933     2.601290     2.593647     2.586004     2.578361     2.570717     2.563074     2.555431
      2.547788     2.540144     2.532501     2.524858     2.517215     2.509572     2.501928     2.494285     2.486642     2.478999
      2.471355     2.463712     2.456069     2.448426     2.440783     2.433139     2.425496     2.417853     2.410210     2.402566
      2.394923     2.387280     2.379637     2.371994     2.364350     2.356707     2.349064     2.341421     2.333777     2.326134
      2.318491     2.310848     2.303205     2.295561     2.287918     2.280275     2.272632     2.264988     2.257345     2.249702
      2.242059     2.234416     2.226772     2.219129     2.211486     2.203843     2.196199     2.188556     2.180913     2.173270
      2.165627     2.157983     2.150340     2.142697     2.135054     2.127410     2.119767     2.112124     2.104481     2.096838
      2.089194     2.081551     2.073908     2.066265     2.058621     2.050978     2.043335     2.035692     2.028049     2.020405
      2.012762     2.005119     1.997476     1.989833     1.982190     1.974546     1.966903     1.959260     1.951617     1.943974
      1.936331     1.928688     1.921045     1.913402     1.905759     1.898115     1.890472     1.882829     1.875186     1.867543
      1.859900     1.852257     1.844614     1.836971     1.829327     1.821684     1.814041     1.806398     1.798755     1.791112
      1.783469     1.775826     1.768183     1.760540     1.752896     1.745253     1.737610     1.729967     1.722324     1.714681
      1.707038     1.699395     1.691752     1.684108     1.676465     1.668822     1.661179     1.653536     1.645893     1.638250
      1.630607     1.622964     1.615321     1.607677     1.600034     1.592391     1.584748     1.577105     1.569462     1.561819
      1.554176     1.546533     1.538890     1.531246     1.523603     1.515960     1.508317     1.500674     1.493031     1.485388
      1.477745     1.470102     1.462458     1.454815     1.447172     1.439529     1.431886     1.424243     1.416600     1.408957
      1.401314     1.393671     1.386027     1.378384     1.370741     1.363098     1.355455     1.347812     1.340169     1.332526
      1.324883     1.317240     1.309596     1.301953     1.294310     1.286667     1.279024     1.271381     1.263738     1.256095
      1.248452     1.240808     1.233165     1.225522     1.217879     1.210236     1.202593     1.194950     1.187307     1.179664
      1.172021     1.164377     1.156734     1.149091     1.141448     1.133805     1.126162     1.118519     1.110876     1.103233
      1.095590     1.087946     1.080303     1.072660     1.065017     1.057374     1.049731     1.042088     1.034445     1.026802
      1.019158     1.011515     1.003872     0.996229     0.988586     0.980943     0.973300     0.965657     0.958014     0.950371
      0.942727     0.935084     0.927441     0.919798     0.912155     0.904512     0.896869     0.889226     0.881583     0.873940
      0.866296     0.858653     0.851010     0.843367     0.835724     0.828081     0.820438     0.812795     0.805152     0.797508
      0.789865     0.782222     0.774579     0.766936     0.759293     0.751650     0.744007     0.736364     0.728721     0.721077
      0.713434     0.705791     0.698148     0.690505     0.682862     0.675219     0.667576     0.659933     0.652290     0.644646
      0.637003     0.629360     0.621717     0.614074     0.606431     0.598788     0.591145     0.583502     0.575858     0.568215
      0.560572     0.552929     0.545286     0.537643     0.530000     0.522357     0.514714     0.507071     0.499427     0.491784
      0.484141     0.476498     0.468855     0.461212     0.453569     0.445925     0.438282     0.430639     0.422996     0.415353
      0.407710     0.400067     0.392424     0.384780     0.377137     0.369494     0.361851     0.354208     0.346565     0.338922
      0.331278     0.323635     0.315992     0.308349     0.300706     0.293063     0.285420     0.277777     0.270133     0.262490
      0.254847     0.247204     0.239561     0.231918     0.224275     0.216631     0.208988     0.201345
 NY phased data points follow
   3.77912E+00  4.97829E+00  6.43050E+00  5.57421E+00  4.84732E+00  3.66938E+00  5.53732E+00  8.14847E+00  7.57812E+00  1.21949E+01
   1.28609E+01  1.04939E+01  1.20897E+01  1.15129E+01  1.05792E+01  8.24762E+00  9.73570E+00  6.31287E+00  6.14010E+00  3.51775E+00
   7.89386E+00  3.88506E+00  7.43640E+00  5.15976E+00  6.72458E+00  7.44492E+00  7.37089E+00  6.29379E+00  7.73986E+00  7.05811E+00
   7.40764E+00  3.42177E+00  8.05520E+00  7.44588E+00  5.28293E+00  6.12912E+00  5.52786E+00  4.44742E+00  4.72821E+00  6.87639E+00
   6.54220E+00  7.06336E+00  8.50651E+00  8.16989E+00  9.25423E+00  8.28900E+00  7.64491E+00  9.01233E+00  9.56132E+00  1.10301E+01
   7.29108E+00  8.95112E+00  7.08505E+00  5.27789E+00  7.31030E+00  6.07757E+00  6.87889E+00  5.22926E+00  6.06268E+00  4.01565E+00
   4.72398E+00  6.16887E+00  4.72062E+00  1.34618E+00  1.86899E+00  2.04054E+00  1.75561E+00  1.52925E+00  3.08463E+00  4.02715E+00
   3.38024E+00  3.78604E+00  2.14084E+00  4.57880E+00  3.70139E+00  6.71884E+00  3.93248E+00  3.42274E+00  4.77842E+00  2.72548E+00
   4.92191E+00  5.61257E+00  3.23768E+00  4.28050E+00  5.56256E+00  2.59835E+00  5.30648E+00  6.45749E+00  4.19554E+00  7.74960E+00
   6.75971E+00  5.91744E+00  3.66487E+00  5.93777E+00  5.82538E+00  9.58726E+00  1.01975E+01  1.06358E+01  1.06335E+01  1.24006E+01
   1.50535E+01  1.88658E+01  2.01313E+01  2.49845E+01  2.29751E+01  2.12758E+01  1.94658E+01  1.39516E+01  1.07168E+01  8.07239E+00
   5.03963E+00  4.15687E+00  4.39864E+00  4.82676E+00  2.40169E+00  6.70825E+00  3.72929E+00  4.95107E+00  5.83189E+00  8.15976E+00
   7.76845E+00  1.14262E+01  1.04796E+01  1.24479E+01  1.86448E+01  2.02418E+01  2.81341E+01  3.13224E+01  3.43596E+01  3.02369E+01
   2.37305E+01  1.89228E+01  1.23166E+01  7.98650E+00  5.69633E+00  6.29151E+00  3.59138E+00  5.13463E+00  6.39465E+00  1.82919E+00
   2.94828E+00  2.62962E+00  8.10445E+00  3.86539E+00  5.32114E+00  3.90374E+00  4.84551E+00  1.94842E+00  2.26383E+00  4.39814E+00
   2.96151E+00  3.24333E+00  3.77331E+00  4.94010E+00  2.12355E+00  3.80833E+00  2.58460E+00  3.50531E+00  3.56298E+00  1.83596E+00
   4.93441E-02  9.84260E-01  1.31596E+00  7.50856E-01 -2.79117E-01 -2.48603E+00 -1.74930E+00 -1.07987E+00 -1.34432E+00 -4.34971E+00
  -5.12479E+00 -6.95413E+00 -5.63638E+00 -8.81314E+00 -9.47536E+00 -7.75668E+00 -8.95948E+00 -8.55974E+00 -8.00844E+00 -6.01573E+00
  -3.88129E+00 -6.47409E+00 -4.46473E+00 -3.17663E+00 -1.75991E+00 -2.83990E+00 -4.77194E+00 -4.00970E+00 -3.89917E+00 -4.34682E+00
  -2.14451E+00  9.49948E-01 -9.75598E-01 -1.40947E+00 -1.28760E-01 -2.96132E+00 -6.15165E+00 -2.95413E+00 -6.04819E+00 -4.04269E+00
  -6.85872E-01 -1.58239E+00  1.90412E+00  2.63570E+00  1.77935E+00  1.82545E+00  1.96590E+00  1.01603E-01  9.34947E-01  1.34763E+00
   7.90645E-01  2.91847E+00  4.22577E+00  7.58796E+00  1.07849E+01  1.10911E+01  1.02749E+01  1.01571E+01  5.26190E+00  3.79444E+00
   9.16520E-02  1.43408E+00 -1.11537E-01 -1.36381E+00  9.60281E-01  4.22794E+00  4.51583E+00  5.28308E+00  6.93584E+00  8.33373E+00
   5.81253E+00  8.66248E+00  8.74704E+00  5.56264E+00  6.35789E+00  6.19612E+00  5.93097E+00  5.74877E+00  4.39335E+00  8.20827E+00
   4.78670E+00  3.37624E+00  4.54070E+00  4.24876E+00  5.09514E+00  6.08931E+00  8.87817E+00  1.03383E+01  1.29278E+01  1.41399E+01
   1.54649E+01  1.77064E+01  2.14881E+01  2.66810E+01  3.26517E+01  4.21180E+01  4.70347E+01  5.08912E+01  5.72993E+01  6.32848E+01
   6.36754E+01  6.35653E+01  5.82306E+01  4.48172E+01  3.34112E+01  2.13790E+01  1.43342E+01  9.70650E+00  7.90590E+00  5.35906E+00
   4.77172E+00  6.45815E+00  6.40741E+00  6.90630E+00  5.88974E+00  5.41544E+00  3.49552E+00  4.33320E+00  4.22556E+00  5.53971E+00
   4.17625E+00  4.15036E+00  2.90254E+00  3.37871E+00  3.90832E+00  4.94266E+00  2.95505E+00  4.05155E+00  2.37490E+00  3.81405E+00
   4.42344E+00  5.07540E+00  3.82644E+00  5.14577E+00  2.46624E+00  6.38003E+00  4.53596E+00  4.98136E+00  3.82768E+00  4.15945E+00
   4.63091E+00  4.32796E+00  5.00534E+00  6.10995E+00  5.50121E+00  4.63676E+00  5.58084E+00  3.99413E+00  8.22470E+00  7.95214E+00
   6.63473E+00  8.25945E+00  5.50488E+00  5.38584E+00  4.78357E+00  4.30845E+00  3.72689E+00  2.45115E+00  5.44532E+00  4.13787E+00
   4.72134E+00  3.10324E+00  5.13128E+00  4.38392E+00  5.14669E+00  4.26530E+00  2.15800E+00  5.99776E+00  2.70286E+00  3.96156E+00
   3.74721E+00  4.58695E+00  4.19524E+00  5.66182E+00  7.93239E+00  8.79633E+00  6.70391E+00  9.66279E+00  6.44923E+00  8.06296E+00
   1.03469E+01  8.55073E+00  1.14488E+01  1.04106E+01  9.41196E+00  1.07323E+01  8.34526E+00  9.38431E+00  1.25642E+01  8.05827E+00
   9.86692E+00  9.87018E+00  9.85736E+00  8.91563E+00  1.00665E+01  1.03651E+01  9.65181E+00  1.16001E+01  9.47478E+00  8.58350E+00
   8.82089E+00  9.22528E+00  7.28656E+00  8.63309E+00  6.33557E+00  8.35927E+00  6.63221E+00  6.24570E+00  6.63771E+00  3.67026E+00
   7.50568E+00  5.60830E+00  5.67516E+00  4.72863E+00  4.75544E+00  5.15131E+00  4.35494E+00  3.59476E+00  4.51290E+00  4.25304E+00
   3.35441E+00  4.20656E+00  3.51445E+00  5.47683E+00  2.49800E+00  4.99615E+00  3.96445E+00  5.35045E+00  4.99706E+00  5.73046E+00
   7.78613E+00  6.99333E+00  4.76321E+00  7.33963E+00  4.58507E+00  6.99858E+00  1.04743E+01  8.07693E+00  8.76091E+00  7.68527E+00
   7.66044E+00  7.85133E+00  9.92364E+00  8.39847E+00  8.50301E+00  9.64363E+00  1.10969E+01  9.54123E+00  8.44828E+00  8.34733E+00
   9.29383E+00  1.03812E+01  7.90371E+00  5.46746E+00  7.00616E+00  5.36172E+00  4.64515E+00  5.51488E+00  6.36306E+00  7.60495E+00
   6.36490E+00  2.25030E+00  4.05935E+00  3.96653E+00  2.68444E+00  1.37523E+00  3.02362E+00  4.59610E+00  2.92714E+00  1.88885E+00
   2.04055E+00  1.78511E+00  4.27743E+00  2.13059E+00  3.00373E+00  1.74859E+00  1.34060E+00  1.87266E+00  2.90271E+00  2.01367E+00
   2.66845E+00  3.97092E+00  2.57219E+00  3.79117E+00  7.36139E-01  1.54860E+00  1.34532E+00  1.44334E+00  9.39851E-01  4.29718E-02
  -7.42161E-01  1.03178E+00  1.46104E+00  9.32578E-01  2.54376E+00  2.05771E+00  2.49191E+00  1.08655E+00  1.88532E+00  3.48365E-01
   2.95636E+00  2.38666E+00  2.16301E+00  1.21544E+00 -2.78129E-01  1.99784E+00  1.91163E+00 -6.05629E-02  6.50551E-01  8.52778E-01
   1.22446E+00  2.10399E+00  3.57030E+00  2.76513E+00  2.40506E+00  1.66023E+00  1.13121E+00  8.22522E-01  6.52921E-01  1.29966E+00
   1.69084E+00 -1.10623E+00  3.57221E+00  2.67282E+00  2.32853E+00  2.42787E+00  2.50237E+00  8.94735E-01  2.47684E+00  1.96425E-01
   3.08765E+00 -1.41239E+00  2.14348E+00 -8.86173E-01  2.69311E+00  6.81145E-01  2.29879E+00  3.50833E+00
 NY points of the fit to the data follow
   4.53614E+00  4.22836E+00  4.29296E+00  4.71337E+00  5.42188E+00  6.23636E+00  7.09132E+00  8.03958E+00  9.13317E+00  1.03194E+01
   1.13922E+01  1.20784E+01  1.21587E+01  1.15839E+01  1.05153E+01  9.24778E+00  8.08151E+00  7.17559E+00  6.55394E+00  6.15429E+00
   5.81077E+00  5.55413E+00  5.49671E+00  5.57675E+00  5.70341E+00  5.84794E+00  6.07482E+00  6.44632E+00  6.98410E+00  7.71017E+00
   8.57059E+00  9.34022E+00  9.78789E+00  9.70317E+00  9.03919E+00  7.95329E+00  6.68281E+00  5.50156E+00  4.69580E+00  4.48029E+00
   4.84712E+00  5.55191E+00  6.33217E+00  7.04653E+00  7.68617E+00  8.27805E+00  8.79801E+00  9.14211E+00  9.15958E+00  8.72611E+00
   7.84589E+00  6.71916E+00  5.62840E+00  4.79393E+00  4.31317E+00  4.14316E+00  4.19051E+00  4.36636E+00  4.60272E+00  4.84605E+00
   5.01511E+00  5.05269E+00  4.91299E+00  4.61333E+00  4.26776E+00  3.97980E+00  3.80773E+00  3.79479E+00  3.94326E+00  4.16645E+00
   4.37689E+00  4.52753E+00  4.60021E+00  4.60425E+00  4.56360E+00  4.47427E+00  4.31048E+00  4.06599E+00  3.79411E+00  3.68967E+00
   3.78493E+00  3.96946E+00  4.23134E+00  4.59517E+00  5.07214E+00  5.60988E+00  6.07502E+00  6.30262E+00  6.18926E+00  5.70887E+00
   4.95387E+00  4.13323E+00  3.41989E+00  2.95796E+00  3.11858E+00  4.48632E+00  6.55414E+00  8.72898E+00  1.09257E+01  1.33282E+01
   1.61555E+01  1.93048E+01  2.22044E+01  2.40119E+01  2.40103E+01  2.19619E+01  1.83028E+01  1.39780E+01  9.98027E+00  6.93887E+00
   4.97787E+00  3.85889E+00  3.24793E+00  2.91456E+00  2.71205E+00  2.57983E+00  2.50941E+00  2.53179E+00  2.92141E+00  4.56447E+00
   7.22493E+00  1.00494E+01  1.28326E+01  1.58107E+01  1.93138E+01  2.33634E+01  2.73390E+01  3.01425E+01  3.07588E+01  2.87269E+01
   2.44310E+01  1.90078E+01  1.37546E+01  9.58233E+00  6.75076E+00  5.02293E+00  4.01169E+00  3.45994E+00  3.21648E+00  3.18361E+00
   3.27894E+00  3.40124E+00  3.45860E+00  3.40473E+00  3.24392E+00  3.01425E+00  2.75609E+00  2.50362E+00  2.28613E+00  2.10896E+00
   1.96486E+00  1.84593E+00  1.70423E+00  1.48204E+00  1.23595E+00  1.03180E+00  9.10914E-01  8.63742E-01  7.60526E-01  5.38846E-01
   2.36594E-01 -5.78946E-02 -2.64642E-01 -3.47517E-01 -3.54811E-01 -4.04331E-01 -6.05062E-01 -1.01051E+00 -1.59594E+00 -2.17672E+00
  -2.58741E+00 -2.82530E+00 -2.98900E+00 -3.20529E+00 -3.45919E+00 -3.66527E+00 -3.74250E+00 -3.67975E+00 -3.54500E+00 -3.44193E+00
  -3.34668E+00 -3.21948E+00 -3.02976E+00 -2.74458E+00 -2.35440E+00 -1.89603E+00 -1.38023E+00 -8.06096E-01 -1.62171E-01  5.01911E-01
   1.03277E+00  1.33225E+00  1.39193E+00  1.26383E+00  1.03883E+00  8.76912E-01  9.49607E-01  1.27968E+00  1.82957E+00  2.48463E+00
   3.08864E+00  3.45268E+00  3.51826E+00  3.30519E+00  2.70849E+00  1.64019E+00  2.65491E-01 -1.11585E+00 -2.04406E+00 -2.34883E+00
  -2.00955E+00 -1.01532E+00  5.31418E-01  2.35167E+00  3.98509E+00  5.03910E+00  5.36385E+00  4.90485E+00  3.63502E+00  1.77346E+00
  -2.35420E-01 -1.84061E+00 -2.57963E+00 -2.27465E+00 -9.96344E-01  9.56421E-01  3.07932E+00  4.84130E+00  5.99775E+00  6.55888E+00
   6.65146E+00  6.50143E+00  6.33340E+00  6.25971E+00  6.31497E+00  6.51319E+00  6.86976E+00  7.31917E+00  7.69386E+00  7.80564E+00
   7.60229E+00  7.19066E+00  6.78159E+00  6.60042E+00  6.82014E+00  7.49468E+00  8.51379E+00  9.77271E+00  1.13589E+01  1.30330E+01
   1.45910E+01  1.66967E+01  2.12972E+01  2.77633E+01  3.43799E+01  4.05677E+01  4.64446E+01  5.22904E+01  5.79705E+01  6.25461E+01
   6.44782E+01  6.24091E+01  5.58855E+01  4.58462E+01  3.44216E+01  2.39651E+01  1.60392E+01  1.09673E+01  8.13863E+00  6.65160E+00
   5.87525E+00  5.42579E+00  5.12350E+00  4.90661E+00  4.73446E+00  4.56779E+00  4.37481E+00  4.14271E+00  3.88548E+00  3.63419E+00
   3.42009E+00  3.26280E+00  3.16469E+00  3.11672E+00  3.10881E+00  3.12769E+00  3.16218E+00  3.20912E+00  3.27350E+00  3.36468E+00
   3.48989E+00  3.64935E+00  3.83995E+00  4.05384E+00  4.27871E+00  4.50240E+00  4.71568E+00  4.91368E+00  5.09536E+00  5.26154E+00
   5.41210E+00  5.54479E+00  5.65498E+00  5.73650E+00  5.78351E+00  5.79252E+00  5.76307E+00  5.69787E+00  5.60189E+00  5.48143E+00
   5.34341E+00  5.19502E+00  5.04336E+00  4.89569E+00  4.75931E+00  4.64196E+00  4.55202E+00  4.50022E+00  4.50503E+00  4.58781E+00
   4.69201E+00  4.76810E+00  4.82971E+00  4.89686E+00  4.96828E+00  5.00969E+00  4.96889E+00  4.86348E+00  4.74007E+00  4.61667E+00
   4.54810E+00  4.61542E+00  4.88504E+00  5.37775E+00  6.05392E+00  6.82311E+00  7.57499E+00  8.21443E+00  8.68864E+00  9.00995E+00
   9.20609E+00  9.31379E+00  9.39472E+00  9.48868E+00  9.59800E+00  9.69652E+00  9.74853E+00  9.75525E+00  9.71924E+00  9.64020E+00
   9.54683E+00  9.48662E+00  9.50036E+00  9.60028E+00  9.76048E+00  9.92575E+00  1.00327E+01  1.00312E+01  9.89798E+00  9.64340E+00
   9.30365E+00  8.92095E+00  8.52753E+00  8.13953E+00  7.76031E+00  7.38987E+00  7.02799E+00  6.67578E+00  6.33592E+00  6.01161E+00
   5.70588E+00  5.42159E+00  5.16112E+00  4.92654E+00  4.71937E+00  4.54090E+00  4.39209E+00  4.27377E+00  4.18650E+00  4.13078E+00
   4.10694E+00  4.11534E+00  4.15626E+00  4.23005E+00  4.33681E+00  4.47661E+00  4.64917E+00  4.85404E+00  5.09028E+00  5.35651E+00
   5.65053E+00  5.96947E+00  6.30950E+00  6.66601E+00  7.03333E+00  7.40502E+00  7.77363E+00  8.13122E+00  8.46929E+00  8.77935E+00
   9.05296E+00  9.28227E+00  9.46014E+00  9.58077E+00  9.63974E+00  9.63446E+00  9.56408E+00  9.42969E+00  9.23413E+00  8.98208E+00
   8.67961E+00  8.33407E+00  7.95352E+00  7.54658E+00  7.12187E+00  6.68790E+00  6.25256E+00  5.82306E+00  5.40555E+00  5.00515E+00
   4.62584E+00  4.27061E+00  3.94134E+00  3.63907E+00  3.36388E+00  3.11532E+00  2.89234E+00  2.69360E+00  2.51743E+00  2.36206E+00
   2.22554E+00  2.10605E+00  2.00177E+00  1.91107E+00  1.83235E+00  1.76420E+00  1.70527E+00  1.65446E+00  1.61074E+00  1.57328E+00
   1.54127E+00  1.51405E+00  1.49098E+00  1.47161E+00  1.45548E+00  1.44227E+00  1.43159E+00  1.42317E+00  1.41672E+00  1.41208E+00
   1.40905E+00  1.40750E+00  1.40722E+00  1.40812E+00  1.41004E+00  1.41295E+00  1.41674E+00  1.42136E+00  1.42667E+00  1.43265E+00
   1.43922E+00  1.44639E+00  1.45407E+00  1.46225E+00  1.47084E+00  1.47985E+00  1.48923E+00  1.49901E+00  1.50911E+00  1.51953E+00
   1.53020E+00  1.54118E+00  1.55241E+00  1.56393E+00  1.57567E+00  1.58764E+00  1.59980E+00  1.61219E+00  1.62479E+00  1.63761E+00
   1.65060E+00  1.66377E+00  1.67711E+00  1.69067E+00  1.70441E+00  1.71836E+00  1.73246E+00  1.74676E+00  1.76124E+00  1.77597E+00
   1.79090E+00  1.80607E+00  1.82143E+00  1.83706E+00  1.85295E+00  1.86917E+00  1.88570E+00  1.90259E+00
 NY background values follow
     3.526E+00    3.507E+00    3.488E+00    3.469E+00    3.450E+00    3.431E+00    3.412E+00    3.393E+00    3.374E+00    3.355E+00
     3.336E+00    3.317E+00    3.297E+00    3.278E+00    3.259E+00    3.240E+00    3.221E+00    3.202E+00    3.183E+00    3.164E+00
     3.145E+00    3.125E+00    3.106E+00    3.087E+00    3.068E+00    3.049E+00    3.029E+00    3.010E+00    2.991E+00    2.971E+00
     2.952E+00    2.933E+00    2.913E+00    2.894E+00    2.874E+00    2.855E+00    2.835E+00    2.816E+00    2.796E+00    2.777E+00
     2.757E+00    2.737E+00    2.718E+00    2.698E+00    2.678E+00    2.658E+00    2.638E+00    2.619E+00    2.599E+00    2.579E+00
     2.559E+00    2.539E+00    2.518E+00    2.498E+00    2.478E+00    2.458E+00    2.437E+00    2.417E+00    2.397E+00    2.376E+00
     2.356E+00    2.335E+00    2.314E+00    2.293E+00    2.273E+00    2.252E+00    2.231E+00    2.210E+00    2.189E+00    2.168E+00
     2.146E+00    2.125E+00    2.104E+00    2.082E+00    2.061E+00    2.039E+00    2.017E+00    1.996E+00    1.974E+00    1.952E+00
     1.930E+00    1.908E+00    1.885E+00    1.863E+00    1.841E+00    1.818E+00    1.795E+00    1.773E+00    1.750E+00    1.727E+00
     1.704E+00    1.681E+00    1.658E+00    1.634E+00    1.611E+00    1.587E+00    1.564E+00    1.540E+00    1.516E+00    1.492E+00
     1.468E+00    1.444E+00    1.420E+00    1.396E+00    1.372E+00    1.347E+00    1.323E+00    1.298E+00    1.274E+00    1.249E+00
     1.224E+00    1.199E+00    1.174E+00    1.149E+00    1.125E+00    1.099E+00    1.074E+00    1.049E+00    1.024E+00    9.988E-01
     9.735E-01    9.482E-01    9.228E-01    8.974E-01    8.719E-01    8.465E-01    8.210E-01    7.954E-01    7.698E-01    7.442E-01
     7.186E-01    6.930E-01    6.673E-01    6.416E-01    6.159E-01    5.902E-01    5.645E-01    5.388E-01    5.131E-01    4.874E-01
     4.617E-01    4.361E-01    4.105E-01    3.849E-01    3.595E-01    3.341E-01    3.088E-01    2.836E-01    2.586E-01    2.336E-01
     2.088E-01    1.842E-01    1.596E-01    1.353E-01    1.111E-01    8.718E-02    6.340E-02    3.984E-02    1.650E-02   -6.604E-03
    -2.947E-02   -5.208E-02   -7.443E-02   -9.650E-02   -1.183E-01   -1.398E-01   -1.609E-01   -1.818E-01   -2.023E-01   -2.225E-01
    -2.424E-01   -2.618E-01   -2.809E-01   -2.997E-01   -3.180E-01   -3.359E-01   -3.534E-01   -3.705E-01   -3.871E-01   -4.033E-01
    -4.191E-01   -4.343E-01   -4.491E-01   -4.634E-01   -4.773E-01   -4.907E-01   -5.037E-01   -5.162E-01   -5.282E-01   -5.399E-01
    -5.511E-01   -5.619E-01   -5.724E-01   -5.824E-01   -5.920E-01   -6.012E-01   -6.101E-01   -6.186E-01   -6.267E-01   -6.344E-01
    -6.418E-01   -6.489E-01   -6.556E-01   -6.620E-01   -6.681E-01   -6.739E-01   -6.793E-01   -6.845E-01   -6.894E-01   -6.939E-01
    -6.982E-01   -7.022E-01   -7.060E-01   -7.095E-01   -7.127E-01   -7.157E-01   -7.185E-01   -7.210E-01   -7.233E-01   -7.254E-01
    -7.272E-01   -7.289E-01   -7.304E-01   -7.317E-01   -7.328E-01   -7.337E-01   -7.344E-01   -7.350E-01   -7.355E-01   -7.358E-01
    -7.359E-01   -7.358E-01   -7.356E-01   -7.353E-01   -7.347E-01   -7.341E-01   -7.332E-01   -7.323E-01   -7.311E-01   -7.298E-01
    -7.284E-01   -7.268E-01   -7.250E-01   -7.231E-01   -7.211E-01   -7.189E-01   -7.166E-01   -7.141E-01   -7.114E-01   -7.086E-01
    -7.057E-01   -7.026E-01   -6.994E-01   -6.960E-01   -6.925E-01   -6.889E-01   -6.851E-01   -6.812E-01   -6.771E-01   -6.729E-01
    -6.685E-01   -6.640E-01   -6.594E-01   -6.547E-01   -6.498E-01   -6.447E-01   -6.396E-01   -6.343E-01   -6.288E-01   -6.233E-01
    -6.176E-01   -6.118E-01   -6.058E-01   -5.997E-01   -5.935E-01   -5.872E-01   -5.807E-01   -5.741E-01   -5.674E-01   -5.606E-01
    -5.536E-01   -5.466E-01   -5.394E-01   -5.320E-01   -5.246E-01   -5.171E-01   -5.094E-01   -5.016E-01   -4.938E-01   -4.858E-01
    -4.777E-01   -4.694E-01   -4.611E-01   -4.527E-01   -4.441E-01   -4.355E-01   -4.268E-01   -4.179E-01   -4.090E-01   -3.999E-01
    -3.908E-01   -3.815E-01   -3.722E-01   -3.627E-01   -3.532E-01   -3.436E-01   -3.339E-01   -3.240E-01   -3.141E-01   -3.042E-01
    -2.941E-01   -2.839E-01   -2.737E-01   -2.633E-01   -2.529E-01   -2.424E-01   -2.318E-01   -2.211E-01   -2.104E-01   -1.996E-01
    -1.887E-01   -1.777E-01   -1.666E-01   -1.555E-01   -1.443E-01   -1.330E-01   -1.216E-01   -1.102E-01   -9.865E-02   -8.705E-02
    -7.538E-02   -6.363E-02   -5.181E-02   -3.992E-02   -2.795E-02   -1.590E-02   -3.790E-03    8.398E-03    2.066E-02    3.299E-02
     4.539E-02    5.786E-02    7.040E-02    8.302E-02    9.570E-02    1.085E-01    1.213E-01    1.342E-01    1.471E-01    1.601E-01
     1.732E-01    1.864E-01    1.996E-01    2.129E-01    2.263E-01    2.397E-01    2.532E-01    2.667E-01    2.803E-01    2.940E-01
     3.078E-01    3.216E-01    3.354E-01    3.494E-01    3.633E-01    3.774E-01    3.915E-01    4.057E-01    4.199E-01    4.342E-01
     4.485E-01    4.629E-01    4.773E-01    4.918E-01    5.063E-01    5.209E-01    5.356E-01    5.502E-01    5.650E-01    5.797E-01
     5.945E-01    6.094E-01    6.243E-01    6.392E-01    6.542E-01    6.692E-01    6.843E-01    6.994E-01    7.145E-01    7.297E-01
     7.448E-01    7.601E-01    7.753E-01    7.906E-01    8.059E-01    8.213E-01    8.366E-01    8.520E-01    8.674E-01    8.829E-01
     8.983E-01    9.138E-01    9.293E-01    9.448E-01    9.604E-01    9.759E-01    9.915E-01    1.007E+00    1.023E+00    1.038E+00
     1.054E+00    1.070E+00    1.085E+00    1.101E+00    1.117E+00    1.132E+00    1.148E+00    1.164E+00    1.179E+00    1.195E+00
     1.211E+00    1.226E+00    1.242E+00    1.258E+00    1.273E+00    1.289E+00    1.305E+00    1.320E+00    1.336E+00    1.352E+00
     1.367E+00    1.383E+00    1.398E+00    1.414E+00    1.429E+00    1.445E+00    1.461E+00    1.476E+00    1.492E+00    1.507E+00
     1.522E+00    1.538E+00    1.553E+00    1.569E+00    1.584E+00    1.599E+00    1.615E+00    1.630E+00    1.645E+00    1.660E+00
     1.675E+00    1.691E+00    1.706E+00    1.721E+00    1.736E+00    1.751E+00    1.766E+00    1.781E+00    1.796E+00    1.810E+00
     1.825E+00    1.840E+00    1.855E+00    1.869E+00    1.884E+00    1.899E+00    1.914E+00    1.928E+00    1.943E+00    1.957E+00
     1.972E+00    1.986E+00    2.001E+00    2.016E+00    2.030E+00    2.044E+00    2.059E+00    2.073E+00    2.088E+00    2.102E+00
     2.117E+00    2.131E+00    2.145E+00    2.160E+00    2.174E+00    2.188E+00    2.203E+00    2.217E+00    2.231E+00    2.246E+00
     2.260E+00    2.274E+00    2.289E+00    2.303E+00    2.317E+00    2.331E+00    2.346E+00    2.360E+00
 Ala      Conc. = 1.19E+02
