 LCModel (Version 6.3-1L) Copyright: S.W. Provencher.          Ref.: Magn. Reson. Med. 30:672-679 (1993).                
 Slice#3 Row#5 Col#14  PD_05_press_1_raw_act
 36 lines in following concentration table = NCONC+1
    Conc.  %SD /Cr+PCr  Metabolite                                         
   70.650 864%   1.645 Ala                                                 
    8.740 111%   0.204 Asp                                                 
    0.000 999%   0.000 Cr                                                  
   42.949 112%   1.000 PCr                                                 
    5.387 108%   0.125 GABA                                                
    5.385 109%   0.125 Glc                                                 
    0.000 999%   0.000 Gln                                                 
    0.000 999%   0.000 Glu                                                 
    0.000 999%   0.000 GPC                                                 
   47.049  38%   1.095 PCh                                                 
    0.000 999%   0.000 GSH                                                 
    0.000 999%   0.000 Ins                                                 
 2.68E+03  38%  62.448 Lac                                                 
    0.000 999%   0.000 NAA                                                 
    0.000 999%   0.000 NAAG                                                
    1.835 106% 4.3E-02 Scyllo                                              
    9.050 107%   0.211 Tau                                                 
   11.368 190%   0.265 -CrCH2                                              
   47.049  38%   1.095 GPC+PCh                                             
    0.000 999%   0.000 NAA+NAAG                                            
   42.949 112%   1.000 Cr+PCr                                              
    0.000 999%   0.000 Glu+Gln                                             
 2.31E+04   3% 538.788 Lip13a                                              
  142.511  70%   3.318 Lip13b                                              
 4.72E+03  10% 109.904-Lip09                                               
    0.000 999%   0.000 MM09                                                
 2.53E+03  16%  58.831-Lip20                                               
    0.000 999%   0.000 MM20                                                
    0.129 999% 3.0E-03 MM12                                                
    4.096 999% 9.5E-02 MM14                                                
   23.287 189%   0.542 MM17                                                
 2.33E+04   3% 542.106 Lip13a+Lip13b                                       
 2.33E+04   3% 542.204 MM14+Lip13a+Lip13b+MM12                             
 4.72E+03  10% 109.904 MM09+Lip09                                          
 2.53E+03  16%  58.831 MM20+Lip20                                          
   6 lines in following misc. output table
  FWHM = 0.168 ppm    S/N =  21                                            
  Data shift = 0.153 ppm                                                   
  Ph: 126 deg      24.6 deg/ppm                                            
  alphaB,S = 8.5E+01,   8.2E+02                                            
    6 spline knots.   Ns = 9(2)                                            
  (13) 2 infls.   ( 3) 1 extrs.                                            
  498 points on ppm-axis = NY
      4.000000     3.992357     3.984714     3.977070     3.969427     3.961784     3.954141     3.946497     3.938854     3.931211
      3.923568     3.915925     3.908281     3.900638     3.892995     3.885352     3.877708     3.870065     3.862422     3.854779
      3.847136     3.839492     3.831849     3.824206     3.816563     3.808919     3.801276     3.793633     3.785990     3.778347
      3.770703     3.763060     3.755417     3.747774     3.740130     3.732487     3.724844     3.717201     3.709558     3.701914
      3.694271     3.686628     3.678985     3.671341     3.663698     3.656055     3.648412     3.640769     3.633125     3.625482
      3.617839     3.610196     3.602552     3.594909     3.587266     3.579623     3.571980     3.564336     3.556693     3.549050
      3.541407     3.533763     3.526120     3.518477     3.510834     3.503191     3.495547     3.487904     3.480261     3.472618
      3.464974     3.457331     3.449688     3.442045     3.434402     3.426758     3.419115     3.411472     3.403829     3.396185
      3.388542     3.380899     3.373256     3.365613     3.357969     3.350326     3.342683     3.335040     3.327396     3.319753
      3.312110     3.304467     3.296824     3.289180     3.281537     3.273894     3.266251     3.258607     3.250964     3.243321
      3.235678     3.228034     3.220391     3.212748     3.205105     3.197462     3.189818     3.182175     3.174532     3.166889
      3.159245     3.151602     3.143959     3.136316     3.128673     3.121029     3.113386     3.105743     3.098100     3.090456
      3.082813     3.075170     3.067527     3.059884     3.052240     3.044597     3.036954     3.029311     3.021667     3.014024
      3.006381     2.998738     2.991095     2.983451     2.975808     2.968165     2.960522     2.952878     2.945235     2.937592
      2.929949     2.922306     2.914662     2.907019     2.899376     2.891733     2.884089     2.876446     2.868803     2.861160
      2.853517     2.845873     2.838230     2.830587     2.822944     2.815300     2.807657     2.800014     2.792371     2.784728
      2.777084     2.769441     2.761798     2.754155     2.746511     2.738868     2.731225     2.723582     2.715939     2.708295
      2.700652     2.693009     2.685366     2.677722     2.670079     2.662436     2.654793     2.647150     2.639506     2.631863
      2.624220     2.616577     2.608933     2.601290     2.593647     2.586004     2.578361     2.570717     2.563074     2.555431
      2.547788     2.540144     2.532501     2.524858     2.517215     2.509572     2.501928     2.494285     2.486642     2.478999
      2.471355     2.463712     2.456069     2.448426     2.440783     2.433139     2.425496     2.417853     2.410210     2.402566
      2.394923     2.387280     2.379637     2.371994     2.364350     2.356707     2.349064     2.341421     2.333777     2.326134
      2.318491     2.310848     2.303205     2.295561     2.287918     2.280275     2.272632     2.264988     2.257345     2.249702
      2.242059     2.234416     2.226772     2.219129     2.211486     2.203843     2.196199     2.188556     2.180913     2.173270
      2.165627     2.157983     2.150340     2.142697     2.135054     2.127410     2.119767     2.112124     2.104481     2.096838
      2.089194     2.081551     2.073908     2.066265     2.058621     2.050978     2.043335     2.035692     2.028049     2.020405
      2.012762     2.005119     1.997476     1.989833     1.982190     1.974546     1.966903     1.959260     1.951617     1.943974
      1.936331     1.928688     1.921045     1.913402     1.905759     1.898115     1.890472     1.882829     1.875186     1.867543
      1.859900     1.852257     1.844614     1.836971     1.829327     1.821684     1.814041     1.806398     1.798755     1.791112
      1.783469     1.775826     1.768183     1.760540     1.752896     1.745253     1.737610     1.729967     1.722324     1.714681
      1.707038     1.699395     1.691752     1.684108     1.676465     1.668822     1.661179     1.653536     1.645893     1.638250
      1.630607     1.622964     1.615321     1.607677     1.600034     1.592391     1.584748     1.577105     1.569462     1.561819
      1.554176     1.546533     1.538890     1.531246     1.523603     1.515960     1.508317     1.500674     1.493031     1.485388
      1.477745     1.470102     1.462458     1.454815     1.447172     1.439529     1.431886     1.424243     1.416600     1.408957
      1.401314     1.393671     1.386027     1.378384     1.370741     1.363098     1.355455     1.347812     1.340169     1.332526
      1.324883     1.317240     1.309596     1.301953     1.294310     1.286667     1.279024     1.271381     1.263738     1.256095
      1.248452     1.240808     1.233165     1.225522     1.217879     1.210236     1.202593     1.194950     1.187307     1.179664
      1.172021     1.164377     1.156734     1.149091     1.141448     1.133805     1.126162     1.118519     1.110876     1.103233
      1.095590     1.087946     1.080303     1.072660     1.065017     1.057374     1.049731     1.042088     1.034445     1.026802
      1.019158     1.011515     1.003872     0.996229     0.988586     0.980943     0.973300     0.965657     0.958014     0.950371
      0.942727     0.935084     0.927441     0.919798     0.912155     0.904512     0.896869     0.889226     0.881583     0.873940
      0.866296     0.858653     0.851010     0.843367     0.835724     0.828081     0.820438     0.812795     0.805152     0.797508
      0.789865     0.782222     0.774579     0.766936     0.759293     0.751650     0.744007     0.736364     0.728721     0.721077
      0.713434     0.705791     0.698148     0.690505     0.682862     0.675219     0.667576     0.659933     0.652290     0.644646
      0.637003     0.629360     0.621717     0.614074     0.606431     0.598788     0.591145     0.583502     0.575858     0.568215
      0.560572     0.552929     0.545286     0.537643     0.530000     0.522357     0.514714     0.507071     0.499427     0.491784
      0.484141     0.476498     0.468855     0.461212     0.453569     0.445925     0.438282     0.430639     0.422996     0.415353
      0.407710     0.400067     0.392424     0.384780     0.377137     0.369494     0.361851     0.354208     0.346565     0.338922
      0.331278     0.323635     0.315992     0.308349     0.300706     0.293063     0.285420     0.277777     0.270133     0.262490
      0.254847     0.247204     0.239561     0.231918     0.224275     0.216631     0.208988     0.201345
 NY phased data points follow
   3.85068E+00  2.41461E+00  2.50934E+00  3.41420E+00  9.70716E-01  1.33786E+00  4.32905E+00  2.17840E+00  1.91159E+00  3.54858E+00
   3.82556E+00  2.74986E+00  1.67156E+00  3.37086E+00  3.44442E+00  3.23916E+00  1.61388E+00  3.47087E+00  1.13715E+00  2.90830E+00
   3.88138E+00  2.45648E+00  3.51585E+00  2.28628E+00  5.65222E+00  3.34546E+00  4.33437E+00  2.92531E+00  2.86272E+00  3.01955E+00
   3.59012E+00  3.59762E+00  3.53320E+00  1.75638E+00  9.72873E-01  3.74318E+00  9.98491E-01  2.45485E+00  2.35408E+00  2.13094E+00
   2.02027E+00  6.72674E-01  1.78773E+00  3.66436E+00  2.58978E+00  2.33603E+00  1.56198E+00  2.30592E+00  1.19283E+00  2.75577E+00
   2.19284E+00  3.64423E+00  2.09885E+00  3.55091E+00  3.49719E+00  2.63348E+00  1.68698E+00  5.93239E-01  3.41891E+00  3.64757E+00
   2.37465E+00  3.75869E+00  2.51539E+00  2.06133E+00  3.38634E+00  1.75155E+00  2.70610E+00  1.45932E+00  2.96006E+00  2.35269E+00
   4.57747E+00  1.60738E+00  3.13859E+00  2.77592E+00  1.72487E+00  2.28100E+00  2.12475E+00  2.67723E+00  2.84722E+00  3.80057E+00
   3.68208E+00  1.50430E+00  2.04201E+00  2.47837E+00  3.50896E+00  4.05554E+00  2.28674E+00  4.70637E+00  2.36564E+00  3.79409E+00
   3.24176E+00  1.02957E+00  2.77294E+00  2.05335E+00  2.99279E+00  1.49364E+00  2.65163E+00  2.72111E+00  2.62792E+00  2.87749E+00
   4.31875E+00  4.49517E+00  2.91165E+00  3.47010E+00  1.82299E+00  3.00954E+00  3.73864E+00  3.79726E+00  3.27526E+00  3.69439E+00
   3.64446E+00  5.06743E+00  4.00760E+00  1.43284E+00  2.95542E+00  1.72266E+00  2.46675E+00  1.69580E+00 -5.46303E-02  1.02285E+00
   7.27810E-01  2.16750E+00  1.72737E+00  2.04431E+00  1.65667E+00  3.36067E+00  1.95875E+00  1.84006E+00  1.96570E+00  2.95982E+00
   1.25753E+00  2.66335E+00  1.46321E+00  2.32654E+00  1.95226E+00  2.05502E+00  1.44450E+00  7.15886E-01  1.97637E-01  3.84856E+00
   3.46409E+00  2.64523E+00  2.26238E+00  2.53544E+00  2.88421E+00  8.73980E-01  3.39001E+00  1.44788E+00  1.94968E+00  2.72923E+00
   1.83319E+00  2.61208E+00  2.45540E+00  2.51428E+00  2.34795E+00  3.56413E+00  3.18603E+00  2.97482E+00  1.98152E+00  1.22554E+00
   3.14407E+00  1.63077E-01  2.53489E+00  1.63454E+00  3.64295E+00  2.11794E+00  2.69091E+00  1.33169E+00  1.08761E+00  7.08944E-01
   1.86991E+00  2.34566E+00  3.06466E+00  8.56155E-01  9.01276E-01  2.51709E+00  1.53597E+00  2.38540E+00  7.58881E-02  1.13232E+00
   1.80618E+00  1.28313E+00  1.80411E+00  1.54648E+00  2.25180E+00  1.99181E+00  1.33119E+00  3.75308E+00  1.28381E+00  2.74530E+00
   2.99874E+00  1.28742E+00  2.47856E+00  1.31266E+00  2.01113E+00  4.07189E-01  9.91456E-01 -4.89422E-01  1.63572E+00  1.77894E+00
  -5.74343E-03  1.16335E+00 -5.36459E-01  1.64944E+00  4.09983E-01  1.81792E+00  1.25892E+00  1.04396E+00  3.25078E-01  2.53553E+00
   1.21725E+00  1.17471E+00  2.26295E+00  2.83552E+00  2.07019E+00 -8.20145E-02  1.41685E+00  1.27608E+00  1.48972E+00  2.35517E+00
  -1.00651E-01  3.03664E+00  2.00639E+00  8.66115E-01  1.63274E+00  3.00301E+00  1.87554E+00  1.73711E+00  2.47872E+00  1.37724E+00
   2.70018E+00  3.78429E+00  2.60778E+00  3.49113E+00  4.09562E+00  5.98393E+00  5.42488E+00  4.96307E+00  6.86304E+00  3.30245E+00
   4.82129E+00  5.30239E+00  5.09985E+00  6.14180E+00  3.41866E+00  4.53068E+00  4.02431E+00  5.07488E+00  4.92465E+00  2.96494E+00
   4.59102E+00  4.61360E+00  4.89106E+00  6.02722E+00  4.71386E+00  5.88843E+00  3.77250E+00  5.09981E+00  7.24100E+00  5.45174E+00
   7.16760E+00  7.96549E+00  7.32172E+00  6.22983E+00  5.42196E+00  6.04733E+00  6.67919E+00  6.44559E+00  7.83018E+00  8.78049E+00
   8.81077E+00  7.86215E+00  7.63321E+00  1.00222E+01  1.08108E+01  1.09395E+01  1.03924E+01  1.03581E+01  1.09483E+01  1.22579E+01
   1.19241E+01  1.47564E+01  1.54921E+01  1.77182E+01  1.82076E+01  1.64310E+01  1.95941E+01  1.91524E+01  2.18182E+01  2.15260E+01
   2.42039E+01  2.81338E+01  2.75392E+01  3.20352E+01  3.46464E+01  3.52940E+01  3.83559E+01  4.04456E+01  4.40047E+01  4.68069E+01
   4.97748E+01  5.24159E+01  5.24841E+01  5.83036E+01  6.09104E+01  6.39166E+01  6.66702E+01  6.95465E+01  7.35452E+01  7.55107E+01
   7.84499E+01  7.99578E+01  8.36019E+01  8.40686E+01  8.37396E+01  8.45758E+01  8.50244E+01  8.32641E+01  8.29557E+01  8.02945E+01
   8.00336E+01  7.78339E+01  7.52584E+01  7.34614E+01  6.98764E+01  6.80067E+01  6.45119E+01  6.42852E+01  5.89221E+01  5.67359E+01
   5.35560E+01  5.11305E+01  4.73972E+01  4.38324E+01  4.10230E+01  3.75373E+01  3.61177E+01  3.48351E+01  3.12272E+01  3.00685E+01
   2.93369E+01  2.58183E+01  2.57619E+01  2.31936E+01  2.17768E+01  2.19035E+01  2.08544E+01  2.07162E+01  1.79058E+01  1.73253E+01
   1.84572E+01  1.78397E+01  1.76360E+01  1.79121E+01  1.65108E+01  1.72608E+01  1.80070E+01  1.52773E+01  1.50365E+01  1.57259E+01
   1.82111E+01  1.85892E+01  1.75159E+01  1.67284E+01  1.64825E+01  1.79506E+01  1.56621E+01  1.67232E+01  1.59172E+01  1.67158E+01
   1.52894E+01  1.61806E+01  1.54070E+01  1.48079E+01  1.43200E+01  1.54693E+01  1.35228E+01  1.44083E+01  1.20713E+01  1.25581E+01
   1.43546E+01  1.14784E+01  1.20529E+01  1.09857E+01  1.13790E+01  1.09604E+01  9.99121E+00  9.37143E+00  1.03558E+01  8.16096E+00
   8.13188E+00  7.94455E+00  7.88374E+00  6.64773E+00  7.10389E+00  6.77982E+00  5.12629E+00  6.06895E+00  4.71220E+00  5.94810E+00
   4.11790E+00  5.53834E+00  5.93615E+00  3.74700E+00  4.41190E+00  3.62071E+00  3.43775E+00  3.85256E+00  5.25370E+00  4.36034E+00
   4.78851E+00  3.88545E+00  5.12857E+00  4.22241E+00  1.81714E+00  1.48881E+00  3.46045E+00  2.52874E+00  2.33664E+00  1.93233E+00
   2.41918E+00  3.09453E+00  2.25870E+00  9.55098E-01  3.23631E+00  1.40254E+00  2.69447E+00  2.35797E+00  2.51104E+00  1.84937E+00
   2.99539E+00  1.01220E+00  1.35435E+00  1.13592E+00  3.10864E+00  9.79586E-01  4.10863E-01  1.78604E+00  2.80547E+00  1.42930E+00
  -2.72656E-02  1.22579E+00  1.76448E+00  2.66410E+00  2.32336E+00  1.42356E+00  4.71277E-03  3.68349E-01 -4.52596E-01  1.36348E+00
   9.92798E-01  1.69105E+00  1.28445E+00  1.21084E+00  2.17791E+00  2.64710E+00 -2.72127E-01  1.30182E+00 -8.13940E-01  2.01436E+00
   1.57194E+00  1.31338E+00  1.52492E+00  3.49572E-01  4.71262E-01  9.19455E-01 -4.47438E-01  1.64019E+00  1.99215E+00 -5.16997E-01
  -9.19785E-02 -9.99067E-02  9.41945E-01 -2.21594E-01  7.77340E-01  2.03750E+00  1.23358E-01  1.61033E-01 -2.56684E-01  6.99545E-01
   3.14119E+00  1.83772E+00  1.30058E+00  3.91913E-01 -2.54454E-01  7.46820E-01  6.25498E-01  5.82670E-01  1.27747E+00 -6.81961E-01
  -1.16334E-01 -5.59434E-01  3.39690E-01  1.69006E-01  5.09463E-01 -5.72316E-01 -9.29581E-02  7.53866E-01
 NY points of the fit to the data follow
   3.93877E+00  4.55485E+00  3.97724E+00  4.44515E+00  3.97876E+00  4.28118E+00  3.83709E+00  4.03472E+00  3.68129E+00  3.81076E+00
   3.56818E+00  3.67021E+00  3.55237E+00  3.66498E+00  3.54951E+00  3.61783E+00  3.49607E+00  3.51801E+00  3.39163E+00  3.37368E+00
   3.26201E+00  3.25767E+00  3.16244E+00  3.16575E+00  3.08160E+00  3.08923E+00  3.01505E+00  3.02489E+00  2.96046E+00  2.97173E+00
   2.91434E+00  2.92510E+00  2.86673E+00  2.87453E+00  2.82010E+00  2.82426E+00  2.77542E+00  2.77477E+00  2.73183E+00  2.72515E+00
   2.68872E+00  2.67699E+00  2.64738E+00  2.63061E+00  2.60734E+00  2.58587E+00  2.56769E+00  2.54175E+00  2.52585E+00  2.49772E+00
   2.48518E+00  2.45664E+00  2.44669E+00  2.41978E+00  2.41213E+00  2.38920E+00  2.38171E+00  2.36129E+00  2.35255E+00  2.33411E+00
   2.32340E+00  2.30684E+00  2.29404E+00  2.28045E+00  2.26714E+00  2.25610E+00  2.24411E+00  2.23645E+00  2.22705E+00  2.22163E+00
   2.21444E+00  2.21025E+00  2.20643E+00  2.20339E+00  2.20403E+00  2.20234E+00  2.20732E+00  2.20754E+00  2.21829E+00  2.22241E+00
   2.24175E+00  2.25289E+00  2.28511E+00  2.31237E+00  2.37666E+00  2.46194E+00  2.53641E+00  2.63072E+00  2.70086E+00  2.78041E+00
   2.84297E+00  2.89885E+00  2.95310E+00  2.97998E+00  3.02470E+00  3.01594E+00  3.05071E+00  3.00351E+00  3.02807E+00  2.94049E+00
   2.95586E+00  2.83000E+00  2.83781E+00  2.67842E+00  2.68116E+00  2.49572E+00  2.49777E+00  2.29982E+00  2.31426E+00  2.11171E+00
   2.12246E+00  1.92740E+00  1.93051E+00  1.76046E+00  1.75725E+00  1.62904E+00  1.61959E+00  1.54131E+00  1.52381E+00  1.49594E+00
   1.47108E+00  1.49475E+00  1.46440E+00  1.54000E+00  1.50655E+00  1.62843E+00  1.57542E+00  1.68235E+00  1.61071E+00  1.70629E+00
   1.62444E+00  1.70867E+00  1.62186E+00  1.69391E+00  1.60897E+00  1.66868E+00  1.59265E+00  1.64066E+00  1.57924E+00  1.61661E+00
   1.57176E+00  1.59919E+00  1.57021E+00  1.58906E+00  1.57524E+00  1.58754E+00  1.58762E+00  1.59634E+00  1.60715E+00  1.61255E+00
   1.61401E+00  1.61159E+00  1.60524E+00  1.59625E+00  1.58296E+00  1.56833E+00  1.54908E+00  1.52977E+00  1.50557E+00  1.48238E+00
   1.45420E+00  1.42815E+00  1.39698E+00  1.36902E+00  1.33594E+00  1.30727E+00  1.27390E+00  1.24547E+00  1.21287E+00  1.18539E+00
   1.15452E+00  1.12894E+00  1.10081E+00  1.07791E+00  1.05330E+00  1.03380E+00  1.01375E+00  9.98384E-01  9.83687E-01  9.73060E-01
   9.64267E-01  9.58894E-01  9.56433E-01  9.56895E-01  9.61114E-01  9.67688E-01  9.78766E-01  9.91770E-01  1.00988E+00  1.02956E+00
   1.05454E+00  1.08080E+00  1.11255E+00  1.14538E+00  1.18378E+00  1.22313E+00  1.26804E+00  1.31378E+00  1.36486E+00  1.41677E+00
   1.47380E+00  1.53174E+00  1.59446E+00  1.65828E+00  1.72654E+00  1.79625E+00  1.86985E+00  1.94491E+00  2.02293E+00  2.10258E+00
   2.18427E+00  2.26768E+00  2.35217E+00  2.43868E+00  2.52573E+00  2.61494E+00  2.70426E+00  2.79561E+00  2.88653E+00  2.97935E+00
   3.07126E+00  3.16499E+00  3.25746E+00  3.35166E+00  3.44434E+00  3.53870E+00  3.63144E+00  3.72582E+00  3.81860E+00  3.91297E+00
   4.00590E+00  4.10041E+00  4.19378E+00  4.28872E+00  4.38286E+00  4.47855E+00  4.57380E+00  4.67048E+00  4.76700E+00  4.86482E+00
   4.96268E+00  5.06170E+00  5.16088E+00  5.26113E+00  5.36163E+00  5.46316E+00  5.56485E+00  5.66736E+00  5.76990E+00  5.87335E+00
   5.97691E+00  6.08155E+00  6.18667E+00  6.29358E+00  6.40175E+00  6.51268E+00  6.62564E+00  6.74266E+00  6.86301E+00  6.98904E+00
   7.12000E+00  7.25870E+00  7.40437E+00  7.56020E+00  7.72554E+00  7.90389E+00  8.09478E+00  8.30201E+00  8.52533E+00  8.76871E+00
   9.03228E+00  9.32023E+00  9.63311E+00  9.97529E+00  1.03480E+01  1.07557E+01  1.12005E+01  1.16873E+01  1.22188E+01  1.28006E+01
   1.34363E+01  1.41322E+01  1.48930E+01  1.57260E+01  1.66368E+01  1.76337E+01  1.87234E+01  1.99148E+01  2.12157E+01  2.26353E+01
   2.41815E+01  2.58633E+01  2.76877E+01  2.96624E+01  3.17917E+01  3.40803E+01  3.65280E+01  3.91339E+01  4.18914E+01  4.47917E+01
   4.78192E+01  5.09554E+01  5.41744E+01  5.74469E+01  6.07363E+01  6.40033E+01  6.72024E+01  7.02874E+01  7.32096E+01  7.59184E+01
   7.83452E+01  8.04703E+01  8.22065E+01  8.35724E+01  8.44673E+01  8.49523E+01  8.49204E+01  8.44945E+01  8.35416E+01  8.22422E+01
   8.04500E+01  7.83919E+01  7.59151E+01  7.32800E+01  7.03319E+01  6.73527E+01  6.41948E+01  6.11634E+01  5.81802E+01  5.56032E+01
   5.26510E+01  5.01864E+01  4.72428E+01  4.47588E+01  4.18490E+01  3.92439E+01  3.63925E+01  3.42566E+01  3.17501E+01  3.00913E+01
   2.79525E+01  2.66671E+01  2.48557E+01  2.38600E+01  2.23558E+01  2.16139E+01  2.04177E+01  1.98842E+01  1.89945E+01  1.86408E+01
   1.80455E+01  1.78218E+01  1.74755E+01  1.72913E+01  1.71453E+01  1.69529E+01  1.69487E+01  1.67368E+01  1.68294E+01  1.66236E+01
   1.67744E+01  1.65374E+01  1.67037E+01  1.64164E+01  1.65921E+01  1.63080E+01  1.64980E+01  1.63133E+01  1.65031E+01  1.64319E+01
   1.63818E+01  1.59372E+01  1.56602E+01  1.49966E+01  1.45514E+01  1.38439E+01  1.33408E+01  1.29625E+01  1.26412E+01  1.23499E+01
   1.20737E+01  1.18053E+01  1.15388E+01  1.12722E+01  1.10028E+01  1.07304E+01  1.04538E+01  1.01739E+01  9.89008E+00  9.60391E+00
   9.31523E+00  9.02568E+00  8.73526E+00  8.44571E+00  8.15706E+00  7.87104E+00  7.58759E+00  7.30831E+00  7.03300E+00  6.76315E+00
   6.49844E+00  6.24020E+00  5.98796E+00  5.74287E+00  5.50432E+00  5.27339E+00  5.04932E+00  4.83307E+00  4.62379E+00  4.42233E+00
   4.22776E+00  4.04088E+00  3.86072E+00  3.68800E+00  3.52170E+00  3.36252E+00  3.20940E+00  3.06305E+00  2.92239E+00  2.78809E+00
   2.65906E+00  2.53600E+00  2.41781E+00  2.30519E+00  2.19706E+00  2.09410E+00  1.99524E+00  1.90118E+00  1.81087E+00  1.72502E+00
   1.64257E+00  1.56426E+00  1.48902E+00  1.41762E+00  1.34902E+00  1.28398E+00  1.22147E+00  1.16225E+00  1.10531E+00  1.05144E+00
   9.99623E-01  9.50664E-01  9.03549E-01  8.59085E-01  8.16284E-01  7.75964E-01  7.37136E-01  7.00621E-01  6.65434E-01  6.32409E-01
   6.00575E-01  5.70776E-01  5.42036E-01  5.15198E-01  4.89296E-01  4.65182E-01  4.41903E-01  4.20313E-01  3.99452E-01  3.80178E-01
   3.61539E-01  3.44403E-01  3.27826E-01  3.12670E-01  2.97990E-01  2.84648E-01  2.71710E-01  2.60051E-01  2.48734E-01  2.38626E-01
   2.28790E-01  2.20101E-01  2.11630E-01  2.04255E-01  1.97046E-01  1.90874E-01  1.84808E-01  1.79728E-01  1.74713E-01  1.70637E-01
   1.66575E-01  1.63398E-01  1.60183E-01  1.57811E-01  1.55358E-01  1.53699E-01  1.51905E-01  1.50849E-01  1.49608E-01  1.49053E-01
   1.48255E-01  1.48080E-01  1.47589E-01  1.47639E-01  1.47293E-01  1.47395E-01  1.46988E-01  1.46888E-01
 NY background values follow
    -4.442E+00   -4.493E+00   -4.543E+00   -4.593E+00   -4.644E+00   -4.693E+00   -4.743E+00   -4.793E+00   -4.842E+00   -4.891E+00
    -4.940E+00   -4.989E+00   -5.038E+00   -5.086E+00   -5.134E+00   -5.183E+00   -5.231E+00   -5.278E+00   -5.326E+00   -5.373E+00
    -5.421E+00   -5.468E+00   -5.515E+00   -5.562E+00   -5.608E+00   -5.654E+00   -5.701E+00   -5.747E+00   -5.793E+00   -5.838E+00
    -5.884E+00   -5.929E+00   -5.974E+00   -6.019E+00   -6.064E+00   -6.108E+00   -6.153E+00   -6.197E+00   -6.241E+00   -6.285E+00
    -6.329E+00   -6.372E+00   -6.415E+00   -6.459E+00   -6.501E+00   -6.544E+00   -6.587E+00   -6.629E+00   -6.671E+00   -6.713E+00
    -6.755E+00   -6.797E+00   -6.838E+00   -6.879E+00   -6.920E+00   -6.961E+00   -7.002E+00   -7.042E+00   -7.083E+00   -7.123E+00
    -7.163E+00   -7.202E+00   -7.242E+00   -7.281E+00   -7.320E+00   -7.359E+00   -7.398E+00   -7.436E+00   -7.475E+00   -7.513E+00
    -7.551E+00   -7.588E+00   -7.626E+00   -7.663E+00   -7.701E+00   -7.737E+00   -7.774E+00   -7.811E+00   -7.847E+00   -7.883E+00
    -7.919E+00   -7.955E+00   -7.991E+00   -8.026E+00   -8.061E+00   -8.096E+00   -8.131E+00   -8.165E+00   -8.200E+00   -8.234E+00
    -8.268E+00   -8.302E+00   -8.335E+00   -8.368E+00   -8.402E+00   -8.435E+00   -8.467E+00   -8.500E+00   -8.532E+00   -8.564E+00
    -8.596E+00   -8.628E+00   -8.659E+00   -8.691E+00   -8.722E+00   -8.753E+00   -8.783E+00   -8.814E+00   -8.844E+00   -8.874E+00
    -8.904E+00   -8.933E+00   -8.963E+00   -8.992E+00   -9.021E+00   -9.050E+00   -9.079E+00   -9.107E+00   -9.135E+00   -9.163E+00
    -9.191E+00   -9.218E+00   -9.246E+00   -9.273E+00   -9.300E+00   -9.326E+00   -9.353E+00   -9.379E+00   -9.405E+00   -9.431E+00
    -9.457E+00   -9.482E+00   -9.507E+00   -9.532E+00   -9.557E+00   -9.582E+00   -9.606E+00   -9.630E+00   -9.654E+00   -9.678E+00
    -9.701E+00   -9.725E+00   -9.748E+00   -9.771E+00   -9.793E+00   -9.816E+00   -9.838E+00   -9.860E+00   -9.882E+00   -9.903E+00
    -9.925E+00   -9.946E+00   -9.967E+00   -9.988E+00   -1.001E+01   -1.003E+01   -1.005E+01   -1.007E+01   -1.009E+01   -1.011E+01
    -1.013E+01   -1.015E+01   -1.016E+01   -1.018E+01   -1.020E+01   -1.022E+01   -1.024E+01   -1.026E+01   -1.027E+01   -1.029E+01
    -1.031E+01   -1.032E+01   -1.034E+01   -1.036E+01   -1.037E+01   -1.039E+01   -1.040E+01   -1.042E+01   -1.044E+01   -1.045E+01
    -1.047E+01   -1.048E+01   -1.049E+01   -1.051E+01   -1.052E+01   -1.054E+01   -1.055E+01   -1.056E+01   -1.058E+01   -1.059E+01
    -1.060E+01   -1.062E+01   -1.063E+01   -1.064E+01   -1.065E+01   -1.066E+01   -1.067E+01   -1.069E+01   -1.070E+01   -1.071E+01
    -1.072E+01   -1.073E+01   -1.074E+01   -1.075E+01   -1.076E+01   -1.077E+01   -1.078E+01   -1.079E+01   -1.079E+01   -1.080E+01
    -1.081E+01   -1.082E+01   -1.083E+01   -1.083E+01   -1.084E+01   -1.085E+01   -1.086E+01   -1.086E+01   -1.087E+01   -1.088E+01
    -1.088E+01   -1.089E+01   -1.089E+01   -1.090E+01   -1.091E+01   -1.091E+01   -1.092E+01   -1.092E+01   -1.092E+01   -1.093E+01
    -1.093E+01   -1.094E+01   -1.094E+01   -1.094E+01   -1.095E+01   -1.095E+01   -1.095E+01   -1.095E+01   -1.096E+01   -1.096E+01
    -1.096E+01   -1.096E+01   -1.096E+01   -1.097E+01   -1.097E+01   -1.097E+01   -1.097E+01   -1.097E+01   -1.097E+01   -1.097E+01
    -1.097E+01   -1.097E+01   -1.097E+01   -1.097E+01   -1.096E+01   -1.096E+01   -1.096E+01   -1.096E+01   -1.096E+01   -1.096E+01
    -1.095E+01   -1.095E+01   -1.095E+01   -1.095E+01   -1.094E+01   -1.094E+01   -1.094E+01   -1.093E+01   -1.093E+01   -1.092E+01
    -1.092E+01   -1.091E+01   -1.091E+01   -1.090E+01   -1.090E+01   -1.089E+01   -1.089E+01   -1.088E+01   -1.087E+01   -1.087E+01
    -1.086E+01   -1.086E+01   -1.085E+01   -1.084E+01   -1.083E+01   -1.083E+01   -1.082E+01   -1.081E+01   -1.080E+01   -1.079E+01
    -1.079E+01   -1.078E+01   -1.077E+01   -1.076E+01   -1.075E+01   -1.074E+01   -1.073E+01   -1.072E+01   -1.071E+01   -1.070E+01
    -1.069E+01   -1.068E+01   -1.067E+01   -1.066E+01   -1.064E+01   -1.063E+01   -1.062E+01   -1.061E+01   -1.060E+01   -1.058E+01
    -1.057E+01   -1.056E+01   -1.055E+01   -1.053E+01   -1.052E+01   -1.051E+01   -1.049E+01   -1.048E+01   -1.046E+01   -1.045E+01
    -1.044E+01   -1.042E+01   -1.041E+01   -1.039E+01   -1.038E+01   -1.036E+01   -1.034E+01   -1.033E+01   -1.031E+01   -1.030E+01
    -1.028E+01   -1.026E+01   -1.025E+01   -1.023E+01   -1.021E+01   -1.020E+01   -1.018E+01   -1.016E+01   -1.014E+01   -1.013E+01
    -1.011E+01   -1.009E+01   -1.007E+01   -1.005E+01   -1.003E+01   -1.001E+01   -9.994E+00   -9.975E+00   -9.956E+00   -9.936E+00
    -9.916E+00   -9.896E+00   -9.876E+00   -9.856E+00   -9.835E+00   -9.814E+00   -9.794E+00   -9.773E+00   -9.752E+00   -9.730E+00
    -9.709E+00   -9.687E+00   -9.666E+00   -9.644E+00   -9.622E+00   -9.599E+00   -9.577E+00   -9.555E+00   -9.532E+00   -9.509E+00
    -9.486E+00   -9.463E+00   -9.440E+00   -9.417E+00   -9.393E+00   -9.370E+00   -9.346E+00   -9.322E+00   -9.298E+00   -9.274E+00
    -9.250E+00   -9.225E+00   -9.201E+00   -9.176E+00   -9.151E+00   -9.126E+00   -9.101E+00   -9.076E+00   -9.051E+00   -9.025E+00
    -9.000E+00   -8.974E+00   -8.948E+00   -8.922E+00   -8.896E+00   -8.870E+00   -8.844E+00   -8.818E+00   -8.791E+00   -8.765E+00
    -8.738E+00   -8.711E+00   -8.684E+00   -8.657E+00   -8.630E+00   -8.603E+00   -8.576E+00   -8.548E+00   -8.521E+00   -8.493E+00
    -8.466E+00   -8.438E+00   -8.410E+00   -8.382E+00   -8.354E+00   -8.326E+00   -8.297E+00   -8.269E+00   -8.241E+00   -8.212E+00
    -8.184E+00   -8.155E+00   -8.126E+00   -8.097E+00   -8.068E+00   -8.039E+00   -8.010E+00   -7.981E+00   -7.952E+00   -7.923E+00
    -7.893E+00   -7.864E+00   -7.834E+00   -7.805E+00   -7.775E+00   -7.745E+00   -7.715E+00   -7.686E+00   -7.656E+00   -7.626E+00
    -7.596E+00   -7.566E+00   -7.535E+00   -7.505E+00   -7.475E+00   -7.445E+00   -7.414E+00   -7.384E+00   -7.353E+00   -7.323E+00
    -7.292E+00   -7.262E+00   -7.231E+00   -7.200E+00   -7.170E+00   -7.139E+00   -7.108E+00   -7.077E+00   -7.046E+00   -7.015E+00
    -6.984E+00   -6.953E+00   -6.922E+00   -6.891E+00   -6.860E+00   -6.829E+00   -6.798E+00   -6.766E+00   -6.735E+00   -6.704E+00
    -6.673E+00   -6.641E+00   -6.610E+00   -6.579E+00   -6.547E+00   -6.516E+00   -6.484E+00   -6.453E+00   -6.422E+00   -6.390E+00
    -6.359E+00   -6.327E+00   -6.296E+00   -6.264E+00   -6.233E+00   -6.201E+00   -6.170E+00   -6.138E+00   -6.107E+00   -6.075E+00
    -6.044E+00   -6.012E+00   -5.981E+00   -5.949E+00   -5.918E+00   -5.886E+00   -5.855E+00   -5.823E+00
 Ala      Conc. = 7.06E+01
