 LCModel (Version 6.3-1L) Copyright: S.W. Provencher.          Ref.: Magn. Reson. Med. 30:672-679 (1993).                
 Slice#1 Row#14 Col#1  PD_05_press_1_raw_act
 36 lines in following concentration table = NCONC+1
    Conc.  %SD /Cr+PCr  Metabolite                                         
   23.319  76%   0.000 Ala                                                 
    0.846 129%   0.000 Asp                                                 
    0.000 999%   0.000 Cr                                                  
    0.000 999%   0.000 PCr                                                 
    0.500 131%   0.000 GABA                                                
    0.487 134%   0.000 Glc                                                 
    0.000 999%   0.000 Gln                                                 
   73.729  56%   0.000 Glu                                                 
    0.000 999%   0.000 GPC                                                 
    5.635  63%   0.000 PCh                                                 
    0.000 999%   0.000 GSH                                                 
    0.000 999%   0.000 Ins                                                 
    3.883 452%   0.000 Lac                                                 
    0.000 999%   0.000 NAA                                                 
    0.000 999%   0.000 NAAG                                                
    0.175 125%   0.000 Scyllo                                              
    0.832 131%   0.000 Tau                                                 
 2.72E-03 999%   0.000 -CrCH2                                              
    5.635  63%   0.000 GPC+PCh                                             
    0.000 999%   0.000 NAA+NAAG                                            
    0.000 999%   0.000 Cr+PCr                                              
   73.729  56%   0.000 Glu+Gln                                             
    0.000 999%   0.000 Lip13a                                              
    0.000 999%   0.000 Lip13b                                              
 5.45E-06 999%   0.000 Lip09                                               
    0.294 999%   0.000 MM09                                                
    0.000 999%   0.000 Lip20                                               
    0.000 999%   0.000 MM20                                                
    0.000 999%   0.000 MM12                                                
    0.000 999%   0.000 MM14                                                
    0.000 999%   0.000 MM17                                                
    0.000 999%   0.000 Lip13a+Lip13b                                       
    0.000 999%   0.000 MM14+Lip13a+Lip13b+MM12                             
    0.294 999%   0.000 MM09+Lip09                                          
    0.000 999%   0.000 MM20+Lip20                                          
   6 lines in following misc. output table
  FWHM = 0.031 ppm    S/N =   0                                            
  Data shift =-0.023 ppm                                                   
  Ph: -28 deg     -11.7 deg/ppm                                            
  alphaB,S = 8.5E+01,   6.4E+00                                            
   14 spline knots.   Ns = 5(1)                                            
   2 inflections.     1 extrema                                            
  498 points on ppm-axis = NY
      4.000000     3.992357     3.984714     3.977070     3.969427     3.961784     3.954141     3.946497     3.938854     3.931211
      3.923568     3.915925     3.908281     3.900638     3.892995     3.885352     3.877708     3.870065     3.862422     3.854779
      3.847136     3.839492     3.831849     3.824206     3.816563     3.808919     3.801276     3.793633     3.785990     3.778347
      3.770703     3.763060     3.755417     3.747774     3.740130     3.732487     3.724844     3.717201     3.709558     3.701914
      3.694271     3.686628     3.678985     3.671341     3.663698     3.656055     3.648412     3.640769     3.633125     3.625482
      3.617839     3.610196     3.602552     3.594909     3.587266     3.579623     3.571980     3.564336     3.556693     3.549050
      3.541407     3.533763     3.526120     3.518477     3.510834     3.503191     3.495547     3.487904     3.480261     3.472618
      3.464974     3.457331     3.449688     3.442045     3.434402     3.426758     3.419115     3.411472     3.403829     3.396185
      3.388542     3.380899     3.373256     3.365613     3.357969     3.350326     3.342683     3.335040     3.327396     3.319753
      3.312110     3.304467     3.296824     3.289180     3.281537     3.273894     3.266251     3.258607     3.250964     3.243321
      3.235678     3.228034     3.220391     3.212748     3.205105     3.197462     3.189818     3.182175     3.174532     3.166889
      3.159245     3.151602     3.143959     3.136316     3.128673     3.121029     3.113386     3.105743     3.098100     3.090456
      3.082813     3.075170     3.067527     3.059884     3.052240     3.044597     3.036954     3.029311     3.021667     3.014024
      3.006381     2.998738     2.991095     2.983451     2.975808     2.968165     2.960522     2.952878     2.945235     2.937592
      2.929949     2.922306     2.914662     2.907019     2.899376     2.891733     2.884089     2.876446     2.868803     2.861160
      2.853517     2.845873     2.838230     2.830587     2.822944     2.815300     2.807657     2.800014     2.792371     2.784728
      2.777084     2.769441     2.761798     2.754155     2.746511     2.738868     2.731225     2.723582     2.715939     2.708295
      2.700652     2.693009     2.685366     2.677722     2.670079     2.662436     2.654793     2.647150     2.639506     2.631863
      2.624220     2.616577     2.608933     2.601290     2.593647     2.586004     2.578361     2.570717     2.563074     2.555431
      2.547788     2.540144     2.532501     2.524858     2.517215     2.509572     2.501928     2.494285     2.486642     2.478999
      2.471355     2.463712     2.456069     2.448426     2.440783     2.433139     2.425496     2.417853     2.410210     2.402566
      2.394923     2.387280     2.379637     2.371994     2.364350     2.356707     2.349064     2.341421     2.333777     2.326134
      2.318491     2.310848     2.303205     2.295561     2.287918     2.280275     2.272632     2.264988     2.257345     2.249702
      2.242059     2.234416     2.226772     2.219129     2.211486     2.203843     2.196199     2.188556     2.180913     2.173270
      2.165627     2.157983     2.150340     2.142697     2.135054     2.127410     2.119767     2.112124     2.104481     2.096838
      2.089194     2.081551     2.073908     2.066265     2.058621     2.050978     2.043335     2.035692     2.028049     2.020405
      2.012762     2.005119     1.997476     1.989833     1.982190     1.974546     1.966903     1.959260     1.951617     1.943974
      1.936331     1.928688     1.921045     1.913402     1.905759     1.898115     1.890472     1.882829     1.875186     1.867543
      1.859900     1.852257     1.844614     1.836971     1.829327     1.821684     1.814041     1.806398     1.798755     1.791112
      1.783469     1.775826     1.768183     1.760540     1.752896     1.745253     1.737610     1.729967     1.722324     1.714681
      1.707038     1.699395     1.691752     1.684108     1.676465     1.668822     1.661179     1.653536     1.645893     1.638250
      1.630607     1.622964     1.615321     1.607677     1.600034     1.592391     1.584748     1.577105     1.569462     1.561819
      1.554176     1.546533     1.538890     1.531246     1.523603     1.515960     1.508317     1.500674     1.493031     1.485388
      1.477745     1.470102     1.462458     1.454815     1.447172     1.439529     1.431886     1.424243     1.416600     1.408957
      1.401314     1.393671     1.386027     1.378384     1.370741     1.363098     1.355455     1.347812     1.340169     1.332526
      1.324883     1.317240     1.309596     1.301953     1.294310     1.286667     1.279024     1.271381     1.263738     1.256095
      1.248452     1.240808     1.233165     1.225522     1.217879     1.210236     1.202593     1.194950     1.187307     1.179664
      1.172021     1.164377     1.156734     1.149091     1.141448     1.133805     1.126162     1.118519     1.110876     1.103233
      1.095590     1.087946     1.080303     1.072660     1.065017     1.057374     1.049731     1.042088     1.034445     1.026802
      1.019158     1.011515     1.003872     0.996229     0.988586     0.980943     0.973300     0.965657     0.958014     0.950371
      0.942727     0.935084     0.927441     0.919798     0.912155     0.904512     0.896869     0.889226     0.881583     0.873940
      0.866296     0.858653     0.851010     0.843367     0.835724     0.828081     0.820438     0.812795     0.805152     0.797508
      0.789865     0.782222     0.774579     0.766936     0.759293     0.751650     0.744007     0.736364     0.728721     0.721077
      0.713434     0.705791     0.698148     0.690505     0.682862     0.675219     0.667576     0.659933     0.652290     0.644646
      0.637003     0.629360     0.621717     0.614074     0.606431     0.598788     0.591145     0.583502     0.575858     0.568215
      0.560572     0.552929     0.545286     0.537643     0.530000     0.522357     0.514714     0.507071     0.499427     0.491784
      0.484141     0.476498     0.468855     0.461212     0.453569     0.445925     0.438282     0.430639     0.422996     0.415353
      0.407710     0.400067     0.392424     0.384780     0.377137     0.369494     0.361851     0.354208     0.346565     0.338922
      0.331278     0.323635     0.315992     0.308349     0.300706     0.293063     0.285420     0.277777     0.270133     0.262490
      0.254847     0.247204     0.239561     0.231918     0.224275     0.216631     0.208988     0.201345
 NY phased data points follow
  -3.61610E+00 -1.91312E+00 -3.79989E+00 -3.56802E+00 -2.95543E+00 -3.07837E+00 -2.60600E+00 -2.78654E+00 -2.67890E+00 -3.85818E+00
  -1.83585E+00 -2.97970E+00 -1.19216E+00 -1.91797E+00 -1.60599E+00 -3.64629E+00 -3.48166E+00 -2.17286E+00 -2.56000E+00 -2.88064E+00
  -3.21030E+00 -1.57045E+00 -3.68008E+00 -4.66511E+00 -1.99701E+00 -3.51328E+00 -2.35504E+00 -2.46427E+00 -3.19139E+00 -1.74175E+00
  -3.41651E+00 -3.62643E+00 -2.83544E+00 -2.11332E+00 -5.47375E-01 -2.56531E+00 -2.00802E+00 -9.79478E-01 -3.39364E+00 -2.92555E+00
  -1.57944E+00 -1.09367E+00 -8.05011E-01 -3.82391E+00 -2.81664E+00 -2.32179E+00 -1.32638E+00 -3.10699E+00 -3.08158E+00 -2.77068E+00
   9.09845E-02 -1.11212E+00 -3.10497E+00 -2.68500E+00 -2.04160E+00 -1.64805E+00 -2.52984E+00 -2.52641E+00 -2.55154E+00 -2.20441E+00
  -2.29723E+00 -2.54703E+00 -6.70115E-01 -4.58669E-01 -1.81699E+00 -1.46824E+00 -8.68696E-01 -2.23789E+00 -2.89119E+00 -1.09371E+00
  -3.11539E+00 -1.96840E+00 -3.71703E+00 -2.71357E+00 -3.24479E+00 -2.38899E+00 -2.84013E+00 -2.46223E+00 -2.38381E+00 -4.30895E-01
  -2.91181E+00 -1.52315E+00 -2.73430E+00 -2.56278E+00 -9.37787E-01 -2.63804E+00 -8.40608E-01 -1.16768E+00 -8.83853E-01 -3.36897E+00
  -1.08559E+00 -1.99940E+00 -1.13297E+00 -7.97999E-01  3.34810E-01 -2.88354E+00 -4.09238E-01 -2.56766E+00 -1.77064E+00 -1.17028E+00
  -1.66741E+00 -1.62794E+00  1.52913E-01 -1.07145E+00 -1.19360E+00 -1.91365E+00 -1.69292E+00 -1.22116E+00 -1.53519E+00 -1.35786E+00
  -2.72204E+00 -9.04222E-01 -1.83788E+00 -6.38969E-01 -2.19504E+00 -2.91135E+00 -1.27315E-01 -9.90373E-01 -9.90959E-01 -3.26990E+00
  -8.05144E-01 -1.33440E+00 -2.37697E+00 -1.15402E+00 -2.15424E+00 -8.75533E-01 -2.30319E+00 -2.02647E+00 -1.90313E+00 -1.92775E+00
  -3.51864E+00 -3.11852E+00 -2.92093E+00 -2.47784E+00 -1.53228E+00 -7.91041E-01 -1.02661E+00 -5.71964E-01 -3.21059E-01 -1.67103E+00
   4.55493E-01 -1.91643E-01 -2.69228E+00 -1.22900E+00 -1.90359E+00 -1.53066E+00 -6.63088E-01 -1.61982E+00 -1.73424E+00 -1.25405E+00
  -7.40297E-01 -1.90708E+00  1.00420E-01 -1.57040E+00 -2.18211E+00 -2.11356E+00 -1.73148E+00 -1.78791E+00 -2.99910E+00 -1.04644E+00
  -4.27183E-01 -2.78899E+00 -2.80910E+00 -1.28256E+00 -1.27622E+00 -1.78185E+00 -7.16754E-01 -2.49681E+00 -3.01769E+00 -1.18774E+00
   3.65469E-01 -7.86678E-01 -3.14478E+00 -2.16789E+00 -2.63157E+00 -4.06031E-01 -1.46252E+00 -1.55004E+00 -4.24706E-01 -2.32559E+00
  -2.14228E+00 -1.17608E+00 -1.37803E+00 -5.51290E-01 -8.16132E-01 -2.38336E+00  1.97827E-01 -1.71736E+00 -6.59242E-01 -2.59167E-01
  -1.56437E+00 -1.66989E+00 -1.60659E+00  3.13151E-01 -3.17793E+00 -1.23899E+00 -1.28312E+00 -2.81459E+00  3.67539E-02 -3.12455E-01
  -2.33798E+00 -3.42142E+00 -9.10918E-01 -1.45169E+00 -1.28136E+00 -1.59669E+00 -2.12803E+00 -7.73519E-01 -2.29778E+00 -1.99964E+00
  -2.52735E+00 -3.95794E-03 -8.41817E-01 -2.32145E+00 -1.00654E+00 -6.77264E-01  2.74145E-01 -2.28375E+00 -1.51203E+00 -1.66813E+00
  -1.72912E+00 -1.13276E+00 -5.06045E+00 -1.76090E+00 -2.10930E+00 -1.76232E+00 -1.56841E+00 -7.37996E-01 -2.24958E+00 -1.59849E+00
  -1.42354E+00 -1.12755E+00 -2.19353E+00 -1.68361E+00 -7.12629E-01 -5.61458E-02 -1.26715E+00 -3.33866E-01 -9.30781E-01 -1.32682E+00
  -1.68638E-01 -1.97736E+00 -7.48934E-01 -3.52106E-01 -1.26474E+00 -5.08018E-01 -4.45810E-01 -2.39221E-01 -8.64029E-01 -5.42472E-01
  -2.54761E+00 -2.84033E+00 -6.60229E-01 -2.13221E+00 -1.14842E+00 -7.67682E-01 -1.84971E+00 -1.39054E+00 -1.78836E+00 -2.36076E+00
  -8.19409E-01 -2.27198E+00 -3.51323E-02 -1.99203E+00 -3.13966E+00 -3.12504E-01 -2.56060E+00 -1.56196E+00 -1.55809E+00 -1.69693E+00
  -3.31838E-01  1.78739E-01 -5.15586E-01 -9.24246E-01 -1.82619E+00 -5.33677E-01 -7.09690E-01 -1.43197E+00 -9.65487E-01 -2.39872E+00
  -1.33662E+00 -1.78755E+00 -1.54911E+00 -2.34928E+00 -2.70955E+00 -1.13893E+00  6.43643E-01 -5.03335E-01 -5.40921E-01 -1.19845E+00
  -7.38227E-01 -1.48345E+00 -9.11666E-01 -1.79436E+00 -2.82852E+00 -1.64609E+00 -1.58530E+00 -1.52063E+00 -7.26815E-01 -2.38394E+00
  -1.17812E+00 -7.90949E-01  2.29663E-02 -2.43095E+00 -1.33135E+00 -8.59280E-01 -2.94210E-01 -1.69462E-01 -1.93734E+00 -1.22796E+00
  -1.50939E+00 -2.60057E+00 -1.03024E+00 -2.56004E+00 -3.35910E-01 -1.82830E+00 -1.11804E+00  9.18582E-01 -3.91927E-01 -1.75039E+00
  -3.03010E+00 -7.45085E-01 -1.95294E+00  2.26982E-01 -1.19651E+00 -1.40406E-01 -2.53672E+00  3.69537E-02 -7.57020E-01 -7.51369E-01
  -1.34186E+00 -2.13339E+00 -1.88179E+00 -3.75107E-01 -2.13729E-01 -7.51747E-01 -1.12594E-01  4.89145E-01  1.07300E-01  2.32329E-01
  -1.65556E+00 -9.69397E-02 -1.41169E-01  1.52204E+00 -1.14279E+00  2.27513E-02 -1.22308E+00 -2.18357E+00 -1.10232E+00 -2.70133E+00
  -1.01317E+00 -1.14228E+00 -2.34613E+00 -1.49913E+00 -1.17506E+00 -2.06288E+00 -2.69279E+00 -9.53027E-01 -1.59651E+00 -2.31484E+00
  -3.14263E-01 -2.80517E+00  2.49343E-01 -1.38366E+00  5.15651E-02 -2.13228E+00 -1.73771E+00 -2.51602E+00 -1.08672E+00 -1.22709E+00
  -6.05993E-01 -4.77933E-01 -4.49996E-01 -2.95086E+00  2.73261E-01 -5.98000E-01 -5.60753E-01  1.02412E+00 -1.24272E+00  6.37317E-01
   1.03543E+00 -3.21552E-01 -6.84409E-01 -1.38309E+00 -7.35851E-02 -7.40151E-02 -1.14707E+00 -8.48842E-01 -1.11615E+00 -6.37986E-01
  -2.50924E-01 -1.21709E+00 -8.51686E-01 -4.27594E-01 -5.21720E-01 -1.51257E-01  3.70239E-01  3.46795E-01 -1.48034E+00 -3.47731E-01
   4.06711E-01 -2.90620E-01  5.94408E-01 -1.74297E-02 -5.66151E-02 -1.35862E+00 -1.73106E+00 -1.26795E+00  2.03257E-01 -1.11960E-01
  -9.70012E-01 -5.92943E-01 -5.46411E-01 -8.21986E-01 -3.79493E-01 -4.03131E-01 -7.82780E-01  8.42925E-01 -1.86108E+00 -2.25339E-01
   1.33959E+00 -1.81869E+00 -1.59688E+00  8.45904E-01  1.12525E+00 -2.05861E+00 -1.15851E+00 -1.98742E+00 -7.70290E-01 -8.89995E-01
   5.29469E-01 -4.29558E-01 -1.30042E-01  1.35650E+00  2.27605E-03 -3.07847E-01 -4.90520E-01 -8.96299E-01 -1.97124E+00 -3.32973E-01
  -2.08610E+00  4.88760E-01 -2.01410E-01 -1.60865E+00 -6.92397E-01 -1.18480E+00  7.43910E-01 -2.70073E+00 -3.10041E-01  8.86080E-01
  -3.06508E-01 -1.66141E+00 -3.06830E-02 -8.86334E-01  1.29074E+00 -1.64916E-01 -2.13449E-01 -2.06331E+00 -5.61241E-01  7.17752E-01
  -1.16254E+00 -1.84789E+00 -8.71150E-01  1.07502E-01  5.49458E-01 -8.36277E-01 -3.82861E-02 -1.48888E+00  9.77281E-01  2.94768E-02
  -1.35193E+00 -5.69307E-01 -1.63231E-01 -5.54778E-01 -1.88680E+00  2.60746E-02  1.80394E-01 -3.23759E-02 -2.66952E-01 -2.02608E-01
  -5.64064E-02  9.11165E-02 -3.39714E-01  9.96649E-01 -6.64798E-01  3.12242E-01 -1.07080E+00 -3.32818E-01  6.23520E-01 -8.27469E-01
   5.47698E-01 -3.00586E-01 -6.10512E-02 -1.01176E-01 -1.36856E-01 -3.35154E-01 -1.22587E-01  1.49738E-01
 NY points of the fit to the data follow
  -2.24404E+00 -2.23675E+00 -2.23033E+00 -2.22511E+00 -2.22018E+00 -2.21493E+00 -2.21013E+00 -2.20625E+00 -2.20289E+00 -2.19892E+00
  -2.19353E+00 -2.18736E+00 -2.18232E+00 -2.17988E+00 -2.17721E+00 -2.17553E+00 -2.17869E+00 -2.18141E+00 -2.17218E+00 -2.14423E+00
  -2.10012E+00 -2.05168E+00 -2.00686E+00 -1.97061E+00 -1.94442E+00 -1.96322E+00 -2.06745E+00 -2.22958E+00 -2.36550E+00 -2.40622E+00
  -2.33275E+00 -2.15213E+00 -1.91312E+00 -1.72501E+00 -1.68135E+00 -1.78343E+00 -1.97890E+00 -2.17139E+00 -2.26280E+00 -2.22461E+00
  -2.11689E+00 -2.02166E+00 -1.97417E+00 -1.97207E+00 -1.99460E+00 -2.01315E+00 -2.01745E+00 -2.01719E+00 -2.01750E+00 -2.01971E+00
  -2.02111E+00 -2.01885E+00 -2.01246E+00 -2.00522E+00 -2.00038E+00 -1.99819E+00 -1.99776E+00 -1.99764E+00 -1.99601E+00 -1.99308E+00
  -1.98966E+00 -1.98592E+00 -1.98202E+00 -1.97810E+00 -1.97389E+00 -1.96965E+00 -1.96592E+00 -1.96280E+00 -1.96019E+00 -1.95779E+00
  -1.95483E+00 -1.95089E+00 -1.94630E+00 -1.94051E+00 -1.93334E+00 -1.92649E+00 -1.92223E+00 -1.92083E+00 -1.92093E+00 -1.92061E+00
  -1.91786E+00 -1.91174E+00 -1.90424E+00 -1.89687E+00 -1.88826E+00 -1.87883E+00 -1.87166E+00 -1.86890E+00 -1.86969E+00 -1.87133E+00
  -1.87125E+00 -1.86870E+00 -1.86494E+00 -1.86144E+00 -1.85758E+00 -1.85182E+00 -1.84185E+00 -1.82153E+00 -1.76944E+00 -1.70089E+00
  -1.61577E+00 -1.42676E+00 -1.14446E+00 -9.36965E-01 -9.51968E-01 -1.17190E+00 -1.46289E+00 -1.69781E+00 -1.80758E+00 -1.80896E+00
  -1.78510E+00 -1.77876E+00 -1.77662E+00 -1.77434E+00 -1.77160E+00 -1.76864E+00 -1.76549E+00 -1.76226E+00 -1.75920E+00 -1.75617E+00
  -1.75288E+00 -1.74935E+00 -1.74571E+00 -1.74190E+00 -1.73767E+00 -1.73286E+00 -1.72772E+00 -1.72274E+00 -1.71821E+00 -1.71413E+00
  -1.71044E+00 -1.70717E+00 -1.70444E+00 -1.70194E+00 -1.69900E+00 -1.69536E+00 -1.69117E+00 -1.68674E+00 -1.68213E+00 -1.67752E+00
  -1.67340E+00 -1.66976E+00 -1.66619E+00 -1.66215E+00 -1.65727E+00 -1.65205E+00 -1.64749E+00 -1.64399E+00 -1.64109E+00 -1.63805E+00
  -1.63448E+00 -1.63044E+00 -1.62621E+00 -1.62207E+00 -1.61808E+00 -1.61420E+00 -1.61033E+00 -1.60661E+00 -1.60320E+00 -1.59985E+00
  -1.59611E+00 -1.59185E+00 -1.58731E+00 -1.58292E+00 -1.57861E+00 -1.57389E+00 -1.56856E+00 -1.56299E+00 -1.55783E+00 -1.55337E+00
  -1.54954E+00 -1.54603E+00 -1.54236E+00 -1.53819E+00 -1.53375E+00 -1.52950E+00 -1.52571E+00 -1.52229E+00 -1.51901E+00 -1.51559E+00
  -1.51170E+00 -1.50730E+00 -1.50234E+00 -1.49679E+00 -1.49129E+00 -1.48655E+00 -1.48248E+00 -1.47843E+00 -1.47408E+00 -1.46950E+00
  -1.46503E+00 -1.46089E+00 -1.45651E+00 -1.45104E+00 -1.44434E+00 -1.43693E+00 -1.42870E+00 -1.41956E+00 -1.41016E+00 -1.40095E+00
  -1.39097E+00 -1.37866E+00 -1.36661E+00 -1.35053E+00 -1.33170E+00 -1.33301E+00 -1.35842E+00 -1.40270E+00 -1.46161E+00 -1.51661E+00
  -1.53731E+00 -1.48303E+00 -1.36979E+00 -1.19690E+00 -9.60468E-01 -7.63172E-01 -7.45527E-01 -9.49889E-01 -1.28299E+00 -1.62263E+00
  -1.91765E+00 -2.12944E+00 -2.17106E+00 -2.00545E+00 -1.68855E+00 -1.34952E+00 -1.10776E+00 -1.00819E+00 -1.02435E+00 -1.09126E+00
  -1.15996E+00 -1.21630E+00 -1.25081E+00 -1.25456E+00 -1.23482E+00 -1.20919E+00 -1.19357E+00 -1.19470E+00 -1.22195E+00 -1.26538E+00
  -1.31212E+00 -1.34935E+00 -1.35392E+00 -1.30447E+00 -1.21870E+00 -1.14480E+00 -1.10933E+00 -1.11096E+00 -1.14962E+00 -1.22189E+00
  -1.29148E+00 -1.31925E+00 -1.29032E+00 -1.22711E+00 -1.16106E+00 -1.12633E+00 -1.14237E+00 -1.18914E+00 -1.21787E+00 -1.19546E+00
  -1.13793E+00 -1.07656E+00 -1.02946E+00 -1.01561E+00 -1.03871E+00 -1.07501E+00 -1.10336E+00 -1.12016E+00 -1.12893E+00 -1.13220E+00
  -1.13510E+00 -1.13563E+00 -1.12106E+00 -1.08945E+00 -1.05622E+00 -1.03433E+00 -1.02758E+00 -1.03206E+00 -1.04186E+00 -1.05136E+00
  -1.05755E+00 -1.05922E+00 -1.05604E+00 -1.04959E+00 -1.04216E+00 -1.03574E+00 -1.03154E+00 -1.02895E+00 -1.02653E+00 -1.02387E+00
  -1.02086E+00 -1.01752E+00 -1.01388E+00 -1.01006E+00 -1.00616E+00 -1.00211E+00 -9.97937E-01 -9.93781E-01 -9.89619E-01 -9.85411E-01
  -9.81162E-01 -9.76728E-01 -9.72020E-01 -9.67150E-01 -9.62315E-01 -9.57600E-01 -9.52943E-01 -9.48211E-01 -9.43261E-01 -9.38019E-01
  -9.32501E-01 -9.26702E-01 -9.20552E-01 -9.13957E-01 -9.06800E-01 -8.98921E-01 -8.90081E-01 -8.79915E-01 -8.67837E-01 -8.52856E-01
  -8.33050E-01 -8.03775E-01 -7.58298E-01 -7.15405E-01 -6.65592E-01 -5.86022E-01 -5.49952E-01 -6.57431E-01 -9.02420E-01 -1.17339E+00
  -1.34724E+00 -1.39168E+00 -1.35208E+00 -1.22838E+00 -1.00744E+00 -7.33320E-01 -5.13015E-01 -4.30807E-01 -4.77345E-01 -5.89772E-01
  -6.91221E-01 -7.34054E-01 -7.35794E-01 -7.34196E-01 -7.30619E-01 -7.19813E-01 -7.13698E-01 -7.30651E-01 -7.71677E-01 -8.18062E-01
  -8.47481E-01 -8.56024E-01 -8.47013E-01 -8.18026E-01 -7.73418E-01 -7.27253E-01 -6.96425E-01 -6.89042E-01 -6.99635E-01 -7.16587E-01
  -7.28157E-01 -7.30083E-01 -7.28011E-01 -7.25805E-01 -7.23354E-01 -7.20625E-01 -7.17673E-01 -7.14542E-01 -7.11263E-01 -7.07864E-01
  -7.04369E-01 -7.00803E-01 -6.97180E-01 -6.93505E-01 -6.89779E-01 -6.86008E-01 -6.82203E-01 -6.78372E-01 -6.74517E-01 -6.70636E-01
  -6.66727E-01 -6.62792E-01 -6.58839E-01 -6.54871E-01 -6.50887E-01 -6.46882E-01 -6.42855E-01 -6.38810E-01 -6.34751E-01 -6.30681E-01
  -6.26597E-01 -6.22495E-01 -6.18378E-01 -6.14251E-01 -6.10120E-01 -6.05987E-01 -6.01849E-01 -5.97708E-01 -5.93569E-01 -5.89438E-01
  -5.85320E-01 -5.81217E-01 -5.77125E-01 -5.73046E-01 -5.68985E-01 -5.64945E-01 -5.60927E-01 -5.56926E-01 -5.52937E-01 -5.48961E-01
  -5.44997E-01 -5.41046E-01 -5.37104E-01 -5.33163E-01 -5.29219E-01 -5.25273E-01 -5.21325E-01 -5.17374E-01 -5.13417E-01 -5.09448E-01
  -5.05468E-01 -5.01478E-01 -4.97483E-01 -4.93480E-01 -4.89467E-01 -4.85443E-01 -4.81409E-01 -4.77370E-01 -4.73328E-01 -4.69280E-01
  -4.65226E-01 -4.61163E-01 -4.57096E-01 -4.53028E-01 -4.48959E-01 -4.44887E-01 -4.40810E-01 -4.36729E-01 -4.32647E-01 -4.28567E-01
  -4.24486E-01 -4.20402E-01 -4.16313E-01 -4.12222E-01 -4.08132E-01 -4.04043E-01 -3.99954E-01 -3.95862E-01 -3.91767E-01 -3.87671E-01
  -3.83578E-01 -3.79485E-01 -3.75390E-01 -3.71293E-01 -3.67193E-01 -3.63094E-01 -3.58997E-01 -3.54899E-01 -3.50799E-01 -3.46697E-01
  -3.42595E-01 -3.38494E-01 -3.34395E-01 -3.30294E-01 -3.26191E-01 -3.22086E-01 -3.17981E-01 -3.13879E-01 -3.09777E-01 -3.05674E-01
  -3.01568E-01 -2.97461E-01 -2.93355E-01 -2.89250E-01 -2.85145E-01 -2.81037E-01 -2.76926E-01 -2.72816E-01 -2.68708E-01 -2.64601E-01
  -2.60492E-01 -2.56380E-01 -2.52267E-01 -2.48155E-01 -2.44044E-01 -2.39934E-01 -2.35820E-01 -2.31704E-01 -2.27588E-01 -2.23472E-01
  -2.19357E-01 -2.15242E-01 -2.11123E-01 -2.07001E-01 -2.02878E-01 -1.98757E-01 -1.94635E-01 -1.90510E-01
 NY background values follow
    -2.243E+00   -2.239E+00   -2.235E+00   -2.231E+00   -2.227E+00   -2.223E+00   -2.218E+00   -2.214E+00   -2.210E+00   -2.206E+00
    -2.202E+00   -2.198E+00   -2.194E+00   -2.190E+00   -2.185E+00   -2.181E+00   -2.177E+00   -2.173E+00   -2.169E+00   -2.165E+00
    -2.161E+00   -2.157E+00   -2.153E+00   -2.148E+00   -2.144E+00   -2.140E+00   -2.136E+00   -2.132E+00   -2.128E+00   -2.124E+00
    -2.120E+00   -2.116E+00   -2.111E+00   -2.107E+00   -2.103E+00   -2.099E+00   -2.095E+00   -2.091E+00   -2.087E+00   -2.083E+00
    -2.078E+00   -2.074E+00   -2.070E+00   -2.066E+00   -2.062E+00   -2.058E+00   -2.054E+00   -2.050E+00   -2.046E+00   -2.041E+00
    -2.037E+00   -2.033E+00   -2.029E+00   -2.025E+00   -2.021E+00   -2.017E+00   -2.013E+00   -2.008E+00   -2.004E+00   -2.000E+00
    -1.996E+00   -1.992E+00   -1.988E+00   -1.984E+00   -1.980E+00   -1.975E+00   -1.971E+00   -1.967E+00   -1.963E+00   -1.959E+00
    -1.955E+00   -1.951E+00   -1.947E+00   -1.943E+00   -1.938E+00   -1.934E+00   -1.930E+00   -1.926E+00   -1.922E+00   -1.918E+00
    -1.914E+00   -1.910E+00   -1.905E+00   -1.901E+00   -1.897E+00   -1.893E+00   -1.889E+00   -1.885E+00   -1.881E+00   -1.877E+00
    -1.872E+00   -1.868E+00   -1.864E+00   -1.860E+00   -1.856E+00   -1.852E+00   -1.848E+00   -1.844E+00   -1.839E+00   -1.835E+00
    -1.831E+00   -1.827E+00   -1.823E+00   -1.819E+00   -1.815E+00   -1.811E+00   -1.807E+00   -1.802E+00   -1.798E+00   -1.794E+00
    -1.790E+00   -1.786E+00   -1.782E+00   -1.778E+00   -1.774E+00   -1.769E+00   -1.765E+00   -1.761E+00   -1.757E+00   -1.753E+00
    -1.749E+00   -1.745E+00   -1.741E+00   -1.736E+00   -1.732E+00   -1.728E+00   -1.724E+00   -1.720E+00   -1.716E+00   -1.712E+00
    -1.708E+00   -1.703E+00   -1.699E+00   -1.695E+00   -1.691E+00   -1.687E+00   -1.683E+00   -1.679E+00   -1.675E+00   -1.670E+00
    -1.666E+00   -1.662E+00   -1.658E+00   -1.654E+00   -1.650E+00   -1.646E+00   -1.642E+00   -1.637E+00   -1.633E+00   -1.629E+00
    -1.625E+00   -1.621E+00   -1.617E+00   -1.613E+00   -1.609E+00   -1.604E+00   -1.600E+00   -1.596E+00   -1.592E+00   -1.588E+00
    -1.584E+00   -1.580E+00   -1.575E+00   -1.571E+00   -1.567E+00   -1.563E+00   -1.559E+00   -1.555E+00   -1.551E+00   -1.547E+00
    -1.542E+00   -1.538E+00   -1.534E+00   -1.530E+00   -1.526E+00   -1.522E+00   -1.518E+00   -1.514E+00   -1.509E+00   -1.505E+00
    -1.501E+00   -1.497E+00   -1.493E+00   -1.489E+00   -1.485E+00   -1.481E+00   -1.476E+00   -1.472E+00   -1.468E+00   -1.464E+00
    -1.460E+00   -1.456E+00   -1.452E+00   -1.448E+00   -1.443E+00   -1.439E+00   -1.435E+00   -1.431E+00   -1.427E+00   -1.423E+00
    -1.419E+00   -1.414E+00   -1.410E+00   -1.406E+00   -1.402E+00   -1.398E+00   -1.394E+00   -1.390E+00   -1.386E+00   -1.381E+00
    -1.377E+00   -1.373E+00   -1.369E+00   -1.365E+00   -1.361E+00   -1.357E+00   -1.353E+00   -1.348E+00   -1.344E+00   -1.340E+00
    -1.336E+00   -1.332E+00   -1.328E+00   -1.324E+00   -1.320E+00   -1.315E+00   -1.311E+00   -1.307E+00   -1.303E+00   -1.299E+00
    -1.295E+00   -1.291E+00   -1.286E+00   -1.282E+00   -1.278E+00   -1.274E+00   -1.270E+00   -1.266E+00   -1.262E+00   -1.258E+00
    -1.253E+00   -1.249E+00   -1.245E+00   -1.241E+00   -1.237E+00   -1.233E+00   -1.229E+00   -1.225E+00   -1.220E+00   -1.216E+00
    -1.212E+00   -1.208E+00   -1.204E+00   -1.200E+00   -1.196E+00   -1.191E+00   -1.187E+00   -1.183E+00   -1.179E+00   -1.175E+00
    -1.171E+00   -1.167E+00   -1.163E+00   -1.158E+00   -1.154E+00   -1.150E+00   -1.146E+00   -1.142E+00   -1.138E+00   -1.134E+00
    -1.130E+00   -1.125E+00   -1.121E+00   -1.117E+00   -1.113E+00   -1.109E+00   -1.105E+00   -1.101E+00   -1.096E+00   -1.092E+00
    -1.088E+00   -1.084E+00   -1.080E+00   -1.076E+00   -1.072E+00   -1.068E+00   -1.063E+00   -1.059E+00   -1.055E+00   -1.051E+00
    -1.047E+00   -1.043E+00   -1.039E+00   -1.034E+00   -1.030E+00   -1.026E+00   -1.022E+00   -1.018E+00   -1.014E+00   -1.010E+00
    -1.006E+00   -1.001E+00   -9.973E-01   -9.932E-01   -9.891E-01   -9.849E-01   -9.808E-01   -9.767E-01   -9.725E-01   -9.684E-01
    -9.643E-01   -9.601E-01   -9.560E-01   -9.519E-01   -9.477E-01   -9.436E-01   -9.395E-01   -9.353E-01   -9.312E-01   -9.271E-01
    -9.230E-01   -9.188E-01   -9.147E-01   -9.106E-01   -9.064E-01   -9.023E-01   -8.982E-01   -8.940E-01   -8.899E-01   -8.858E-01
    -8.816E-01   -8.775E-01   -8.734E-01   -8.692E-01   -8.651E-01   -8.610E-01   -8.569E-01   -8.527E-01   -8.486E-01   -8.445E-01
    -8.403E-01   -8.362E-01   -8.321E-01   -8.279E-01   -8.238E-01   -8.197E-01   -8.155E-01   -8.114E-01   -8.073E-01   -8.031E-01
    -7.990E-01   -7.949E-01   -7.908E-01   -7.866E-01   -7.825E-01   -7.784E-01   -7.742E-01   -7.701E-01   -7.660E-01   -7.618E-01
    -7.577E-01   -7.536E-01   -7.494E-01   -7.453E-01   -7.412E-01   -7.370E-01   -7.329E-01   -7.288E-01   -7.247E-01   -7.205E-01
    -7.164E-01   -7.123E-01   -7.081E-01   -7.040E-01   -6.999E-01   -6.957E-01   -6.916E-01   -6.875E-01   -6.833E-01   -6.792E-01
    -6.751E-01   -6.710E-01   -6.668E-01   -6.627E-01   -6.586E-01   -6.544E-01   -6.503E-01   -6.462E-01   -6.420E-01   -6.379E-01
    -6.338E-01   -6.297E-01   -6.255E-01   -6.214E-01   -6.173E-01   -6.131E-01   -6.090E-01   -6.049E-01   -6.007E-01   -5.966E-01
    -5.925E-01   -5.883E-01   -5.842E-01   -5.801E-01   -5.760E-01   -5.718E-01   -5.677E-01   -5.636E-01   -5.594E-01   -5.553E-01
    -5.512E-01   -5.470E-01   -5.429E-01   -5.388E-01   -5.347E-01   -5.305E-01   -5.264E-01   -5.223E-01   -5.181E-01   -5.140E-01
    -5.099E-01   -5.058E-01   -5.016E-01   -4.975E-01   -4.934E-01   -4.892E-01   -4.851E-01   -4.810E-01   -4.768E-01   -4.727E-01
    -4.686E-01   -4.645E-01   -4.603E-01   -4.562E-01   -4.521E-01   -4.479E-01   -4.438E-01   -4.397E-01   -4.356E-01   -4.314E-01
    -4.273E-01   -4.232E-01   -4.190E-01   -4.149E-01   -4.108E-01   -4.067E-01   -4.025E-01   -3.984E-01   -3.943E-01   -3.901E-01
    -3.860E-01   -3.819E-01   -3.778E-01   -3.736E-01   -3.695E-01   -3.654E-01   -3.613E-01   -3.571E-01   -3.530E-01   -3.489E-01
    -3.447E-01   -3.406E-01   -3.365E-01   -3.324E-01   -3.282E-01   -3.241E-01   -3.200E-01   -3.158E-01   -3.117E-01   -3.076E-01
    -3.035E-01   -2.993E-01   -2.952E-01   -2.911E-01   -2.870E-01   -2.828E-01   -2.787E-01   -2.746E-01   -2.705E-01   -2.663E-01
    -2.622E-01   -2.581E-01   -2.539E-01   -2.498E-01   -2.457E-01   -2.416E-01   -2.374E-01   -2.333E-01   -2.292E-01   -2.251E-01
    -2.209E-01   -2.168E-01   -2.127E-01   -2.086E-01   -2.044E-01   -2.003E-01   -1.962E-01   -1.921E-01
 Ala      Conc. = 2.33E+01
