 LCModel (Version 6.3-1L) Copyright: S.W. Provencher.          Ref.: Magn. Reson. Med. 30:672-679 (1993).                
 Slice#1 Row#2 Col#13  PD_05_press_1_raw_act
 36 lines in following concentration table = NCONC+1
    Conc.  %SD /Cr+PCr  Metabolite                                         
 1.66E+04  14%   0.000 Ala                                                 
    0.000 999%   0.000 Asp                                                 
    0.000 999%   0.000 Cr                                                  
    0.000 999%   0.000 PCr                                                 
    0.000 999%   0.000 GABA                                                
    0.000 999%   0.000 Glc                                                 
  578.614  76%   0.000 Gln                                                 
    0.000 999%   0.000 Glu                                                 
    0.000 999%   0.000 GPC                                                 
    0.000 999%   0.000 PCh                                                 
  307.164  26%   0.000 GSH                                                 
    0.000 999%   0.000 Ins                                                 
 6.97E+03  41%   0.000 Lac                                                 
    0.000 999%   0.000 NAA                                                 
    0.000 999%   0.000 NAAG                                                
    0.000 999%   0.000 Scyllo                                              
    0.000 999%   0.000 Tau                                                 
 4.07E-02 999%   0.000 -CrCH2                                              
    0.000 999%   0.000 GPC+PCh                                             
    0.000 999%   0.000 NAA+NAAG                                            
    0.000 999%   0.000 Cr+PCr                                              
  578.614  76%   0.000 Glu+Gln                                             
 5.81E+04   9%   0.000 Lip13a                                              
 1.73E+03  26%   0.000 Lip13b                                              
 1.61E+04   8%   0.000 Lip09                                               
 7.31E+03  15%   0.000 MM09                                                
    0.000 999%   0.000-Lip20                                               
    0.000 999%   0.000 MM20                                                
 4.35E+03  37%   0.000 MM12                                                
 3.75E+04   9%   0.000+MM14                                                
 1.11E+04  12%   0.000 MM17                                                
 5.98E+04   9%   0.000 Lip13a+Lip13b                                       
 1.02E+05   4%   0.000 MM14+Lip13a+Lip13b+MM12                             
 2.34E+04   7%   0.000 MM09+Lip09                                          
    0.000 999%   0.000 MM20+Lip20                                          
   6 lines in following misc. output table
  FWHM = 0.122 ppm    S/N =  95                                            
  Data shift = 0.168 ppm                                                   
  Ph:  94 deg      21.7 deg/ppm                                            
  alphaB,S = 6.5E+01,   3.2E+02                                            
    6 spline knots.   Ns = 9(2)                                            
  ( 9) 2 infls.   ( 4) 1 extrs.                                            
  498 points on ppm-axis = NY
      4.000000     3.992357     3.984714     3.977070     3.969427     3.961784     3.954141     3.946497     3.938854     3.931211
      3.923568     3.915925     3.908281     3.900638     3.892995     3.885352     3.877708     3.870065     3.862422     3.854779
      3.847136     3.839492     3.831849     3.824206     3.816563     3.808919     3.801276     3.793633     3.785990     3.778347
      3.770703     3.763060     3.755417     3.747774     3.740130     3.732487     3.724844     3.717201     3.709558     3.701914
      3.694271     3.686628     3.678985     3.671341     3.663698     3.656055     3.648412     3.640769     3.633125     3.625482
      3.617839     3.610196     3.602552     3.594909     3.587266     3.579623     3.571980     3.564336     3.556693     3.549050
      3.541407     3.533763     3.526120     3.518477     3.510834     3.503191     3.495547     3.487904     3.480261     3.472618
      3.464974     3.457331     3.449688     3.442045     3.434402     3.426758     3.419115     3.411472     3.403829     3.396185
      3.388542     3.380899     3.373256     3.365613     3.357969     3.350326     3.342683     3.335040     3.327396     3.319753
      3.312110     3.304467     3.296824     3.289180     3.281537     3.273894     3.266251     3.258607     3.250964     3.243321
      3.235678     3.228034     3.220391     3.212748     3.205105     3.197462     3.189818     3.182175     3.174532     3.166889
      3.159245     3.151602     3.143959     3.136316     3.128673     3.121029     3.113386     3.105743     3.098100     3.090456
      3.082813     3.075170     3.067527     3.059884     3.052240     3.044597     3.036954     3.029311     3.021667     3.014024
      3.006381     2.998738     2.991095     2.983451     2.975808     2.968165     2.960522     2.952878     2.945235     2.937592
      2.929949     2.922306     2.914662     2.907019     2.899376     2.891733     2.884089     2.876446     2.868803     2.861160
      2.853517     2.845873     2.838230     2.830587     2.822944     2.815300     2.807657     2.800014     2.792371     2.784728
      2.777084     2.769441     2.761798     2.754155     2.746511     2.738868     2.731225     2.723582     2.715939     2.708295
      2.700652     2.693009     2.685366     2.677722     2.670079     2.662436     2.654793     2.647150     2.639506     2.631863
      2.624220     2.616577     2.608933     2.601290     2.593647     2.586004     2.578361     2.570717     2.563074     2.555431
      2.547788     2.540144     2.532501     2.524858     2.517215     2.509572     2.501928     2.494285     2.486642     2.478999
      2.471355     2.463712     2.456069     2.448426     2.440783     2.433139     2.425496     2.417853     2.410210     2.402566
      2.394923     2.387280     2.379637     2.371994     2.364350     2.356707     2.349064     2.341421     2.333777     2.326134
      2.318491     2.310848     2.303205     2.295561     2.287918     2.280275     2.272632     2.264988     2.257345     2.249702
      2.242059     2.234416     2.226772     2.219129     2.211486     2.203843     2.196199     2.188556     2.180913     2.173270
      2.165627     2.157983     2.150340     2.142697     2.135054     2.127410     2.119767     2.112124     2.104481     2.096838
      2.089194     2.081551     2.073908     2.066265     2.058621     2.050978     2.043335     2.035692     2.028049     2.020405
      2.012762     2.005119     1.997476     1.989833     1.982190     1.974546     1.966903     1.959260     1.951617     1.943974
      1.936331     1.928688     1.921045     1.913402     1.905759     1.898115     1.890472     1.882829     1.875186     1.867543
      1.859900     1.852257     1.844614     1.836971     1.829327     1.821684     1.814041     1.806398     1.798755     1.791112
      1.783469     1.775826     1.768183     1.760540     1.752896     1.745253     1.737610     1.729967     1.722324     1.714681
      1.707038     1.699395     1.691752     1.684108     1.676465     1.668822     1.661179     1.653536     1.645893     1.638250
      1.630607     1.622964     1.615321     1.607677     1.600034     1.592391     1.584748     1.577105     1.569462     1.561819
      1.554176     1.546533     1.538890     1.531246     1.523603     1.515960     1.508317     1.500674     1.493031     1.485388
      1.477745     1.470102     1.462458     1.454815     1.447172     1.439529     1.431886     1.424243     1.416600     1.408957
      1.401314     1.393671     1.386027     1.378384     1.370741     1.363098     1.355455     1.347812     1.340169     1.332526
      1.324883     1.317240     1.309596     1.301953     1.294310     1.286667     1.279024     1.271381     1.263738     1.256095
      1.248452     1.240808     1.233165     1.225522     1.217879     1.210236     1.202593     1.194950     1.187307     1.179664
      1.172021     1.164377     1.156734     1.149091     1.141448     1.133805     1.126162     1.118519     1.110876     1.103233
      1.095590     1.087946     1.080303     1.072660     1.065017     1.057374     1.049731     1.042088     1.034445     1.026802
      1.019158     1.011515     1.003872     0.996229     0.988586     0.980943     0.973300     0.965657     0.958014     0.950371
      0.942727     0.935084     0.927441     0.919798     0.912155     0.904512     0.896869     0.889226     0.881583     0.873940
      0.866296     0.858653     0.851010     0.843367     0.835724     0.828081     0.820438     0.812795     0.805152     0.797508
      0.789865     0.782222     0.774579     0.766936     0.759293     0.751650     0.744007     0.736364     0.728721     0.721077
      0.713434     0.705791     0.698148     0.690505     0.682862     0.675219     0.667576     0.659933     0.652290     0.644646
      0.637003     0.629360     0.621717     0.614074     0.606431     0.598788     0.591145     0.583502     0.575858     0.568215
      0.560572     0.552929     0.545286     0.537643     0.530000     0.522357     0.514714     0.507071     0.499427     0.491784
      0.484141     0.476498     0.468855     0.461212     0.453569     0.445925     0.438282     0.430639     0.422996     0.415353
      0.407710     0.400067     0.392424     0.384780     0.377137     0.369494     0.361851     0.354208     0.346565     0.338922
      0.331278     0.323635     0.315992     0.308349     0.300706     0.293063     0.285420     0.277777     0.270133     0.262490
      0.254847     0.247204     0.239561     0.231918     0.224275     0.216631     0.208988     0.201345
 NY phased data points follow
  -9.07737E+00 -1.07878E+01 -1.10814E+01 -1.04469E+01 -1.02312E+01 -1.16994E+01 -8.80611E+00 -7.73521E+00 -1.01972E+01 -8.84525E+00
  -9.26461E+00 -1.17881E+01 -1.04199E+01 -1.20510E+01 -9.79627E+00 -1.03560E+01 -1.14128E+01 -9.76879E+00 -8.97149E+00 -8.90616E+00
  -9.74657E+00 -1.16019E+01 -9.64250E+00 -7.91573E+00 -8.88859E+00 -8.90160E+00 -1.01192E+01 -1.00226E+01 -1.00939E+01 -1.03261E+01
  -9.67306E+00 -8.48297E+00 -1.05461E+01 -9.70367E+00 -9.05257E+00 -9.33841E+00 -8.98310E+00 -9.86243E+00 -9.15813E+00 -1.00766E+01
  -8.59390E+00 -1.11976E+01 -9.45909E+00 -9.90494E+00 -9.75204E+00 -1.06128E+01 -8.50258E+00 -1.16864E+01 -7.72741E+00 -9.72370E+00
  -9.20579E+00 -9.35238E+00 -9.40424E+00 -1.19657E+01 -1.33921E+01 -1.00031E+01 -1.03165E+01 -7.22562E+00 -1.08293E+01 -6.59648E+00
  -9.70828E+00 -8.62176E+00 -8.34419E+00 -1.10998E+01 -9.98885E+00 -8.70059E+00 -8.37071E+00 -8.59782E+00 -7.63740E+00 -9.49126E+00
  -9.85742E+00 -8.08056E+00 -9.69547E+00 -7.15105E+00 -1.06260E+01 -7.14158E+00 -9.82531E+00 -8.73176E+00 -9.16131E+00 -9.79711E+00
  -1.12509E+01 -9.91725E+00 -8.30582E+00 -6.51218E+00 -9.97698E+00 -9.38205E+00 -8.36984E+00 -6.96343E+00 -9.33249E+00 -8.74979E+00
  -1.00360E+01 -9.72652E+00 -9.03441E+00 -1.14851E+01 -8.90417E+00 -8.33734E+00 -9.13616E+00 -8.00259E+00 -9.70939E+00 -9.68428E+00
  -8.65900E+00 -6.30992E+00 -6.10889E+00 -6.97660E+00 -8.64901E+00 -7.08240E+00 -6.42791E+00 -8.22749E+00 -7.80689E+00 -7.85132E+00
  -6.04270E+00 -8.61415E+00 -8.58529E+00 -8.64432E+00 -8.98046E+00 -6.39719E+00 -8.98272E+00 -7.13944E+00 -6.97441E+00 -6.91066E+00
  -6.78213E+00 -6.52241E+00 -5.97030E+00 -5.04365E+00 -5.47176E+00 -6.66362E+00 -8.19269E+00 -7.69689E+00 -7.01749E+00 -7.51166E+00
  -7.37751E+00 -7.21233E+00 -7.79062E+00 -8.44695E+00 -6.01486E+00 -5.20676E+00 -1.01731E+01 -6.23089E+00 -8.09165E+00 -6.45982E+00
  -6.81007E+00 -5.71868E+00 -6.70698E+00 -6.26638E+00 -5.95276E+00 -6.75151E+00 -6.59241E+00 -8.47391E+00 -5.65538E+00 -6.93564E+00
  -4.70609E+00 -5.81229E+00 -7.50707E+00 -7.26412E+00 -5.31889E+00 -6.05445E+00 -5.97720E+00 -4.72104E+00 -4.50086E+00 -4.67493E+00
  -4.41588E+00 -4.94503E+00 -7.12858E+00 -5.97782E+00 -6.21740E+00 -3.79516E+00 -5.34570E+00 -4.93973E+00 -7.06572E+00 -6.51166E+00
  -3.48106E+00 -5.62354E+00 -5.51967E+00 -5.18696E+00 -3.26956E+00 -5.66693E+00 -5.16237E+00 -4.75553E+00 -4.45024E+00 -6.72079E+00
  -2.24575E+00 -5.04768E+00 -7.15050E+00 -5.02472E+00 -4.47375E+00 -4.60171E+00 -5.19464E+00 -4.90578E+00 -4.40792E+00 -4.65636E+00
  -4.59964E+00 -7.14733E+00 -6.24353E+00 -3.57685E+00 -4.53114E+00 -4.99505E+00 -5.04406E+00 -6.41564E+00 -5.49180E+00 -4.08232E+00
  -3.46390E+00 -4.60267E+00 -1.35774E+00 -3.89519E+00 -2.79183E+00 -5.23881E+00 -3.82050E+00 -4.90231E+00 -2.57710E+00 -2.65836E+00
  -4.52232E+00 -4.54162E+00 -5.16715E+00 -3.30913E+00 -3.82712E+00 -2.64397E+00 -3.19340E+00 -2.22494E+00 -3.01046E+00 -9.57901E-01
  -1.69006E+00 -3.76140E+00 -2.04368E+00 -2.85874E+00 -4.29152E+00 -3.84922E+00 -2.57049E+00 -1.97030E+00 -3.06545E+00 -3.06232E+00
   5.04157E-01 -3.27606E+00 -5.76951E+00 -2.90003E+00 -5.57015E+00 -3.41047E+00 -6.18904E+00 -2.29573E+00 -3.08782E+00 -4.95923E+00
  -3.23837E+00 -6.38058E+00 -5.67044E+00 -3.98341E+00 -2.97919E+00 -4.17607E+00 -4.70907E+00 -3.14798E+00 -3.86842E+00 -3.33842E+00
  -3.11398E+00 -4.72343E+00 -1.59578E-02 -4.60120E-01  1.65154E+00  6.88064E-01  8.52525E-01  1.09514E+00  2.84731E+00  3.25635E+00
   3.35261E+00  5.46673E+00  5.48433E+00  7.01269E+00  8.61334E+00  8.80000E+00  8.21717E+00  9.46703E+00  1.11689E+01  1.22830E+01
   1.07209E+01  1.48533E+01  1.51600E+01  1.47454E+01  1.68076E+01  1.59671E+01  1.51006E+01  1.87181E+01  2.01189E+01  2.29772E+01
   2.20918E+01  2.33779E+01  2.25418E+01  2.65623E+01  2.58093E+01  3.02189E+01  2.96993E+01  3.17667E+01  3.45380E+01  3.39658E+01
   3.59097E+01  3.59843E+01  4.20794E+01  3.98320E+01  4.20112E+01  4.52000E+01  4.75048E+01  5.09311E+01  4.99176E+01  5.56017E+01
   5.57000E+01  6.05712E+01  6.06360E+01  6.53984E+01  6.72782E+01  7.07514E+01  7.46837E+01  7.69929E+01  8.23423E+01  8.72883E+01
   9.08959E+01  9.76496E+01  1.00905E+02  1.05164E+02  1.09307E+02  1.16570E+02  1.22081E+02  1.25927E+02  1.35393E+02  1.41364E+02
   1.49965E+02  1.57603E+02  1.64480E+02  1.75721E+02  1.83237E+02  1.90693E+02  2.02185E+02  2.11190E+02  2.22717E+02  2.33155E+02
   2.45338E+02  2.55035E+02  2.68025E+02  2.82069E+02  2.96792E+02  3.06630E+02  3.22670E+02  3.32661E+02  3.44225E+02  3.56132E+02
   3.62574E+02  3.67966E+02  3.68756E+02  3.64413E+02  3.59295E+02  3.52566E+02  3.46107E+02  3.36701E+02  3.29770E+02  3.20215E+02
   3.15844E+02  3.06258E+02  3.01563E+02  2.96676E+02  2.93099E+02  2.87770E+02  2.84464E+02  2.77219E+02  2.68455E+02  2.66537E+02
   2.56719E+02  2.50217E+02  2.42191E+02  2.33974E+02  2.25750E+02  2.18702E+02  2.11425E+02  2.02507E+02  1.96948E+02  1.87383E+02
   1.82409E+02  1.76596E+02  1.68052E+02  1.64528E+02  1.61097E+02  1.56869E+02  1.51113E+02  1.47132E+02  1.43876E+02  1.38856E+02
   1.38557E+02  1.36363E+02  1.30291E+02  1.27190E+02  1.23676E+02  1.23758E+02  1.19860E+02  1.18735E+02  1.16443E+02  1.14488E+02
   1.11045E+02  1.10295E+02  1.06124E+02  1.00422E+02  9.89270E+01  9.69501E+01  9.02549E+01  8.97551E+01  8.71946E+01  8.17401E+01
   7.88469E+01  7.73595E+01  7.20601E+01  7.35405E+01  6.94506E+01  6.79280E+01  6.41871E+01  6.44518E+01  6.10766E+01  5.73800E+01
   5.49981E+01  5.05972E+01  5.03352E+01  4.59576E+01  4.68251E+01  4.51567E+01  4.15041E+01  4.15916E+01  4.05398E+01  3.68527E+01
   3.40099E+01  3.41976E+01  2.94697E+01  3.04607E+01  2.88989E+01  2.71181E+01  2.51351E+01  2.36158E+01  2.13452E+01  2.08174E+01
   1.76735E+01  1.65033E+01  1.34398E+01  1.48886E+01  1.26538E+01  1.21636E+01  8.42218E+00  7.49447E+00  5.75566E+00  5.52709E+00
   6.37474E+00  5.47311E+00  6.21139E+00  2.69032E+00  2.74165E+00 -2.00225E+00 -1.10560E+00 -5.38685E-01 -1.37300E+00 -2.43491E+00
  -3.90163E+00 -3.93345E+00 -4.72311E+00 -5.69741E+00 -7.60624E+00 -6.73494E+00 -8.13638E+00 -1.11974E+01 -9.05746E+00 -8.33192E+00
  -1.09028E+01 -1.28488E+01 -9.59527E+00 -1.29489E+01 -1.23863E+01 -1.36449E+01 -1.23631E+01 -1.51819E+01 -1.61737E+01 -1.56037E+01
  -1.85281E+01 -1.62095E+01 -1.71253E+01 -1.76788E+01 -1.85017E+01 -1.86561E+01 -1.80171E+01 -2.01515E+01 -1.99132E+01 -2.03211E+01
  -1.92197E+01 -1.92918E+01 -2.28197E+01 -1.89578E+01 -2.39494E+01 -2.28665E+01 -2.42190E+01 -2.52425E+01 -2.41971E+01 -2.50722E+01
  -2.61374E+01 -2.59294E+01 -2.72333E+01 -2.36297E+01 -2.64853E+01 -2.48498E+01 -2.61031E+01 -2.75910E+01
 NY points of the fit to the data follow
  -1.09606E+01 -9.86811E+00 -1.14037E+01 -1.03915E+01 -1.12781E+01 -1.00614E+01 -1.04127E+01 -9.07375E+00 -9.73827E+00 -8.78046E+00
  -9.79283E+00 -9.08918E+00 -1.01550E+01 -9.34832E+00 -1.05607E+01 -9.16204E+00 -1.01680E+01 -8.48374E+00 -9.47908E+00 -7.93480E+00
  -9.06965E+00 -7.68257E+00 -9.04141E+00 -8.08346E+00 -9.45193E+00 -8.97587E+00 -1.00697E+01 -1.00519E+01 -1.06554E+01 -1.09232E+01
  -1.08938E+01 -1.12309E+01 -1.04246E+01 -1.07614E+01 -9.27406E+00 -9.72716E+00 -8.05842E+00 -8.74318E+00 -7.30620E+00 -8.48208E+00
  -7.60519E+00 -9.16206E+00 -8.61041E+00 -1.01463E+01 -9.75374E+00 -1.09792E+01 -1.03202E+01 -1.08992E+01 -1.02447E+01 -1.05975E+01
  -1.00687E+01 -1.01863E+01 -9.77792E+00 -9.96949E+00 -9.81319E+00 -9.80033E+00 -9.57601E+00 -9.49612E+00 -9.32169E+00 -9.23618E+00
  -9.06853E+00 -8.96916E+00 -8.92746E+00 -8.90450E+00 -8.88827E+00 -8.87437E+00 -8.86138E+00 -8.84801E+00 -8.83449E+00 -8.81985E+00
  -8.80492E+00 -8.78864E+00 -8.77226E+00 -8.75449E+00 -8.73682E+00 -8.71776E+00 -8.69891E+00 -8.67870E+00 -8.65880E+00 -8.63766E+00
  -8.61685E+00 -8.59491E+00 -8.57320E+00 -8.55052E+00 -8.52799E+00 -8.50467E+00 -8.48140E+00 -8.45749E+00 -8.43353E+00 -8.40907E+00
  -8.38447E+00 -8.35945E+00 -8.33421E+00 -8.30858E+00 -8.28263E+00 -8.25628E+00 -8.22959E+00 -8.20246E+00 -8.17481E+00 -8.14645E+00
  -8.11722E+00 -8.08884E+00 -8.06143E+00 -8.03225E+00 -8.00567E+00 -7.97443E+00 -7.94574E+00 -7.90939E+00 -7.88208E+00 -7.84166E+00
  -7.81623E+00 -7.77052E+00 -7.74458E+00 -7.68842E+00 -7.65354E+00 -7.56734E+00 -7.52462E+00 -7.45122E+00 -7.42112E+00 -7.36285E+00
  -7.34067E+00 -7.26943E+00 -7.23097E+00 -7.14534E+00 -7.08492E+00 -7.01615E+00 -6.94823E+00 -6.90820E+00 -6.83339E+00 -6.81867E+00
  -6.72982E+00 -6.74066E+00 -6.64117E+00 -6.68927E+00 -6.58452E+00 -6.66505E+00 -6.55260E+00 -6.64531E+00 -6.51624E+00 -6.61138E+00
  -6.47172E+00 -6.57033E+00 -6.43482E+00 -6.53024E+00 -6.40837E+00 -6.49954E+00 -6.40098E+00 -6.49217E+00 -6.42957E+00 -6.52170E+00
  -6.49205E+00 -6.56945E+00 -6.55728E+00 -6.61483E+00 -6.60310E+00 -6.62591E+00 -6.60776E+00 -6.62200E+00 -6.60633E+00 -6.61491E+00
  -6.60233E+00 -6.60080E+00 -6.58689E+00 -6.57305E+00 -6.55584E+00 -6.54051E+00 -6.52388E+00 -6.51880E+00 -6.50241E+00 -6.50461E+00
  -6.48389E+00 -6.48477E+00 -6.44604E+00 -6.44066E+00 -6.38396E+00 -6.38844E+00 -6.33651E+00 -6.35597E+00 -6.31465E+00 -6.36123E+00
  -6.32015E+00 -6.35054E+00 -6.29416E+00 -6.29027E+00 -6.21334E+00 -6.18684E+00 -6.11945E+00 -6.05892E+00 -6.01211E+00 -5.92785E+00
  -5.91354E+00 -5.82596E+00 -5.89720E+00 -5.77040E+00 -5.84882E+00 -5.67506E+00 -5.75336E+00 -5.54223E+00 -5.62755E+00 -5.38622E+00
  -5.46535E+00 -5.21000E+00 -5.27756E+00 -5.02641E+00 -5.07958E+00 -4.85509E+00 -4.89758E+00 -4.72210E+00 -4.74675E+00 -4.59961E+00
  -4.56953E+00 -4.42634E+00 -4.31734E+00 -4.17515E+00 -4.00749E+00 -3.85494E+00 -3.64361E+00 -3.49509E+00 -3.30864E+00 -3.17337E+00
  -3.02094E+00 -2.91722E+00 -2.80999E+00 -2.71267E+00 -2.64896E+00 -2.58799E+00 -2.54879E+00 -2.49950E+00 -2.46232E+00 -2.41619E+00
  -2.35436E+00 -2.33291E+00 -2.26114E+00 -2.24114E+00 -2.11178E+00 -2.10530E+00 -1.91483E+00 -1.93240E+00 -1.68015E+00 -1.72823E+00
  -1.42309E+00 -1.50107E+00 -1.14732E+00 -1.22628E+00 -8.30746E-01 -8.74860E-01 -4.50838E-01 -4.31836E-01  1.33644E-02  1.12459E-01
   5.72881E-01  7.56856E-01  1.22882E+00  1.46393E+00  1.93102E+00  2.21049E+00  2.68746E+00  2.98934E+00  3.46861E+00  3.82097E+00
   4.33147E+00  4.72917E+00  5.27797E+00  5.75167E+00  6.34379E+00  6.88062E+00  7.52012E+00  8.13499E+00  8.83310E+00  9.53113E+00
   1.02983E+01  1.10821E+01  1.19331E+01  1.28184E+01  1.37666E+01  1.47609E+01  1.58187E+01  1.69325E+01  1.81090E+01  1.93495E+01
   2.06541E+01  2.20244E+01  2.34617E+01  2.49651E+01  2.65338E+01  2.81649E+01  2.98564E+01  3.16035E+01  3.34020E+01  3.52458E+01
   3.71293E+01  3.90453E+01  4.09878E+01  4.29498E+01  4.49263E+01  4.69121E+01  4.89055E+01  5.09059E+01  5.29178E+01  5.49485E+01
   5.70128E+01  5.91313E+01  6.13360E+01  6.36705E+01  6.61986E+01  6.90122E+01  7.22581E+01  7.61932E+01  8.13033E+01  8.74822E+01
   9.19434E+01  9.75562E+01  1.01271E+02  1.06681E+02  1.10321E+02  1.16059E+02  1.19344E+02  1.27864E+02  1.33120E+02  1.43110E+02
   1.49008E+02  1.59031E+02  1.64952E+02  1.75334E+02  1.82003E+02  1.92817E+02  2.00557E+02  2.11366E+02  2.21336E+02  2.32983E+02
   2.44864E+02  2.55974E+02  2.70041E+02  2.80773E+02  2.97078E+02  3.06801E+02  3.23499E+02  3.32581E+02  3.47470E+02  3.53440E+02
   3.63583E+02  3.64323E+02  3.67814E+02  3.63333E+02  3.60698E+02  3.53026E+02  3.46059E+02  3.37088E+02  3.29368E+02  3.21908E+02
   3.14568E+02  3.08324E+02  3.01963E+02  2.97402E+02  2.92016E+02  2.87374E+02  2.81494E+02  2.76828E+02  2.70760E+02  2.65045E+02
   2.58001E+02  2.50830E+02  2.42936E+02  2.34496E+02  2.26414E+02  2.17869E+02  2.10096E+02  2.02055E+02  1.95312E+02  1.88825E+02
   1.82657E+02  1.76537E+02  1.70901E+02  1.65432E+02  1.60409E+02  1.55160E+02  1.50603E+02  1.46555E+02  1.42889E+02  1.39542E+02
   1.36468E+02  1.33621E+02  1.30957E+02  1.28428E+02  1.25989E+02  1.23594E+02  1.21200E+02  1.18773E+02  1.16280E+02  1.13700E+02
   1.11017E+02  1.08227E+02  1.05330E+02  1.02336E+02  9.92599E+01  9.61222E+01  9.29461E+01  8.97563E+01  8.65778E+01  8.34341E+01
   8.03465E+01  7.73329E+01  7.44075E+01  7.15803E+01  6.88572E+01  6.62404E+01  6.37286E+01  6.13180E+01  5.90020E+01  5.67728E+01
   5.46214E+01  5.25387E+01  5.05153E+01  4.85424E+01  4.66121E+01  4.47172E+01  4.28519E+01  4.10113E+01  3.91920E+01  3.73914E+01
   3.56080E+01  3.38412E+01  3.20913E+01  3.03589E+01  2.86456E+01  2.69529E+01  2.52826E+01  2.36369E+01  2.20179E+01  2.04276E+01
   1.88680E+01  1.73407E+01  1.58475E+01  1.43897E+01  1.29685E+01  1.15847E+01  1.02391E+01  8.93200E+00  7.66367E+00  6.43413E+00
   5.24320E+00  4.09053E+00  2.97558E+00  1.89772E+00  8.56208E-01 -1.49768E-01 -1.12114E+00 -2.05888E+00 -2.96403E+00 -3.83763E+00
  -4.68078E+00 -5.49451E+00 -6.27993E+00 -7.03814E+00 -7.77020E+00 -8.47717E+00 -9.16005E+00 -9.81985E+00 -1.04575E+01 -1.10741E+01
  -1.16704E+01 -1.22474E+01 -1.28058E+01 -1.33465E+01 -1.38703E+01 -1.43780E+01 -1.48702E+01 -1.53476E+01 -1.58109E+01 -1.62607E+01
  -1.66975E+01 -1.71221E+01 -1.75348E+01 -1.79363E+01 -1.83270E+01 -1.87073E+01 -1.90778E+01 -1.94388E+01 -1.97907E+01 -2.01340E+01
  -2.04689E+01 -2.07958E+01 -2.11151E+01 -2.14271E+01 -2.17320E+01 -2.20302E+01 -2.23218E+01 -2.26072E+01 -2.28866E+01 -2.31602E+01
  -2.34282E+01 -2.36908E+01 -2.39481E+01 -2.42004E+01 -2.44477E+01 -2.46902E+01 -2.49279E+01 -2.51608E+01
 NY background values follow
    -1.685E+01   -1.684E+01   -1.682E+01   -1.680E+01   -1.678E+01   -1.677E+01   -1.675E+01   -1.673E+01   -1.671E+01   -1.669E+01
    -1.667E+01   -1.666E+01   -1.664E+01   -1.662E+01   -1.660E+01   -1.658E+01   -1.656E+01   -1.654E+01   -1.653E+01   -1.651E+01
    -1.649E+01   -1.647E+01   -1.645E+01   -1.643E+01   -1.641E+01   -1.639E+01   -1.637E+01   -1.636E+01   -1.634E+01   -1.632E+01
    -1.630E+01   -1.628E+01   -1.626E+01   -1.624E+01   -1.622E+01   -1.620E+01   -1.619E+01   -1.617E+01   -1.615E+01   -1.613E+01
    -1.611E+01   -1.609E+01   -1.607E+01   -1.605E+01   -1.604E+01   -1.602E+01   -1.600E+01   -1.598E+01   -1.596E+01   -1.594E+01
    -1.593E+01   -1.591E+01   -1.589E+01   -1.587E+01   -1.585E+01   -1.584E+01   -1.582E+01   -1.580E+01   -1.578E+01   -1.577E+01
    -1.575E+01   -1.573E+01   -1.571E+01   -1.570E+01   -1.568E+01   -1.566E+01   -1.565E+01   -1.563E+01   -1.561E+01   -1.560E+01
    -1.558E+01   -1.557E+01   -1.555E+01   -1.554E+01   -1.552E+01   -1.550E+01   -1.549E+01   -1.547E+01   -1.546E+01   -1.545E+01
    -1.543E+01   -1.542E+01   -1.540E+01   -1.539E+01   -1.537E+01   -1.536E+01   -1.535E+01   -1.533E+01   -1.532E+01   -1.531E+01
    -1.530E+01   -1.528E+01   -1.527E+01   -1.526E+01   -1.525E+01   -1.524E+01   -1.523E+01   -1.522E+01   -1.521E+01   -1.519E+01
    -1.518E+01   -1.517E+01   -1.516E+01   -1.516E+01   -1.515E+01   -1.514E+01   -1.513E+01   -1.512E+01   -1.511E+01   -1.510E+01
    -1.510E+01   -1.509E+01   -1.508E+01   -1.508E+01   -1.507E+01   -1.506E+01   -1.506E+01   -1.505E+01   -1.505E+01   -1.504E+01
    -1.504E+01   -1.503E+01   -1.503E+01   -1.503E+01   -1.502E+01   -1.502E+01   -1.502E+01   -1.501E+01   -1.501E+01   -1.501E+01
    -1.501E+01   -1.501E+01   -1.501E+01   -1.501E+01   -1.501E+01   -1.501E+01   -1.501E+01   -1.501E+01   -1.501E+01   -1.502E+01
    -1.502E+01   -1.502E+01   -1.502E+01   -1.503E+01   -1.503E+01   -1.504E+01   -1.504E+01   -1.505E+01   -1.505E+01   -1.506E+01
    -1.506E+01   -1.507E+01   -1.508E+01   -1.509E+01   -1.509E+01   -1.510E+01   -1.511E+01   -1.512E+01   -1.513E+01   -1.514E+01
    -1.515E+01   -1.516E+01   -1.518E+01   -1.519E+01   -1.520E+01   -1.521E+01   -1.523E+01   -1.524E+01   -1.526E+01   -1.527E+01
    -1.529E+01   -1.530E+01   -1.532E+01   -1.534E+01   -1.535E+01   -1.537E+01   -1.539E+01   -1.541E+01   -1.543E+01   -1.545E+01
    -1.547E+01   -1.549E+01   -1.551E+01   -1.553E+01   -1.555E+01   -1.557E+01   -1.560E+01   -1.562E+01   -1.564E+01   -1.567E+01
    -1.569E+01   -1.572E+01   -1.574E+01   -1.577E+01   -1.580E+01   -1.582E+01   -1.585E+01   -1.588E+01   -1.590E+01   -1.593E+01
    -1.596E+01   -1.599E+01   -1.602E+01   -1.605E+01   -1.608E+01   -1.611E+01   -1.614E+01   -1.617E+01   -1.621E+01   -1.624E+01
    -1.627E+01   -1.630E+01   -1.634E+01   -1.637E+01   -1.640E+01   -1.644E+01   -1.647E+01   -1.651E+01   -1.655E+01   -1.658E+01
    -1.662E+01   -1.665E+01   -1.669E+01   -1.673E+01   -1.677E+01   -1.681E+01   -1.684E+01   -1.688E+01   -1.692E+01   -1.696E+01
    -1.700E+01   -1.704E+01   -1.708E+01   -1.712E+01   -1.717E+01   -1.721E+01   -1.725E+01   -1.729E+01   -1.734E+01   -1.738E+01
    -1.742E+01   -1.747E+01   -1.751E+01   -1.755E+01   -1.760E+01   -1.764E+01   -1.769E+01   -1.774E+01   -1.778E+01   -1.783E+01
    -1.787E+01   -1.792E+01   -1.797E+01   -1.802E+01   -1.806E+01   -1.811E+01   -1.816E+01   -1.821E+01   -1.826E+01   -1.831E+01
    -1.836E+01   -1.841E+01   -1.846E+01   -1.851E+01   -1.856E+01   -1.861E+01   -1.866E+01   -1.871E+01   -1.876E+01   -1.882E+01
    -1.887E+01   -1.892E+01   -1.897E+01   -1.903E+01   -1.908E+01   -1.913E+01   -1.919E+01   -1.924E+01   -1.930E+01   -1.935E+01
    -1.941E+01   -1.946E+01   -1.952E+01   -1.957E+01   -1.963E+01   -1.968E+01   -1.974E+01   -1.980E+01   -1.985E+01   -1.991E+01
    -1.997E+01   -2.003E+01   -2.008E+01   -2.014E+01   -2.020E+01   -2.026E+01   -2.032E+01   -2.038E+01   -2.044E+01   -2.049E+01
    -2.055E+01   -2.061E+01   -2.067E+01   -2.073E+01   -2.079E+01   -2.085E+01   -2.091E+01   -2.098E+01   -2.104E+01   -2.110E+01
    -2.116E+01   -2.122E+01   -2.128E+01   -2.134E+01   -2.141E+01   -2.147E+01   -2.153E+01   -2.159E+01   -2.166E+01   -2.172E+01
    -2.178E+01   -2.185E+01   -2.191E+01   -2.197E+01   -2.204E+01   -2.210E+01   -2.217E+01   -2.223E+01   -2.229E+01   -2.236E+01
    -2.242E+01   -2.249E+01   -2.255E+01   -2.262E+01   -2.268E+01   -2.275E+01   -2.282E+01   -2.288E+01   -2.295E+01   -2.301E+01
    -2.308E+01   -2.315E+01   -2.321E+01   -2.328E+01   -2.334E+01   -2.341E+01   -2.348E+01   -2.355E+01   -2.361E+01   -2.368E+01
    -2.375E+01   -2.382E+01   -2.388E+01   -2.395E+01   -2.402E+01   -2.409E+01   -2.416E+01   -2.422E+01   -2.429E+01   -2.436E+01
    -2.443E+01   -2.450E+01   -2.457E+01   -2.464E+01   -2.471E+01   -2.478E+01   -2.485E+01   -2.492E+01   -2.499E+01   -2.506E+01
    -2.513E+01   -2.520E+01   -2.527E+01   -2.534E+01   -2.541E+01   -2.548E+01   -2.555E+01   -2.562E+01   -2.569E+01   -2.576E+01
    -2.584E+01   -2.591E+01   -2.598E+01   -2.605E+01   -2.612E+01   -2.619E+01   -2.627E+01   -2.634E+01   -2.641E+01   -2.648E+01
    -2.656E+01   -2.663E+01   -2.670E+01   -2.678E+01   -2.685E+01   -2.692E+01   -2.700E+01   -2.707E+01   -2.714E+01   -2.722E+01
    -2.729E+01   -2.737E+01   -2.744E+01   -2.751E+01   -2.759E+01   -2.766E+01   -2.774E+01   -2.781E+01   -2.789E+01   -2.796E+01
    -2.804E+01   -2.811E+01   -2.819E+01   -2.827E+01   -2.834E+01   -2.842E+01   -2.849E+01   -2.857E+01   -2.865E+01   -2.872E+01
    -2.880E+01   -2.887E+01   -2.895E+01   -2.903E+01   -2.911E+01   -2.918E+01   -2.926E+01   -2.934E+01   -2.941E+01   -2.949E+01
    -2.957E+01   -2.965E+01   -2.973E+01   -2.980E+01   -2.988E+01   -2.996E+01   -3.004E+01   -3.012E+01   -3.019E+01   -3.027E+01
    -3.035E+01   -3.043E+01   -3.051E+01   -3.059E+01   -3.067E+01   -3.075E+01   -3.083E+01   -3.091E+01   -3.099E+01   -3.107E+01
    -3.115E+01   -3.123E+01   -3.131E+01   -3.139E+01   -3.147E+01   -3.155E+01   -3.163E+01   -3.171E+01   -3.179E+01   -3.187E+01
    -3.195E+01   -3.203E+01   -3.211E+01   -3.220E+01   -3.228E+01   -3.236E+01   -3.244E+01   -3.252E+01   -3.260E+01   -3.269E+01
    -3.277E+01   -3.285E+01   -3.293E+01   -3.302E+01   -3.310E+01   -3.318E+01   -3.326E+01   -3.335E+01   -3.343E+01   -3.351E+01
    -3.360E+01   -3.368E+01   -3.376E+01   -3.385E+01   -3.393E+01   -3.401E+01   -3.410E+01   -3.418E+01   -3.426E+01   -3.435E+01
    -3.443E+01   -3.452E+01   -3.460E+01   -3.469E+01   -3.477E+01   -3.486E+01   -3.494E+01   -3.503E+01
 Ala      Conc. = 1.66E+04
