 LCModel (Version 6.3-1L) Copyright: S.W. Provencher.          Ref.: Magn. Reson. Med. 30:672-679 (1993).                
 Slice#2 Row#3 Col#5  PD_05_press_1_raw_act
 36 lines in following concentration table = NCONC+1
    Conc.  %SD /Cr+PCr  Metabolite                                         
   62.352 158% 5.8E-02 Ala                                                 
    0.000 999%   0.000 Asp                                                 
  159.776 130%   0.149 Cr                                                  
  915.183  23%   0.851 PCr                                                 
   70.974 177% 6.6E-02 GABA                                                
   56.825 212% 5.3E-02 Glc                                                 
  675.558  31%   0.628 Gln                                                 
 1.08E+03  23%   1.005 Glu                                                 
  463.374   4%   0.431 GPC                                                 
    0.000 999%   0.000 PCh                                                 
  448.176  14%   0.417 GSH                                                 
 1.21E+03  18%   1.127 Ins                                                 
   87.813 123% 8.2E-02 Lac                                                 
 1.85E+03   3%   1.719 NAA                                                 
    0.000 999%   0.000 NAAG                                                
  131.164  17%   0.122 Scyllo                                              
  374.763  45%   0.349 Tau                                                 
  339.860  29%   0.316 -CrCH2                                              
  463.374   4%   0.431 GPC+PCh                                             
 1.85E+03   3%   1.719 NAA+NAAG                                            
 1.07E+03   4%   1.000 Cr+PCr                                              
 1.76E+03  21%   1.633 Glu+Gln                                             
    0.000 999%   0.000 Lip13a                                              
    0.000 999%   0.000 Lip13b                                              
    0.000 999%   0.000 Lip09                                               
  917.943  17%   0.854 MM09                                                
    0.000 999%   0.000 Lip20                                               
 1.98E+03  13%   1.843 MM20                                                
  256.984  36%   0.239 MM12                                                
  859.273  25%   0.799 MM14                                                
  638.309  26%   0.594 MM17                                                
    0.000 999%   0.000 Lip13a+Lip13b                                       
 1.12E+03  23%   1.038 MM14+Lip13a+Lip13b+MM12                             
  917.943  17%   0.854 MM09+Lip09                                          
 1.98E+03  13%   1.843 MM20+Lip20                                          
   6 lines in following misc. output table
  FWHM = 0.061 ppm    S/N =  12                                            
  Data shift =-0.008 ppm                                                   
  Ph: -42 deg     -14.5 deg/ppm                                            
  alphaB,S = 8.1E-01,   9.9E+01                                            
   14 spline knots.   Ns = 8(1)                                            
  (14) 4 infls.   (11) 1 extrs.                                            
  498 points on ppm-axis = NY
      4.000000     3.992357     3.984714     3.977070     3.969427     3.961784     3.954141     3.946497     3.938854     3.931211
      3.923568     3.915925     3.908281     3.900638     3.892995     3.885352     3.877708     3.870065     3.862422     3.854779
      3.847136     3.839492     3.831849     3.824206     3.816563     3.808919     3.801276     3.793633     3.785990     3.778347
      3.770703     3.763060     3.755417     3.747774     3.740130     3.732487     3.724844     3.717201     3.709558     3.701914
      3.694271     3.686628     3.678985     3.671341     3.663698     3.656055     3.648412     3.640769     3.633125     3.625482
      3.617839     3.610196     3.602552     3.594909     3.587266     3.579623     3.571980     3.564336     3.556693     3.549050
      3.541407     3.533763     3.526120     3.518477     3.510834     3.503191     3.495547     3.487904     3.480261     3.472618
      3.464974     3.457331     3.449688     3.442045     3.434402     3.426758     3.419115     3.411472     3.403829     3.396185
      3.388542     3.380899     3.373256     3.365613     3.357969     3.350326     3.342683     3.335040     3.327396     3.319753
      3.312110     3.304467     3.296824     3.289180     3.281537     3.273894     3.266251     3.258607     3.250964     3.243321
      3.235678     3.228034     3.220391     3.212748     3.205105     3.197462     3.189818     3.182175     3.174532     3.166889
      3.159245     3.151602     3.143959     3.136316     3.128673     3.121029     3.113386     3.105743     3.098100     3.090456
      3.082813     3.075170     3.067527     3.059884     3.052240     3.044597     3.036954     3.029311     3.021667     3.014024
      3.006381     2.998738     2.991095     2.983451     2.975808     2.968165     2.960522     2.952878     2.945235     2.937592
      2.929949     2.922306     2.914662     2.907019     2.899376     2.891733     2.884089     2.876446     2.868803     2.861160
      2.853517     2.845873     2.838230     2.830587     2.822944     2.815300     2.807657     2.800014     2.792371     2.784728
      2.777084     2.769441     2.761798     2.754155     2.746511     2.738868     2.731225     2.723582     2.715939     2.708295
      2.700652     2.693009     2.685366     2.677722     2.670079     2.662436     2.654793     2.647150     2.639506     2.631863
      2.624220     2.616577     2.608933     2.601290     2.593647     2.586004     2.578361     2.570717     2.563074     2.555431
      2.547788     2.540144     2.532501     2.524858     2.517215     2.509572     2.501928     2.494285     2.486642     2.478999
      2.471355     2.463712     2.456069     2.448426     2.440783     2.433139     2.425496     2.417853     2.410210     2.402566
      2.394923     2.387280     2.379637     2.371994     2.364350     2.356707     2.349064     2.341421     2.333777     2.326134
      2.318491     2.310848     2.303205     2.295561     2.287918     2.280275     2.272632     2.264988     2.257345     2.249702
      2.242059     2.234416     2.226772     2.219129     2.211486     2.203843     2.196199     2.188556     2.180913     2.173270
      2.165627     2.157983     2.150340     2.142697     2.135054     2.127410     2.119767     2.112124     2.104481     2.096838
      2.089194     2.081551     2.073908     2.066265     2.058621     2.050978     2.043335     2.035692     2.028049     2.020405
      2.012762     2.005119     1.997476     1.989833     1.982190     1.974546     1.966903     1.959260     1.951617     1.943974
      1.936331     1.928688     1.921045     1.913402     1.905759     1.898115     1.890472     1.882829     1.875186     1.867543
      1.859900     1.852257     1.844614     1.836971     1.829327     1.821684     1.814041     1.806398     1.798755     1.791112
      1.783469     1.775826     1.768183     1.760540     1.752896     1.745253     1.737610     1.729967     1.722324     1.714681
      1.707038     1.699395     1.691752     1.684108     1.676465     1.668822     1.661179     1.653536     1.645893     1.638250
      1.630607     1.622964     1.615321     1.607677     1.600034     1.592391     1.584748     1.577105     1.569462     1.561819
      1.554176     1.546533     1.538890     1.531246     1.523603     1.515960     1.508317     1.500674     1.493031     1.485388
      1.477745     1.470102     1.462458     1.454815     1.447172     1.439529     1.431886     1.424243     1.416600     1.408957
      1.401314     1.393671     1.386027     1.378384     1.370741     1.363098     1.355455     1.347812     1.340169     1.332526
      1.324883     1.317240     1.309596     1.301953     1.294310     1.286667     1.279024     1.271381     1.263738     1.256095
      1.248452     1.240808     1.233165     1.225522     1.217879     1.210236     1.202593     1.194950     1.187307     1.179664
      1.172021     1.164377     1.156734     1.149091     1.141448     1.133805     1.126162     1.118519     1.110876     1.103233
      1.095590     1.087946     1.080303     1.072660     1.065017     1.057374     1.049731     1.042088     1.034445     1.026802
      1.019158     1.011515     1.003872     0.996229     0.988586     0.980943     0.973300     0.965657     0.958014     0.950371
      0.942727     0.935084     0.927441     0.919798     0.912155     0.904512     0.896869     0.889226     0.881583     0.873940
      0.866296     0.858653     0.851010     0.843367     0.835724     0.828081     0.820438     0.812795     0.805152     0.797508
      0.789865     0.782222     0.774579     0.766936     0.759293     0.751650     0.744007     0.736364     0.728721     0.721077
      0.713434     0.705791     0.698148     0.690505     0.682862     0.675219     0.667576     0.659933     0.652290     0.644646
      0.637003     0.629360     0.621717     0.614074     0.606431     0.598788     0.591145     0.583502     0.575858     0.568215
      0.560572     0.552929     0.545286     0.537643     0.530000     0.522357     0.514714     0.507071     0.499427     0.491784
      0.484141     0.476498     0.468855     0.461212     0.453569     0.445925     0.438282     0.430639     0.422996     0.415353
      0.407710     0.400067     0.392424     0.384780     0.377137     0.369494     0.361851     0.354208     0.346565     0.338922
      0.331278     0.323635     0.315992     0.308349     0.300706     0.293063     0.285420     0.277777     0.270133     0.262490
      0.254847     0.247204     0.239561     0.231918     0.224275     0.216631     0.208988     0.201345
 NY phased data points follow
  -4.43062E+01 -4.36982E+01 -3.99984E+01 -3.77495E+01 -3.57079E+01 -3.22304E+01 -2.79895E+01 -2.48026E+01 -2.27318E+01 -1.99838E+01
  -1.98704E+01 -2.28447E+01 -2.01175E+01 -2.52202E+01 -2.68854E+01 -3.04236E+01 -3.28221E+01 -3.18733E+01 -3.34221E+01 -3.32520E+01
  -3.30303E+01 -3.05185E+01 -3.21651E+01 -2.98466E+01 -3.04741E+01 -2.53242E+01 -2.48521E+01 -2.63308E+01 -2.47211E+01 -2.35165E+01
  -2.51762E+01 -2.32455E+01 -2.32960E+01 -2.49189E+01 -2.60150E+01 -2.38176E+01 -2.56527E+01 -2.57503E+01 -2.36736E+01 -2.27073E+01
  -2.37528E+01 -2.28459E+01 -2.09797E+01 -2.25617E+01 -1.84838E+01 -2.06345E+01 -1.93385E+01 -1.99076E+01 -2.01026E+01 -1.93915E+01
  -2.09043E+01 -2.15645E+01 -2.07126E+01 -2.38152E+01 -2.34614E+01 -2.31113E+01 -2.55715E+01 -2.20933E+01 -2.44625E+01 -2.24769E+01
  -2.35799E+01 -2.60168E+01 -2.61858E+01 -2.66432E+01 -2.56157E+01 -2.34489E+01 -2.44124E+01 -2.38980E+01 -2.11870E+01 -2.11577E+01
  -2.23545E+01 -2.14876E+01 -2.24933E+01 -2.20601E+01 -2.03179E+01 -1.78722E+01 -1.95115E+01 -2.16115E+01 -1.70279E+01 -1.88509E+01
  -1.93994E+01 -1.50456E+01 -1.87786E+01 -1.53272E+01 -1.60455E+01 -1.74796E+01 -1.51467E+01 -1.58641E+01 -1.52868E+01 -1.71245E+01
  -1.73653E+01 -1.64407E+01 -1.35845E+01 -1.52881E+01 -1.51704E+01 -9.62042E+00 -9.18968E+00 -3.06855E+00 -1.02441E+00  2.79883E+00
   8.11677E+00  1.32338E+01  1.55760E+01  1.41078E+01  1.20241E+01  1.10994E+01  5.37283E+00  8.36860E-01 -3.62064E+00 -4.30915E+00
  -8.13761E+00 -6.31408E+00 -8.50793E+00 -1.34805E+01 -9.10013E+00 -1.44990E+01 -1.22022E+01 -1.31149E+01 -1.30313E+01 -1.08935E+01
  -9.90383E+00 -6.71882E+00 -4.14848E+00 -5.01461E-01  5.33670E+00  1.21766E+01  1.57073E+01  1.61131E+01  1.52101E+01  1.34601E+01
   6.24905E+00  2.10820E+00 -5.77075E+00 -6.96231E+00 -8.37326E+00 -9.19138E+00 -1.05682E+01 -1.15720E+01 -1.34033E+01 -1.31762E+01
  -1.22146E+01 -9.30721E+00 -9.01189E+00 -1.32301E+01 -1.21274E+01 -1.07346E+01 -1.43243E+01 -1.47268E+01 -1.35208E+01 -1.13799E+01
  -1.59686E+01 -1.19005E+01 -1.00646E+01 -1.45842E+01 -1.38863E+01 -1.58335E+01 -1.59628E+01 -1.24553E+01 -1.16429E+01 -1.37962E+01
  -1.26975E+01 -1.51485E+01 -1.44973E+01 -1.16491E+01 -1.28642E+01 -1.17959E+01 -1.00417E+01 -9.92037E+00 -1.31709E+01 -1.47026E+01
  -1.78127E+01 -1.81872E+01 -1.57077E+01 -1.50670E+01 -1.72559E+01 -1.77664E+01 -1.72526E+01 -1.65341E+01 -1.63056E+01 -1.72150E+01
  -1.89890E+01 -1.56435E+01 -1.91502E+01 -1.46670E+01 -1.72133E+01 -1.56296E+01 -1.05051E+01 -1.29287E+01 -1.28661E+01 -4.89467E+00
  -7.88884E+00 -6.66265E+00 -5.68532E+00 -1.31831E+00 -4.97388E+00 -7.72658E+00 -6.35643E+00 -8.56536E+00 -9.23257E+00 -7.98847E+00
  -5.29187E+00 -4.51958E+00 -3.07217E+00 -2.35654E+00 -2.40284E+00 -7.39447E+00 -4.99117E+00 -6.79888E+00 -9.39364E+00 -9.23574E+00
  -5.36756E+00 -6.96744E+00 -3.57764E+00 -2.82612E+00  5.16566E-01 -2.09926E+00  1.02618E+00 -3.76673E-01  2.71479E-01 -2.02374E+00
  -5.93685E+00 -7.37000E+00  1.23588E-01 -3.74617E+00 -6.44658E+00 -2.43008E+00 -9.70808E-02  2.68645E-02  6.42187E-01  1.44793E+00
  -4.66150E-01 -2.26958E+00  7.24266E-01 -1.47346E+00  3.33952E+00  4.57105E-01  3.66547E+00  3.28033E+00 -9.56534E-03  1.55648E+00
   1.39436E+00  1.67227E+00  3.03495E+00  1.18173E+00  3.29723E+00  4.34333E+00  3.80167E+00  4.60543E+00  3.05584E+00  2.63735E+00
   8.17542E+00  7.18526E+00  6.79500E+00  1.13529E+01  1.41090E+01  2.15102E+01  2.61062E+01  3.97137E+01  4.34500E+01  4.76856E+01
   5.38803E+01  5.17080E+01  4.88786E+01  4.36580E+01  3.53075E+01  2.48979E+01  2.04678E+01  1.82607E+01  1.74362E+01  9.54446E+00
   1.07316E+01  6.55737E+00  6.83210E+00  5.51927E+00  5.02173E+00  1.34284E+00  1.25992E+00 -2.61600E+00  3.27529E+00 -1.63011E+00
   4.24128E-01  2.61892E+00  5.01705E-01 -1.68679E+00  3.49330E-01  3.46592E+00 -1.01913E+00  5.39129E-01  1.45235E+00 -5.84434E-01
  -9.68387E-01  3.09192E+00  1.70251E+00 -4.89649E-01  1.58972E+00  2.94721E+00 -3.49887E-01 -1.18743E-02  1.17885E+00  4.28242E+00
   1.71681E+00  6.43658E+00  2.81143E+00  2.71961E+00  4.35378E+00  4.57166E+00  2.72650E+00  2.13287E+00  5.60485E+00  5.54956E+00
   8.87288E+00  5.52090E+00  6.80127E+00  5.68126E+00  6.09817E+00  3.99218E+00  7.30682E+00  5.13243E+00  5.65903E+00  5.50095E+00
   9.54857E+00  7.68746E+00  3.66528E+00  6.78677E+00  7.31598E+00  4.81819E+00  6.74058E+00  7.07573E+00  6.19957E+00  5.87432E+00
   4.10794E+00  2.80604E+00  5.98097E+00  7.78244E+00  6.83018E+00  5.59083E+00  6.53065E+00  4.68484E+00  4.93478E+00  3.95842E+00
   4.44854E+00  1.27672E+00  4.42462E+00  8.35512E+00  5.11742E+00  2.29717E+00  5.68253E+00  2.68802E+00  1.25530E+00  2.08453E+00
   2.59637E+00  1.51151E+00  2.48695E+00  2.57937E+00  2.42312E+00  3.95862E+00  1.98049E+00  3.51920E+00  4.79484E+00 -3.92371E-01
   5.98562E-01  5.87813E+00  6.19632E+00  2.81856E+00  7.30470E-01  3.95327E+00  3.51745E+00  2.91832E+00  2.60406E+00  5.28319E+00
   2.21473E+00  5.64119E-01  2.62068E+00  3.20420E+00  2.81000E+00  3.29100E+00  2.10746E+00  6.09762E+00  2.00201E+00  4.29235E+00
   4.12971E+00  3.02304E+00  3.13894E+00  3.27614E+00  3.13650E+00  4.09726E+00  4.50007E+00  5.65305E+00  4.92524E+00  4.78661E+00
   5.97288E+00  3.59710E+00  5.43265E+00  4.82308E+00  5.24940E+00  9.35769E+00  4.07452E+00  2.71125E+00  6.43595E+00  5.20846E+00
   6.17005E+00  8.20377E+00  7.47698E+00  8.70306E+00  4.61128E+00  7.37121E+00  8.20638E+00  6.34823E+00  8.31002E+00  8.74201E+00
   8.13711E+00  7.09747E+00  8.85968E+00  6.64385E+00  6.59595E+00  4.99812E+00  3.73222E+00  6.73330E+00  3.33440E+00  1.98700E+00
   8.94873E+00  4.43282E+00  6.54392E+00  6.72961E+00  5.15853E+00  2.53604E+00  4.01298E+00  3.13922E+00  5.27483E+00  4.88354E+00
   2.58411E+00  5.71750E+00  3.66636E+00  3.22554E+00  2.43207E+00  1.35460E+00  5.81814E+00  3.71699E+00  3.66426E+00  2.70735E+00
   3.34427E+00  4.63152E+00  3.57823E+00  1.23534E+00  2.79077E+00  3.53767E+00  3.21377E+00  6.04788E+00  3.60760E+00  2.19282E+00
   4.58796E+00  3.91292E+00  6.00535E+00  3.72862E+00  1.59575E+00  3.98182E+00  3.57147E+00  2.72789E+00  8.98493E-01  4.25483E+00
   1.08716E+00  6.95484E+00  4.10855E+00  9.83641E-01  6.73060E-01  3.78091E+00  2.43829E+00  2.92683E+00  6.01084E+00  1.43755E+00
   3.48919E+00  6.01818E+00  2.33074E+00  1.79053E+00  1.22151E+00  4.95825E+00  6.66787E+00  5.85879E+00  2.98131E+00  4.80325E+00
   4.03360E+00  4.76337E+00  3.58905E+00  3.90630E+00  4.44649E+00  2.53264E+00  3.01084E+00  3.23790E+00  3.19817E+00  5.83923E+00
   4.41538E+00  4.18182E+00  5.72251E+00  2.68127E+00  3.93609E+00  1.65368E+00  3.85045E+00  6.37868E+00
 NY points of the fit to the data follow
  -3.84294E+01 -3.83010E+01 -3.70659E+01 -3.54334E+01 -3.37062E+01 -3.15154E+01 -2.88036E+01 -2.60395E+01 -2.36711E+01 -2.20914E+01
  -2.14568E+01 -2.16760E+01 -2.28910E+01 -2.50411E+01 -2.72801E+01 -2.86416E+01 -2.90181E+01 -2.90921E+01 -3.00716E+01 -3.15510E+01
  -3.22064E+01 -3.22728E+01 -3.17010E+01 -3.09474E+01 -3.00510E+01 -2.88295E+01 -2.72775E+01 -2.55726E+01 -2.39829E+01 -2.27164E+01
  -2.19510E+01 -2.17665E+01 -2.22174E+01 -2.32990E+01 -2.46445E+01 -2.56897E+01 -2.63630E+01 -2.68693E+01 -2.72701E+01 -2.72347E+01
  -2.63750E+01 -2.53055E+01 -2.41050E+01 -2.27505E+01 -2.15173E+01 -2.06282E+01 -2.02718E+01 -2.03559E+01 -2.08288E+01 -2.17627E+01
  -2.29724E+01 -2.40089E+01 -2.44858E+01 -2.43211E+01 -2.39441E+01 -2.38349E+01 -2.38796E+01 -2.36692E+01 -2.32608E+01 -2.29565E+01
  -2.28421E+01 -2.28411E+01 -2.29358E+01 -2.30318E+01 -2.30036E+01 -2.27639E+01 -2.23464E+01 -2.18783E+01 -2.14194E+01 -2.10232E+01
  -2.07147E+01 -2.03983E+01 -2.00805E+01 -1.98288E+01 -1.96802E+01 -1.96943E+01 -1.98274E+01 -1.99135E+01 -1.98028E+01 -1.94097E+01
  -1.89812E+01 -1.83855E+01 -1.75158E+01 -1.65747E+01 -1.58981E+01 -1.55898E+01 -1.55697E+01 -1.57886E+01 -1.61396E+01 -1.66590E+01
  -1.72569E+01 -1.75996E+01 -1.75261E+01 -1.71448E+01 -1.62901E+01 -1.40986E+01 -1.07456E+01 -6.60514E+00 -1.71904E+00  3.83559E+00
   9.28691E+00  1.36071E+01  1.60581E+01  1.63123E+01  1.45097E+01  1.07923E+01  5.48610E+00 -1.33845E-01 -4.25587E+00 -6.32357E+00
  -7.61939E+00 -9.84477E+00 -1.31264E+01 -1.51912E+01 -1.57427E+01 -1.58472E+01 -1.57880E+01 -1.56153E+01 -1.50863E+01 -1.32810E+01
  -1.01173E+01 -6.67050E+00 -2.75952E+00  1.95117E+00  6.97349E+00  1.13531E+01  1.43158E+01  1.53033E+01  1.43481E+01  1.16545E+01
   7.24977E+00  2.04267E+00 -2.21367E+00 -4.60617E+00 -5.91493E+00 -7.68737E+00 -1.06524E+01 -1.29334E+01 -1.31759E+01 -1.27621E+01
  -1.22865E+01 -1.20005E+01 -1.19820E+01 -1.20716E+01 -1.21410E+01 -1.22234E+01 -1.22738E+01 -1.23012E+01 -1.23833E+01 -1.25059E+01
  -1.26682E+01 -1.27950E+01 -1.28333E+01 -1.28491E+01 -1.28918E+01 -1.29265E+01 -1.29559E+01 -1.29878E+01 -1.30174E+01 -1.30737E+01
  -1.31170E+01 -1.30876E+01 -1.29859E+01 -1.28645E+01 -1.27530E+01 -1.26849E+01 -1.27125E+01 -1.28931E+01 -1.32243E+01 -1.36103E+01
  -1.38255E+01 -1.38572E+01 -1.39242E+01 -1.40988E+01 -1.43462E+01 -1.44701E+01 -1.43792E+01 -1.42308E+01 -1.40824E+01 -1.39405E+01
  -1.38219E+01 -1.36807E+01 -1.35119E+01 -1.32529E+01 -1.27561E+01 -1.19608E+01 -1.10165E+01 -1.01449E+01 -9.36229E+00 -8.65784E+00
  -8.05980E+00 -7.67924E+00 -7.69608E+00 -7.98129E+00 -8.24945E+00 -8.29272E+00 -7.94061E+00 -7.23021E+00 -6.41957E+00 -5.56106E+00
  -4.71908E+00 -4.00185E+00 -3.65097E+00 -3.70747E+00 -4.08553E+00 -4.79899E+00 -5.80816E+00 -6.84875E+00 -7.59311E+00 -7.78994E+00
  -7.49582E+00 -6.69363E+00 -5.44194E+00 -4.01895E+00 -2.86722E+00 -2.33306E+00 -2.41495E+00 -2.84042E+00 -3.51183E+00 -4.36637E+00
  -5.34240E+00 -5.97145E+00 -5.79031E+00 -5.06071E+00 -4.25136E+00 -3.45710E+00 -2.61231E+00 -1.72737E+00 -1.24401E+00 -1.03720E+00
  -7.58135E-01 -2.49701E-01  4.32895E-01  1.04892E+00  1.53568E+00  1.90308E+00  2.09769E+00  2.09943E+00  1.99408E+00  1.85143E+00
   1.73102E+00  1.61789E+00  1.56518E+00  1.73639E+00  2.15004E+00  2.70381E+00  3.25554E+00  3.84178E+00  4.40354E+00  4.79346E+00
   5.16698E+00  5.81931E+00  7.56502E+00  1.17042E+01  1.69498E+01  2.24986E+01  2.90371E+01  3.66144E+01  4.39445E+01  4.96654E+01
   5.27581E+01  5.26599E+01  4.95317E+01  4.34994E+01  3.50795E+01  2.65471E+01  2.06257E+01  1.76460E+01  1.55147E+01  1.17549E+01
   6.56108E+00  3.68593E+00  2.85043E+00  2.47968E+00  2.25992E+00  2.13536E+00  1.99865E+00  1.82181E+00  1.63044E+00  1.44100E+00
   1.27421E+00  1.15087E+00  1.05723E+00  9.71086E-01  9.03929E-01  8.66578E-01  8.53030E-01  8.58010E-01  8.77746E-01  9.14273E-01
   9.75279E-01  1.05493E+00  1.15265E+00  1.27105E+00  1.40858E+00  1.56678E+00  1.75043E+00  1.95933E+00  2.19117E+00  2.44232E+00
   2.71141E+00  2.99448E+00  3.28707E+00  3.58479E+00  3.88174E+00  4.17157E+00  4.44905E+00  4.70864E+00  4.94638E+00  5.15852E+00
   5.34293E+00  5.49772E+00  5.62292E+00  5.71953E+00  5.79123E+00  5.84175E+00  5.87684E+00  5.90359E+00  5.93451E+00  5.98554E+00
   6.03316E+00  6.05720E+00  6.07211E+00  6.07428E+00  6.03891E+00  5.94496E+00  5.78862E+00  5.60532E+00  5.43758E+00  5.28119E+00
   5.15241E+00  5.10089E+00  5.15455E+00  5.27392E+00  5.38902E+00  5.44886E+00  5.46037E+00  5.47542E+00  5.47022E+00  5.41659E+00
   5.32016E+00  5.20004E+00  5.09255E+00  4.96582E+00  4.73675E+00  4.39592E+00  4.00004E+00  3.60594E+00  3.24341E+00  2.91291E+00
   2.65058E+00  2.52884E+00  2.58262E+00  2.75707E+00  2.94926E+00  3.08130E+00  3.15973E+00  3.25015E+00  3.31037E+00  3.28337E+00
   3.23356E+00  3.22147E+00  3.24740E+00  3.25410E+00  3.18769E+00  3.11539E+00  3.07802E+00  3.05578E+00  3.04034E+00  3.02833E+00
   3.01892E+00  3.01154E+00  3.00683E+00  3.00523E+00  3.00806E+00  3.01620E+00  3.03123E+00  3.05414E+00  3.08664E+00  3.12985E+00
   3.18552E+00  3.25475E+00  3.33912E+00  3.43952E+00  3.55736E+00  3.69330E+00  3.84839E+00  4.02275E+00  4.21671E+00  4.42962E+00
   4.66091E+00  4.90890E+00  5.17185E+00  5.44672E+00  5.73037E+00  6.01845E+00  6.30661E+00  6.58942E+00  6.86166E+00  7.11731E+00
   7.35097E+00  7.55690E+00  7.73048E+00  7.86718E+00  7.96392E+00  8.01807E+00  8.02879E+00  7.99590E+00  7.92103E+00  7.80634E+00
   7.65558E+00  7.47275E+00  7.26309E+00  7.03173E+00  6.78452E+00  6.52668E+00  6.26376E+00  6.00032E+00  5.74099E+00  5.48923E+00
   5.24835E+00  5.02040E+00  4.80735E+00  4.60998E+00  4.42914E+00  4.26464E+00  4.11647E+00  3.98371E+00  3.86583E+00  3.76160E+00
   3.67027E+00  3.59050E+00  3.52150E+00  3.46192E+00  3.41107E+00  3.36776E+00  3.33145E+00  3.30112E+00  3.27634E+00  3.25622E+00
   3.24049E+00  3.22843E+00  3.21991E+00  3.21427E+00  3.21144E+00  3.21086E+00  3.21257E+00  3.21609E+00  3.22149E+00  3.22833E+00
   3.23671E+00  3.24622E+00  3.25703E+00  3.26878E+00  3.28163E+00  3.29524E+00  3.30976E+00  3.32490E+00  3.34087E+00  3.35735E+00
   3.37455E+00  3.39216E+00  3.41038E+00  3.42895E+00  3.44809E+00  3.46753E+00  3.48747E+00  3.50762E+00  3.52822E+00  3.54901E+00
   3.57024E+00  3.59163E+00  3.61339E+00  3.63526E+00  3.65748E+00  3.67982E+00  3.70250E+00  3.72525E+00  3.74830E+00  3.77140E+00
   3.79479E+00  3.81824E+00  3.84198E+00  3.86574E+00  3.88975E+00  3.91377E+00  3.93806E+00  3.96237E+00  3.98694E+00  4.01149E+00
   4.03627E+00  4.06106E+00  4.08610E+00  4.11114E+00  4.13642E+00  4.16169E+00  4.18719E+00  4.21271E+00
 NY background values follow
    -4.225E+01   -4.200E+01   -4.175E+01   -4.150E+01   -4.124E+01   -4.099E+01   -4.074E+01   -4.049E+01   -4.024E+01   -3.999E+01
    -3.974E+01   -3.949E+01   -3.924E+01   -3.899E+01   -3.874E+01   -3.849E+01   -3.824E+01   -3.799E+01   -3.774E+01   -3.749E+01
    -3.724E+01   -3.700E+01   -3.675E+01   -3.650E+01   -3.626E+01   -3.601E+01   -3.577E+01   -3.552E+01   -3.528E+01   -3.504E+01
    -3.480E+01   -3.455E+01   -3.431E+01   -3.407E+01   -3.383E+01   -3.360E+01   -3.336E+01   -3.312E+01   -3.288E+01   -3.265E+01
    -3.241E+01   -3.218E+01   -3.195E+01   -3.172E+01   -3.149E+01   -3.126E+01   -3.103E+01   -3.080E+01   -3.057E+01   -3.035E+01
    -3.012E+01   -2.990E+01   -2.968E+01   -2.945E+01   -2.923E+01   -2.901E+01   -2.880E+01   -2.858E+01   -2.836E+01   -2.815E+01
    -2.793E+01   -2.772E+01   -2.751E+01   -2.730E+01   -2.709E+01   -2.688E+01   -2.668E+01   -2.647E+01   -2.627E+01   -2.607E+01
    -2.586E+01   -2.566E+01   -2.547E+01   -2.527E+01   -2.507E+01   -2.488E+01   -2.468E+01   -2.449E+01   -2.430E+01   -2.411E+01
    -2.392E+01   -2.374E+01   -2.355E+01   -2.337E+01   -2.319E+01   -2.301E+01   -2.283E+01   -2.265E+01   -2.247E+01   -2.230E+01
    -2.213E+01   -2.196E+01   -2.179E+01   -2.162E+01   -2.145E+01   -2.128E+01   -2.112E+01   -2.096E+01   -2.080E+01   -2.064E+01
    -2.048E+01   -2.032E+01   -2.017E+01   -2.001E+01   -1.986E+01   -1.971E+01   -1.956E+01   -1.941E+01   -1.926E+01   -1.911E+01
    -1.897E+01   -1.882E+01   -1.868E+01   -1.854E+01   -1.839E+01   -1.825E+01   -1.812E+01   -1.798E+01   -1.784E+01   -1.771E+01
    -1.757E+01   -1.744E+01   -1.730E+01   -1.717E+01   -1.704E+01   -1.691E+01   -1.678E+01   -1.665E+01   -1.653E+01   -1.640E+01
    -1.627E+01   -1.615E+01   -1.603E+01   -1.590E+01   -1.578E+01   -1.566E+01   -1.554E+01   -1.542E+01   -1.530E+01   -1.518E+01
    -1.506E+01   -1.494E+01   -1.482E+01   -1.471E+01   -1.459E+01   -1.447E+01   -1.436E+01   -1.424E+01   -1.413E+01   -1.402E+01
    -1.390E+01   -1.379E+01   -1.368E+01   -1.356E+01   -1.345E+01   -1.334E+01   -1.323E+01   -1.311E+01   -1.300E+01   -1.289E+01
    -1.278E+01   -1.267E+01   -1.256E+01   -1.245E+01   -1.234E+01   -1.222E+01   -1.211E+01   -1.200E+01   -1.189E+01   -1.178E+01
    -1.167E+01   -1.156E+01   -1.144E+01   -1.133E+01   -1.122E+01   -1.111E+01   -1.099E+01   -1.088E+01   -1.077E+01   -1.065E+01
    -1.054E+01   -1.043E+01   -1.031E+01   -1.020E+01   -1.008E+01   -9.965E+00   -9.849E+00   -9.733E+00   -9.616E+00   -9.500E+00
    -9.383E+00   -9.266E+00   -9.149E+00   -9.032E+00   -8.916E+00   -8.799E+00   -8.682E+00   -8.565E+00   -8.449E+00   -8.333E+00
    -8.217E+00   -8.101E+00   -7.986E+00   -7.871E+00   -7.756E+00   -7.642E+00   -7.528E+00   -7.415E+00   -7.302E+00   -7.189E+00
    -7.078E+00   -6.967E+00   -6.856E+00   -6.747E+00   -6.638E+00   -6.529E+00   -6.422E+00   -6.315E+00   -6.210E+00   -6.105E+00
    -6.001E+00   -5.898E+00   -5.796E+00   -5.695E+00   -5.596E+00   -5.497E+00   -5.399E+00   -5.303E+00   -5.208E+00   -5.114E+00
    -5.021E+00   -4.929E+00   -4.839E+00   -4.749E+00   -4.661E+00   -4.574E+00   -4.488E+00   -4.402E+00   -4.319E+00   -4.236E+00
    -4.154E+00   -4.073E+00   -3.993E+00   -3.914E+00   -3.837E+00   -3.760E+00   -3.684E+00   -3.609E+00   -3.536E+00   -3.463E+00
    -3.391E+00   -3.320E+00   -3.250E+00   -3.181E+00   -3.113E+00   -3.046E+00   -2.980E+00   -2.914E+00   -2.850E+00   -2.786E+00
    -2.723E+00   -2.661E+00   -2.600E+00   -2.540E+00   -2.480E+00   -2.422E+00   -2.364E+00   -2.307E+00   -2.251E+00   -2.195E+00
    -2.141E+00   -2.087E+00   -2.033E+00   -1.981E+00   -1.929E+00   -1.878E+00   -1.828E+00   -1.778E+00   -1.730E+00   -1.681E+00
    -1.634E+00   -1.587E+00   -1.541E+00   -1.496E+00   -1.451E+00   -1.407E+00   -1.363E+00   -1.320E+00   -1.278E+00   -1.237E+00
    -1.196E+00   -1.155E+00   -1.116E+00   -1.077E+00   -1.038E+00   -1.000E+00   -9.628E-01   -9.260E-01   -8.898E-01   -8.542E-01
    -8.191E-01   -7.846E-01   -7.507E-01   -7.172E-01   -6.843E-01   -6.519E-01   -6.201E-01   -5.887E-01   -5.579E-01   -5.275E-01
    -4.977E-01   -4.683E-01   -4.394E-01   -4.109E-01   -3.830E-01   -3.554E-01   -3.284E-01   -3.018E-01   -2.756E-01   -2.498E-01
    -2.244E-01   -1.995E-01   -1.749E-01   -1.507E-01   -1.269E-01   -1.034E-01   -8.030E-02   -5.752E-02   -3.507E-02   -1.292E-02
     8.916E-03    3.046E-02    5.173E-02    7.272E-02    9.345E-02    1.139E-01    1.342E-01    1.542E-01    1.740E-01    1.936E-01
     2.130E-01    2.322E-01    2.512E-01    2.701E-01    2.888E-01    3.074E-01    3.258E-01    3.442E-01    3.624E-01    3.805E-01
     3.985E-01    4.165E-01    4.344E-01    4.522E-01    4.700E-01    4.877E-01    5.054E-01    5.232E-01    5.409E-01    5.586E-01
     5.763E-01    5.941E-01    6.119E-01    6.298E-01    6.477E-01    6.656E-01    6.836E-01    7.017E-01    7.199E-01    7.381E-01
     7.564E-01    7.748E-01    7.932E-01    8.118E-01    8.304E-01    8.491E-01    8.679E-01    8.868E-01    9.059E-01    9.250E-01
     9.442E-01    9.636E-01    9.830E-01    1.003E+00    1.022E+00    1.042E+00    1.062E+00    1.082E+00    1.103E+00    1.123E+00
     1.143E+00    1.164E+00    1.185E+00    1.206E+00    1.227E+00    1.249E+00    1.270E+00    1.292E+00    1.314E+00    1.336E+00
     1.358E+00    1.380E+00    1.403E+00    1.426E+00    1.449E+00    1.472E+00    1.495E+00    1.519E+00    1.543E+00    1.567E+00
     1.591E+00    1.615E+00    1.640E+00    1.665E+00    1.690E+00    1.715E+00    1.740E+00    1.766E+00    1.791E+00    1.817E+00
     1.843E+00    1.869E+00    1.895E+00    1.922E+00    1.948E+00    1.975E+00    2.002E+00    2.029E+00    2.056E+00    2.083E+00
     2.110E+00    2.137E+00    2.165E+00    2.192E+00    2.220E+00    2.247E+00    2.275E+00    2.303E+00    2.331E+00    2.359E+00
     2.387E+00    2.415E+00    2.443E+00    2.471E+00    2.499E+00    2.527E+00    2.555E+00    2.583E+00    2.611E+00    2.640E+00
     2.668E+00    2.696E+00    2.724E+00    2.752E+00    2.780E+00    2.809E+00    2.837E+00    2.865E+00    2.893E+00    2.921E+00
     2.949E+00    2.977E+00    3.005E+00    3.033E+00    3.062E+00    3.090E+00    3.118E+00    3.146E+00    3.174E+00    3.202E+00
     3.230E+00    3.258E+00    3.286E+00    3.314E+00    3.342E+00    3.370E+00    3.398E+00    3.426E+00    3.454E+00    3.482E+00
     3.510E+00    3.539E+00    3.567E+00    3.595E+00    3.623E+00    3.651E+00    3.679E+00    3.707E+00    3.735E+00    3.763E+00
     3.791E+00    3.819E+00    3.847E+00    3.876E+00    3.904E+00    3.932E+00    3.960E+00    3.988E+00
 Ala      Conc. = 6.24E+01
