 LCModel (Version 6.3-1L) Copyright: S.W. Provencher.          Ref.: Magn. Reson. Med. 30:672-679 (1993).                
 Slice#2 Row#8 Col#3  PD_05_press_1_raw_act
 36 lines in following concentration table = NCONC+1
    Conc.  %SD /Cr+PCr  Metabolite                                         
  139.770  60%   0.139 Ala                                                 
    5.661 999% 5.6E-03 Asp                                                 
    0.000 999%   0.000 Cr                                                  
 1.01E+03   4%   1.000 PCr                                                 
   58.648 168% 5.8E-02 GABA                                                
   80.978 115% 8.1E-02 Glc                                                 
  554.700  34%   0.552 Gln                                                 
 1.49E+03  15%   1.480 Glu                                                 
  210.001  12%   0.209 GPC                                                 
  105.542  24%   0.105 PCh                                                 
  315.602  17%   0.314 GSH                                                 
  885.346  21%   0.881 Ins                                                 
    0.000 999%   0.000 Lac                                                 
 1.59E+03   5%   1.583 NAA                                                 
   98.659  86% 9.8E-02 NAAG                                                
  106.178  17%   0.106 Scyllo                                              
  293.650  45%   0.292 Tau                                                 
  352.218  20%   0.350 -CrCH2                                              
  315.543   5%   0.314 GPC+PCh                                             
 1.69E+03   3%   1.681 NAA+NAAG                                            
 1.01E+03   4%   1.000 Cr+PCr                                              
 2.04E+03  17%   2.032 Glu+Gln                                             
    0.000 999%   0.000 Lip13a                                              
  157.683  34%   0.157 Lip13b                                              
   30.175  89% 3.0E-02 Lip09                                               
  455.606  20%   0.453 MM09                                                
   25.704  70% 2.6E-02 Lip20                                               
  995.195  17%   0.990 MM20                                                
  117.518  40%   0.117 MM12                                                
  525.270  22%   0.522 MM14                                                
  186.156  49%   0.185 MM17                                                
  157.683  34%   0.157 Lip13a+Lip13b                                       
  800.472  18%   0.796 MM14+Lip13a+Lip13b+MM12                             
  485.781  19%   0.483 MM09+Lip09                                          
 1.02E+03  17%   1.015 MM20+Lip20                                          
   6 lines in following misc. output table
  FWHM = 0.061 ppm    S/N =  12                                            
  Data shift = 0.015 ppm                                                   
  Ph: -66 deg     -28.3 deg/ppm                                            
  alphaB,S = 1.3E+00,   2.3E+01                                            
   14 spline knots.   Ns = 9(1)                                            
  (16)11 infls.   (19) 3 extrs.                                            
  498 points on ppm-axis = NY
      4.000000     3.992357     3.984714     3.977070     3.969427     3.961784     3.954141     3.946497     3.938854     3.931211
      3.923568     3.915925     3.908281     3.900638     3.892995     3.885352     3.877708     3.870065     3.862422     3.854779
      3.847136     3.839492     3.831849     3.824206     3.816563     3.808919     3.801276     3.793633     3.785990     3.778347
      3.770703     3.763060     3.755417     3.747774     3.740130     3.732487     3.724844     3.717201     3.709558     3.701914
      3.694271     3.686628     3.678985     3.671341     3.663698     3.656055     3.648412     3.640769     3.633125     3.625482
      3.617839     3.610196     3.602552     3.594909     3.587266     3.579623     3.571980     3.564336     3.556693     3.549050
      3.541407     3.533763     3.526120     3.518477     3.510834     3.503191     3.495547     3.487904     3.480261     3.472618
      3.464974     3.457331     3.449688     3.442045     3.434402     3.426758     3.419115     3.411472     3.403829     3.396185
      3.388542     3.380899     3.373256     3.365613     3.357969     3.350326     3.342683     3.335040     3.327396     3.319753
      3.312110     3.304467     3.296824     3.289180     3.281537     3.273894     3.266251     3.258607     3.250964     3.243321
      3.235678     3.228034     3.220391     3.212748     3.205105     3.197462     3.189818     3.182175     3.174532     3.166889
      3.159245     3.151602     3.143959     3.136316     3.128673     3.121029     3.113386     3.105743     3.098100     3.090456
      3.082813     3.075170     3.067527     3.059884     3.052240     3.044597     3.036954     3.029311     3.021667     3.014024
      3.006381     2.998738     2.991095     2.983451     2.975808     2.968165     2.960522     2.952878     2.945235     2.937592
      2.929949     2.922306     2.914662     2.907019     2.899376     2.891733     2.884089     2.876446     2.868803     2.861160
      2.853517     2.845873     2.838230     2.830587     2.822944     2.815300     2.807657     2.800014     2.792371     2.784728
      2.777084     2.769441     2.761798     2.754155     2.746511     2.738868     2.731225     2.723582     2.715939     2.708295
      2.700652     2.693009     2.685366     2.677722     2.670079     2.662436     2.654793     2.647150     2.639506     2.631863
      2.624220     2.616577     2.608933     2.601290     2.593647     2.586004     2.578361     2.570717     2.563074     2.555431
      2.547788     2.540144     2.532501     2.524858     2.517215     2.509572     2.501928     2.494285     2.486642     2.478999
      2.471355     2.463712     2.456069     2.448426     2.440783     2.433139     2.425496     2.417853     2.410210     2.402566
      2.394923     2.387280     2.379637     2.371994     2.364350     2.356707     2.349064     2.341421     2.333777     2.326134
      2.318491     2.310848     2.303205     2.295561     2.287918     2.280275     2.272632     2.264988     2.257345     2.249702
      2.242059     2.234416     2.226772     2.219129     2.211486     2.203843     2.196199     2.188556     2.180913     2.173270
      2.165627     2.157983     2.150340     2.142697     2.135054     2.127410     2.119767     2.112124     2.104481     2.096838
      2.089194     2.081551     2.073908     2.066265     2.058621     2.050978     2.043335     2.035692     2.028049     2.020405
      2.012762     2.005119     1.997476     1.989833     1.982190     1.974546     1.966903     1.959260     1.951617     1.943974
      1.936331     1.928688     1.921045     1.913402     1.905759     1.898115     1.890472     1.882829     1.875186     1.867543
      1.859900     1.852257     1.844614     1.836971     1.829327     1.821684     1.814041     1.806398     1.798755     1.791112
      1.783469     1.775826     1.768183     1.760540     1.752896     1.745253     1.737610     1.729967     1.722324     1.714681
      1.707038     1.699395     1.691752     1.684108     1.676465     1.668822     1.661179     1.653536     1.645893     1.638250
      1.630607     1.622964     1.615321     1.607677     1.600034     1.592391     1.584748     1.577105     1.569462     1.561819
      1.554176     1.546533     1.538890     1.531246     1.523603     1.515960     1.508317     1.500674     1.493031     1.485388
      1.477745     1.470102     1.462458     1.454815     1.447172     1.439529     1.431886     1.424243     1.416600     1.408957
      1.401314     1.393671     1.386027     1.378384     1.370741     1.363098     1.355455     1.347812     1.340169     1.332526
      1.324883     1.317240     1.309596     1.301953     1.294310     1.286667     1.279024     1.271381     1.263738     1.256095
      1.248452     1.240808     1.233165     1.225522     1.217879     1.210236     1.202593     1.194950     1.187307     1.179664
      1.172021     1.164377     1.156734     1.149091     1.141448     1.133805     1.126162     1.118519     1.110876     1.103233
      1.095590     1.087946     1.080303     1.072660     1.065017     1.057374     1.049731     1.042088     1.034445     1.026802
      1.019158     1.011515     1.003872     0.996229     0.988586     0.980943     0.973300     0.965657     0.958014     0.950371
      0.942727     0.935084     0.927441     0.919798     0.912155     0.904512     0.896869     0.889226     0.881583     0.873940
      0.866296     0.858653     0.851010     0.843367     0.835724     0.828081     0.820438     0.812795     0.805152     0.797508
      0.789865     0.782222     0.774579     0.766936     0.759293     0.751650     0.744007     0.736364     0.728721     0.721077
      0.713434     0.705791     0.698148     0.690505     0.682862     0.675219     0.667576     0.659933     0.652290     0.644646
      0.637003     0.629360     0.621717     0.614074     0.606431     0.598788     0.591145     0.583502     0.575858     0.568215
      0.560572     0.552929     0.545286     0.537643     0.530000     0.522357     0.514714     0.507071     0.499427     0.491784
      0.484141     0.476498     0.468855     0.461212     0.453569     0.445925     0.438282     0.430639     0.422996     0.415353
      0.407710     0.400067     0.392424     0.384780     0.377137     0.369494     0.361851     0.354208     0.346565     0.338922
      0.331278     0.323635     0.315992     0.308349     0.300706     0.293063     0.285420     0.277777     0.270133     0.262490
      0.254847     0.247204     0.239561     0.231918     0.224275     0.216631     0.208988     0.201345
 NY phased data points follow
  -3.95472E+01 -4.20986E+01 -3.84283E+01 -3.88751E+01 -3.08360E+01 -3.41180E+01 -2.96971E+01 -2.69565E+01 -2.33608E+01 -2.15580E+01
  -2.28345E+01 -2.32739E+01 -2.84663E+01 -3.09193E+01 -3.09311E+01 -3.35783E+01 -3.10530E+01 -3.43318E+01 -3.39138E+01 -3.70937E+01
  -3.34127E+01 -3.08224E+01 -3.13238E+01 -3.03785E+01 -3.04785E+01 -2.82434E+01 -2.88563E+01 -3.01874E+01 -2.66647E+01 -2.45497E+01
  -2.35504E+01 -2.41727E+01 -2.33639E+01 -2.76210E+01 -2.82813E+01 -2.70085E+01 -2.92323E+01 -2.26316E+01 -2.57185E+01 -2.79223E+01
  -2.85926E+01 -2.38138E+01 -2.64353E+01 -2.51934E+01 -2.15164E+01 -2.27254E+01 -2.08381E+01 -1.97937E+01 -2.21615E+01 -2.24302E+01
  -2.39530E+01 -2.43680E+01 -2.45082E+01 -2.41330E+01 -2.42578E+01 -2.62930E+01 -2.42539E+01 -2.19644E+01 -2.37833E+01 -2.34366E+01
  -2.22680E+01 -2.41020E+01 -2.54436E+01 -2.75331E+01 -2.55706E+01 -2.59770E+01 -2.51028E+01 -2.56868E+01 -2.21765E+01 -2.17211E+01
  -2.55713E+01 -2.17789E+01 -1.81772E+01 -2.25518E+01 -1.90045E+01 -2.03776E+01 -2.14203E+01 -2.13404E+01 -2.04680E+01 -1.89868E+01
  -1.65040E+01 -1.98220E+01 -1.73877E+01 -1.67491E+01 -1.72690E+01 -1.69837E+01 -1.69955E+01 -1.57402E+01 -1.68787E+01 -1.72077E+01
  -1.63135E+01 -1.87540E+01 -1.25143E+01 -1.49693E+01 -1.32753E+01 -1.11194E+01 -8.09490E+00 -6.31386E+00 -5.70867E+00 -1.67919E+00
   1.87156E+00  2.77592E+00  1.09083E+00  2.90398E+00  3.16550E+00 -3.77076E-01 -5.57423E+00 -5.39826E+00 -6.67887E+00 -8.61215E+00
  -1.09123E+01 -1.06129E+01 -9.93899E+00 -1.44012E+01 -8.89203E+00 -1.31680E+01 -1.00440E+01 -1.02436E+01 -1.01823E+01 -8.12568E+00
  -6.87284E+00 -7.84130E+00 -1.43337E+00  2.56097E+00  7.08860E+00  9.77991E+00  1.34796E+01  1.23581E+01  1.40146E+01  7.01458E+00
   7.95415E+00  1.48853E+00 -3.01177E+00 -4.05720E+00 -7.19324E+00 -8.63332E+00 -1.06259E+01 -7.93673E+00 -1.02272E+01 -1.18762E+01
  -1.14428E+01 -1.18283E+01 -1.17350E+01 -1.22545E+01 -1.00454E+01 -1.06641E+01 -7.94678E+00 -8.46643E+00 -7.30092E+00 -1.05712E+01
  -1.11693E+01 -1.10862E+01 -9.35988E+00 -8.47806E+00 -8.86692E+00 -9.34171E+00 -7.52651E+00 -9.03535E+00 -8.29603E+00 -1.03377E+01
  -9.34984E+00 -1.12912E+01 -1.37416E+01 -8.44458E+00 -1.16451E+01 -9.38219E+00 -8.52853E+00 -9.72883E+00 -1.15808E+01 -1.03457E+01
  -1.11125E+01 -1.51492E+01 -1.20383E+01 -1.44000E+01 -1.20074E+01 -1.18859E+01 -1.32489E+01 -1.41451E+01 -9.56707E+00 -1.11095E+01
  -8.57668E+00 -1.07007E+01 -8.96881E+00 -7.75499E+00 -7.28642E+00 -9.05324E+00 -9.20935E+00 -6.15208E+00 -2.46345E+00 -3.83162E+00
  -5.64113E+00 -4.09138E+00 -3.60835E+00 -2.97199E+00 -3.75834E-01 -2.65059E+00 -2.48326E+00 -3.25597E+00 -4.14781E+00 -7.94878E+00
  -6.88066E-01 -2.86874E+00  8.50165E-01  8.59044E-01 -3.06981E-01 -6.69842E-01 -1.82319E+00 -2.10367E+00 -4.09345E+00 -5.53180E+00
  -3.41005E+00 -3.03763E+00  7.82670E-01  3.72009E+00  4.16503E+00  1.23469E+00  3.61781E+00  5.04477E-01  1.80847E+00 -4.93898E-01
  -1.68344E+00 -5.34262E+00 -3.28930E+00 -3.31495E+00 -3.07486E+00  5.18674E-01  1.94438E+00  2.92271E+00  2.85960E+00  5.13483E+00
   4.59432E+00  2.92964E+00  2.73175E+00  3.40332E+00  2.99791E+00  3.25089E+00  4.64787E+00  4.00656E+00  1.68092E+00  1.32071E+00
   3.21682E+00  4.47785E+00  3.71009E+00  4.06266E+00  2.05137E+00  4.90453E+00  7.14365E+00  9.49528E+00  6.53091E+00  7.69748E+00
   9.93284E+00  1.31165E+01  1.27733E+01  1.62347E+01  2.01836E+01  2.19475E+01  2.61436E+01  3.48983E+01  3.91422E+01  4.51677E+01
   5.11629E+01  4.58274E+01  4.38611E+01  3.68223E+01  3.40911E+01  2.75809E+01  2.26125E+01  1.58868E+01  1.31036E+01  1.12014E+01
   7.09167E+00  8.76630E+00  1.13054E+01  8.60481E+00  5.94697E+00  5.50711E+00  7.34709E+00  6.86121E+00  6.54639E+00  6.12314E+00
   3.85482E+00  4.03851E+00  6.64049E+00  2.87296E+00  3.27360E+00  6.83484E+00  4.00833E+00  3.31152E+00  4.98363E+00  5.36180E+00
   2.47295E+00  5.15523E+00  5.08333E+00  5.37660E+00  4.07964E+00  3.64054E+00  2.74655E+00  5.84602E+00  5.97360E+00  4.99587E+00
   7.05443E+00  6.28256E+00  4.74349E+00  6.25570E+00  5.15227E+00  5.99308E+00  4.55262E+00  2.39431E+00  6.32571E+00  4.86142E+00
   6.68132E+00  6.59101E+00  8.26468E+00  8.08694E+00  4.28975E+00  6.39575E+00  7.00117E+00  7.90366E+00  6.58447E+00  7.63047E+00
   7.48183E+00  6.15665E+00  9.61843E+00  9.47854E+00  7.03394E+00  7.73646E+00  8.30947E+00  1.02765E+01  9.21628E+00  7.23766E+00
   7.74278E+00  4.63270E+00  7.32683E+00  7.88767E+00  7.30730E+00  7.96052E+00  5.60493E+00  8.24789E+00  8.62099E+00  8.27424E+00
   8.19178E+00  6.71727E+00  6.28876E+00  9.01754E+00  8.65246E+00  6.37645E+00  9.40947E+00  8.09709E+00  8.94100E+00  7.46717E+00
   7.33434E+00  1.07393E+01  7.74635E+00  9.96997E+00  8.89390E+00  6.04878E+00  7.27813E+00  9.94727E+00  9.00429E+00  7.81365E+00
   8.59745E+00  7.29173E+00  8.14760E+00  2.95797E+00  6.43887E+00  7.20153E+00  8.65880E+00  6.03252E+00  2.81352E+00  6.53161E+00
   4.70372E+00  4.38247E+00  4.65273E+00  5.28350E+00  4.28417E+00  4.33687E+00  5.95492E+00  4.51907E+00  7.34891E+00  6.60997E+00
   5.26195E+00  6.50046E+00  5.96367E+00  5.85453E+00  7.23036E+00  6.49049E+00  7.38268E+00  5.57260E+00  8.01850E+00  5.93701E+00
   1.05376E+01  7.04936E+00  7.70569E+00  8.10979E+00  8.40102E+00  8.53974E+00  1.08119E+01  8.69175E+00  9.90601E+00  8.20622E+00
   7.68508E+00  6.11831E+00  1.00143E+01  7.12968E+00  1.10401E+01  6.21491E+00  7.66735E+00  9.25703E+00  9.28592E+00  8.64935E+00
   4.12092E+00  9.32957E+00  7.57586E+00  9.64952E+00  6.57669E+00  8.05730E+00  7.10387E+00  8.14675E+00  6.91761E+00  6.10303E+00
   6.46635E+00  7.74837E+00  4.54698E+00  8.35737E+00  6.69724E+00  6.77478E+00  6.78587E+00  6.31261E+00  6.38878E+00  7.19733E+00
   5.40253E+00  7.07334E+00  7.06798E+00  4.71590E+00  5.09567E+00  7.30984E+00  8.02422E+00  4.94587E+00  5.17799E+00  5.69689E+00
   5.80688E+00  5.57583E+00  8.67062E+00  4.30187E+00  5.24942E+00  5.62554E+00  5.13190E+00  7.05219E+00  6.42308E+00  7.06412E+00
   7.72954E+00  8.38150E+00  8.97686E+00  3.84222E+00  6.58329E+00  7.74804E+00  7.38784E+00  8.49820E+00  7.21516E+00  6.77247E+00
   6.88090E+00  6.75525E+00  7.47629E+00  7.20058E+00  7.28177E+00  6.94943E+00  7.91297E+00  6.78120E+00  5.03212E+00  6.07053E+00
   5.90123E+00  7.77809E+00  5.25410E+00  6.12639E+00  7.37787E+00  9.17411E+00  4.33640E+00  7.74303E+00  5.12907E+00  7.56578E+00
   5.52844E+00  7.56128E+00  6.45832E+00  5.81169E+00  6.63499E+00  5.34553E+00  3.84749E+00  5.36054E+00  7.17903E+00  8.02678E+00
   7.15930E+00  6.00852E+00  6.20703E+00  6.60842E+00  7.12750E+00  8.73100E+00  8.04578E+00  8.54468E+00
 NY points of the fit to the data follow
  -3.61439E+01 -3.57967E+01 -3.53837E+01 -3.47136E+01 -3.29295E+01 -3.07132E+01 -2.87892E+01 -2.67220E+01 -2.48449E+01 -2.45691E+01
  -2.51974E+01 -2.61858E+01 -2.70838E+01 -2.84134E+01 -2.98610E+01 -3.09428E+01 -3.14583E+01 -3.19144E+01 -3.20336E+01 -3.27162E+01
  -3.26241E+01 -3.18696E+01 -3.15751E+01 -3.11458E+01 -3.07316E+01 -2.98757E+01 -2.91625E+01 -2.84602E+01 -2.69766E+01 -2.54821E+01
  -2.46401E+01 -2.39672E+01 -2.36498E+01 -2.37548E+01 -2.47966E+01 -2.60506E+01 -2.69607E+01 -2.76198E+01 -2.77559E+01 -2.74796E+01
  -2.74336E+01 -2.70604E+01 -2.64056E+01 -2.53604E+01 -2.43067E+01 -2.34509E+01 -2.27280E+01 -2.25050E+01 -2.29432E+01 -2.35018E+01
  -2.40396E+01 -2.46359E+01 -2.51949E+01 -2.55873E+01 -2.56072E+01 -2.53688E+01 -2.50087E+01 -2.46005E+01 -2.42202E+01 -2.39238E+01
  -2.36555E+01 -2.36368E+01 -2.35570E+01 -2.35075E+01 -2.34516E+01 -2.33166E+01 -2.30346E+01 -2.26221E+01 -2.22470E+01 -2.19910E+01
  -2.16617E+01 -2.13033E+01 -2.09788E+01 -2.06971E+01 -2.04041E+01 -2.02321E+01 -2.02454E+01 -2.01324E+01 -1.98519E+01 -1.99501E+01
  -1.98222E+01 -1.94155E+01 -1.86044E+01 -1.78270E+01 -1.71844E+01 -1.65247E+01 -1.62599E+01 -1.64989E+01 -1.68605E+01 -1.70966E+01
  -1.71833E+01 -1.71302E+01 -1.60286E+01 -1.53904E+01 -1.48701E+01 -1.33373E+01 -1.09884E+01 -8.22223E+00 -5.30607E+00 -1.89659E+00
   1.82974E+00  3.66278E+00  3.84699E+00  3.47126E+00  2.31180E+00 -7.92976E-02 -3.11378E+00 -5.66232E+00 -7.70037E+00 -9.75269E+00
  -1.12288E+01 -1.26312E+01 -1.38054E+01 -1.42122E+01 -1.45458E+01 -1.48262E+01 -1.45717E+01 -1.29564E+01 -1.02865E+01 -9.71010E+00
  -8.58794E+00 -6.57418E+00 -2.28826E+00  2.39691E+00  6.58164E+00  1.10922E+01  1.40925E+01  1.34478E+01  1.12321E+01  8.52913E+00
   5.85241E+00  2.02504E+00 -1.61896E+00 -4.41259E+00 -6.43955E+00 -8.02770E+00 -8.98921E+00 -1.06315E+01 -1.11269E+01 -1.09322E+01
  -1.05617E+01 -1.02762E+01 -1.00753E+01 -9.99129E+00 -9.98026E+00 -9.96420E+00 -9.97337E+00 -9.97168E+00 -9.93273E+00 -9.94345E+00
  -9.95143E+00 -9.96843E+00 -1.00348E+01 -1.00699E+01 -9.97674E+00 -9.83116E+00 -9.67968E+00 -9.66572E+00 -9.76041E+00 -9.82070E+00
  -9.86947E+00 -9.80450E+00 -9.64768E+00 -9.46705E+00 -9.30532E+00 -9.27638E+00 -9.37063E+00 -9.50584E+00 -9.65902E+00 -9.69750E+00
  -9.78861E+00 -9.89759E+00 -1.00542E+01 -1.02178E+01 -1.02156E+01 -1.02063E+01 -1.01856E+01 -1.00090E+01 -9.84883E+00 -9.67001E+00
  -9.41526E+00 -9.11037E+00 -8.74463E+00 -8.47368E+00 -8.20245E+00 -7.77184E+00 -7.15919E+00 -6.36958E+00 -5.51277E+00 -4.80354E+00
  -4.22840E+00 -3.88202E+00 -3.66716E+00 -3.64576E+00 -3.71868E+00 -3.66121E+00 -3.41981E+00 -3.03751E+00 -2.51741E+00 -1.93288E+00
  -1.33320E+00 -9.84344E-01 -4.90210E-01 -2.60616E-01 -4.10472E-01 -1.11758E+00 -1.92943E+00 -2.29840E+00 -3.09661E+00 -3.76229E+00
  -3.53782E+00 -2.50169E+00 -1.22744E+00 -2.83117E-01  8.72019E-01  1.98338E+00  1.91069E+00  7.11454E-01 -8.63365E-01 -2.41694E+00
  -3.63921E+00 -4.66445E+00 -4.85481E+00 -3.75828E+00 -2.18308E+00 -6.98475E-01  3.74548E-01  1.33540E+00  2.35987E+00  2.80083E+00
   2.87789E+00  2.92224E+00  3.29468E+00  3.72195E+00  3.79731E+00  3.96571E+00  4.39222E+00  4.55160E+00  4.23719E+00  3.87410E+00
   3.64358E+00  3.41197E+00  3.24191E+00  3.47781E+00  4.07425E+00  4.62453E+00  5.20157E+00  5.89686E+00  6.43014E+00  6.90140E+00
   7.85545E+00  1.07528E+01  1.53920E+01  1.72903E+01  1.93174E+01  2.24895E+01  2.82188E+01  3.44682E+01  3.98837E+01  4.55894E+01
   4.93645E+01  4.77779E+01  4.35420E+01  3.84691E+01  3.33367E+01  2.69416E+01  2.07199E+01  1.61213E+01  1.30976E+01  1.07182E+01
   9.12533E+00  6.55644E+00  5.24882E+00  5.00563E+00  4.94383E+00  4.90452E+00  4.89635E+00  4.84382E+00  4.76150E+00  4.65530E+00
   4.56319E+00  4.50396E+00  4.47855E+00  4.46927E+00  4.45663E+00  4.46460E+00  4.48695E+00  4.51505E+00  4.55268E+00  4.60021E+00
   4.65052E+00  4.71582E+00  4.78288E+00  4.85167E+00  4.92225E+00  4.99729E+00  5.07339E+00  5.15004E+00  5.22955E+00  5.31498E+00
   5.40065E+00  5.48767E+00  5.57257E+00  5.65449E+00  5.73297E+00  5.80787E+00  5.87808E+00  5.94524E+00  6.00847E+00  6.07146E+00
   6.13381E+00  6.19804E+00  6.26561E+00  6.33932E+00  6.42126E+00  6.51706E+00  6.63246E+00  6.78404E+00  6.99675E+00  7.14184E+00
   7.19003E+00  7.33617E+00  7.53480E+00  7.75381E+00  7.82531E+00  7.78251E+00  7.74303E+00  7.61998E+00  7.24923E+00  6.92633E+00
   6.69310E+00  6.66067E+00  6.73873E+00  6.95825E+00  7.38375E+00  7.86374E+00  8.16498E+00  8.30501E+00  8.33698E+00  8.40612E+00
   8.34105E+00  8.18741E+00  8.03425E+00  7.91474E+00  7.82525E+00  7.79230E+00  7.71842E+00  7.71710E+00  7.79314E+00  7.92436E+00
   8.09229E+00  8.27714E+00  8.45353E+00  8.59626E+00  8.68063E+00  8.68976E+00  8.61445E+00  8.45811E+00  8.23297E+00  7.96080E+00
   7.66572E+00  7.37303E+00  7.10239E+00  6.86874E+00  6.67849E+00  6.53343E+00  6.42911E+00  6.35980E+00  6.31722E+00  6.29505E+00
   6.28669E+00  6.28862E+00  6.29724E+00  6.31162E+00  6.33022E+00  6.35373E+00  6.38179E+00  6.41581E+00  6.45582E+00  6.50330E+00
   6.55828E+00  6.62231E+00  6.69547E+00  6.77916E+00  6.87318E+00  6.97854E+00  7.09464E+00  7.22209E+00  7.35981E+00  7.50768E+00
   7.66371E+00  7.82686E+00  7.99430E+00  8.16417E+00  8.33284E+00  8.49764E+00  8.65426E+00  8.79963E+00  8.92944E+00  9.04093E+00
   9.13031E+00  9.19557E+00  9.23398E+00  9.24497E+00  9.22750E+00  9.18267E+00  9.11110E+00  9.01541E+00  8.89760E+00  8.76155E+00
   8.61028E+00  8.44825E+00  8.27863E+00  8.10573E+00  7.93239E+00  7.76237E+00  7.59778E+00  7.44141E+00  7.29430E+00  7.15819E+00
   7.03323E+00  6.92039E+00  6.81907E+00  6.72954E+00  6.65061E+00  6.58219E+00  6.52293E+00  6.47262E+00  6.42984E+00  6.39430E+00
   6.36459E+00  6.34055E+00  6.32099E+00  6.30590E+00  6.29416E+00  6.28581E+00  6.27985E+00  6.27650E+00  6.27496E+00  6.27551E+00
   6.27735E+00  6.28077E+00  6.28508E+00  6.29070E+00  6.29701E+00  6.30441E+00  6.31226E+00  6.32096E+00  6.32993E+00  6.33969E+00
   6.34967E+00  6.36032E+00  6.37105E+00  6.38232E+00  6.39363E+00  6.40549E+00  6.41738E+00  6.42973E+00  6.44200E+00  6.45468E+00
   6.46731E+00  6.48037E+00  6.49336E+00  6.50671E+00  6.51992E+00  6.53348E+00  6.54695E+00  6.56080E+00  6.57451E+00  6.58853E+00
   6.60238E+00  6.61658E+00  6.63067E+00  6.64510E+00  6.65939E+00  6.67395E+00  6.68836E+00  6.70312E+00  6.71777E+00  6.73274E+00
   6.74755E+00  6.76265E+00  6.77763E+00  6.79296E+00  6.80821E+00  6.82378E+00  6.83922E+00  6.85499E+00  6.87069E+00  6.88679E+00
   6.90284E+00  6.91925E+00  6.93561E+00  6.95238E+00  6.96920E+00  6.98651E+00  7.00389E+00  7.02176E+00
 NY background values follow
    -4.011E+01   -3.989E+01   -3.967E+01   -3.945E+01   -3.923E+01   -3.901E+01   -3.879E+01   -3.857E+01   -3.835E+01   -3.813E+01
    -3.791E+01   -3.769E+01   -3.747E+01   -3.725E+01   -3.704E+01   -3.682E+01   -3.660E+01   -3.638E+01   -3.616E+01   -3.594E+01
    -3.572E+01   -3.550E+01   -3.528E+01   -3.507E+01   -3.485E+01   -3.463E+01   -3.441E+01   -3.419E+01   -3.397E+01   -3.376E+01
    -3.354E+01   -3.332E+01   -3.310E+01   -3.289E+01   -3.267E+01   -3.245E+01   -3.224E+01   -3.202E+01   -3.181E+01   -3.159E+01
    -3.138E+01   -3.116E+01   -3.095E+01   -3.073E+01   -3.052E+01   -3.030E+01   -3.009E+01   -2.988E+01   -2.966E+01   -2.945E+01
    -2.924E+01   -2.903E+01   -2.881E+01   -2.860E+01   -2.839E+01   -2.818E+01   -2.797E+01   -2.776E+01   -2.755E+01   -2.734E+01
    -2.713E+01   -2.692E+01   -2.672E+01   -2.651E+01   -2.630E+01   -2.610E+01   -2.589E+01   -2.568E+01   -2.548E+01   -2.527E+01
    -2.507E+01   -2.487E+01   -2.466E+01   -2.446E+01   -2.426E+01   -2.406E+01   -2.386E+01   -2.365E+01   -2.345E+01   -2.326E+01
    -2.306E+01   -2.286E+01   -2.266E+01   -2.246E+01   -2.227E+01   -2.207E+01   -2.188E+01   -2.168E+01   -2.149E+01   -2.129E+01
    -2.110E+01   -2.091E+01   -2.072E+01   -2.053E+01   -2.034E+01   -2.015E+01   -1.996E+01   -1.977E+01   -1.958E+01   -1.940E+01
    -1.921E+01   -1.902E+01   -1.884E+01   -1.866E+01   -1.847E+01   -1.829E+01   -1.811E+01   -1.793E+01   -1.774E+01   -1.756E+01
    -1.738E+01   -1.721E+01   -1.703E+01   -1.685E+01   -1.667E+01   -1.650E+01   -1.632E+01   -1.615E+01   -1.597E+01   -1.580E+01
    -1.563E+01   -1.546E+01   -1.528E+01   -1.511E+01   -1.494E+01   -1.477E+01   -1.461E+01   -1.444E+01   -1.427E+01   -1.410E+01
    -1.394E+01   -1.377E+01   -1.361E+01   -1.345E+01   -1.328E+01   -1.312E+01   -1.296E+01   -1.280E+01   -1.264E+01   -1.248E+01
    -1.232E+01   -1.216E+01   -1.200E+01   -1.185E+01   -1.169E+01   -1.153E+01   -1.138E+01   -1.123E+01   -1.107E+01   -1.092E+01
    -1.077E+01   -1.062E+01   -1.046E+01   -1.031E+01   -1.016E+01   -1.002E+01   -9.868E+00   -9.720E+00   -9.573E+00   -9.427E+00
    -9.281E+00   -9.136E+00   -8.991E+00   -8.847E+00   -8.704E+00   -8.561E+00   -8.419E+00   -8.278E+00   -8.137E+00   -7.997E+00
    -7.857E+00   -7.718E+00   -7.580E+00   -7.442E+00   -7.305E+00   -7.168E+00   -7.032E+00   -6.897E+00   -6.762E+00   -6.628E+00
    -6.494E+00   -6.361E+00   -6.228E+00   -6.096E+00   -5.965E+00   -5.834E+00   -5.704E+00   -5.574E+00   -5.445E+00   -5.317E+00
    -5.189E+00   -5.062E+00   -4.935E+00   -4.809E+00   -4.684E+00   -4.560E+00   -4.436E+00   -4.313E+00   -4.190E+00   -4.069E+00
    -3.948E+00   -3.827E+00   -3.708E+00   -3.589E+00   -3.471E+00   -3.353E+00   -3.237E+00   -3.121E+00   -3.006E+00   -2.891E+00
    -2.778E+00   -2.665E+00   -2.553E+00   -2.442E+00   -2.331E+00   -2.222E+00   -2.113E+00   -2.005E+00   -1.898E+00   -1.792E+00
    -1.686E+00   -1.582E+00   -1.478E+00   -1.376E+00   -1.274E+00   -1.173E+00   -1.073E+00   -9.734E-01   -8.751E-01   -7.777E-01
    -6.812E-01   -5.857E-01   -4.910E-01   -3.972E-01   -3.043E-01   -2.123E-01   -1.212E-01   -3.101E-02    5.831E-02    1.467E-01
     2.343E-01    3.209E-01    4.067E-01    4.915E-01    5.755E-01    6.586E-01    7.409E-01    8.222E-01    9.027E-01    9.822E-01
     1.061E+00    1.139E+00    1.216E+00    1.292E+00    1.367E+00    1.441E+00    1.515E+00    1.587E+00    1.659E+00    1.730E+00
     1.800E+00    1.869E+00    1.937E+00    2.005E+00    2.071E+00    2.137E+00    2.202E+00    2.266E+00    2.329E+00    2.391E+00
     2.453E+00    2.513E+00    2.573E+00    2.632E+00    2.690E+00    2.747E+00    2.803E+00    2.859E+00    2.914E+00    2.968E+00
     3.021E+00    3.073E+00    3.125E+00    3.176E+00    3.226E+00    3.275E+00    3.323E+00    3.371E+00    3.418E+00    3.464E+00
     3.510E+00    3.555E+00    3.599E+00    3.642E+00    3.685E+00    3.727E+00    3.768E+00    3.809E+00    3.849E+00    3.888E+00
     3.927E+00    3.965E+00    4.002E+00    4.039E+00    4.075E+00    4.111E+00    4.146E+00    4.180E+00    4.213E+00    4.246E+00
     4.279E+00    4.311E+00    4.342E+00    4.373E+00    4.403E+00    4.433E+00    4.462E+00    4.490E+00    4.518E+00    4.545E+00
     4.572E+00    4.599E+00    4.625E+00    4.650E+00    4.675E+00    4.700E+00    4.724E+00    4.747E+00    4.770E+00    4.793E+00
     4.816E+00    4.837E+00    4.859E+00    4.880E+00    4.901E+00    4.921E+00    4.941E+00    4.961E+00    4.980E+00    4.999E+00
     5.018E+00    5.036E+00    5.054E+00    5.072E+00    5.089E+00    5.106E+00    5.123E+00    5.140E+00    5.156E+00    5.172E+00
     5.188E+00    5.204E+00    5.219E+00    5.235E+00    5.250E+00    5.264E+00    5.279E+00    5.294E+00    5.308E+00    5.322E+00
     5.337E+00    5.351E+00    5.364E+00    5.378E+00    5.392E+00    5.405E+00    5.419E+00    5.432E+00    5.445E+00    5.459E+00
     5.472E+00    5.485E+00    5.498E+00    5.511E+00    5.524E+00    5.536E+00    5.549E+00    5.562E+00    5.574E+00    5.587E+00
     5.600E+00    5.612E+00    5.625E+00    5.637E+00    5.650E+00    5.662E+00    5.675E+00    5.687E+00    5.699E+00    5.712E+00
     5.724E+00    5.737E+00    5.749E+00    5.762E+00    5.774E+00    5.787E+00    5.800E+00    5.812E+00    5.825E+00    5.838E+00
     5.851E+00    5.863E+00    5.876E+00    5.889E+00    5.902E+00    5.916E+00    5.929E+00    5.942E+00    5.955E+00    5.969E+00
     5.983E+00    5.996E+00    6.010E+00    6.024E+00    6.038E+00    6.052E+00    6.066E+00    6.080E+00    6.094E+00    6.108E+00
     6.122E+00    6.136E+00    6.151E+00    6.165E+00    6.180E+00    6.194E+00    6.209E+00    6.223E+00    6.238E+00    6.253E+00
     6.267E+00    6.282E+00    6.297E+00    6.312E+00    6.326E+00    6.341E+00    6.356E+00    6.371E+00    6.386E+00    6.401E+00
     6.416E+00    6.431E+00    6.446E+00    6.461E+00    6.476E+00    6.490E+00    6.505E+00    6.520E+00    6.535E+00    6.550E+00
     6.565E+00    6.580E+00    6.595E+00    6.610E+00    6.624E+00    6.639E+00    6.654E+00    6.669E+00    6.684E+00    6.698E+00
     6.713E+00    6.728E+00    6.742E+00    6.757E+00    6.772E+00    6.786E+00    6.801E+00    6.816E+00    6.830E+00    6.845E+00
     6.860E+00    6.874E+00    6.889E+00    6.903E+00    6.918E+00    6.932E+00    6.947E+00    6.962E+00    6.976E+00    6.991E+00
     7.005E+00    7.020E+00    7.034E+00    7.049E+00    7.063E+00    7.078E+00    7.092E+00    7.107E+00    7.121E+00    7.136E+00
     7.151E+00    7.165E+00    7.180E+00    7.194E+00    7.209E+00    7.223E+00    7.238E+00    7.252E+00
 Ala      Conc. = 1.40E+02
