 LCModel (Version 6.3-1L) Copyright: S.W. Provencher.          Ref.: Magn. Reson. Med. 30:672-679 (1993).                
 Slice#3 Row#8 Col#9  PD_05_press_1_raw_act
 36 lines in following concentration table = NCONC+1
    Conc.  %SD /Cr+PCr  Metabolite                                         
  107.778  74% 8.0E-02 Ala                                                 
  140.090 124%   0.104 Asp                                                 
  244.344  67%   0.182 Cr                                                  
 1.10E+03  16%   0.818 PCr                                                 
    0.000 999%   0.000 GABA                                                
    0.000 999%   0.000 Glc                                                 
  422.464  38%   0.314 Gln                                                 
 1.14E+03  16%   0.845 Glu                                                 
  301.337  41%   0.224 GPC                                                 
  157.331  80%   0.117 PCh                                                 
  336.754  16%   0.251 GSH                                                 
  927.046  21%   0.690 Ins                                                 
    0.000 999%   0.000 Lac                                                 
 1.97E+03   3%   1.463 NAA                                                 
    0.000 999%   0.000 NAAG                                                
   95.125  22% 7.1E-02 Scyllo                                              
  151.440 108%   0.113 Tau                                                 
   15.579 562% 1.2E-02 -CrCH2                                              
  458.668   4%   0.341 GPC+PCh                                             
 1.97E+03   3%   1.463 NAA+NAAG                                            
 1.34E+03   3%   1.000 Cr+PCr                                              
 1.56E+03  16%   1.159 Glu+Gln                                             
    0.000 999%   0.000 Lip13a                                              
    8.910 999% 6.6E-03 Lip13b                                              
    0.000 999%   0.000 Lip09                                               
  810.290  17%   0.603 MM09                                                
    0.133 999% 9.9E-05 Lip20                                               
 2.21E+03  13%   1.643 MM20                                                
  177.352  63%   0.132 MM12                                                
 1.28E+03  18%   0.949 MM14                                                
  481.865  35%   0.359 MM17                                                
    8.910 999% 6.6E-03 Lip13a+Lip13b                                       
 1.46E+03  17%   1.088 MM14+Lip13a+Lip13b+MM12                             
  810.290  17%   0.603 MM09+Lip09                                          
 2.21E+03  13%   1.643 MM20+Lip20                                          
   6 lines in following misc. output table
  FWHM = 0.046 ppm    S/N =  13                                            
  Data shift = 0.015 ppm                                                   
  Ph: -52 deg     -20.3 deg/ppm                                            
  alphaB,S = 2.1E+00,   1.0E+02                                            
   14 spline knots.   Ns = 6(1)                                            
  ( 9) 4 infls.   ( 3) 1 extrs.                                            
  498 points on ppm-axis = NY
      4.000000     3.992357     3.984714     3.977070     3.969427     3.961784     3.954141     3.946497     3.938854     3.931211
      3.923568     3.915925     3.908281     3.900638     3.892995     3.885352     3.877708     3.870065     3.862422     3.854779
      3.847136     3.839492     3.831849     3.824206     3.816563     3.808919     3.801276     3.793633     3.785990     3.778347
      3.770703     3.763060     3.755417     3.747774     3.740130     3.732487     3.724844     3.717201     3.709558     3.701914
      3.694271     3.686628     3.678985     3.671341     3.663698     3.656055     3.648412     3.640769     3.633125     3.625482
      3.617839     3.610196     3.602552     3.594909     3.587266     3.579623     3.571980     3.564336     3.556693     3.549050
      3.541407     3.533763     3.526120     3.518477     3.510834     3.503191     3.495547     3.487904     3.480261     3.472618
      3.464974     3.457331     3.449688     3.442045     3.434402     3.426758     3.419115     3.411472     3.403829     3.396185
      3.388542     3.380899     3.373256     3.365613     3.357969     3.350326     3.342683     3.335040     3.327396     3.319753
      3.312110     3.304467     3.296824     3.289180     3.281537     3.273894     3.266251     3.258607     3.250964     3.243321
      3.235678     3.228034     3.220391     3.212748     3.205105     3.197462     3.189818     3.182175     3.174532     3.166889
      3.159245     3.151602     3.143959     3.136316     3.128673     3.121029     3.113386     3.105743     3.098100     3.090456
      3.082813     3.075170     3.067527     3.059884     3.052240     3.044597     3.036954     3.029311     3.021667     3.014024
      3.006381     2.998738     2.991095     2.983451     2.975808     2.968165     2.960522     2.952878     2.945235     2.937592
      2.929949     2.922306     2.914662     2.907019     2.899376     2.891733     2.884089     2.876446     2.868803     2.861160
      2.853517     2.845873     2.838230     2.830587     2.822944     2.815300     2.807657     2.800014     2.792371     2.784728
      2.777084     2.769441     2.761798     2.754155     2.746511     2.738868     2.731225     2.723582     2.715939     2.708295
      2.700652     2.693009     2.685366     2.677722     2.670079     2.662436     2.654793     2.647150     2.639506     2.631863
      2.624220     2.616577     2.608933     2.601290     2.593647     2.586004     2.578361     2.570717     2.563074     2.555431
      2.547788     2.540144     2.532501     2.524858     2.517215     2.509572     2.501928     2.494285     2.486642     2.478999
      2.471355     2.463712     2.456069     2.448426     2.440783     2.433139     2.425496     2.417853     2.410210     2.402566
      2.394923     2.387280     2.379637     2.371994     2.364350     2.356707     2.349064     2.341421     2.333777     2.326134
      2.318491     2.310848     2.303205     2.295561     2.287918     2.280275     2.272632     2.264988     2.257345     2.249702
      2.242059     2.234416     2.226772     2.219129     2.211486     2.203843     2.196199     2.188556     2.180913     2.173270
      2.165627     2.157983     2.150340     2.142697     2.135054     2.127410     2.119767     2.112124     2.104481     2.096838
      2.089194     2.081551     2.073908     2.066265     2.058621     2.050978     2.043335     2.035692     2.028049     2.020405
      2.012762     2.005119     1.997476     1.989833     1.982190     1.974546     1.966903     1.959260     1.951617     1.943974
      1.936331     1.928688     1.921045     1.913402     1.905759     1.898115     1.890472     1.882829     1.875186     1.867543
      1.859900     1.852257     1.844614     1.836971     1.829327     1.821684     1.814041     1.806398     1.798755     1.791112
      1.783469     1.775826     1.768183     1.760540     1.752896     1.745253     1.737610     1.729967     1.722324     1.714681
      1.707038     1.699395     1.691752     1.684108     1.676465     1.668822     1.661179     1.653536     1.645893     1.638250
      1.630607     1.622964     1.615321     1.607677     1.600034     1.592391     1.584748     1.577105     1.569462     1.561819
      1.554176     1.546533     1.538890     1.531246     1.523603     1.515960     1.508317     1.500674     1.493031     1.485388
      1.477745     1.470102     1.462458     1.454815     1.447172     1.439529     1.431886     1.424243     1.416600     1.408957
      1.401314     1.393671     1.386027     1.378384     1.370741     1.363098     1.355455     1.347812     1.340169     1.332526
      1.324883     1.317240     1.309596     1.301953     1.294310     1.286667     1.279024     1.271381     1.263738     1.256095
      1.248452     1.240808     1.233165     1.225522     1.217879     1.210236     1.202593     1.194950     1.187307     1.179664
      1.172021     1.164377     1.156734     1.149091     1.141448     1.133805     1.126162     1.118519     1.110876     1.103233
      1.095590     1.087946     1.080303     1.072660     1.065017     1.057374     1.049731     1.042088     1.034445     1.026802
      1.019158     1.011515     1.003872     0.996229     0.988586     0.980943     0.973300     0.965657     0.958014     0.950371
      0.942727     0.935084     0.927441     0.919798     0.912155     0.904512     0.896869     0.889226     0.881583     0.873940
      0.866296     0.858653     0.851010     0.843367     0.835724     0.828081     0.820438     0.812795     0.805152     0.797508
      0.789865     0.782222     0.774579     0.766936     0.759293     0.751650     0.744007     0.736364     0.728721     0.721077
      0.713434     0.705791     0.698148     0.690505     0.682862     0.675219     0.667576     0.659933     0.652290     0.644646
      0.637003     0.629360     0.621717     0.614074     0.606431     0.598788     0.591145     0.583502     0.575858     0.568215
      0.560572     0.552929     0.545286     0.537643     0.530000     0.522357     0.514714     0.507071     0.499427     0.491784
      0.484141     0.476498     0.468855     0.461212     0.453569     0.445925     0.438282     0.430639     0.422996     0.415353
      0.407710     0.400067     0.392424     0.384780     0.377137     0.369494     0.361851     0.354208     0.346565     0.338922
      0.331278     0.323635     0.315992     0.308349     0.300706     0.293063     0.285420     0.277777     0.270133     0.262490
      0.254847     0.247204     0.239561     0.231918     0.224275     0.216631     0.208988     0.201345
 NY phased data points follow
  -2.34384E+01 -2.10326E+01 -2.15296E+01 -1.89404E+01 -1.86897E+01 -1.11706E+01 -8.65758E+00 -2.39301E+00  8.53349E+00  1.35418E+01
   1.45686E+01  1.12811E+01  8.09102E+00  4.12086E+00 -3.21990E+00 -4.39059E+00 -1.03248E+01 -1.18707E+01 -1.73381E+01 -1.31684E+01
  -1.60228E+01 -1.53338E+01 -1.36209E+01 -1.54731E+01 -1.71699E+01 -1.48544E+01 -1.62847E+01 -9.03853E+00 -1.26437E+01 -1.07916E+01
  -5.97285E+00 -6.29293E+00 -4.85385E+00 -5.47198E+00 -9.13726E+00 -9.04401E+00 -1.03584E+01 -9.57278E+00 -9.13906E+00 -9.92711E+00
  -1.16929E+01 -1.04002E+01 -1.35053E+01 -9.67684E+00 -7.45386E+00 -5.41145E+00 -1.19742E+00 -8.34008E-02 -4.49433E+00 -4.54613E+00
  -8.19932E+00 -8.60548E+00 -1.04439E+01 -1.21304E+01 -9.40564E+00 -7.63904E+00 -7.36177E+00 -4.14553E+00 -9.56315E+00 -7.82477E+00
  -1.01180E+01 -1.19980E+01 -9.85810E+00 -1.33393E+01 -1.64479E+01 -1.25253E+01 -1.86054E+01 -1.07323E+01 -1.56190E+01 -1.02483E+01
  -1.46453E+01 -1.15517E+01 -1.20316E+01 -1.14450E+01 -8.22936E+00 -8.51320E+00 -7.15798E+00 -7.78851E+00 -8.33505E+00 -8.23693E+00
  -9.99946E+00 -7.83600E+00 -8.47978E+00 -8.29489E+00 -9.88951E+00 -8.94652E+00 -6.88844E+00 -4.96148E+00 -7.41456E+00 -5.69225E+00
  -6.96277E-01 -1.29544E+00 -4.56230E+00 -1.57256E+00 -2.34479E+00 -7.28738E+00 -5.55490E+00 -2.69416E+00  8.70116E-01  5.01950E+00
   1.84184E+01  2.57477E+01  3.42677E+01  3.75289E+01  3.58204E+01  2.86383E+01  1.51593E+01  1.57256E+01  8.80227E+00  6.62872E+00
   6.47066E+00  1.02915E+00  2.92997E+00  7.53806E-01 -3.19388E-01  8.19389E-01  9.50018E-01  8.51873E-01 -1.67585E-01 -2.51062E+00
  -7.57830E+00 -4.21856E+00 -4.34546E+00  7.61977E+00  1.91029E+01  3.08024E+01  3.59650E+01  4.44285E+01  3.92208E+01  3.51891E+01
   2.94901E+01  2.15722E+01  1.93001E+01  1.36340E+01  7.54719E+00  3.53060E+00  7.90846E-01 -2.13769E-01 -7.57269E-01 -5.62789E+00
  -6.38628E+00 -2.89670E+00 -5.80383E+00 -1.10950E+00 -3.00031E+00 -3.47066E+00 -3.34175E+00 -1.82067E-01 -1.28387E+00 -6.18100E+00
  -2.37687E+00 -3.54229E+00 -5.20859E+00 -3.00743E+00 -2.11460E+00 -4.06534E+00 -1.56142E+00 -2.66038E+00 -2.22854E+00 -4.84504E+00
  -4.58347E+00 -7.59208E+00 -8.50370E+00 -7.05833E+00 -4.84758E+00 -3.55367E+00 -2.56002E+00 -5.26698E+00 -4.34772E+00 -3.61882E+00
  -2.31334E+00 -4.17602E+00 -5.43740E+00 -8.25455E+00 -7.72767E+00 -9.89116E+00 -6.08927E+00 -6.52003E+00 -6.23013E+00 -5.10884E+00
  -4.69149E+00 -8.72890E+00 -7.93635E+00 -1.11850E+01 -6.69758E+00 -6.01793E+00 -9.07228E+00 -7.21034E+00 -2.82708E+00  6.78766E-01
   3.42641E+00  5.35070E+00  7.21162E+00  1.06303E+01  1.03760E+01  9.15047E+00  5.78079E+00  5.64509E+00  3.33772E+00  5.14466E-01
   1.31062E+00  3.10509E+00  7.92170E+00  7.69264E+00  8.64804E+00  7.02106E+00  5.83517E+00  4.60811E-02 -2.08194E+00 -5.20696E+00
  -3.85725E+00  7.39414E-01  1.96633E+00  1.70903E+00  8.27914E+00  1.51510E+01  9.97623E+00  1.15889E+01  1.27652E+01  5.58181E+00
   2.90939E+00  2.44331E+00  2.27306E+00  2.30892E+00  5.36701E+00  7.01982E+00  8.72741E+00  1.04756E+01  9.04792E+00  8.44988E+00
   9.59207E+00  7.78002E+00  1.00324E+01  9.05805E+00  1.05163E+01  1.16159E+01  1.13935E+01  1.07967E+01  1.09256E+01  8.39630E+00
   3.26759E+00  6.34051E+00  1.96946E+00  5.68786E+00  8.56876E+00  1.10230E+01  1.22843E+01  1.69398E+01  1.47730E+01  1.66488E+01
   1.53736E+01  1.34075E+01  1.39628E+01  1.27886E+01  1.30280E+01  1.52521E+01  2.53222E+01  3.92499E+01  5.71109E+01  7.78244E+01
   7.98721E+01  7.83810E+01  6.55090E+01  5.62908E+01  4.48575E+01  4.23479E+01  3.45597E+01  2.81473E+01  2.50009E+01  1.71488E+01
   1.50870E+01  1.02059E+01  1.01673E+01  9.64870E+00  9.92837E+00  1.04679E+01  9.41848E+00  9.22714E+00  8.31563E+00  7.16570E+00
   1.30995E+01  9.58584E+00  7.65579E+00  8.02803E+00  7.75688E+00  1.26752E+01  7.72852E+00  1.01959E+01  1.09295E+01  7.76622E+00
   7.12952E+00  1.10115E+01  9.63156E+00  9.74531E+00  9.05857E+00  9.68484E+00  9.72733E+00  7.74276E+00  9.02617E+00  1.14416E+01
   9.84177E+00  9.78277E+00  9.76005E+00  8.08256E+00  9.57765E+00  9.83350E+00  8.16541E+00  1.08162E+01  9.71668E+00  9.35710E+00
   1.35027E+01  1.24584E+01  1.31497E+01  1.22853E+01  1.07293E+01  1.22273E+01  1.34750E+01  1.16403E+01  1.44827E+01  1.53374E+01
   1.01498E+01  9.98291E+00  1.21627E+01  1.10661E+01  1.11864E+01  1.11800E+01  1.32186E+01  1.39941E+01  1.03088E+01  1.02978E+01
   1.22276E+01  1.38626E+01  1.23959E+01  1.15573E+01  1.38565E+01  1.40307E+01  1.54961E+01  1.41855E+01  1.59806E+01  1.52070E+01
   1.90418E+01  1.44201E+01  1.58903E+01  1.33491E+01  1.50099E+01  1.69540E+01  1.76235E+01  1.71862E+01  1.60543E+01  1.45350E+01
   1.32269E+01  1.49559E+01  1.33991E+01  1.57140E+01  1.16690E+01  1.27206E+01  1.13560E+01  1.05160E+01  1.34910E+01  1.12156E+01
   1.03822E+01  9.36780E+00  9.60195E+00  9.23126E+00  8.15082E+00  1.22022E+01  1.02659E+01  1.04710E+01  9.52760E+00  1.08074E+01
   7.07591E+00  1.08419E+01  8.34871E+00  1.26712E+01  1.04670E+01  7.41830E+00  1.07691E+01  9.68485E+00  9.94534E+00  9.73057E+00
   1.08908E+01  9.40970E+00  1.39900E+01  8.38475E+00  9.12703E+00  9.72389E+00  9.52432E+00  1.22520E+01  1.10512E+01  1.09238E+01
   8.87752E+00  9.95615E+00  1.39272E+01  1.34636E+01  1.12034E+01  1.24471E+01  1.40571E+01  1.27591E+01  1.38304E+01  1.43380E+01
   1.52060E+01  1.15092E+01  1.30315E+01  1.12011E+01  1.15289E+01  1.33897E+01  1.25613E+01  1.37973E+01  1.58473E+01  1.38082E+01
   1.30877E+01  1.45512E+01  1.47658E+01  1.51194E+01  1.54208E+01  1.48718E+01  1.20986E+01  1.54310E+01  1.20381E+01  1.46493E+01
   1.04109E+01  1.19176E+01  1.04810E+01  1.44805E+01  1.42575E+01  1.00922E+01  1.41098E+01  1.09719E+01  1.30696E+01  1.07201E+01
   1.23008E+01  1.41483E+01  9.84976E+00  1.27623E+01  1.04468E+01  1.18493E+01  1.02910E+01  1.26734E+01  1.22060E+01  9.56500E+00
   9.91349E+00  1.10890E+01  1.12260E+01  1.09628E+01  1.22265E+01  1.09698E+01  1.04740E+01  1.03362E+01  1.12405E+01  1.02512E+01
   5.70560E+00  1.36395E+01  7.59070E+00  1.11044E+01  1.48722E+01  5.80000E+00  1.00552E+01  7.80138E+00  9.46260E+00  6.64374E+00
   1.05080E+01  9.89380E+00  8.98162E+00  1.17567E+01  1.15359E+01  7.85927E+00  6.77984E+00  1.10171E+01  1.08950E+01  1.08492E+01
   1.11238E+01  7.81824E+00  1.04649E+01  1.18369E+01  9.50631E+00  8.37168E+00  9.67282E+00  7.68990E+00  9.10335E+00  7.90833E+00
   1.04242E+01  1.32233E+01  5.73170E+00  7.84092E+00  9.52159E+00  9.27140E+00  6.54205E+00  8.38878E+00  1.01727E+01  1.22421E+01
   9.43152E+00  9.76894E+00  9.38637E+00  1.23384E+01  1.05509E+01  1.10352E+01  9.39196E+00  8.87375E+00
 NY points of the fit to the data follow
  -1.84332E+01 -1.84671E+01 -1.83604E+01 -1.79527E+01 -1.66448E+01 -1.32570E+01 -7.27120E+00  4.38631E-01  7.82469E+00  1.25758E+01
   1.34218E+01  1.07963E+01  6.42045E+00  2.13734E+00 -1.12692E+00 -3.86246E+00 -7.16537E+00 -1.09275E+01 -1.32037E+01 -1.39977E+01
  -1.40732E+01 -1.39817E+01 -1.39989E+01 -1.42660E+01 -1.47647E+01 -1.51147E+01 -1.46953E+01 -1.31873E+01 -1.07506E+01 -7.97874E+00
  -5.65355E+00 -4.39619E+00 -4.38701E+00 -5.33830E+00 -6.76967E+00 -8.22731E+00 -9.71974E+00 -1.13563E+01 -1.26239E+01 -1.29808E+01
  -1.28773E+01 -1.24785E+01 -1.15513E+01 -9.89526E+00 -7.84894E+00 -5.95907E+00 -4.79129E+00 -4.81254E+00 -5.91046E+00 -7.49810E+00
  -8.92956E+00 -9.83703E+00 -1.04208E+01 -1.10286E+01 -1.15608E+01 -1.15731E+01 -1.09801E+01 -1.01370E+01 -9.38469E+00 -8.96286E+00
  -8.99774E+00 -9.40794E+00 -9.95070E+00 -1.03611E+01 -1.04929E+01 -1.04417E+01 -1.03234E+01 -1.00960E+01 -9.77708E+00 -9.39395E+00
  -8.99904E+00 -8.64938E+00 -8.38373E+00 -8.24209E+00 -8.23496E+00 -8.33497E+00 -8.55147E+00 -8.80792E+00 -9.06218E+00 -9.20089E+00
  -9.13678E+00 -8.93699E+00 -8.56202E+00 -7.85311E+00 -6.84141E+00 -5.81716E+00 -5.12211E+00 -4.95516E+00 -5.27490E+00 -5.83262E+00
  -6.32572E+00 -6.58871E+00 -6.72018E+00 -6.95644E+00 -7.39306E+00 -7.63496E+00 -7.26455E+00 -5.78427E+00 -1.61778E+00  6.25036E+00
   1.69267E+01  2.76511E+01  3.50664E+01  3.70480E+01  3.38428E+01  2.75849E+01  2.09555E+01  1.56170E+01  1.12520E+01  6.48424E+00
   1.19730E+00 -2.56442E+00 -4.24684E+00 -4.76426E+00 -4.94668E+00 -5.02548E+00 -5.03850E+00 -5.00680E+00 -4.93137E+00 -4.77640E+00
  -4.43120E+00 -3.47524E+00 -4.75821E-01  6.54056E+00  1.73511E+01  2.94186E+01  3.90394E+01  4.31528E+01  4.11573E+01  3.50808E+01
   2.80722E+01  2.23563E+01  1.80681E+01  1.34633E+01  7.20941E+00  1.19302E+00 -1.56110E+00 -2.41624E+00 -2.47560E+00 -2.14067E+00
  -1.75227E+00 -1.48371E+00 -1.27782E+00 -1.11486E+00 -1.06423E+00 -1.09815E+00 -1.20666E+00 -1.41383E+00 -1.65509E+00 -1.91235E+00
  -2.12611E+00 -2.28186E+00 -2.39812E+00 -2.45867E+00 -2.44243E+00 -2.39111E+00 -2.42582E+00 -2.65698E+00 -3.07259E+00 -3.54148E+00
  -3.81370E+00 -3.69423E+00 -3.23833E+00 -2.69483E+00 -2.35104E+00 -2.34359E+00 -2.60004E+00 -2.89554E+00 -3.04481E+00 -3.10252E+00
  -3.25132E+00 -3.56961E+00 -4.10835E+00 -4.64722E+00 -4.95255E+00 -4.99082E+00 -4.77299E+00 -4.47111E+00 -4.25850E+00 -4.19675E+00
  -4.20294E+00 -4.15096E+00 -3.99233E+00 -3.80904E+00 -3.70397E+00 -3.65461E+00 -3.24583E+00 -2.21713E+00 -7.15035E-01  7.77167E-01
   1.78843E+00  2.26545E+00  2.38375E+00  2.34448E+00  2.16728E+00  1.82571E+00  1.39090E+00  1.18343E+00  1.35608E+00  2.00288E+00
   3.09314E+00  4.39046E+00  5.53658E+00  6.20815E+00  6.20832E+00  5.51402E+00  4.17522E+00  2.46462E+00  9.04896E-01 -1.43197E-01
  -4.89713E-01 -2.74768E-03  1.53621E+00  3.88640E+00  6.37106E+00  8.26727E+00  8.98320E+00  8.32173E+00  6.28645E+00  3.60137E+00
   1.22475E+00 -3.45844E-01 -9.28761E-01 -4.14393E-01  1.08664E+00  3.25000E+00  5.18908E+00  6.50827E+00  7.29630E+00  7.84029E+00
   8.17699E+00  8.12521E+00  7.93857E+00  8.12890E+00  8.78837E+00  9.68912E+00  1.05566E+01  1.10936E+01  1.11124E+01  1.05874E+01
   9.66399E+00  8.82664E+00  8.55333E+00  8.88453E+00  9.55523E+00  1.03773E+01  1.11909E+01  1.18128E+01  1.21798E+01  1.24511E+01
   1.27920E+01  1.31793E+01  1.35931E+01  1.40792E+01  1.50052E+01  1.81040E+01  2.66813E+01  4.12499E+01  5.86471E+01  7.34804E+01
   8.06786E+01  7.85374E+01  6.94438E+01  5.80047E+01  4.81535E+01  4.10257E+01  3.44922E+01  2.60127E+01  1.72911E+01  1.32691E+01
   1.18986E+01  1.11791E+01  1.07838E+01  1.06137E+01  1.04833E+01  1.03327E+01  1.01560E+01  9.95193E+00  9.74483E+00  9.55603E+00
   9.37263E+00  9.18758E+00  9.03047E+00  8.92044E+00  8.84356E+00  8.78549E+00  8.74455E+00  8.72713E+00  8.73588E+00  8.75923E+00
   8.79560E+00  8.84993E+00  8.92230E+00  9.01159E+00  9.11698E+00  9.23784E+00  9.37181E+00  9.51393E+00  9.66201E+00  9.81487E+00
   9.96955E+00  1.01227E+01  1.02708E+01  1.04102E+01  1.05374E+01  1.06501E+01  1.07472E+01  1.08284E+01  1.08938E+01  1.09439E+01
   1.09801E+01  1.10049E+01  1.10227E+01  1.10373E+01  1.10530E+01  1.10748E+01  1.11084E+01  1.11603E+01  1.12375E+01  1.13486E+01
   1.15073E+01  1.17408E+01  1.20862E+01  1.25058E+01  1.28722E+01  1.30585E+01  1.30013E+01  1.27426E+01  1.24051E+01  1.21191E+01
   1.20090E+01  1.21705E+01  1.25935E+01  1.31980E+01  1.39028E+01  1.46484E+01  1.52597E+01  1.56062E+01  1.57581E+01  1.58235E+01
   1.58590E+01  1.58226E+01  1.56324E+01  1.53510E+01  1.51026E+01  1.48655E+01  1.46219E+01  1.43684E+01  1.41065E+01  1.38393E+01
   1.35709E+01  1.33049E+01  1.30443E+01  1.27916E+01  1.25487E+01  1.23173E+01  1.20986E+01  1.18935E+01  1.17024E+01  1.15259E+01
   1.13641E+01  1.12174E+01  1.10857E+01  1.09683E+01  1.08643E+01  1.07726E+01  1.06921E+01  1.06217E+01  1.05602E+01  1.05065E+01
   1.04597E+01  1.04192E+01  1.03848E+01  1.03565E+01  1.03344E+01  1.03186E+01  1.03095E+01  1.03077E+01  1.03140E+01  1.03291E+01
   1.03538E+01  1.03888E+01  1.04350E+01  1.04935E+01  1.05654E+01  1.06516E+01  1.07530E+01  1.08705E+01  1.10048E+01  1.11567E+01
   1.13266E+01  1.15146E+01  1.17201E+01  1.19423E+01  1.21798E+01  1.24306E+01  1.26921E+01  1.29608E+01  1.32325E+01  1.35025E+01
   1.37659E+01  1.40172E+01  1.42507E+01  1.44609E+01  1.46424E+01  1.47908E+01  1.49020E+01  1.49732E+01  1.50025E+01  1.49891E+01
   1.49336E+01  1.48379E+01  1.47049E+01  1.45383E+01  1.43428E+01  1.41233E+01  1.38853E+01  1.36345E+01  1.33761E+01  1.31152E+01
   1.28562E+01  1.26029E+01  1.23588E+01  1.21265E+01  1.19079E+01  1.17042E+01  1.15159E+01  1.13435E+01  1.11867E+01  1.10450E+01
   1.09176E+01  1.08037E+01  1.07020E+01  1.06115E+01  1.05314E+01  1.04606E+01  1.03979E+01  1.03425E+01  1.02935E+01  1.02503E+01
   1.02121E+01  1.01785E+01  1.01488E+01  1.01224E+01  1.00992E+01  1.00786E+01  1.00606E+01  1.00447E+01  1.00306E+01  1.00182E+01
   1.00073E+01  9.99780E+00  9.98960E+00  9.98248E+00  9.97630E+00  9.97103E+00  9.96662E+00  9.96303E+00  9.96013E+00  9.95780E+00
   9.95601E+00  9.95477E+00  9.95407E+00  9.95387E+00  9.95405E+00  9.95457E+00  9.95543E+00  9.95666E+00  9.95825E+00  9.96015E+00
   9.96227E+00  9.96461E+00  9.96719E+00  9.97005E+00  9.97318E+00  9.97649E+00  9.97994E+00  9.98355E+00  9.98736E+00  9.99140E+00
   9.99562E+00  9.99994E+00  1.00044E+01  1.00089E+01  1.00137E+01  1.00186E+01  1.00237E+01  1.00288E+01  1.00341E+01  1.00395E+01
   1.00450E+01  1.00507E+01  1.00565E+01  1.00624E+01  1.00684E+01  1.00746E+01  1.00810E+01  1.00875E+01
 NY background values follow
    -2.046E+01   -2.034E+01   -2.022E+01   -2.010E+01   -1.998E+01   -1.986E+01   -1.973E+01   -1.961E+01   -1.949E+01   -1.937E+01
    -1.925E+01   -1.913E+01   -1.900E+01   -1.888E+01   -1.876E+01   -1.864E+01   -1.852E+01   -1.840E+01   -1.828E+01   -1.816E+01
    -1.803E+01   -1.791E+01   -1.779E+01   -1.767E+01   -1.755E+01   -1.743E+01   -1.731E+01   -1.719E+01   -1.707E+01   -1.695E+01
    -1.682E+01   -1.670E+01   -1.658E+01   -1.646E+01   -1.634E+01   -1.622E+01   -1.610E+01   -1.598E+01   -1.586E+01   -1.574E+01
    -1.562E+01   -1.550E+01   -1.538E+01   -1.526E+01   -1.514E+01   -1.502E+01   -1.491E+01   -1.479E+01   -1.467E+01   -1.455E+01
    -1.443E+01   -1.431E+01   -1.419E+01   -1.407E+01   -1.396E+01   -1.384E+01   -1.372E+01   -1.360E+01   -1.348E+01   -1.337E+01
    -1.325E+01   -1.313E+01   -1.301E+01   -1.290E+01   -1.278E+01   -1.266E+01   -1.255E+01   -1.243E+01   -1.232E+01   -1.220E+01
    -1.208E+01   -1.197E+01   -1.185E+01   -1.174E+01   -1.162E+01   -1.151E+01   -1.140E+01   -1.128E+01   -1.117E+01   -1.106E+01
    -1.094E+01   -1.083E+01   -1.072E+01   -1.060E+01   -1.049E+01   -1.038E+01   -1.027E+01   -1.016E+01   -1.005E+01   -9.934E+00
    -9.824E+00   -9.713E+00   -9.603E+00   -9.494E+00   -9.384E+00   -9.275E+00   -9.166E+00   -9.058E+00   -8.949E+00   -8.841E+00
    -8.734E+00   -8.626E+00   -8.519E+00   -8.412E+00   -8.306E+00   -8.199E+00   -8.093E+00   -7.988E+00   -7.882E+00   -7.777E+00
    -7.672E+00   -7.568E+00   -7.463E+00   -7.359E+00   -7.256E+00   -7.152E+00   -7.049E+00   -6.946E+00   -6.843E+00   -6.741E+00
    -6.639E+00   -6.537E+00   -6.435E+00   -6.334E+00   -6.233E+00   -6.132E+00   -6.032E+00   -5.932E+00   -5.832E+00   -5.732E+00
    -5.633E+00   -5.533E+00   -5.435E+00   -5.336E+00   -5.238E+00   -5.140E+00   -5.042E+00   -4.944E+00   -4.847E+00   -4.750E+00
    -4.653E+00   -4.557E+00   -4.460E+00   -4.364E+00   -4.269E+00   -4.173E+00   -4.078E+00   -3.983E+00   -3.888E+00   -3.794E+00
    -3.700E+00   -3.606E+00   -3.512E+00   -3.419E+00   -3.326E+00   -3.233E+00   -3.140E+00   -3.048E+00   -2.956E+00   -2.864E+00
    -2.772E+00   -2.681E+00   -2.590E+00   -2.499E+00   -2.409E+00   -2.318E+00   -2.228E+00   -2.138E+00   -2.049E+00   -1.960E+00
    -1.870E+00   -1.782E+00   -1.693E+00   -1.605E+00   -1.517E+00   -1.429E+00   -1.342E+00   -1.254E+00   -1.167E+00   -1.081E+00
    -9.941E-01   -9.078E-01   -8.218E-01   -7.360E-01   -6.505E-01   -5.653E-01   -4.804E-01   -3.957E-01   -3.114E-01   -2.273E-01
    -1.435E-01   -6.003E-02    2.313E-02    1.060E-01    1.885E-01    2.707E-01    3.525E-01    4.341E-01    5.152E-01    5.961E-01
     6.765E-01    7.566E-01    8.363E-01    9.157E-01    9.946E-01    1.073E+00    1.151E+00    1.229E+00    1.307E+00    1.384E+00
     1.460E+00    1.536E+00    1.612E+00    1.687E+00    1.762E+00    1.836E+00    1.910E+00    1.984E+00    2.057E+00    2.129E+00
     2.201E+00    2.273E+00    2.344E+00    2.414E+00    2.484E+00    2.554E+00    2.623E+00    2.692E+00    2.760E+00    2.827E+00
     2.894E+00    2.961E+00    3.027E+00    3.092E+00    3.157E+00    3.221E+00    3.285E+00    3.349E+00    3.412E+00    3.474E+00
     3.536E+00    3.598E+00    3.659E+00    3.720E+00    3.780E+00    3.839E+00    3.899E+00    3.957E+00    4.015E+00    4.073E+00
     4.131E+00    4.187E+00    4.244E+00    4.300E+00    4.355E+00    4.410E+00    4.465E+00    4.519E+00    4.573E+00    4.626E+00
     4.679E+00    4.731E+00    4.783E+00    4.835E+00    4.886E+00    4.936E+00    4.987E+00    5.036E+00    5.086E+00    5.135E+00
     5.183E+00    5.232E+00    5.279E+00    5.327E+00    5.374E+00    5.420E+00    5.466E+00    5.512E+00    5.557E+00    5.602E+00
     5.647E+00    5.691E+00    5.735E+00    5.778E+00    5.821E+00    5.864E+00    5.906E+00    5.948E+00    5.990E+00    6.031E+00
     6.072E+00    6.112E+00    6.152E+00    6.192E+00    6.231E+00    6.270E+00    6.308E+00    6.347E+00    6.384E+00    6.422E+00
     6.459E+00    6.496E+00    6.532E+00    6.568E+00    6.604E+00    6.639E+00    6.675E+00    6.709E+00    6.744E+00    6.778E+00
     6.811E+00    6.845E+00    6.878E+00    6.910E+00    6.943E+00    6.975E+00    7.006E+00    7.038E+00    7.069E+00    7.100E+00
     7.130E+00    7.160E+00    7.190E+00    7.219E+00    7.249E+00    7.278E+00    7.306E+00    7.335E+00    7.363E+00    7.390E+00
     7.418E+00    7.445E+00    7.472E+00    7.499E+00    7.525E+00    7.551E+00    7.577E+00    7.603E+00    7.628E+00    7.653E+00
     7.678E+00    7.702E+00    7.727E+00    7.751E+00    7.775E+00    7.798E+00    7.822E+00    7.845E+00    7.868E+00    7.891E+00
     7.913E+00    7.936E+00    7.958E+00    7.980E+00    8.001E+00    8.023E+00    8.044E+00    8.065E+00    8.086E+00    8.107E+00
     8.127E+00    8.148E+00    8.168E+00    8.188E+00    8.208E+00    8.227E+00    8.247E+00    8.266E+00    8.285E+00    8.304E+00
     8.323E+00    8.342E+00    8.360E+00    8.379E+00    8.397E+00    8.415E+00    8.433E+00    8.451E+00    8.468E+00    8.486E+00
     8.503E+00    8.520E+00    8.537E+00    8.554E+00    8.571E+00    8.587E+00    8.604E+00    8.620E+00    8.636E+00    8.652E+00
     8.668E+00    8.684E+00    8.700E+00    8.716E+00    8.731E+00    8.746E+00    8.762E+00    8.777E+00    8.792E+00    8.806E+00
     8.821E+00    8.836E+00    8.850E+00    8.865E+00    8.879E+00    8.894E+00    8.908E+00    8.922E+00    8.936E+00    8.950E+00
     8.963E+00    8.977E+00    8.991E+00    9.004E+00    9.017E+00    9.031E+00    9.044E+00    9.057E+00    9.070E+00    9.083E+00
     9.096E+00    9.109E+00    9.121E+00    9.134E+00    9.147E+00    9.159E+00    9.171E+00    9.184E+00    9.196E+00    9.208E+00
     9.220E+00    9.232E+00    9.244E+00    9.255E+00    9.267E+00    9.279E+00    9.290E+00    9.302E+00    9.313E+00    9.324E+00
     9.336E+00    9.347E+00    9.358E+00    9.369E+00    9.380E+00    9.391E+00    9.401E+00    9.412E+00    9.423E+00    9.433E+00
     9.444E+00    9.454E+00    9.465E+00    9.475E+00    9.485E+00    9.495E+00    9.505E+00    9.515E+00    9.525E+00    9.535E+00
     9.545E+00    9.555E+00    9.565E+00    9.574E+00    9.584E+00    9.594E+00    9.603E+00    9.613E+00    9.622E+00    9.632E+00
     9.641E+00    9.651E+00    9.660E+00    9.670E+00    9.679E+00    9.688E+00    9.697E+00    9.707E+00    9.716E+00    9.725E+00
     9.734E+00    9.744E+00    9.753E+00    9.762E+00    9.771E+00    9.780E+00    9.790E+00    9.799E+00    9.808E+00    9.817E+00
     9.826E+00    9.835E+00    9.845E+00    9.854E+00    9.863E+00    9.872E+00    9.882E+00    9.891E+00
 Ala      Conc. = 1.08E+02
