 LCModel (Version 6.3-1L) Copyright: S.W. Provencher.          Ref.: Magn. Reson. Med. 30:672-679 (1993).                
 Slice#1 Row#5 Col#8  PD_05_press_1_raw_act
 36 lines in following concentration table = NCONC+1
    Conc.  %SD /Cr+PCr  Metabolite                                         
    0.000 999%   0.000 Ala                                                 
   12.988 999% 2.0E-02 Asp                                                 
   17.669 999% 2.7E-02 Cr                                                  
  642.224  36%   0.973 PCr                                                 
   10.972 789% 1.7E-02 GABA                                                
   57.921 147% 8.8E-02 Glc                                                 
  491.326  42%   0.745 Gln                                                 
  789.594  30%   1.197 Glu                                                 
  269.054  59%   0.408 GPC                                                 
   19.394 827% 2.9E-02 PCh                                                 
  174.308  36%   0.264 GSH                                                 
  656.151  33%   0.994 Ins                                                 
    0.000 999%   0.000 Lac                                                 
 1.12E+03   5%   1.696 NAA                                                 
    0.000 999%   0.000 NAAG                                                
   56.898  34% 8.6E-02 Scyllo                                              
  306.183  43%   0.464 Tau                                                 
  348.549  28%   0.528 -CrCH2                                              
  288.448   6%   0.437 GPC+PCh                                             
 1.12E+03   5%   1.696 NAA+NAAG                                            
  659.893   7%   1.000 Cr+PCr                                              
 1.28E+03  27%   1.941 Glu+Gln                                             
    0.000 999%   0.000 Lip13a                                              
  111.699 109%   0.169 Lip13b                                              
   43.496 237% 6.6E-02 Lip09                                               
 1.00E+03  15%   1.520 MM09                                                
   24.738 293% 3.7E-02 Lip20                                               
 1.25E+03  18%   1.901 MM20                                                
  485.594  25%   0.736 MM12                                                
    0.000 999%   0.000 MM14                                                
    0.000 999%   0.000 MM17                                                
  111.699 109%   0.169 Lip13a+Lip13b                                       
  597.293  22%   0.905 MM14+Lip13a+Lip13b+MM12                             
 1.05E+03  12%   1.586 MM09+Lip09                                          
 1.28E+03  18%   1.938 MM20+Lip20                                          
   6 lines in following misc. output table
  FWHM = 0.054 ppm    S/N =   7                                            
  Data shift =-0.046 ppm                                                   
  Ph: -42 deg     -12.3 deg/ppm                                            
  alphaB,S = 8.5E+01,   1.2E+02                                            
   14 spline knots.   Ns = 7(1)                                            
   4 inflections.     1 extrema                                            
  498 points on ppm-axis = NY
      4.000000     3.992357     3.984714     3.977070     3.969427     3.961784     3.954141     3.946497     3.938854     3.931211
      3.923568     3.915925     3.908281     3.900638     3.892995     3.885352     3.877708     3.870065     3.862422     3.854779
      3.847136     3.839492     3.831849     3.824206     3.816563     3.808919     3.801276     3.793633     3.785990     3.778347
      3.770703     3.763060     3.755417     3.747774     3.740130     3.732487     3.724844     3.717201     3.709558     3.701914
      3.694271     3.686628     3.678985     3.671341     3.663698     3.656055     3.648412     3.640769     3.633125     3.625482
      3.617839     3.610196     3.602552     3.594909     3.587266     3.579623     3.571980     3.564336     3.556693     3.549050
      3.541407     3.533763     3.526120     3.518477     3.510834     3.503191     3.495547     3.487904     3.480261     3.472618
      3.464974     3.457331     3.449688     3.442045     3.434402     3.426758     3.419115     3.411472     3.403829     3.396185
      3.388542     3.380899     3.373256     3.365613     3.357969     3.350326     3.342683     3.335040     3.327396     3.319753
      3.312110     3.304467     3.296824     3.289180     3.281537     3.273894     3.266251     3.258607     3.250964     3.243321
      3.235678     3.228034     3.220391     3.212748     3.205105     3.197462     3.189818     3.182175     3.174532     3.166889
      3.159245     3.151602     3.143959     3.136316     3.128673     3.121029     3.113386     3.105743     3.098100     3.090456
      3.082813     3.075170     3.067527     3.059884     3.052240     3.044597     3.036954     3.029311     3.021667     3.014024
      3.006381     2.998738     2.991095     2.983451     2.975808     2.968165     2.960522     2.952878     2.945235     2.937592
      2.929949     2.922306     2.914662     2.907019     2.899376     2.891733     2.884089     2.876446     2.868803     2.861160
      2.853517     2.845873     2.838230     2.830587     2.822944     2.815300     2.807657     2.800014     2.792371     2.784728
      2.777084     2.769441     2.761798     2.754155     2.746511     2.738868     2.731225     2.723582     2.715939     2.708295
      2.700652     2.693009     2.685366     2.677722     2.670079     2.662436     2.654793     2.647150     2.639506     2.631863
      2.624220     2.616577     2.608933     2.601290     2.593647     2.586004     2.578361     2.570717     2.563074     2.555431
      2.547788     2.540144     2.532501     2.524858     2.517215     2.509572     2.501928     2.494285     2.486642     2.478999
      2.471355     2.463712     2.456069     2.448426     2.440783     2.433139     2.425496     2.417853     2.410210     2.402566
      2.394923     2.387280     2.379637     2.371994     2.364350     2.356707     2.349064     2.341421     2.333777     2.326134
      2.318491     2.310848     2.303205     2.295561     2.287918     2.280275     2.272632     2.264988     2.257345     2.249702
      2.242059     2.234416     2.226772     2.219129     2.211486     2.203843     2.196199     2.188556     2.180913     2.173270
      2.165627     2.157983     2.150340     2.142697     2.135054     2.127410     2.119767     2.112124     2.104481     2.096838
      2.089194     2.081551     2.073908     2.066265     2.058621     2.050978     2.043335     2.035692     2.028049     2.020405
      2.012762     2.005119     1.997476     1.989833     1.982190     1.974546     1.966903     1.959260     1.951617     1.943974
      1.936331     1.928688     1.921045     1.913402     1.905759     1.898115     1.890472     1.882829     1.875186     1.867543
      1.859900     1.852257     1.844614     1.836971     1.829327     1.821684     1.814041     1.806398     1.798755     1.791112
      1.783469     1.775826     1.768183     1.760540     1.752896     1.745253     1.737610     1.729967     1.722324     1.714681
      1.707038     1.699395     1.691752     1.684108     1.676465     1.668822     1.661179     1.653536     1.645893     1.638250
      1.630607     1.622964     1.615321     1.607677     1.600034     1.592391     1.584748     1.577105     1.569462     1.561819
      1.554176     1.546533     1.538890     1.531246     1.523603     1.515960     1.508317     1.500674     1.493031     1.485388
      1.477745     1.470102     1.462458     1.454815     1.447172     1.439529     1.431886     1.424243     1.416600     1.408957
      1.401314     1.393671     1.386027     1.378384     1.370741     1.363098     1.355455     1.347812     1.340169     1.332526
      1.324883     1.317240     1.309596     1.301953     1.294310     1.286667     1.279024     1.271381     1.263738     1.256095
      1.248452     1.240808     1.233165     1.225522     1.217879     1.210236     1.202593     1.194950     1.187307     1.179664
      1.172021     1.164377     1.156734     1.149091     1.141448     1.133805     1.126162     1.118519     1.110876     1.103233
      1.095590     1.087946     1.080303     1.072660     1.065017     1.057374     1.049731     1.042088     1.034445     1.026802
      1.019158     1.011515     1.003872     0.996229     0.988586     0.980943     0.973300     0.965657     0.958014     0.950371
      0.942727     0.935084     0.927441     0.919798     0.912155     0.904512     0.896869     0.889226     0.881583     0.873940
      0.866296     0.858653     0.851010     0.843367     0.835724     0.828081     0.820438     0.812795     0.805152     0.797508
      0.789865     0.782222     0.774579     0.766936     0.759293     0.751650     0.744007     0.736364     0.728721     0.721077
      0.713434     0.705791     0.698148     0.690505     0.682862     0.675219     0.667576     0.659933     0.652290     0.644646
      0.637003     0.629360     0.621717     0.614074     0.606431     0.598788     0.591145     0.583502     0.575858     0.568215
      0.560572     0.552929     0.545286     0.537643     0.530000     0.522357     0.514714     0.507071     0.499427     0.491784
      0.484141     0.476498     0.468855     0.461212     0.453569     0.445925     0.438282     0.430639     0.422996     0.415353
      0.407710     0.400067     0.392424     0.384780     0.377137     0.369494     0.361851     0.354208     0.346565     0.338922
      0.331278     0.323635     0.315992     0.308349     0.300706     0.293063     0.285420     0.277777     0.270133     0.262490
      0.254847     0.247204     0.239561     0.231918     0.224275     0.216631     0.208988     0.201345
 NY phased data points follow
  -1.47564E+01 -1.55432E+01 -1.67336E+01 -1.30404E+01 -1.26268E+01 -1.24338E+01 -1.17610E+01 -9.39450E+00 -1.98461E+00  7.06609E-01
  -3.29924E+00 -3.78588E+00  1.62001E+00 -5.46607E-01 -4.19347E+00 -8.47323E+00 -7.12276E+00 -6.26701E+00 -7.38998E+00 -1.45375E+01
  -1.05804E+01 -9.90584E+00 -1.09782E+01 -6.16581E+00 -3.95100E+00 -6.59454E+00 -7.88354E+00 -7.17868E+00 -5.87979E+00 -5.47650E+00
  -4.98020E+00 -4.62247E+00 -5.65357E+00 -6.21193E+00 -3.56237E+00 -6.36911E+00 -2.62820E+00 -9.22957E+00 -1.00667E+01 -4.67895E+00
  -3.53830E+00 -9.54477E+00 -6.72519E+00 -3.36327E+00 -2.62876E+00 -2.02566E+00 -4.88417E-01  2.85440E-01 -2.89350E+00 -2.64955E+00
  -1.98480E+00 -5.60782E+00 -4.03931E+00 -5.69655E+00 -9.87819E+00 -3.87147E+00 -4.18308E+00 -2.04183E+00 -7.48244E+00 -5.48709E+00
  -7.07246E+00 -1.00858E+01 -7.80416E+00 -8.01599E+00 -7.23545E+00 -9.73091E+00 -6.79812E+00 -6.97831E+00 -5.41334E+00 -4.47146E+00
  -7.64231E+00 -1.04849E+01 -6.46567E+00 -3.90855E+00 -3.53778E+00 -9.19630E+00 -3.94584E+00 -4.88584E+00 -5.44319E+00 -7.56503E+00
  -9.88367E+00 -1.18125E+01  1.93116E-01 -5.30429E+00 -6.05116E+00 -5.26481E+00 -5.12991E+00 -6.99703E+00 -8.27032E+00 -2.03721E+00
  -2.19924E-01 -7.82379E+00 -6.60854E+00 -7.23748E+00 -7.72555E+00 -3.14991E+00 -5.30262E-01 -3.11125E+00 -1.21606E+00  2.25837E+00
   6.85364E+00  1.74680E+01  1.44765E+01  2.05829E+01  1.77775E+01  1.12794E+01  8.38094E+00  3.80618E+00  7.24290E+00  4.27965E+00
   5.38658E+00  3.79148E+00 -2.56572E+00 -4.58301E+00 -6.67877E+00 -5.61090E+00 -4.42172E+00 -7.32792E+00 -6.76141E+00  7.51881E-01
  -1.74656E+00 -4.54887E+00  2.23281E+00 -2.14574E+00  3.95651E+00  6.75055E+00  1.40605E+01  1.14667E+01  1.76219E+01  1.24609E+01
   8.84513E+00  8.76188E+00  3.20292E+00  2.57935E+00  1.77551E+00  2.27405E-01 -4.14386E+00 -6.05311E+00 -6.03794E+00 -4.70752E+00
  -4.79850E+00 -4.36274E+00 -6.69786E+00 -3.81154E+00 -5.87017E+00 -6.63055E+00 -8.51591E+00 -5.24486E+00 -8.33716E+00 -7.07937E+00
  -6.26309E+00 -5.12854E+00 -7.98109E+00 -6.21624E+00 -5.30286E+00 -4.90688E+00 -3.63229E+00 -6.77224E+00 -2.54432E+00 -3.10030E+00
  -5.05314E+00 -4.95090E+00 -5.31145E+00 -1.95153E+00 -4.20042E+00 -1.21286E+01 -4.04403E+00 -3.19409E+00 -5.41941E+00 -8.85863E+00
  -7.24320E+00 -9.19297E+00 -7.90944E+00 -8.03251E+00 -7.06358E+00 -8.63946E+00 -1.13091E+01 -1.03330E+01 -5.79857E+00 -5.15355E+00
  -8.85314E+00 -1.01650E+01 -8.31760E+00 -1.23451E+01 -1.06798E+01 -3.07196E+00 -6.17219E+00 -7.54033E+00 -5.18726E+00 -5.45736E+00
  -5.30402E-01 -5.30865E+00 -5.97319E+00 -8.48645E+00 -3.21017E+00 -6.17304E+00 -6.94402E+00 -5.65420E+00 -8.20115E+00 -6.81917E+00
   5.81592E-01 -4.90550E+00 -6.38297E+00 -3.92019E+00 -4.90677E+00  8.43520E-01  2.31569E+00 -5.58000E+00 -4.54345E+00 -3.44016E+00
  -5.74031E+00 -4.32008E+00 -6.31591E+00 -2.56549E+00 -3.46539E+00  2.20883E+00  3.25194E+00 -3.60651E-01  5.94576E+00 -1.14980E+00
  -2.84826E+00 -6.45844E+00 -4.87949E+00 -9.02205E+00 -4.20922E+00 -3.06804E+00 -3.85049E-01  2.67244E+00 -7.31735E-02 -2.30692E+00
  -4.88046E+00  2.84182E+00 -4.21937E+00 -2.97999E-01 -1.45077E+00 -2.88978E+00 -1.12491E+00 -2.90848E+00  9.27016E-01  1.52361E-01
   1.17603E+00  4.97435E-01 -3.94774E+00 -8.99300E-01 -5.04395E+00 -8.04010E-01 -1.88563E+00  3.84708E+00  7.08663E-01  1.03968E+00
  -2.74672E+00 -1.88305E+00  4.57854E+00  4.67962E+00  3.77754E+00  1.25523E+01  1.10412E+01  1.70549E+01  2.24911E+01  2.43770E+01
   3.88011E+01  3.80849E+01  3.15749E+01  2.99010E+01  1.83237E+01  1.39170E+01  1.44626E+01  1.15263E+01  8.51531E+00 -3.50816E+00
   2.58858E+00 -3.44202E+00  2.50152E-01 -1.17335E+00 -5.67503E-01 -1.86549E+00 -3.73947E+00 -5.73343E+00 -2.53323E+00 -6.75696E-01
  -1.22011E+00 -5.01231E+00  6.45660E-01  9.58298E-01 -1.99973E+00 -5.35069E+00 -4.40783E+00 -2.11275E+00 -2.94877E+00 -2.11657E+00
  -2.73366E+00 -4.93264E+00 -5.12924E+00 -7.61715E+00 -4.81856E+00 -1.77614E-01 -2.77923E+00 -6.94029E+00  2.17453E+00 -3.55938E+00
  -5.78484E+00 -4.37955E+00 -5.80998E+00  4.47796E-01 -2.15549E+00 -3.56159E+00 -3.99468E+00 -1.67859E+00 -9.51250E-01 -8.26315E-02
  -2.34683E+00 -2.28275E+00 -8.14009E-01 -7.01342E+00  3.70104E+00 -1.99373E+00 -1.06251E+00  1.94088E+00 -3.44575E+00 -2.09771E+00
  -2.62526E+00 -2.15133E+00 -2.72943E+00 -4.24857E+00 -2.00975E+00 -4.59879E+00 -3.18213E+00 -2.19113E+00 -7.22643E+00 -1.05794E+00
  -1.28151E-01 -2.12980E+00 -1.12433E+00 -5.42991E+00 -3.58815E+00 -3.37792E+00 -4.47263E+00 -4.82469E+00 -4.07166E+00 -4.47053E+00
   1.58969E+00 -7.76893E+00 -4.80298E+00 -7.74832E-01 -4.89369E+00  3.07782E-01 -7.66233E-01 -1.46426E+00  4.63405E+00  9.72974E-01
   3.21573E-01 -2.13200E+00  3.99807E+00  1.49975E+00  5.04924E+00  6.13046E+00 -1.88825E+00  6.66403E-01  1.16691E-01  6.64214E+00
   7.81598E-01 -1.00830E+00  2.38853E+00  8.01882E+00  1.91064E+00  1.64090E+00  5.73997E+00  2.68028E+00  7.60832E+00  9.04407E+00
   3.13738E+00  6.52495E+00  2.87942E+00  6.05584E+00 -1.58900E+00  2.48658E+00  5.43814E+00  4.45502E+00  1.48088E+00  6.40295E-02
   2.52411E+00  1.44589E+00  4.97961E+00  1.32454E+00  1.31001E+00  1.71495E+00 -9.25228E-01  7.28830E+00  7.14992E+00  1.41151E+00
   2.16253E+00  1.23880E+00 -1.86314E+00  6.73525E+00  4.10553E+00  4.77525E+00  4.86010E+00  6.07501E+00  5.43603E+00  7.94844E+00
   7.24579E+00  6.13007E+00  4.12391E+00  8.57471E+00  9.21271E+00  9.37589E+00  9.73192E+00  6.27797E+00  7.66150E+00  5.40693E+00
   6.23339E+00  9.62288E-01  7.02158E+00  5.68634E+00  4.18904E+00  6.47401E+00  3.67341E+00  7.21429E+00  7.96541E+00  6.94791E+00
   6.80669E+00  4.60643E+00  9.35503E-01  3.98383E+00  4.79315E+00  1.76497E+00  1.54580E+00  1.73288E+00  1.02245E+00  8.60526E-01
   1.47612E+00  1.57163E+00  4.16272E+00  2.96180E-01  4.82463E+00  2.11712E+00  3.90572E+00  4.27729E+00  8.37101E+00  4.23968E-01
   3.65308E-01  4.12591E+00  5.59527E-01  3.64062E+00  1.21327E+00  1.40989E+00  5.08234E+00  3.41470E+00  2.50855E-01  1.77436E+00
   7.46735E+00  3.26838E+00  4.69100E+00  3.14011E+00  7.64345E-01  3.98024E-01 -1.02126E+00  6.35977E-01 -7.68061E-01  3.00945E+00
  -2.57178E+00  3.35681E-01  1.78557E-01  1.21915E+00  5.97891E-01 -1.24327E+00  5.72705E+00  7.19424E-01 -1.85206E+00  3.49523E-01
  -3.29911E-01  7.41008E-01  1.33988E+00  5.51587E+00 -3.07766E+00  4.44557E+00 -2.88903E-01  3.60624E+00  4.02322E-01  5.11007E+00
   3.03855E+00  2.36100E-01  2.01629E+00 -1.02628E+00  4.72404E-01  3.82676E+00  2.53489E-01 -3.58972E-01 -1.96190E+00  2.40678E+00
   1.59129E+00  3.38622E+00  5.71414E+00  5.54576E-01 -2.94447E-01  6.81508E-01  2.50210E+00  1.82137E+00
 NY points of the fit to the data follow
  -9.54330E+00 -9.94875E+00 -1.02177E+01 -1.00426E+01 -9.63897E+00 -9.09708E+00 -8.22195E+00 -6.82055E+00 -4.96548E+00 -3.08661E+00
  -1.77268E+00 -1.40355E+00 -1.92694E+00 -2.94645E+00 -3.88253E+00 -4.44123E+00 -4.90550E+00 -5.86559E+00 -6.96239E+00 -7.44129E+00
  -7.64811E+00 -7.79041E+00 -7.92348E+00 -7.96672E+00 -7.97807E+00 -7.93293E+00 -7.69142E+00 -7.18262E+00 -6.39375E+00 -5.41983E+00
  -4.44095E+00 -3.68134E+00 -3.35177E+00 -3.50902E+00 -4.04152E+00 -4.78604E+00 -5.62186E+00 -6.50387E+00 -7.26399E+00 -7.58248E+00
  -7.50947E+00 -7.15061E+00 -6.57181E+00 -5.82309E+00 -4.90909E+00 -3.96711E+00 -3.20279E+00 -2.87555E+00 -3.11101E+00 -3.78104E+00
  -4.66359E+00 -5.48216E+00 -6.04417E+00 -6.44372E+00 -6.81785E+00 -7.07592E+00 -7.06129E+00 -6.81975E+00 -6.52649E+00 -6.28883E+00
  -6.17690E+00 -6.23911E+00 -6.43089E+00 -6.65995E+00 -6.81178E+00 -6.82891E+00 -6.78100E+00 -6.74241E+00 -6.67155E+00 -6.51880E+00
  -6.30519E+00 -6.06577E+00 -5.82481E+00 -5.62032E+00 -5.50908E+00 -5.51995E+00 -5.67688E+00 -5.99609E+00 -6.36753E+00 -6.64087E+00
  -6.67753E+00 -6.50483E+00 -6.22160E+00 -5.91947E+00 -5.61192E+00 -5.32475E+00 -5.21209E+00 -5.35013E+00 -5.68193E+00 -6.09012E+00
  -6.48199E+00 -6.77719E+00 -6.99384E+00 -7.25738E+00 -7.51776E+00 -7.26188E+00 -5.75887E+00 -3.37888E+00 -4.47494E-01  3.27499E+00
   7.86583E+00  1.27575E+01  1.67386E+01  1.85698E+01  1.77900E+01  1.49504E+01  1.11769E+01  7.66440E+00  4.92225E+00  2.39884E+00
  -5.36902E-01 -3.35718E+00 -4.82718E+00 -5.39567E+00 -5.70942E+00 -5.93033E+00 -6.11516E+00 -6.24340E+00 -6.30968E+00 -6.23880E+00
  -5.58226E+00 -4.06119E+00 -2.04290E+00  5.44299E-01  3.95185E+00  7.96461E+00  1.17696E+01  1.42765E+01  1.47097E+01  1.31353E+01
   1.03506E+01  7.35876E+00  4.83420E+00  2.68653E+00  3.20970E-01 -2.35248E+00 -4.30691E+00 -4.99041E+00 -5.15072E+00 -5.10785E+00
  -5.01463E+00 -4.95440E+00 -4.92665E+00 -4.92083E+00 -4.95841E+00 -5.02755E+00 -5.11779E+00 -5.23782E+00 -5.37853E+00 -5.52347E+00
  -5.64969E+00 -5.73822E+00 -5.80112E+00 -5.84106E+00 -5.88288E+00 -5.94621E+00 -6.02102E+00 -6.11229E+00 -6.22028E+00 -6.34916E+00
  -6.49037E+00 -6.57305E+00 -6.54248E+00 -6.42266E+00 -6.30248E+00 -6.27301E+00 -6.37825E+00 -6.57811E+00 -6.78134E+00 -6.93793E+00
  -7.10185E+00 -7.29613E+00 -7.51628E+00 -7.75593E+00 -7.95444E+00 -8.07190E+00 -8.08865E+00 -8.00061E+00 -7.87639E+00 -7.79243E+00
  -7.79203E+00 -7.84374E+00 -7.83912E+00 -7.72661E+00 -7.53089E+00 -7.30679E+00 -7.05878E+00 -6.67007E+00 -6.10147E+00 -5.46110E+00
  -4.95142E+00 -4.71371E+00 -4.71725E+00 -4.86511E+00 -5.04300E+00 -5.16600E+00 -5.22851E+00 -5.17922E+00 -4.90754E+00 -4.41095E+00
  -3.74982E+00 -3.03310E+00 -2.40447E+00 -2.09706E+00 -2.20168E+00 -2.68508E+00 -3.55301E+00 -4.71177E+00 -5.87229E+00 -6.67807E+00
  -6.87978E+00 -6.48080E+00 -5.57610E+00 -4.30348E+00 -2.92694E+00 -1.83022E+00 -1.32679E+00 -1.46826E+00 -2.13911E+00 -3.30102E+00
  -4.60642E+00 -5.57878E+00 -6.06150E+00 -6.03792E+00 -5.52457E+00 -4.60282E+00 -3.49968E+00 -2.58844E+00 -1.98015E+00 -1.60879E+00
  -1.32763E+00 -1.13165E+00 -1.11172E+00 -1.15521E+00 -1.08539E+00 -8.93265E-01 -6.77947E-01 -4.56971E-01 -2.38069E-01 -9.51645E-02
  -1.53375E-01 -4.05719E-01 -6.68670E-01 -7.77466E-01 -7.08533E-01 -5.53262E-01 -3.14454E-01 -1.49262E-02  2.53453E-01  5.14095E-01
   8.65815E-01  1.34198E+00  1.86631E+00  2.97423E+00  5.48590E+00  8.77478E+00  1.26763E+01  1.77476E+01  2.39560E+01  3.01118E+01
   3.43765E+01  3.52433E+01  3.25214E+01  2.73973E+01  2.16511E+01  1.67456E+01  1.29251E+01  9.22478E+00  4.97826E+00  1.39184E+00
  -3.10631E-02 -5.15916E-01 -7.70459E-01 -8.97166E-01 -9.53480E-01 -1.01682E+00 -1.09802E+00 -1.19785E+00 -1.31321E+00 -1.43114E+00
  -1.54398E+00 -1.65780E+00 -1.76922E+00 -1.86186E+00 -1.93149E+00 -1.98602E+00 -2.03176E+00 -2.06978E+00 -2.09927E+00 -2.12160E+00
  -2.14294E+00 -2.16215E+00 -2.17771E+00 -2.18981E+00 -2.19871E+00 -2.20351E+00 -2.20416E+00 -2.20116E+00 -2.19592E+00 -2.18802E+00
  -2.17779E+00 -2.16544E+00 -2.15113E+00 -2.13495E+00 -2.11779E+00 -2.09984E+00 -2.08148E+00 -2.06228E+00 -2.04228E+00 -2.02121E+00
  -1.99958E+00 -1.97739E+00 -1.95467E+00 -1.93082E+00 -1.90613E+00 -1.88051E+00 -1.85431E+00 -1.82730E+00 -1.79961E+00 -1.77093E+00
  -1.74149E+00 -1.71114E+00 -1.68015E+00 -1.64818E+00 -1.61532E+00 -1.58125E+00 -1.54618E+00 -1.50987E+00 -1.47247E+00 -1.43354E+00
  -1.39308E+00 -1.35069E+00 -1.30643E+00 -1.25989E+00 -1.21093E+00 -1.15884E+00 -1.10329E+00 -1.04344E+00 -9.78741E-01 -9.07912E-01
  -8.29697E-01 -7.41994E-01 -6.42744E-01 -5.29077E-01 -3.98203E-01 -2.46720E-01 -7.19025E-02  1.28505E-01  3.54676E-01  6.04884E-01
   8.74200E-01  1.15521E+00  1.43749E+00  1.70929E+00  1.95811E+00  2.17321E+00  2.34642E+00  2.47407E+00  2.55653E+00  2.59855E+00
   2.60736E+00  2.59207E+00  2.56132E+00  2.52284E+00  2.48173E+00  2.44114E+00  2.40170E+00  2.36305E+00  2.32374E+00  2.28266E+00
   2.23867E+00  2.19175E+00  2.14227E+00  2.09184E+00  2.04234E+00  1.99646E+00  1.95670E+00  1.92604E+00  1.90704E+00  1.90258E+00
   1.91498E+00  1.94667E+00  1.99941E+00  2.07510E+00  2.17503E+00  2.30064E+00  2.45267E+00  2.63185E+00  2.83813E+00  3.07135E+00
   3.33048E+00  3.61425E+00  3.92021E+00  4.24546E+00  4.58584E+00  4.93668E+00  5.29215E+00  5.64599E+00  5.99088E+00  6.31942E+00
   6.62363E+00  6.89606E+00  7.12932E+00  7.31714E+00  7.45386E+00  7.53554E+00  7.55945E+00  7.52494E+00  7.43275E+00  7.28566E+00
   7.08762E+00  6.84431E+00  6.56217E+00  6.24880E+00  5.91185E+00  5.55935E+00  5.19876E+00  4.83739E+00  4.48149E+00  4.13678E+00
   3.80763E+00  3.49771E+00  3.20929E+00  2.94415E+00  2.70285E+00  2.48563E+00  2.29171E+00  2.12024E+00  1.96966E+00  1.83861E+00
   1.72528E+00  1.62815E+00  1.54535E+00  1.47541E+00  1.41667E+00  1.36795E+00  1.32787E+00  1.29550E+00  1.26964E+00  1.24961E+00
   1.23449E+00  1.22385E+00  1.21697E+00  1.21353E+00  1.21291E+00  1.21493E+00  1.21913E+00  1.22544E+00  1.23347E+00  1.24316E+00
   1.25416E+00  1.26648E+00  1.27986E+00  1.29437E+00  1.30974E+00  1.32601E+00  1.34293E+00  1.36061E+00  1.37886E+00  1.39778E+00
   1.41714E+00  1.43705E+00  1.45730E+00  1.47804E+00  1.49910E+00  1.52061E+00  1.54234E+00  1.56444E+00  1.58671E+00  1.60935E+00
   1.63217E+00  1.65530E+00  1.67855E+00  1.70206E+00  1.72568E+00  1.74959E+00  1.77360E+00  1.79786E+00  1.82216E+00  1.84668E+00
   1.87128E+00  1.89612E+00  1.92103E+00  1.94613E+00  1.97127E+00  1.99660E+00  2.02201E+00  2.04765E+00  2.07334E+00  2.09921E+00
   2.12512E+00  2.15126E+00  2.17750E+00  2.20398E+00  2.23052E+00  2.25730E+00  2.28417E+00  2.31135E+00
 NY background values follow
    -1.056E+01   -1.054E+01   -1.051E+01   -1.049E+01   -1.046E+01   -1.044E+01   -1.041E+01   -1.039E+01   -1.036E+01   -1.034E+01
    -1.031E+01   -1.029E+01   -1.026E+01   -1.024E+01   -1.021E+01   -1.019E+01   -1.016E+01   -1.014E+01   -1.011E+01   -1.009E+01
    -1.006E+01   -1.004E+01   -1.001E+01   -9.986E+00   -9.961E+00   -9.935E+00   -9.910E+00   -9.885E+00   -9.860E+00   -9.835E+00
    -9.810E+00   -9.784E+00   -9.759E+00   -9.734E+00   -9.709E+00   -9.683E+00   -9.658E+00   -9.633E+00   -9.607E+00   -9.582E+00
    -9.557E+00   -9.531E+00   -9.506E+00   -9.481E+00   -9.455E+00   -9.430E+00   -9.405E+00   -9.379E+00   -9.354E+00   -9.328E+00
    -9.303E+00   -9.277E+00   -9.252E+00   -9.226E+00   -9.201E+00   -9.176E+00   -9.150E+00   -9.124E+00   -9.099E+00   -9.073E+00
    -9.048E+00   -9.022E+00   -8.997E+00   -8.971E+00   -8.946E+00   -8.920E+00   -8.894E+00   -8.869E+00   -8.843E+00   -8.817E+00
    -8.792E+00   -8.766E+00   -8.740E+00   -8.715E+00   -8.689E+00   -8.663E+00   -8.638E+00   -8.612E+00   -8.586E+00   -8.560E+00
    -8.535E+00   -8.509E+00   -8.483E+00   -8.457E+00   -8.431E+00   -8.406E+00   -8.380E+00   -8.354E+00   -8.328E+00   -8.302E+00
    -8.276E+00   -8.251E+00   -8.225E+00   -8.199E+00   -8.173E+00   -8.147E+00   -8.121E+00   -8.095E+00   -8.069E+00   -8.043E+00
    -8.017E+00   -7.991E+00   -7.965E+00   -7.939E+00   -7.913E+00   -7.887E+00   -7.861E+00   -7.835E+00   -7.809E+00   -7.783E+00
    -7.757E+00   -7.731E+00   -7.705E+00   -7.679E+00   -7.653E+00   -7.627E+00   -7.601E+00   -7.575E+00   -7.549E+00   -7.523E+00
    -7.496E+00   -7.470E+00   -7.444E+00   -7.418E+00   -7.392E+00   -7.366E+00   -7.339E+00   -7.313E+00   -7.287E+00   -7.261E+00
    -7.235E+00   -7.209E+00   -7.182E+00   -7.156E+00   -7.130E+00   -7.104E+00   -7.077E+00   -7.051E+00   -7.025E+00   -6.999E+00
    -6.972E+00   -6.946E+00   -6.920E+00   -6.893E+00   -6.867E+00   -6.841E+00   -6.814E+00   -6.788E+00   -6.762E+00   -6.735E+00
    -6.709E+00   -6.683E+00   -6.656E+00   -6.630E+00   -6.604E+00   -6.577E+00   -6.551E+00   -6.524E+00   -6.498E+00   -6.472E+00
    -6.445E+00   -6.419E+00   -6.392E+00   -6.366E+00   -6.340E+00   -6.313E+00   -6.287E+00   -6.260E+00   -6.234E+00   -6.207E+00
    -6.181E+00   -6.154E+00   -6.128E+00   -6.101E+00   -6.075E+00   -6.048E+00   -6.022E+00   -5.995E+00   -5.969E+00   -5.942E+00
    -5.916E+00   -5.889E+00   -5.863E+00   -5.836E+00   -5.810E+00   -5.783E+00   -5.756E+00   -5.730E+00   -5.703E+00   -5.677E+00
    -5.650E+00   -5.623E+00   -5.597E+00   -5.570E+00   -5.544E+00   -5.517E+00   -5.490E+00   -5.464E+00   -5.437E+00   -5.411E+00
    -5.384E+00   -5.357E+00   -5.331E+00   -5.304E+00   -5.277E+00   -5.251E+00   -5.224E+00   -5.197E+00   -5.171E+00   -5.144E+00
    -5.117E+00   -5.091E+00   -5.064E+00   -5.037E+00   -5.011E+00   -4.984E+00   -4.957E+00   -4.931E+00   -4.904E+00   -4.877E+00
    -4.850E+00   -4.824E+00   -4.797E+00   -4.770E+00   -4.743E+00   -4.717E+00   -4.690E+00   -4.663E+00   -4.637E+00   -4.610E+00
    -4.583E+00   -4.556E+00   -4.529E+00   -4.503E+00   -4.476E+00   -4.449E+00   -4.422E+00   -4.396E+00   -4.369E+00   -4.342E+00
    -4.315E+00   -4.289E+00   -4.262E+00   -4.235E+00   -4.208E+00   -4.181E+00   -4.155E+00   -4.128E+00   -4.101E+00   -4.074E+00
    -4.047E+00   -4.021E+00   -3.994E+00   -3.967E+00   -3.940E+00   -3.913E+00   -3.886E+00   -3.860E+00   -3.833E+00   -3.806E+00
    -3.779E+00   -3.752E+00   -3.726E+00   -3.699E+00   -3.672E+00   -3.645E+00   -3.618E+00   -3.591E+00   -3.564E+00   -3.538E+00
    -3.511E+00   -3.484E+00   -3.457E+00   -3.430E+00   -3.403E+00   -3.377E+00   -3.350E+00   -3.323E+00   -3.296E+00   -3.269E+00
    -3.242E+00   -3.215E+00   -3.189E+00   -3.162E+00   -3.135E+00   -3.108E+00   -3.081E+00   -3.054E+00   -3.027E+00   -3.001E+00
    -2.974E+00   -2.947E+00   -2.920E+00   -2.893E+00   -2.866E+00   -2.839E+00   -2.812E+00   -2.786E+00   -2.759E+00   -2.732E+00
    -2.705E+00   -2.678E+00   -2.651E+00   -2.624E+00   -2.597E+00   -2.571E+00   -2.544E+00   -2.517E+00   -2.490E+00   -2.463E+00
    -2.436E+00   -2.409E+00   -2.383E+00   -2.356E+00   -2.329E+00   -2.302E+00   -2.275E+00   -2.248E+00   -2.221E+00   -2.194E+00
    -2.168E+00   -2.141E+00   -2.114E+00   -2.087E+00   -2.060E+00   -2.033E+00   -2.006E+00   -1.980E+00   -1.953E+00   -1.926E+00
    -1.899E+00   -1.872E+00   -1.845E+00   -1.818E+00   -1.792E+00   -1.765E+00   -1.738E+00   -1.711E+00   -1.684E+00   -1.657E+00
    -1.631E+00   -1.604E+00   -1.577E+00   -1.550E+00   -1.523E+00   -1.496E+00   -1.470E+00   -1.443E+00   -1.416E+00   -1.389E+00
    -1.362E+00   -1.335E+00   -1.309E+00   -1.282E+00   -1.255E+00   -1.228E+00   -1.201E+00   -1.175E+00   -1.148E+00   -1.121E+00
    -1.094E+00   -1.067E+00   -1.041E+00   -1.014E+00   -9.870E-01   -9.602E-01   -9.335E-01   -9.067E-01   -8.799E-01   -8.531E-01
    -8.264E-01   -7.996E-01   -7.728E-01   -7.461E-01   -7.193E-01   -6.926E-01   -6.658E-01   -6.391E-01   -6.123E-01   -5.856E-01
    -5.589E-01   -5.321E-01   -5.054E-01   -4.787E-01   -4.520E-01   -4.252E-01   -3.985E-01   -3.718E-01   -3.451E-01   -3.184E-01
    -2.917E-01   -2.650E-01   -2.383E-01   -2.116E-01   -1.850E-01   -1.583E-01   -1.316E-01   -1.049E-01   -7.828E-02   -5.162E-02
    -2.496E-02    1.687E-03    2.833E-02    5.498E-02    8.162E-02    1.082E-01    1.349E-01    1.615E-01    1.881E-01    2.147E-01
     2.413E-01    2.680E-01    2.946E-01    3.211E-01    3.477E-01    3.743E-01    4.009E-01    4.275E-01    4.540E-01    4.806E-01
     5.072E-01    5.337E-01    5.603E-01    5.868E-01    6.133E-01    6.399E-01    6.664E-01    6.929E-01    7.194E-01    7.460E-01
     7.725E-01    7.990E-01    8.254E-01    8.519E-01    8.784E-01    9.049E-01    9.314E-01    9.578E-01    9.843E-01    1.011E+00
     1.037E+00    1.064E+00    1.090E+00    1.116E+00    1.143E+00    1.169E+00    1.196E+00    1.222E+00    1.248E+00    1.275E+00
     1.301E+00    1.328E+00    1.354E+00    1.380E+00    1.407E+00    1.433E+00    1.459E+00    1.486E+00    1.512E+00    1.538E+00
     1.565E+00    1.591E+00    1.617E+00    1.644E+00    1.670E+00    1.696E+00    1.722E+00    1.749E+00    1.775E+00    1.801E+00
     1.827E+00    1.854E+00    1.880E+00    1.906E+00    1.932E+00    1.958E+00    1.985E+00    2.011E+00    2.037E+00    2.063E+00
     2.089E+00    2.115E+00    2.142E+00    2.168E+00    2.194E+00    2.220E+00    2.246E+00    2.272E+00    2.298E+00    2.324E+00
     2.350E+00    2.377E+00    2.403E+00    2.429E+00    2.455E+00    2.481E+00    2.507E+00    2.533E+00
 Asp      Conc. = 1.30E+01
