 LCModel (Version 6.3-1L) Copyright: S.W. Provencher.          Ref.: Magn. Reson. Med. 30:672-679 (1993).                
 Slice#3 Row#5 Col#1  PD_05_press_1_raw_act
 36 lines in following concentration table = NCONC+1
    Conc.  %SD /Cr+PCr  Metabolite                                         
   27.132  88%   0.493 Ala                                                 
    7.171 107%   0.130 Asp                                                 
    0.000 999%   0.000 Cr                                                  
   55.083  22%   1.000 PCr                                                 
    4.198 110% 7.6E-02 GABA                                                
    3.578 129% 6.5E-02 Glc                                                 
    6.921 671%   0.126 Gln                                                 
   63.300  82%   1.149 Glu                                                 
    9.214  48%   0.167 GPC                                                 
    0.000 999%   0.000 PCh                                                 
    0.000 999%   0.000 GSH                                                 
    0.000 999%   0.000 Ins                                                 
    0.000 999%   0.000 Lac                                                 
   61.250  23%   1.112 NAA                                                 
    0.000 999%   0.000 NAAG                                                
    1.444 105% 2.6E-02 Scyllo                                              
    4.911 156% 8.9E-02 Tau                                                 
    0.000 999%   0.000 -CrCH2                                              
    9.214  48%   0.167 GPC+PCh                                             
   61.250  23%   1.112 NAA+NAAG                                            
   55.083  22%   1.000 Cr+PCr                                              
   70.221  97%   1.275 Glu+Gln                                             
  614.565  19%  11.157 Lip13a                                              
  141.025  32%   2.560 Lip13b                                              
    0.000 999%   0.000 Lip09                                               
    0.000 999%   0.000 MM09                                                
   80.024  71%   1.453 Lip20                                               
    0.000 999%   0.000 MM20                                                
 1.83E-04 999% 3.3E-06 MM12                                                
    0.000 999%   0.000 MM14                                                
    0.000 999%   0.000 MM17                                                
  755.590  12%  13.717 Lip13a+Lip13b                                       
  755.590  12%  13.717 MM14+Lip13a+Lip13b+MM12                             
    0.000 999%   0.000 MM09+Lip09                                          
   80.024  71%   1.453 MM20+Lip20                                          
   6 lines in following misc. output table
  FWHM = 0.046 ppm    S/N =   2                                            
  Data shift =-0.008 ppm                                                   
  Ph: 136 deg     -13.5 deg/ppm                                            
  alphaB,S = 7.1E-01,   2.2E+01                                            
   14 spline knots.   Ns = 5(1)                                            
  ( 9) 2 infls.   ( 6) 1 extrs.                                            
  498 points on ppm-axis = NY
      4.000000     3.992357     3.984714     3.977070     3.969427     3.961784     3.954141     3.946497     3.938854     3.931211
      3.923568     3.915925     3.908281     3.900638     3.892995     3.885352     3.877708     3.870065     3.862422     3.854779
      3.847136     3.839492     3.831849     3.824206     3.816563     3.808919     3.801276     3.793633     3.785990     3.778347
      3.770703     3.763060     3.755417     3.747774     3.740130     3.732487     3.724844     3.717201     3.709558     3.701914
      3.694271     3.686628     3.678985     3.671341     3.663698     3.656055     3.648412     3.640769     3.633125     3.625482
      3.617839     3.610196     3.602552     3.594909     3.587266     3.579623     3.571980     3.564336     3.556693     3.549050
      3.541407     3.533763     3.526120     3.518477     3.510834     3.503191     3.495547     3.487904     3.480261     3.472618
      3.464974     3.457331     3.449688     3.442045     3.434402     3.426758     3.419115     3.411472     3.403829     3.396185
      3.388542     3.380899     3.373256     3.365613     3.357969     3.350326     3.342683     3.335040     3.327396     3.319753
      3.312110     3.304467     3.296824     3.289180     3.281537     3.273894     3.266251     3.258607     3.250964     3.243321
      3.235678     3.228034     3.220391     3.212748     3.205105     3.197462     3.189818     3.182175     3.174532     3.166889
      3.159245     3.151602     3.143959     3.136316     3.128673     3.121029     3.113386     3.105743     3.098100     3.090456
      3.082813     3.075170     3.067527     3.059884     3.052240     3.044597     3.036954     3.029311     3.021667     3.014024
      3.006381     2.998738     2.991095     2.983451     2.975808     2.968165     2.960522     2.952878     2.945235     2.937592
      2.929949     2.922306     2.914662     2.907019     2.899376     2.891733     2.884089     2.876446     2.868803     2.861160
      2.853517     2.845873     2.838230     2.830587     2.822944     2.815300     2.807657     2.800014     2.792371     2.784728
      2.777084     2.769441     2.761798     2.754155     2.746511     2.738868     2.731225     2.723582     2.715939     2.708295
      2.700652     2.693009     2.685366     2.677722     2.670079     2.662436     2.654793     2.647150     2.639506     2.631863
      2.624220     2.616577     2.608933     2.601290     2.593647     2.586004     2.578361     2.570717     2.563074     2.555431
      2.547788     2.540144     2.532501     2.524858     2.517215     2.509572     2.501928     2.494285     2.486642     2.478999
      2.471355     2.463712     2.456069     2.448426     2.440783     2.433139     2.425496     2.417853     2.410210     2.402566
      2.394923     2.387280     2.379637     2.371994     2.364350     2.356707     2.349064     2.341421     2.333777     2.326134
      2.318491     2.310848     2.303205     2.295561     2.287918     2.280275     2.272632     2.264988     2.257345     2.249702
      2.242059     2.234416     2.226772     2.219129     2.211486     2.203843     2.196199     2.188556     2.180913     2.173270
      2.165627     2.157983     2.150340     2.142697     2.135054     2.127410     2.119767     2.112124     2.104481     2.096838
      2.089194     2.081551     2.073908     2.066265     2.058621     2.050978     2.043335     2.035692     2.028049     2.020405
      2.012762     2.005119     1.997476     1.989833     1.982190     1.974546     1.966903     1.959260     1.951617     1.943974
      1.936331     1.928688     1.921045     1.913402     1.905759     1.898115     1.890472     1.882829     1.875186     1.867543
      1.859900     1.852257     1.844614     1.836971     1.829327     1.821684     1.814041     1.806398     1.798755     1.791112
      1.783469     1.775826     1.768183     1.760540     1.752896     1.745253     1.737610     1.729967     1.722324     1.714681
      1.707038     1.699395     1.691752     1.684108     1.676465     1.668822     1.661179     1.653536     1.645893     1.638250
      1.630607     1.622964     1.615321     1.607677     1.600034     1.592391     1.584748     1.577105     1.569462     1.561819
      1.554176     1.546533     1.538890     1.531246     1.523603     1.515960     1.508317     1.500674     1.493031     1.485388
      1.477745     1.470102     1.462458     1.454815     1.447172     1.439529     1.431886     1.424243     1.416600     1.408957
      1.401314     1.393671     1.386027     1.378384     1.370741     1.363098     1.355455     1.347812     1.340169     1.332526
      1.324883     1.317240     1.309596     1.301953     1.294310     1.286667     1.279024     1.271381     1.263738     1.256095
      1.248452     1.240808     1.233165     1.225522     1.217879     1.210236     1.202593     1.194950     1.187307     1.179664
      1.172021     1.164377     1.156734     1.149091     1.141448     1.133805     1.126162     1.118519     1.110876     1.103233
      1.095590     1.087946     1.080303     1.072660     1.065017     1.057374     1.049731     1.042088     1.034445     1.026802
      1.019158     1.011515     1.003872     0.996229     0.988586     0.980943     0.973300     0.965657     0.958014     0.950371
      0.942727     0.935084     0.927441     0.919798     0.912155     0.904512     0.896869     0.889226     0.881583     0.873940
      0.866296     0.858653     0.851010     0.843367     0.835724     0.828081     0.820438     0.812795     0.805152     0.797508
      0.789865     0.782222     0.774579     0.766936     0.759293     0.751650     0.744007     0.736364     0.728721     0.721077
      0.713434     0.705791     0.698148     0.690505     0.682862     0.675219     0.667576     0.659933     0.652290     0.644646
      0.637003     0.629360     0.621717     0.614074     0.606431     0.598788     0.591145     0.583502     0.575858     0.568215
      0.560572     0.552929     0.545286     0.537643     0.530000     0.522357     0.514714     0.507071     0.499427     0.491784
      0.484141     0.476498     0.468855     0.461212     0.453569     0.445925     0.438282     0.430639     0.422996     0.415353
      0.407710     0.400067     0.392424     0.384780     0.377137     0.369494     0.361851     0.354208     0.346565     0.338922
      0.331278     0.323635     0.315992     0.308349     0.300706     0.293063     0.285420     0.277777     0.270133     0.262490
      0.254847     0.247204     0.239561     0.231918     0.224275     0.216631     0.208988     0.201345
 NY phased data points follow
   3.22393E+01  3.00002E+01  3.10123E+01  3.06757E+01  2.95090E+01  2.87370E+01  3.03873E+01  2.83548E+01  2.82766E+01  2.85302E+01
   2.74281E+01  2.68823E+01  2.85114E+01  2.74095E+01  2.62992E+01  2.60087E+01  2.57656E+01  2.45260E+01  2.48162E+01  2.40080E+01
   2.46483E+01  2.38411E+01  2.49084E+01  2.45561E+01  2.44479E+01  2.28145E+01  2.36354E+01  2.32028E+01  2.31607E+01  2.35364E+01
   2.36648E+01  2.36770E+01  2.24737E+01  2.27287E+01  2.08436E+01  2.18125E+01  2.19754E+01  2.25641E+01  2.10078E+01  2.05124E+01
   2.13044E+01  1.81363E+01  2.17034E+01  2.07470E+01  2.17451E+01  2.19322E+01  2.15830E+01  1.89534E+01  1.95649E+01  1.90226E+01
   2.02175E+01  1.80638E+01  1.89561E+01  1.75583E+01  1.84849E+01  1.93882E+01  1.83477E+01  1.76043E+01  1.90393E+01  1.74965E+01
   1.75647E+01  1.91205E+01  1.71343E+01  1.62211E+01  1.71198E+01  1.51088E+01  1.77276E+01  1.72371E+01  1.76840E+01  1.62732E+01
   1.54292E+01  1.59684E+01  1.63712E+01  1.57788E+01  1.59887E+01  1.47789E+01  1.61190E+01  1.53919E+01  1.49116E+01  1.42005E+01
   1.47942E+01  1.45689E+01  1.37975E+01  1.46990E+01  1.50903E+01  1.53183E+01  1.50523E+01  1.66364E+01  1.36057E+01  1.43563E+01
   1.58791E+01  1.39362E+01  1.35991E+01  1.32674E+01  1.35351E+01  1.14688E+01  1.22735E+01  1.38901E+01  1.46391E+01  1.33834E+01
   1.36066E+01  1.36316E+01  1.38952E+01  1.34570E+01  1.50633E+01  1.38090E+01  1.33871E+01  1.25286E+01  1.28078E+01  1.36004E+01
   1.16981E+01  1.18831E+01  1.27214E+01  1.30521E+01  1.35767E+01  1.06295E+01  1.28703E+01  1.11440E+01  1.22830E+01  1.21657E+01
   1.15258E+01  1.11391E+01  1.40165E+01  9.90596E+00  1.22138E+01  1.30755E+01  1.22757E+01  1.27433E+01  1.21224E+01  1.05232E+01
   1.10335E+01  9.71873E+00  9.81763E+00  1.19036E+01  9.58221E+00  1.03879E+01  1.02391E+01  9.86265E+00  9.79324E+00  9.28281E+00
   8.46439E+00  9.21529E+00  9.06291E+00  8.78898E+00  1.04148E+01  9.46886E+00  1.02399E+01  9.54566E+00  8.30538E+00  9.65334E+00
   9.77527E+00  9.19008E+00  1.03883E+01  8.06851E+00  1.00840E+01  7.64060E+00  7.80217E+00  9.05949E+00  1.07521E+01  8.17139E+00
   9.50808E+00  9.61942E+00  1.04865E+01  7.84439E+00  9.21105E+00  7.97536E+00  8.15585E+00  9.42417E+00  7.44774E+00  8.31699E+00
   9.16164E+00  7.77921E+00  7.77120E+00  8.15052E+00  8.27144E+00  8.11178E+00  9.99478E+00  8.14909E+00  9.64470E+00  8.73764E+00
   7.27869E+00  7.46309E+00  7.58813E+00  7.33658E+00  7.31570E+00  7.81868E+00  5.09449E+00  6.13301E+00  8.27815E+00  5.66440E+00
   7.80461E+00  6.98792E+00  6.83004E+00  7.26140E+00  8.61003E+00  8.23174E+00  7.70751E+00  6.46899E+00  9.90633E+00  7.18853E+00
   8.24282E+00  7.12701E+00  7.48832E+00  6.64399E+00  7.19536E+00  6.73882E+00  5.12121E+00  6.58117E+00  5.85239E+00  6.32343E+00
   6.61638E+00  7.93785E+00  6.84333E+00  4.59762E+00  5.94443E+00  6.66557E+00  7.00969E+00  5.36159E+00  6.45006E+00  5.99959E+00
   5.36459E+00  4.60571E+00  6.11716E+00  5.64378E+00  5.37760E+00  7.41378E+00  5.17420E+00  6.10541E+00  5.44451E+00  5.13051E+00
   7.21979E+00  5.71776E+00  5.18880E+00  4.64743E+00  4.75466E+00  5.44817E+00  5.58093E+00  6.11397E+00  4.69941E+00  4.24335E+00
   5.20586E+00  5.71622E+00  6.01828E+00  4.43164E+00  6.24933E+00  5.37379E+00  4.63229E+00  5.87605E+00  5.19887E+00  4.26048E+00
   5.62120E+00  6.63667E+00  5.48315E+00  5.58096E+00  5.20692E+00  4.87979E+00  6.38757E+00  5.00686E+00  7.93666E+00  8.82622E+00
   8.50246E+00  6.57718E+00  5.99119E+00  6.28620E+00  5.77329E+00  5.78298E+00  2.28062E+00  3.41028E+00  3.27591E+00  4.20818E+00
   4.81243E+00  4.14986E+00  5.60540E+00  6.62343E+00  5.48502E+00  5.67123E+00  5.44338E+00  5.50917E+00  6.36570E+00  6.54138E+00
   4.89687E+00  4.97083E+00  5.34779E+00  5.06966E+00  6.21595E+00  4.39036E+00  3.85264E+00  4.44504E+00  4.28584E+00  4.69103E+00
   6.00696E+00  5.58248E+00  3.54662E+00  4.27986E+00  4.68564E+00  4.61296E+00  2.35670E+00  4.18345E+00  5.88074E+00  2.61654E+00
   4.68559E+00  2.76608E+00  4.87967E+00  2.53751E+00  4.47937E+00  4.50602E+00  4.45806E+00  3.38673E+00  3.76926E+00  4.38358E+00
   2.59069E+00  4.42423E+00  4.65399E+00  5.45285E+00  3.96967E+00  4.68966E+00  3.88664E+00  3.82951E+00  4.50669E+00  5.99277E+00
   4.57850E+00  3.10809E+00  4.75180E+00  4.44978E+00  4.93860E+00  4.29698E+00  3.79090E+00  4.91294E+00  3.86996E+00  4.63661E+00
   3.94962E+00  2.71366E+00  4.45692E+00  3.37077E+00  2.76098E+00  2.07482E+00  4.64187E+00  5.21175E+00  4.68305E+00  4.34965E+00
   4.72140E+00  4.84458E+00  6.10950E+00  5.55576E+00  4.19785E+00  5.81507E+00  6.98905E+00  7.42615E+00  5.63738E+00  8.42330E+00
   6.99973E+00  7.87716E+00  9.74528E+00  8.93903E+00  8.50290E+00  8.37661E+00  7.92676E+00  5.01395E+00  7.43885E+00  7.30630E+00
   5.52195E+00  6.27658E+00  7.78416E+00  5.82380E+00  6.04865E+00  6.02679E+00  5.32701E+00  7.04242E+00  7.21115E+00  5.59105E+00
   5.03441E+00  6.97130E+00  5.10255E+00  4.14231E+00  4.61967E+00  3.68460E+00  4.75016E+00  4.10354E+00  5.20740E+00  5.16413E+00
   5.28765E+00  3.85737E+00  3.54486E+00  5.39137E+00  4.86636E+00  5.08217E+00  3.29990E+00  3.95264E+00  5.03716E+00  4.12018E+00
   2.90173E+00  2.76212E+00  3.20019E+00  2.93675E+00  1.87020E+00  2.86477E+00  2.99538E+00  3.08040E+00  2.74735E+00  3.50448E+00
   1.84135E+00  2.38370E+00  2.99369E+00  1.19055E+00  3.59675E+00  1.51511E+00  3.01123E+00  3.03264E+00  1.54156E+00  7.86361E-01
   3.35622E+00  3.53622E+00  3.66525E+00  3.44885E+00  4.14622E+00  2.44141E+00  1.52260E+00  3.27553E+00  2.24259E+00  3.02717E+00
   3.25911E+00  2.98972E+00  3.88831E+00  3.45648E+00  5.25964E+00  3.16502E+00  1.48184E+00  1.89227E+00  3.07886E+00  1.92454E+00
   3.51140E+00  2.60216E+00  4.11437E+00  3.22402E+00  3.06775E+00  4.19763E+00  3.65520E+00  3.49033E+00  3.06206E+00  2.73627E+00
   1.16266E+00  3.70387E+00  4.26807E+00  2.11583E+00  3.52314E+00  2.92289E+00  4.32882E+00  2.01883E+00  1.85586E+00  1.95874E+00
   4.29617E+00  2.26714E+00  3.16852E+00  2.61545E+00  3.23615E+00  3.18542E+00  2.20484E+00  3.17279E+00  1.74936E+00  2.56372E+00
   3.29568E+00  3.03142E+00  1.58878E+00  2.33401E+00  2.76550E+00  2.80155E+00  1.24082E+00  3.46380E+00  1.49929E+00  2.07606E+00
   1.96791E+00  2.43893E+00  2.50035E+00  2.30637E+00  2.91020E+00  1.22477E+00  2.01551E+00  2.78460E+00  1.93073E+00  2.64286E+00
   1.14158E+00  2.97949E+00  1.25437E+00  2.11420E+00  2.53732E+00  2.89176E+00  9.14426E-01  2.03039E+00  1.37364E+00  2.20135E+00
   2.86273E+00  1.42281E+00  2.20750E+00  2.35837E+00  1.00404E+00  9.93731E-01  2.35082E+00  1.88163E+00
 NY points of the fit to the data follow
   2.81070E+01  2.79575E+01  2.78335E+01  2.78142E+01  2.79630E+01  2.81519E+01  2.82970E+01  2.83239E+01  2.81620E+01  2.78173E+01
   2.73670E+01  2.69002E+01  2.64645E+01  2.60772E+01  2.57737E+01  2.55539E+01  2.53601E+01  2.51790E+01  2.50130E+01  2.48635E+01
   2.47319E+01  2.46074E+01  2.44629E+01  2.42763E+01  2.40471E+01  2.37859E+01  2.35185E+01  2.32851E+01  2.31149E+01  2.30161E+01
   2.29572E+01  2.29014E+01  2.28125E+01  2.26587E+01  2.24474E+01  2.22177E+01  2.19895E+01  2.17832E+01  2.16098E+01  2.14620E+01
   2.13262E+01  2.11909E+01  2.10482E+01  2.08922E+01  2.07244E+01  2.05571E+01  2.03960E+01  2.02374E+01  2.00824E+01  1.99307E+01
   1.97783E+01  1.96232E+01  1.94668E+01  1.93094E+01  1.91505E+01  1.89917E+01  1.88357E+01  1.86826E+01  1.85322E+01  1.83842E+01
   1.82383E+01  1.80952E+01  1.79545E+01  1.78145E+01  1.76751E+01  1.75352E+01  1.73939E+01  1.72526E+01  1.71121E+01  1.69735E+01
   1.68403E+01  1.67145E+01  1.65925E+01  1.64705E+01  1.63449E+01  1.62133E+01  1.60758E+01  1.59369E+01  1.58009E+01  1.56701E+01
   1.55466E+01  1.54391E+01  1.53455E+01  1.52530E+01  1.51555E+01  1.50468E+01  1.49235E+01  1.47894E+01  1.46508E+01  1.45117E+01
   1.43741E+01  1.42405E+01  1.41153E+01  1.40003E+01  1.38960E+01  1.38004E+01  1.37157E+01  1.36701E+01  1.37481E+01  1.39090E+01
   1.40669E+01  1.41694E+01  1.41529E+01  1.39903E+01  1.37162E+01  1.33981E+01  1.30879E+01  1.28073E+01  1.25797E+01  1.24272E+01
   1.23163E+01  1.22148E+01  1.21175E+01  1.20233E+01  1.19317E+01  1.18414E+01  1.17530E+01  1.16678E+01  1.15870E+01  1.15169E+01
   1.14884E+01  1.16459E+01  1.20511E+01  1.25128E+01  1.29126E+01  1.31270E+01  1.30546E+01  1.27148E+01  1.22256E+01  1.17123E+01
   1.12406E+01  1.08505E+01  1.05993E+01  1.04694E+01  1.03751E+01  1.02930E+01  1.02183E+01  1.01473E+01  1.00778E+01  1.00095E+01
   9.94254E+00  9.87858E+00  9.81796E+00  9.75852E+00  9.69891E+00  9.63824E+00  9.57622E+00  9.51355E+00  9.45091E+00  9.38923E+00
   9.32910E+00  9.27063E+00  9.21383E+00  9.15788E+00  9.10160E+00  9.04233E+00  8.97359E+00  8.89727E+00  8.81975E+00  8.74743E+00
   8.69018E+00  8.64526E+00  8.60587E+00  8.56550E+00  8.51740E+00  8.46002E+00  8.39514E+00  8.32525E+00  8.25451E+00  8.18526E+00
   8.11795E+00  8.04890E+00  7.97615E+00  7.90984E+00  7.85277E+00  7.80477E+00  7.75975E+00  7.71365E+00  7.66603E+00  7.61675E+00
   7.57017E+00  7.52598E+00  7.47642E+00  7.42555E+00  7.38304E+00  7.34889E+00  7.32317E+00  7.30186E+00  7.27896E+00  7.25109E+00
   7.21779E+00  7.18230E+00  7.14891E+00  7.11297E+00  7.07366E+00  7.03140E+00  6.98428E+00  6.93433E+00  6.88895E+00  6.85854E+00
   6.84263E+00  6.83541E+00  6.82205E+00  6.79482E+00  6.74229E+00  6.65331E+00  6.54315E+00  6.43002E+00  6.32567E+00  6.25713E+00
   6.25065E+00  6.32498E+00  6.43416E+00  6.53256E+00  6.58652E+00  6.56161E+00  6.44169E+00  6.23618E+00  5.99098E+00  5.77221E+00
   5.62695E+00  5.57927E+00  5.63556E+00  5.75165E+00  5.87755E+00  5.97845E+00  6.03475E+00  6.04224E+00  6.00600E+00  5.94573E+00
   5.88755E+00  5.84066E+00  5.80473E+00  5.77850E+00  5.75832E+00  5.73668E+00  5.70988E+00  5.67386E+00  5.62329E+00  5.57276E+00
   5.53311E+00  5.50581E+00  5.49072E+00  5.48910E+00  5.49095E+00  5.48120E+00  5.45335E+00  5.41347E+00  5.37132E+00  5.33440E+00
   5.31443E+00  5.31241E+00  5.31906E+00  5.32304E+00  5.35567E+00  5.58949E+00  6.10539E+00  6.69358E+00  7.23029E+00  7.57668E+00
   7.60113E+00  7.31326E+00  6.84380E+00  6.33215E+00  5.85125E+00  5.45011E+00  5.20146E+00  5.08837E+00  5.01468E+00  4.96012E+00
   4.92183E+00  4.89494E+00  4.87581E+00  4.86025E+00  4.84304E+00  4.82074E+00  4.79220E+00  4.75874E+00  4.72237E+00  4.68632E+00
   4.65340E+00  4.62452E+00  4.59953E+00  4.57757E+00  4.55770E+00  4.53908E+00  4.52061E+00  4.50178E+00  4.48294E+00  4.46402E+00
   4.44501E+00  4.42619E+00  4.40786E+00  4.39007E+00  4.37280E+00  4.35614E+00  4.34010E+00  4.32457E+00  4.30954E+00  4.29503E+00
   4.28096E+00  4.26732E+00  4.25408E+00  4.24122E+00  4.22873E+00  4.21666E+00  4.20507E+00  4.19401E+00  4.18353E+00  4.17373E+00
   4.16467E+00  4.15644E+00  4.14917E+00  4.14300E+00  4.13814E+00  4.13487E+00  4.13361E+00  4.13495E+00  4.13985E+00  4.14998E+00
   4.16866E+00  4.20431E+00  4.27630E+00  4.36306E+00  4.40471E+00  4.38734E+00  4.30292E+00  4.15874E+00  3.98706E+00  3.82096E+00
   3.70628E+00  3.70178E+00  3.80005E+00  3.98677E+00  4.21908E+00  4.43350E+00  4.59844E+00  4.70981E+00  4.78446E+00  4.84088E+00
   4.89282E+00  4.96671E+00  5.08822E+00  5.25522E+00  5.46652E+00  5.72310E+00  6.02346E+00  6.36134E+00  6.72445E+00  7.09424E+00
   7.44728E+00  7.75793E+00  8.00196E+00  8.16043E+00  8.22289E+00  8.18892E+00  8.06787E+00  7.87674E+00  7.63684E+00  7.37009E+00
   7.09583E+00  6.82875E+00  6.57803E+00  6.34782E+00  6.13831E+00  5.94729E+00  5.77146E+00  5.60749E+00  5.45267E+00  5.30511E+00
   5.16377E+00  5.02825E+00  4.89857E+00  4.77497E+00  4.65778E+00  4.54724E+00  4.44352E+00  4.34665E+00  4.25654E+00  4.17300E+00
   4.09573E+00  4.02438E+00  3.95854E+00  3.89780E+00  3.84173E+00  3.78992E+00  3.74195E+00  3.69744E+00  3.65604E+00  3.61744E+00
   3.58133E+00  3.54744E+00  3.51555E+00  3.48544E+00  3.45693E+00  3.42986E+00  3.40407E+00  3.37946E+00  3.35589E+00  3.33327E+00
   3.31152E+00  3.29057E+00  3.27035E+00  3.25078E+00  3.23183E+00  3.21345E+00  3.19559E+00  3.17822E+00  3.16130E+00  3.14480E+00
   3.12868E+00  3.11292E+00  3.09749E+00  3.08237E+00  3.06753E+00  3.05295E+00  3.03861E+00  3.02449E+00  3.01059E+00  2.99687E+00
   2.98333E+00  2.96995E+00  2.95672E+00  2.94363E+00  2.93066E+00  2.91780E+00  2.90505E+00  2.89238E+00  2.87980E+00  2.86729E+00
   2.85485E+00  2.84246E+00  2.83011E+00  2.81780E+00  2.80552E+00  2.79327E+00  2.78103E+00  2.76880E+00  2.75657E+00  2.74434E+00
   2.73209E+00  2.71983E+00  2.70754E+00  2.69522E+00  2.68286E+00  2.67046E+00  2.65802E+00  2.64552E+00  2.63296E+00  2.62033E+00
   2.60763E+00  2.59486E+00  2.58201E+00  2.56907E+00  2.55605E+00  2.54295E+00  2.52977E+00  2.51652E+00  2.50319E+00  2.48979E+00
   2.47632E+00  2.46278E+00  2.44917E+00  2.43551E+00  2.42178E+00  2.40800E+00  2.39415E+00  2.38026E+00  2.36632E+00  2.35233E+00
   2.33829E+00  2.32421E+00  2.31010E+00  2.29594E+00  2.28176E+00  2.26754E+00  2.25329E+00  2.23901E+00  2.22471E+00  2.21039E+00
   2.19606E+00  2.18171E+00  2.16734E+00  2.15297E+00  2.13859E+00  2.12420E+00  2.10982E+00  2.09543E+00  2.08105E+00  2.06668E+00
   2.05232E+00  2.03797E+00  2.02363E+00  2.00932E+00  1.99502E+00  1.98074E+00  1.96650E+00  1.95228E+00
 NY background values follow
     2.804E+01    2.787E+01    2.770E+01    2.752E+01    2.735E+01    2.718E+01    2.700E+01    2.683E+01    2.666E+01    2.648E+01
     2.631E+01    2.614E+01    2.596E+01    2.579E+01    2.562E+01    2.545E+01    2.527E+01    2.510E+01    2.493E+01    2.476E+01
     2.459E+01    2.442E+01    2.425E+01    2.408E+01    2.391E+01    2.374E+01    2.357E+01    2.340E+01    2.323E+01    2.306E+01
     2.290E+01    2.273E+01    2.257E+01    2.240E+01    2.223E+01    2.207E+01    2.191E+01    2.174E+01    2.158E+01    2.142E+01
     2.126E+01    2.110E+01    2.094E+01    2.078E+01    2.062E+01    2.047E+01    2.031E+01    2.015E+01    2.000E+01    1.985E+01
     1.969E+01    1.954E+01    1.939E+01    1.924E+01    1.909E+01    1.894E+01    1.879E+01    1.865E+01    1.850E+01    1.835E+01
     1.821E+01    1.807E+01    1.792E+01    1.778E+01    1.764E+01    1.750E+01    1.736E+01    1.723E+01    1.709E+01    1.695E+01
     1.682E+01    1.669E+01    1.655E+01    1.642E+01    1.629E+01    1.616E+01    1.603E+01    1.590E+01    1.578E+01    1.565E+01
     1.553E+01    1.540E+01    1.528E+01    1.516E+01    1.504E+01    1.492E+01    1.480E+01    1.468E+01    1.456E+01    1.445E+01
     1.433E+01    1.422E+01    1.411E+01    1.400E+01    1.389E+01    1.378E+01    1.367E+01    1.356E+01    1.346E+01    1.335E+01
     1.325E+01    1.315E+01    1.304E+01    1.294E+01    1.284E+01    1.275E+01    1.265E+01    1.255E+01    1.246E+01    1.236E+01
     1.227E+01    1.217E+01    1.208E+01    1.199E+01    1.190E+01    1.181E+01    1.172E+01    1.164E+01    1.155E+01    1.146E+01
     1.138E+01    1.130E+01    1.121E+01    1.113E+01    1.105E+01    1.097E+01    1.089E+01    1.081E+01    1.073E+01    1.066E+01
     1.058E+01    1.050E+01    1.043E+01    1.036E+01    1.028E+01    1.021E+01    1.014E+01    1.007E+01    9.999E+00    9.930E+00
     9.861E+00    9.793E+00    9.726E+00    9.660E+00    9.594E+00    9.530E+00    9.465E+00    9.402E+00    9.339E+00    9.276E+00
     9.215E+00    9.154E+00    9.093E+00    9.034E+00    8.974E+00    8.916E+00    8.858E+00    8.800E+00    8.743E+00    8.687E+00
     8.631E+00    8.576E+00    8.521E+00    8.467E+00    8.413E+00    8.359E+00    8.306E+00    8.254E+00    8.202E+00    8.151E+00
     8.100E+00    8.049E+00    7.999E+00    7.949E+00    7.899E+00    7.850E+00    7.802E+00    7.753E+00    7.705E+00    7.658E+00
     7.611E+00    7.564E+00    7.517E+00    7.471E+00    7.425E+00    7.379E+00    7.334E+00    7.289E+00    7.244E+00    7.200E+00
     7.155E+00    7.112E+00    7.068E+00    7.025E+00    6.982E+00    6.940E+00    6.898E+00    6.856E+00    6.815E+00    6.774E+00
     6.733E+00    6.692E+00    6.652E+00    6.613E+00    6.573E+00    6.534E+00    6.495E+00    6.457E+00    6.419E+00    6.381E+00
     6.344E+00    6.307E+00    6.270E+00    6.234E+00    6.198E+00    6.162E+00    6.127E+00    6.092E+00    6.058E+00    6.023E+00
     5.989E+00    5.956E+00    5.923E+00    5.890E+00    5.858E+00    5.825E+00    5.794E+00    5.762E+00    5.731E+00    5.701E+00
     5.670E+00    5.641E+00    5.611E+00    5.582E+00    5.553E+00    5.524E+00    5.496E+00    5.468E+00    5.440E+00    5.413E+00
     5.386E+00    5.359E+00    5.333E+00    5.307E+00    5.281E+00    5.255E+00    5.230E+00    5.205E+00    5.180E+00    5.156E+00
     5.132E+00    5.108E+00    5.085E+00    5.061E+00    5.038E+00    5.015E+00    4.993E+00    4.970E+00    4.948E+00    4.926E+00
     4.905E+00    4.884E+00    4.862E+00    4.841E+00    4.821E+00    4.800E+00    4.780E+00    4.760E+00    4.740E+00    4.720E+00
     4.701E+00    4.682E+00    4.662E+00    4.644E+00    4.625E+00    4.606E+00    4.588E+00    4.570E+00    4.552E+00    4.534E+00
     4.516E+00    4.499E+00    4.481E+00    4.464E+00    4.447E+00    4.430E+00    4.414E+00    4.397E+00    4.381E+00    4.364E+00
     4.348E+00    4.332E+00    4.316E+00    4.301E+00    4.285E+00    4.270E+00    4.254E+00    4.239E+00    4.224E+00    4.209E+00
     4.194E+00    4.180E+00    4.165E+00    4.151E+00    4.136E+00    4.122E+00    4.108E+00    4.094E+00    4.080E+00    4.066E+00
     4.052E+00    4.039E+00    4.025E+00    4.012E+00    3.998E+00    3.985E+00    3.972E+00    3.959E+00    3.945E+00    3.932E+00
     3.920E+00    3.907E+00    3.894E+00    3.881E+00    3.869E+00    3.856E+00    3.844E+00    3.831E+00    3.819E+00    3.806E+00
     3.794E+00    3.782E+00    3.770E+00    3.758E+00    3.746E+00    3.734E+00    3.722E+00    3.710E+00    3.698E+00    3.686E+00
     3.674E+00    3.662E+00    3.651E+00    3.639E+00    3.627E+00    3.616E+00    3.604E+00    3.593E+00    3.581E+00    3.570E+00
     3.558E+00    3.547E+00    3.535E+00    3.524E+00    3.512E+00    3.501E+00    3.490E+00    3.478E+00    3.467E+00    3.455E+00
     3.444E+00    3.433E+00    3.421E+00    3.410E+00    3.399E+00    3.387E+00    3.376E+00    3.365E+00    3.354E+00    3.342E+00
     3.331E+00    3.320E+00    3.308E+00    3.297E+00    3.286E+00    3.275E+00    3.264E+00    3.252E+00    3.241E+00    3.230E+00
     3.219E+00    3.208E+00    3.197E+00    3.186E+00    3.175E+00    3.164E+00    3.153E+00    3.142E+00    3.131E+00    3.120E+00
     3.109E+00    3.099E+00    3.088E+00    3.077E+00    3.067E+00    3.056E+00    3.045E+00    3.035E+00    3.024E+00    3.014E+00
     3.003E+00    2.993E+00    2.983E+00    2.972E+00    2.962E+00    2.952E+00    2.942E+00    2.932E+00    2.922E+00    2.912E+00
     2.902E+00    2.892E+00    2.882E+00    2.872E+00    2.863E+00    2.853E+00    2.843E+00    2.833E+00    2.824E+00    2.814E+00
     2.804E+00    2.795E+00    2.785E+00    2.775E+00    2.766E+00    2.756E+00    2.746E+00    2.736E+00    2.727E+00    2.717E+00
     2.707E+00    2.697E+00    2.687E+00    2.677E+00    2.667E+00    2.657E+00    2.647E+00    2.637E+00    2.627E+00    2.616E+00
     2.606E+00    2.596E+00    2.585E+00    2.575E+00    2.564E+00    2.553E+00    2.542E+00    2.531E+00    2.520E+00    2.509E+00
     2.498E+00    2.486E+00    2.475E+00    2.463E+00    2.452E+00    2.440E+00    2.428E+00    2.416E+00    2.404E+00    2.391E+00
     2.379E+00    2.366E+00    2.354E+00    2.341E+00    2.329E+00    2.316E+00    2.303E+00    2.290E+00    2.277E+00    2.264E+00
     2.251E+00    2.238E+00    2.224E+00    2.211E+00    2.198E+00    2.184E+00    2.171E+00    2.158E+00    2.144E+00    2.130E+00
     2.117E+00    2.103E+00    2.090E+00    2.076E+00    2.062E+00    2.049E+00    2.035E+00    2.021E+00    2.008E+00    1.994E+00
     1.980E+00    1.966E+00    1.953E+00    1.939E+00    1.925E+00    1.912E+00    1.898E+00    1.885E+00
 Ala      Conc. = 2.71E+01
