 LCModel (Version 6.3-1L) Copyright: S.W. Provencher.          Ref.: Magn. Reson. Med. 30:672-679 (1993).                
 Slice#3 Row#14 Col#2  PD_05_press_1_raw_act
 36 lines in following concentration table = NCONC+1
    Conc.  %SD /Cr+PCr  Metabolite                                         
   26.451 128%   1.366 Ala                                                 
    2.912  88%   0.150 Asp                                                 
   19.362  70%   1.000 Cr                                                  
    0.000 999%   0.000 PCr                                                 
    1.890  81% 9.8E-02 GABA                                                
    1.904  81% 9.8E-02 Glc                                                 
  280.543  34%  14.489 Gln                                                 
   16.455 616%   0.850 Glu                                                 
    8.254  64%   0.426 GPC                                                 
    0.000 999%   0.000 PCh                                                 
   33.641  64%   1.737 GSH                                                 
  290.525  26%  15.005 Ins                                                 
    0.000 999%   0.000 Lac                                                 
   18.300  98%   0.945 NAA                                                 
    0.000 999%   0.000 NAAG                                                
    0.684  75% 3.5E-02 Scyllo                                              
    3.304  77%   0.171 Tau                                                 
    4.080 140%   0.211 -CrCH2                                              
    8.254  64%   0.426 GPC+PCh                                             
   18.300  98%   0.945 NAA+NAAG                                            
   19.362  70%   1.000 Cr+PCr                                              
  296.998  57%  15.339 Glu+Gln                                             
  278.571  42%  14.387 Lip13a                                              
    0.000 999%   0.000 Lip13b                                              
    0.000 999%   0.000 Lip09                                               
   80.185  62%   4.141 MM09                                                
  164.299  45%   8.486 Lip20                                               
  637.554  17%  32.928 MM20                                                
   43.932 102%   2.269 MM12                                                
  195.039  46%  10.073 MM14                                                
  426.361  21%  22.020 MM17                                                
  278.571  42%  14.387 Lip13a+Lip13b                                       
  517.542  29%  26.729 MM14+Lip13a+Lip13b+MM12                             
   80.185  62%   4.141 MM09+Lip09                                          
  801.853  14%  41.413 MM20+Lip20                                          
   6 lines in following misc. output table
  FWHM = 0.084 ppm    S/N =   2                                            
  Data shift = 0.115 ppm                                                   
  Ph: -89 deg      30.8 deg/ppm                                            
  alphaB,S = 3.9E-01,   3.5E+00                                            
   14 spline knots.   Ns = 5(1)                                            
  ( 9) 6 infls.   ( 9) 5 extrs.                                            
  498 points on ppm-axis = NY
      4.000000     3.992357     3.984714     3.977070     3.969427     3.961784     3.954141     3.946497     3.938854     3.931211
      3.923568     3.915925     3.908281     3.900638     3.892995     3.885352     3.877708     3.870065     3.862422     3.854779
      3.847136     3.839492     3.831849     3.824206     3.816563     3.808919     3.801276     3.793633     3.785990     3.778347
      3.770703     3.763060     3.755417     3.747774     3.740130     3.732487     3.724844     3.717201     3.709558     3.701914
      3.694271     3.686628     3.678985     3.671341     3.663698     3.656055     3.648412     3.640769     3.633125     3.625482
      3.617839     3.610196     3.602552     3.594909     3.587266     3.579623     3.571980     3.564336     3.556693     3.549050
      3.541407     3.533763     3.526120     3.518477     3.510834     3.503191     3.495547     3.487904     3.480261     3.472618
      3.464974     3.457331     3.449688     3.442045     3.434402     3.426758     3.419115     3.411472     3.403829     3.396185
      3.388542     3.380899     3.373256     3.365613     3.357969     3.350326     3.342683     3.335040     3.327396     3.319753
      3.312110     3.304467     3.296824     3.289180     3.281537     3.273894     3.266251     3.258607     3.250964     3.243321
      3.235678     3.228034     3.220391     3.212748     3.205105     3.197462     3.189818     3.182175     3.174532     3.166889
      3.159245     3.151602     3.143959     3.136316     3.128673     3.121029     3.113386     3.105743     3.098100     3.090456
      3.082813     3.075170     3.067527     3.059884     3.052240     3.044597     3.036954     3.029311     3.021667     3.014024
      3.006381     2.998738     2.991095     2.983451     2.975808     2.968165     2.960522     2.952878     2.945235     2.937592
      2.929949     2.922306     2.914662     2.907019     2.899376     2.891733     2.884089     2.876446     2.868803     2.861160
      2.853517     2.845873     2.838230     2.830587     2.822944     2.815300     2.807657     2.800014     2.792371     2.784728
      2.777084     2.769441     2.761798     2.754155     2.746511     2.738868     2.731225     2.723582     2.715939     2.708295
      2.700652     2.693009     2.685366     2.677722     2.670079     2.662436     2.654793     2.647150     2.639506     2.631863
      2.624220     2.616577     2.608933     2.601290     2.593647     2.586004     2.578361     2.570717     2.563074     2.555431
      2.547788     2.540144     2.532501     2.524858     2.517215     2.509572     2.501928     2.494285     2.486642     2.478999
      2.471355     2.463712     2.456069     2.448426     2.440783     2.433139     2.425496     2.417853     2.410210     2.402566
      2.394923     2.387280     2.379637     2.371994     2.364350     2.356707     2.349064     2.341421     2.333777     2.326134
      2.318491     2.310848     2.303205     2.295561     2.287918     2.280275     2.272632     2.264988     2.257345     2.249702
      2.242059     2.234416     2.226772     2.219129     2.211486     2.203843     2.196199     2.188556     2.180913     2.173270
      2.165627     2.157983     2.150340     2.142697     2.135054     2.127410     2.119767     2.112124     2.104481     2.096838
      2.089194     2.081551     2.073908     2.066265     2.058621     2.050978     2.043335     2.035692     2.028049     2.020405
      2.012762     2.005119     1.997476     1.989833     1.982190     1.974546     1.966903     1.959260     1.951617     1.943974
      1.936331     1.928688     1.921045     1.913402     1.905759     1.898115     1.890472     1.882829     1.875186     1.867543
      1.859900     1.852257     1.844614     1.836971     1.829327     1.821684     1.814041     1.806398     1.798755     1.791112
      1.783469     1.775826     1.768183     1.760540     1.752896     1.745253     1.737610     1.729967     1.722324     1.714681
      1.707038     1.699395     1.691752     1.684108     1.676465     1.668822     1.661179     1.653536     1.645893     1.638250
      1.630607     1.622964     1.615321     1.607677     1.600034     1.592391     1.584748     1.577105     1.569462     1.561819
      1.554176     1.546533     1.538890     1.531246     1.523603     1.515960     1.508317     1.500674     1.493031     1.485388
      1.477745     1.470102     1.462458     1.454815     1.447172     1.439529     1.431886     1.424243     1.416600     1.408957
      1.401314     1.393671     1.386027     1.378384     1.370741     1.363098     1.355455     1.347812     1.340169     1.332526
      1.324883     1.317240     1.309596     1.301953     1.294310     1.286667     1.279024     1.271381     1.263738     1.256095
      1.248452     1.240808     1.233165     1.225522     1.217879     1.210236     1.202593     1.194950     1.187307     1.179664
      1.172021     1.164377     1.156734     1.149091     1.141448     1.133805     1.126162     1.118519     1.110876     1.103233
      1.095590     1.087946     1.080303     1.072660     1.065017     1.057374     1.049731     1.042088     1.034445     1.026802
      1.019158     1.011515     1.003872     0.996229     0.988586     0.980943     0.973300     0.965657     0.958014     0.950371
      0.942727     0.935084     0.927441     0.919798     0.912155     0.904512     0.896869     0.889226     0.881583     0.873940
      0.866296     0.858653     0.851010     0.843367     0.835724     0.828081     0.820438     0.812795     0.805152     0.797508
      0.789865     0.782222     0.774579     0.766936     0.759293     0.751650     0.744007     0.736364     0.728721     0.721077
      0.713434     0.705791     0.698148     0.690505     0.682862     0.675219     0.667576     0.659933     0.652290     0.644646
      0.637003     0.629360     0.621717     0.614074     0.606431     0.598788     0.591145     0.583502     0.575858     0.568215
      0.560572     0.552929     0.545286     0.537643     0.530000     0.522357     0.514714     0.507071     0.499427     0.491784
      0.484141     0.476498     0.468855     0.461212     0.453569     0.445925     0.438282     0.430639     0.422996     0.415353
      0.407710     0.400067     0.392424     0.384780     0.377137     0.369494     0.361851     0.354208     0.346565     0.338922
      0.331278     0.323635     0.315992     0.308349     0.300706     0.293063     0.285420     0.277777     0.270133     0.262490
      0.254847     0.247204     0.239561     0.231918     0.224275     0.216631     0.208988     0.201345
 NY phased data points follow
  -2.30193E+00 -1.33646E+00 -1.85789E+00 -2.03789E+00 -2.49833E+00 -2.06275E+00 -4.11436E+00 -1.58625E+00 -1.98356E+00 -1.97164E+00
  -2.12474E+00 -1.51793E+00 -2.30660E-01 -2.18527E+00 -8.43841E-01 -1.20095E+00 -1.99793E+00 -1.45187E+00  8.74353E-01 -8.87291E-01
  -1.01259E+00 -1.68023E+00 -1.37911E+00 -1.39075E+00 -5.59859E-01 -7.73402E-01  8.23570E-02 -2.79362E-02 -6.67495E-01 -1.60199E+00
  -8.90066E-01  8.61284E-01 -2.66728E-01 -4.27530E-01 -3.84584E-01 -6.19699E-02 -1.32847E+00  1.06808E+00 -9.09754E-01 -1.08888E+00
   1.41090E-01 -1.47696E-01  8.94591E-01  3.41806E-01  7.68866E-02  1.14962E+00  1.40600E-01  1.01594E+00  7.17123E-01  8.95208E-01
   2.61619E-01 -7.45149E-01 -1.58404E+00  1.14604E+00  1.25029E-01  2.34085E-01  9.19687E-01 -4.98604E-01 -2.85345E-02  9.39013E-01
   1.20508E+00  5.18303E-01 -3.17141E-02  1.39564E+00  1.33903E+00  1.67694E+00  2.94475E-01  1.22255E+00  4.27493E-01  1.12195E+00
   1.98509E+00  1.29921E-01  6.96981E-01  1.35335E+00  6.61569E-01  1.33924E+00  1.99972E+00  1.51129E+00  1.25716E+00  6.62381E-01
   5.85221E-01  2.04028E+00 -2.96647E-01  1.33356E+00 -3.83327E-01  1.79918E+00  1.49216E+00 -4.02402E-02  9.81957E-01 -9.24165E-01
  -4.20729E-01  6.86485E-01  1.33910E+00  1.10971E+00 -1.88859E-01  3.02324E-01 -3.23127E-01 -4.78291E-01  1.44601E+00  9.39983E-01
   6.47846E-01  1.31073E+00  1.34357E+00  1.62833E+00 -3.49353E-01 -7.70261E-01 -1.23078E-01  9.19780E-01  5.91769E-02  2.37473E-01
   7.60876E-01  1.40083E-01  4.09303E-01  1.40576E+00 -1.37716E+00 -1.15383E-01  4.83521E-01  1.15110E+00 -4.06400E-01  8.52266E-01
   4.02640E-01  2.37730E-01 -7.71346E-01  1.75649E+00  3.98013E-01  1.01182E+00  1.51794E+00  6.01630E-01  9.04484E-01  1.74674E+00
   1.14601E+00  8.47073E-01 -1.94625E-01  1.68140E+00  2.37521E+00  7.06208E-01  1.95074E+00  1.08338E+00  2.23254E+00  1.17403E+00
   2.05843E+00  4.99863E-01  2.07489E+00  2.18392E+00  1.26508E+00  9.26007E-01  9.27658E-01  9.25264E-01  2.11751E+00  2.21613E+00
  -9.90731E-01  2.50776E-01  4.51041E-01 -4.66007E-01  1.16663E+00  1.24979E+00  1.43129E+00  1.44137E+00  1.35796E+00  7.09709E-01
   1.98244E-01  1.37559E+00 -6.89085E-01 -8.73757E-01 -2.01663E-01  2.92755E-01 -4.27571E-01 -9.87644E-01 -2.45064E+00 -1.96836E-01
  -1.39395E+00 -2.21270E+00 -1.35655E+00 -4.34161E-01 -8.72788E-01 -1.28318E+00 -1.07376E+00 -1.56085E+00 -2.04938E+00 -1.54088E+00
  -1.98008E+00 -1.85215E+00 -1.43992E+00 -2.16011E+00 -6.54975E-01 -2.53293E+00 -3.13139E+00 -1.72687E+00 -1.28422E+00 -2.29152E+00
  -1.14095E+00 -1.61009E+00 -1.46549E+00 -8.72488E-01 -1.10827E+00 -1.57038E-01 -1.41638E+00 -7.53542E-01 -4.27603E-02  9.10757E-01
   3.96149E-01 -5.47887E-02 -9.39930E-01  5.73103E-01 -1.19653E-01 -1.77264E-01 -2.62667E-01 -5.04982E-01 -7.98772E-01 -2.76413E-01
  -1.26431E-01 -9.86980E-02 -8.88908E-03  8.12855E-01 -2.94633E-01  2.20335E+00 -1.17396E-01  7.34368E-01  1.69715E+00  1.92374E+00
   9.27964E-01  2.53807E+00  2.56698E+00  1.45639E+00  3.25502E+00  1.71484E+00  2.97603E+00  2.88588E+00  3.77754E+00  4.38316E+00
   1.68199E+00  2.88580E+00  2.03996E+00  2.99114E+00  3.03783E+00  2.80202E+00  4.07787E+00  4.09369E+00  4.65820E+00  3.23960E+00
   3.18232E+00  4.75527E+00  4.84989E+00  4.57453E+00  3.63586E+00  3.52305E+00  2.41782E+00  5.17587E+00  5.06840E+00  4.02534E+00
   3.34761E+00  4.23235E+00  5.09690E+00  3.45527E+00  3.91079E+00  4.55998E+00  4.20438E+00  4.41670E+00  3.93626E+00  6.25102E+00
   4.73859E+00  5.64454E+00  4.91656E+00  5.69922E+00  4.89975E+00  4.56302E+00  5.26499E+00  3.35518E+00  5.14517E+00  3.24015E+00
   4.74817E+00  3.56234E+00  4.33735E+00  4.92436E+00  4.15594E+00  4.56120E+00  4.98689E+00  4.03209E+00  3.89203E+00  4.36305E+00
   5.87206E+00  3.93781E+00  4.21060E+00  3.45133E+00  4.00501E+00  4.50519E+00  3.03626E+00  4.71685E+00  5.48893E+00  5.14828E+00
   4.96147E+00  6.55682E+00  6.14962E+00  5.96171E+00  5.28143E+00  5.11097E+00  5.11309E+00  6.41711E+00  6.29358E+00  6.62401E+00
   5.38967E+00  5.46297E+00  4.88329E+00  4.77226E+00  5.92557E+00  4.02452E+00  4.78309E+00  5.05764E+00  5.92839E+00  5.25446E+00
   4.91999E+00  5.51445E+00  5.97870E+00  5.67167E+00  4.97704E+00  5.80400E+00  5.14069E+00  6.79103E+00  6.64663E+00  4.25443E+00
   5.13656E+00  5.65954E+00  5.32468E+00  6.75493E+00  4.23725E+00  5.72177E+00  5.47704E+00  4.72750E+00  5.91152E+00  4.43176E+00
   4.59518E+00  4.61934E+00  5.97576E+00  5.68434E+00  5.78379E+00  4.04289E+00  4.87467E+00  3.35900E+00  4.44459E+00  3.20453E+00
   4.94117E+00  5.83676E+00  3.14108E+00  5.90203E+00  4.68631E+00  5.24160E+00  5.79943E+00  4.74769E+00  4.14147E+00  6.87489E+00
   5.20134E+00  5.77201E+00  4.59672E+00  4.41236E+00  5.59133E+00  5.37421E+00  6.36678E+00  4.63077E+00  4.67924E+00  4.96618E+00
   5.17767E+00  5.13642E+00  4.30519E+00  5.64174E+00  4.87154E+00  4.92282E+00  5.48276E+00  5.92813E+00  5.77040E+00  3.14549E+00
   3.69859E+00  5.70863E+00  5.33389E+00  4.71980E+00  4.97443E+00  4.17762E+00  4.70387E+00  4.94648E+00  5.49751E+00  5.69025E+00
   3.39335E+00  5.47861E+00  4.72020E+00  4.03124E+00  5.05962E+00  4.13696E+00  3.84287E+00  3.18118E+00  3.40943E+00  4.11717E+00
   3.64605E+00  3.48573E+00  4.41750E+00  5.13737E+00  3.82741E+00  3.89828E+00  2.44753E+00  4.29179E+00  5.57327E+00  2.40300E+00
   3.50253E+00  4.07693E+00  4.38605E+00  3.11323E+00  4.43541E+00  3.55044E+00  3.44001E+00  2.94234E+00  3.28685E+00  3.60107E+00
   4.37360E+00  3.70471E+00  4.28446E+00  3.95623E+00  2.42161E+00  4.43851E+00  3.99704E+00  2.57040E+00  2.02460E+00  2.34876E+00
   5.04542E+00  4.79460E+00  3.57238E+00  3.71411E+00  3.13704E+00  4.03118E+00  3.64190E+00  4.89492E+00  3.84775E+00  4.07252E+00
   2.88769E+00  3.21514E+00  4.38026E+00  4.09639E+00  3.07903E+00  3.87316E+00  3.17774E+00  2.77795E+00  3.47818E+00  3.16826E+00
   4.92867E+00  2.94169E+00  2.54906E+00  2.92895E+00  2.53905E+00  2.71536E+00  2.27864E+00  2.51947E+00  2.16813E+00  2.77042E+00
   1.92858E+00  3.34535E+00  3.06105E+00  2.91632E+00  2.16478E+00  3.39006E+00  3.12718E+00  2.92566E+00  3.35502E+00  2.19232E+00
   3.76433E+00  3.93477E+00  3.18546E+00  3.46332E+00  3.24658E+00  2.07757E+00  2.72787E+00  3.25127E+00  1.18386E+00  3.93497E+00
   3.80667E+00  2.80496E+00  3.38712E+00  3.13531E+00  3.99308E+00  2.42889E+00  2.13281E+00  3.57801E+00  2.57899E+00  4.32658E+00
   2.77433E+00  1.70146E+00  3.10186E+00  2.19665E+00  3.18775E+00  2.11210E+00  1.42990E+00  2.67585E+00  2.53532E+00  3.70596E+00
   3.05722E+00  2.58729E+00  2.43464E+00  3.73224E+00  2.97660E+00  3.77256E+00  4.06277E+00  1.70882E+00
 NY points of the fit to the data follow
  -1.71207E+00 -1.55095E+00 -1.65772E+00 -1.82375E+00 -1.89340E+00 -1.88761E+00 -1.78651E+00 -1.56860E+00 -1.49164E+00 -1.52810E+00
  -1.51691E+00 -1.41754E+00 -1.25497E+00 -1.22098E+00 -1.31800E+00 -1.37025E+00 -1.26460E+00 -1.02226E+00 -1.07350E+00 -1.13862E+00
  -1.03045E+00 -9.29137E-01 -1.13551E+00 -1.32667E+00 -1.23304E+00 -7.98174E-01 -5.75259E-01 -5.76033E-01 -2.63183E-01 -9.51941E-02
   1.80385E-01  2.65802E-01 -9.90656E-02 -9.11832E-02  1.64154E-02  1.63170E-01 -3.18278E-01 -4.76670E-01 -1.04803E-02 -3.51854E-01
  -6.74629E-01 -5.60675E-01  6.88766E-02  8.20655E-01  1.00177E+00  8.48582E-01  6.46330E-01  8.35117E-01  1.18492E+00  1.10389E+00
   5.15484E-01 -7.39098E-03  2.17612E-01  6.35916E-01  4.18894E-01  7.13859E-02  5.34087E-02  2.42872E-01  2.65573E-01  2.88409E-01
   3.96127E-01  4.93778E-01  4.93258E-01  3.19928E-01  3.64683E-01  4.83699E-01  4.31152E-01  5.85392E-01  5.72027E-01  5.46794E-01
   5.38950E-01  5.44831E-01  6.91253E-01  7.90636E-01  7.84680E-01  6.87395E-01  6.06682E-01  7.44279E-01  6.89367E-01  5.81613E-01
   5.37774E-01  5.02644E-01  3.37133E-01  1.34581E-01 -1.35077E-02 -4.99239E-02 -4.49124E-02 -1.04414E-01 -1.80083E-01 -1.62755E-01
  -1.28901E-02  1.76171E-01  1.72057E-01  9.93889E-02  7.60034E-02  1.81260E-01  2.92477E-01  4.78070E-01  7.12060E-01  6.46038E-01
   4.85156E-01  5.22801E-01  6.47477E-01  6.91243E-01  6.17763E-01  4.49187E-01  3.31370E-01  5.12186E-01  7.70496E-01  4.71116E-01
   3.52657E-01  3.97245E-01  3.99234E-01  4.18975E-01  4.28585E-01  4.35351E-01  4.45022E-01  4.64752E-01  4.82097E-01  5.02945E-01
   5.28170E-01  5.65003E-01  7.07662E-01  9.93165E-01  1.05536E+00  9.99481E-01  9.96872E-01  1.08843E+00  1.27672E+00  1.31962E+00
   1.12923E+00  8.64575E-01  8.61766E-01  1.05801E+00  8.44618E-01  6.61825E-01  5.74239E-01  5.53889E-01  5.83526E-01  6.14164E-01
   5.40528E-01  5.06835E-01  5.20959E-01  4.86610E-01  4.79929E-01  4.77994E-01  4.49552E-01  4.48294E-01  3.71784E-01  3.17723E-01
   2.75449E-01  2.44291E-01  2.16390E-01  1.90914E-01  1.71721E-01  1.37914E-01  1.04575E-01  8.34587E-02  6.71901E-02  4.59667E-02
   2.05756E-02 -7.54304E-04 -2.21714E-02 -4.36906E-02 -6.03214E-02 -7.93364E-02 -1.09763E-01 -1.33514E-01 -1.46330E-01 -1.58093E-01
  -1.74427E-01 -2.09598E-01 -2.36010E-01 -2.41949E-01 -2.51830E-01 -2.69643E-01 -2.97088E-01 -3.14696E-01 -3.09431E-01 -3.02318E-01
  -3.23245E-01 -3.53665E-01 -3.60666E-01 -3.32487E-01 -2.96762E-01 -2.58779E-01 -2.17609E-01 -1.71875E-01 -1.35999E-01 -1.49057E-01
  -2.47659E-01 -2.93233E-01 -4.49008E-01 -5.81974E-01 -5.95487E-01 -5.83248E-01 -4.91951E-01 -2.69093E-01  1.37259E-02  1.89793E-01
   3.22329E-01  6.75768E-01  7.21617E-01  7.68382E-01  7.39446E-01  1.97326E-01 -4.71276E-01 -1.84691E-01  2.29027E-01  8.86101E-02
  -2.32396E-01 -2.52897E-01 -4.47617E-03  5.76831E-01  1.06177E+00  8.30083E-01  4.90692E-01  1.38116E+00  1.92823E+00  1.91027E+00
   1.93521E+00  2.02079E+00  2.01952E+00  2.04054E+00  2.11403E+00  2.20170E+00  2.22906E+00  2.21002E+00  2.25302E+00  2.39045E+00
   2.48011E+00  2.31355E+00  2.05354E+00  2.24620E+00  2.57899E+00  2.86333E+00  3.04131E+00  3.20681E+00  3.31295E+00  3.42220E+00
   3.66621E+00  3.54484E+00  3.36109E+00  3.67731E+00  3.58259E+00  3.44457E+00  3.75557E+00  4.24347E+00  4.08829E+00  3.97226E+00
   4.31046E+00  4.53119E+00  4.65839E+00  4.86626E+00  4.98233E+00  5.04923E+00  5.32529E+00  5.37065E+00  5.21392E+00  5.08631E+00
   5.08513E+00  5.11494E+00  4.94734E+00  4.71877E+00  4.54807E+00  4.58852E+00  4.67096E+00  4.38084E+00  4.23870E+00  4.17016E+00
   4.10984E+00  4.06192E+00  4.02448E+00  3.99201E+00  3.96668E+00  3.94662E+00  3.93540E+00  3.93337E+00  3.94403E+00  3.96354E+00
   3.98912E+00  4.02702E+00  4.07898E+00  4.13917E+00  4.20899E+00  4.29090E+00  4.38308E+00  4.48304E+00  4.58903E+00  4.70075E+00
   4.81663E+00  4.93402E+00  5.04906E+00  5.16022E+00  5.26631E+00  5.36484E+00  5.45237E+00  5.52645E+00  5.58815E+00  5.63453E+00
   5.66426E+00  5.67840E+00  5.67725E+00  5.66109E+00  5.63116E+00  5.58909E+00  5.53710E+00  5.47751E+00  5.41262E+00  5.34451E+00
   5.27549E+00  5.20837E+00  5.14514E+00  5.08691E+00  5.03556E+00  4.99239E+00  4.95850E+00  4.93483E+00  4.92260E+00  4.92378E+00
   4.94301E+00  4.99471E+00  5.10136E+00  5.11068E+00  4.98508E+00  4.92458E+00  4.92681E+00  4.95571E+00  4.90068E+00  4.72921E+00
   4.67630E+00  4.87335E+00  5.08618E+00  5.02777E+00  4.85357E+00  4.95366E+00  5.14626E+00  5.25728E+00  5.24139E+00  5.14054E+00
   5.21525E+00  5.40273E+00  5.33334E+00  5.27298E+00  5.25134E+00  5.24434E+00  5.24439E+00  5.24839E+00  5.25468E+00  5.26204E+00
   5.26952E+00  5.27619E+00  5.28124E+00  5.28386E+00  5.28336E+00  5.27906E+00  5.27043E+00  5.25699E+00  5.23848E+00  5.21471E+00
   5.18570E+00  5.15152E+00  5.11246E+00  5.06886E+00  5.02125E+00  4.97016E+00  4.91626E+00  4.86016E+00  4.80261E+00  4.74423E+00
   4.68576E+00  4.62778E+00  4.57090E+00  4.51561E+00  4.46241E+00  4.41166E+00  4.36375E+00  4.31892E+00  4.27743E+00  4.23939E+00
   4.20499E+00  4.17430E+00  4.14741E+00  4.12433E+00  4.10507E+00  4.08958E+00  4.07785E+00  4.06977E+00  4.06524E+00  4.06403E+00
   4.06594E+00  4.07062E+00  4.07774E+00  4.08683E+00  4.09739E+00  4.10879E+00  4.12041E+00  4.13152E+00  4.14148E+00  4.14952E+00
   4.15502E+00  4.15730E+00  4.15588E+00  4.15032E+00  4.14038E+00  4.12588E+00  4.10686E+00  4.08344E+00  4.05596E+00  4.02481E+00
   3.99055E+00  3.95370E+00  3.91492E+00  3.87481E+00  3.83404E+00  3.79316E+00  3.75273E+00  3.71315E+00  3.67482E+00  3.63801E+00
   3.60297E+00  3.56980E+00  3.53858E+00  3.50927E+00  3.48188E+00  3.45629E+00  3.43245E+00  3.41018E+00  3.38939E+00  3.36991E+00
   3.35164E+00  3.33442E+00  3.31820E+00  3.30280E+00  3.28818E+00  3.27419E+00  3.26082E+00  3.24795E+00  3.23559E+00  3.22363E+00
   3.21205E+00  3.20079E+00  3.18986E+00  3.17920E+00  3.16883E+00  3.15866E+00  3.14872E+00  3.13897E+00  3.12944E+00  3.12007E+00
   3.11089E+00  3.10185E+00  3.09298E+00  3.08423E+00  3.07565E+00  3.06718E+00  3.05886E+00  3.05063E+00  3.04253E+00  3.03451E+00
   3.02663E+00  3.01883E+00  3.01114E+00  3.00351E+00  2.99598E+00  2.98853E+00  2.98117E+00  2.97388E+00  2.96667E+00  2.95949E+00
   2.95242E+00  2.94539E+00  2.93844E+00  2.93153E+00  2.92469E+00  2.91788E+00  2.91114E+00  2.90445E+00  2.89782E+00  2.89120E+00
   2.88465E+00  2.87812E+00  2.87165E+00  2.86521E+00  2.85882E+00  2.85244E+00  2.84610E+00  2.83979E+00  2.83353E+00  2.82727E+00
   2.82106E+00  2.81485E+00  2.80868E+00  2.80252E+00  2.79641E+00  2.79029E+00  2.78421E+00  2.77812E+00
 NY background values follow
    -2.321E+00   -2.285E+00   -2.249E+00   -2.213E+00   -2.177E+00   -2.141E+00   -2.105E+00   -2.069E+00   -2.033E+00   -1.997E+00
    -1.961E+00   -1.924E+00   -1.888E+00   -1.852E+00   -1.816E+00   -1.781E+00   -1.745E+00   -1.709E+00   -1.673E+00   -1.638E+00
    -1.602E+00   -1.567E+00   -1.532E+00   -1.497E+00   -1.462E+00   -1.427E+00   -1.393E+00   -1.358E+00   -1.324E+00   -1.290E+00
    -1.256E+00   -1.223E+00   -1.189E+00   -1.156E+00   -1.123E+00   -1.091E+00   -1.058E+00   -1.026E+00   -9.944E-01   -9.628E-01
    -9.316E-01   -9.006E-01   -8.700E-01   -8.396E-01   -8.096E-01   -7.800E-01   -7.507E-01   -7.218E-01   -6.932E-01   -6.650E-01
    -6.371E-01   -6.097E-01   -5.826E-01   -5.560E-01   -5.297E-01   -5.038E-01   -4.784E-01   -4.533E-01   -4.287E-01   -4.045E-01
    -3.808E-01   -3.574E-01   -3.346E-01   -3.121E-01   -2.902E-01   -2.687E-01   -2.476E-01   -2.271E-01   -2.070E-01   -1.874E-01
    -1.683E-01   -1.497E-01   -1.316E-01   -1.140E-01   -9.697E-02   -8.042E-02   -6.440E-02   -4.891E-02   -3.396E-02   -1.956E-02
    -5.703E-03    7.594E-03    2.033E-02    3.249E-02    4.408E-02    5.510E-02    6.552E-02    7.535E-02    8.459E-02    9.322E-02
     1.012E-01    1.087E-01    1.154E-01    1.216E-01    1.272E-01    1.322E-01    1.367E-01    1.405E-01    1.438E-01    1.466E-01
     1.488E-01    1.505E-01    1.516E-01    1.522E-01    1.523E-01    1.519E-01    1.510E-01    1.496E-01    1.478E-01    1.454E-01
     1.426E-01    1.394E-01    1.357E-01    1.316E-01    1.270E-01    1.221E-01    1.167E-01    1.109E-01    1.047E-01    9.814E-02
     9.120E-02    8.388E-02    7.621E-02    6.818E-02    5.981E-02    5.110E-02    4.206E-02    3.270E-02    2.304E-02    1.307E-02
     2.804E-03   -7.746E-03   -1.857E-02   -2.967E-02   -4.103E-02   -5.263E-02   -6.449E-02   -7.657E-02   -8.884E-02   -1.013E-01
    -1.139E-01   -1.266E-01   -1.394E-01   -1.522E-01   -1.651E-01   -1.780E-01   -1.908E-01   -2.036E-01   -2.164E-01   -2.290E-01
    -2.414E-01   -2.537E-01   -2.659E-01   -2.777E-01   -2.894E-01   -3.007E-01   -3.118E-01   -3.225E-01   -3.328E-01   -3.428E-01
    -3.524E-01   -3.614E-01   -3.701E-01   -3.782E-01   -3.858E-01   -3.928E-01   -3.992E-01   -4.051E-01   -4.102E-01   -4.147E-01
    -4.185E-01   -4.216E-01   -4.239E-01   -4.255E-01   -4.262E-01   -4.261E-01   -4.251E-01   -4.232E-01   -4.204E-01   -4.167E-01
    -4.119E-01   -4.062E-01   -3.994E-01   -3.916E-01   -3.829E-01   -3.731E-01   -3.624E-01   -3.508E-01   -3.382E-01   -3.247E-01
    -3.104E-01   -2.951E-01   -2.790E-01   -2.620E-01   -2.443E-01   -2.257E-01   -2.063E-01   -1.861E-01   -1.652E-01   -1.435E-01
    -1.211E-01   -9.802E-02   -7.422E-02   -4.973E-02   -2.459E-02    1.205E-03    2.763E-02    5.466E-02    8.230E-02    1.105E-01
     1.393E-01    1.686E-01    1.985E-01    2.288E-01    2.597E-01    2.910E-01    3.229E-01    3.551E-01    3.878E-01    4.209E-01
     4.544E-01    4.883E-01    5.226E-01    5.572E-01    5.921E-01    6.274E-01    6.629E-01    6.988E-01    7.349E-01    7.712E-01
     8.078E-01    8.447E-01    8.817E-01    9.189E-01    9.564E-01    9.939E-01    1.032E+00    1.070E+00    1.108E+00    1.146E+00
     1.184E+00    1.222E+00    1.260E+00    1.299E+00    1.337E+00    1.376E+00    1.414E+00    1.453E+00    1.491E+00    1.529E+00
     1.568E+00    1.606E+00    1.644E+00    1.682E+00    1.720E+00    1.758E+00    1.796E+00    1.833E+00    1.871E+00    1.908E+00
     1.945E+00    1.982E+00    2.018E+00    2.054E+00    2.091E+00    2.126E+00    2.162E+00    2.197E+00    2.232E+00    2.266E+00
     2.301E+00    2.334E+00    2.368E+00    2.401E+00    2.434E+00    2.466E+00    2.498E+00    2.529E+00    2.561E+00    2.591E+00
     2.622E+00    2.652E+00    2.681E+00    2.710E+00    2.739E+00    2.768E+00    2.795E+00    2.823E+00    2.850E+00    2.877E+00
     2.903E+00    2.929E+00    2.954E+00    2.979E+00    3.004E+00    3.028E+00    3.052E+00    3.075E+00    3.098E+00    3.120E+00
     3.142E+00    3.164E+00    3.185E+00    3.205E+00    3.225E+00    3.245E+00    3.264E+00    3.283E+00    3.301E+00    3.319E+00
     3.336E+00    3.353E+00    3.370E+00    3.386E+00    3.401E+00    3.416E+00    3.431E+00    3.445E+00    3.458E+00    3.471E+00
     3.484E+00    3.496E+00    3.508E+00    3.519E+00    3.530E+00    3.540E+00    3.550E+00    3.559E+00    3.568E+00    3.577E+00
     3.585E+00    3.593E+00    3.600E+00    3.607E+00    3.613E+00    3.620E+00    3.625E+00    3.631E+00    3.636E+00    3.640E+00
     3.644E+00    3.648E+00    3.652E+00    3.655E+00    3.658E+00    3.660E+00    3.663E+00    3.664E+00    3.666E+00    3.667E+00
     3.668E+00    3.669E+00    3.669E+00    3.669E+00    3.668E+00    3.668E+00    3.667E+00    3.666E+00    3.664E+00    3.663E+00
     3.661E+00    3.658E+00    3.656E+00    3.653E+00    3.650E+00    3.647E+00    3.644E+00    3.640E+00    3.636E+00    3.632E+00
     3.628E+00    3.623E+00    3.619E+00    3.614E+00    3.609E+00    3.603E+00    3.598E+00    3.592E+00    3.587E+00    3.581E+00
     3.575E+00    3.568E+00    3.562E+00    3.556E+00    3.549E+00    3.542E+00    3.535E+00    3.528E+00    3.521E+00    3.514E+00
     3.507E+00    3.499E+00    3.492E+00    3.484E+00    3.477E+00    3.469E+00    3.461E+00    3.453E+00    3.445E+00    3.437E+00
     3.429E+00    3.421E+00    3.413E+00    3.405E+00    3.397E+00    3.389E+00    3.381E+00    3.373E+00    3.365E+00    3.356E+00
     3.348E+00    3.340E+00    3.332E+00    3.324E+00    3.315E+00    3.307E+00    3.299E+00    3.291E+00    3.283E+00    3.275E+00
     3.267E+00    3.259E+00    3.250E+00    3.242E+00    3.234E+00    3.226E+00    3.218E+00    3.210E+00    3.202E+00    3.194E+00
     3.186E+00    3.179E+00    3.171E+00    3.163E+00    3.155E+00    3.147E+00    3.140E+00    3.132E+00    3.124E+00    3.117E+00
     3.109E+00    3.101E+00    3.094E+00    3.086E+00    3.079E+00    3.072E+00    3.064E+00    3.057E+00    3.050E+00    3.043E+00
     3.035E+00    3.028E+00    3.021E+00    3.014E+00    3.007E+00    3.001E+00    2.994E+00    2.987E+00    2.980E+00    2.974E+00
     2.967E+00    2.961E+00    2.954E+00    2.948E+00    2.941E+00    2.935E+00    2.928E+00    2.922E+00    2.916E+00    2.909E+00
     2.903E+00    2.897E+00    2.891E+00    2.885E+00    2.879E+00    2.873E+00    2.867E+00    2.861E+00    2.855E+00    2.849E+00
     2.843E+00    2.837E+00    2.831E+00    2.825E+00    2.820E+00    2.814E+00    2.808E+00    2.802E+00    2.796E+00    2.791E+00
     2.785E+00    2.779E+00    2.773E+00    2.768E+00    2.762E+00    2.756E+00    2.751E+00    2.745E+00
 Ala      Conc. = 2.65E+01
