 LCModel (Version 6.3-1L) Copyright: S.W. Provencher.          Ref.: Magn. Reson. Med. 30:672-679 (1993).                
 Slice#2 Row#14 Col#7  PD_05_press_1_raw_act
 36 lines in following concentration table = NCONC+1
    Conc.  %SD /Cr+PCr  Metabolite                                         
    0.000 999%   0.000 Ala                                                 
    2.951  88% 7.1E-02 Asp                                                 
    0.000 999%   0.000 Cr                                                  
   41.448 114%   1.000 PCr                                                 
    1.729  90% 4.2E-02 GABA                                                
    1.753  89% 4.2E-02 Glc                                                 
    0.100 999% 2.4E-03 Gln                                                 
  144.159  53%   3.478 Glu                                                 
    0.000 999%   0.000 GPC                                                 
    0.000 999%   0.000 PCh                                                 
   29.665  76%   0.716 GSH                                                 
   73.247  97%   1.767 Ins                                                 
   24.651 154%   0.595 Lac                                                 
    0.000 999%   0.000 NAA                                                 
   16.969  99%   0.409 NAAG                                                
    0.578  90% 1.4E-02 Scyllo                                              
    2.726  95% 6.6E-02 Tau                                                 
    0.000 999%   0.000 -CrCH2                                              
    0.000 999%   0.000 GPC+PCh                                             
   16.969  99%   0.409 NAA+NAAG                                            
   41.448  36%   1.000 Cr+PCr                                              
  144.259  74%   3.480 Glu+Gln                                             
  163.278  69%   3.939 Lip13a                                              
    0.000 999%   0.000 Lip13b                                              
   39.732 107%   0.959 Lip09                                               
   49.214  94%   1.187 MM09                                                
   15.689 173%   0.379 Lip20                                               
    0.000 999%   0.000 MM20                                                
   24.367 137%   0.588 MM12                                                
  173.550  48%   4.187 MM14                                                
   42.473 138%   1.025 MM17                                                
  163.278  69%   3.939 Lip13a+Lip13b                                       
  361.196  27%   8.714 MM14+Lip13a+Lip13b+MM12                             
   88.945  49%   2.146 MM09+Lip09                                          
   15.689 173%   0.379 MM20+Lip20                                          
   6 lines in following misc. output table
  FWHM = 0.061 ppm    S/N =   1                                            
  Data shift = 0.076 ppm                                                   
  Ph:  49 deg      23.8 deg/ppm                                            
  alphaB,S = 2.5E+00,   4.8E+01                                            
   14 spline knots.   Ns = 5(1)                                            
  (10) 2 infls.   ( 9) 1 extrs.                                            
  498 points on ppm-axis = NY
      4.000000     3.992357     3.984714     3.977070     3.969427     3.961784     3.954141     3.946497     3.938854     3.931211
      3.923568     3.915925     3.908281     3.900638     3.892995     3.885352     3.877708     3.870065     3.862422     3.854779
      3.847136     3.839492     3.831849     3.824206     3.816563     3.808919     3.801276     3.793633     3.785990     3.778347
      3.770703     3.763060     3.755417     3.747774     3.740130     3.732487     3.724844     3.717201     3.709558     3.701914
      3.694271     3.686628     3.678985     3.671341     3.663698     3.656055     3.648412     3.640769     3.633125     3.625482
      3.617839     3.610196     3.602552     3.594909     3.587266     3.579623     3.571980     3.564336     3.556693     3.549050
      3.541407     3.533763     3.526120     3.518477     3.510834     3.503191     3.495547     3.487904     3.480261     3.472618
      3.464974     3.457331     3.449688     3.442045     3.434402     3.426758     3.419115     3.411472     3.403829     3.396185
      3.388542     3.380899     3.373256     3.365613     3.357969     3.350326     3.342683     3.335040     3.327396     3.319753
      3.312110     3.304467     3.296824     3.289180     3.281537     3.273894     3.266251     3.258607     3.250964     3.243321
      3.235678     3.228034     3.220391     3.212748     3.205105     3.197462     3.189818     3.182175     3.174532     3.166889
      3.159245     3.151602     3.143959     3.136316     3.128673     3.121029     3.113386     3.105743     3.098100     3.090456
      3.082813     3.075170     3.067527     3.059884     3.052240     3.044597     3.036954     3.029311     3.021667     3.014024
      3.006381     2.998738     2.991095     2.983451     2.975808     2.968165     2.960522     2.952878     2.945235     2.937592
      2.929949     2.922306     2.914662     2.907019     2.899376     2.891733     2.884089     2.876446     2.868803     2.861160
      2.853517     2.845873     2.838230     2.830587     2.822944     2.815300     2.807657     2.800014     2.792371     2.784728
      2.777084     2.769441     2.761798     2.754155     2.746511     2.738868     2.731225     2.723582     2.715939     2.708295
      2.700652     2.693009     2.685366     2.677722     2.670079     2.662436     2.654793     2.647150     2.639506     2.631863
      2.624220     2.616577     2.608933     2.601290     2.593647     2.586004     2.578361     2.570717     2.563074     2.555431
      2.547788     2.540144     2.532501     2.524858     2.517215     2.509572     2.501928     2.494285     2.486642     2.478999
      2.471355     2.463712     2.456069     2.448426     2.440783     2.433139     2.425496     2.417853     2.410210     2.402566
      2.394923     2.387280     2.379637     2.371994     2.364350     2.356707     2.349064     2.341421     2.333777     2.326134
      2.318491     2.310848     2.303205     2.295561     2.287918     2.280275     2.272632     2.264988     2.257345     2.249702
      2.242059     2.234416     2.226772     2.219129     2.211486     2.203843     2.196199     2.188556     2.180913     2.173270
      2.165627     2.157983     2.150340     2.142697     2.135054     2.127410     2.119767     2.112124     2.104481     2.096838
      2.089194     2.081551     2.073908     2.066265     2.058621     2.050978     2.043335     2.035692     2.028049     2.020405
      2.012762     2.005119     1.997476     1.989833     1.982190     1.974546     1.966903     1.959260     1.951617     1.943974
      1.936331     1.928688     1.921045     1.913402     1.905759     1.898115     1.890472     1.882829     1.875186     1.867543
      1.859900     1.852257     1.844614     1.836971     1.829327     1.821684     1.814041     1.806398     1.798755     1.791112
      1.783469     1.775826     1.768183     1.760540     1.752896     1.745253     1.737610     1.729967     1.722324     1.714681
      1.707038     1.699395     1.691752     1.684108     1.676465     1.668822     1.661179     1.653536     1.645893     1.638250
      1.630607     1.622964     1.615321     1.607677     1.600034     1.592391     1.584748     1.577105     1.569462     1.561819
      1.554176     1.546533     1.538890     1.531246     1.523603     1.515960     1.508317     1.500674     1.493031     1.485388
      1.477745     1.470102     1.462458     1.454815     1.447172     1.439529     1.431886     1.424243     1.416600     1.408957
      1.401314     1.393671     1.386027     1.378384     1.370741     1.363098     1.355455     1.347812     1.340169     1.332526
      1.324883     1.317240     1.309596     1.301953     1.294310     1.286667     1.279024     1.271381     1.263738     1.256095
      1.248452     1.240808     1.233165     1.225522     1.217879     1.210236     1.202593     1.194950     1.187307     1.179664
      1.172021     1.164377     1.156734     1.149091     1.141448     1.133805     1.126162     1.118519     1.110876     1.103233
      1.095590     1.087946     1.080303     1.072660     1.065017     1.057374     1.049731     1.042088     1.034445     1.026802
      1.019158     1.011515     1.003872     0.996229     0.988586     0.980943     0.973300     0.965657     0.958014     0.950371
      0.942727     0.935084     0.927441     0.919798     0.912155     0.904512     0.896869     0.889226     0.881583     0.873940
      0.866296     0.858653     0.851010     0.843367     0.835724     0.828081     0.820438     0.812795     0.805152     0.797508
      0.789865     0.782222     0.774579     0.766936     0.759293     0.751650     0.744007     0.736364     0.728721     0.721077
      0.713434     0.705791     0.698148     0.690505     0.682862     0.675219     0.667576     0.659933     0.652290     0.644646
      0.637003     0.629360     0.621717     0.614074     0.606431     0.598788     0.591145     0.583502     0.575858     0.568215
      0.560572     0.552929     0.545286     0.537643     0.530000     0.522357     0.514714     0.507071     0.499427     0.491784
      0.484141     0.476498     0.468855     0.461212     0.453569     0.445925     0.438282     0.430639     0.422996     0.415353
      0.407710     0.400067     0.392424     0.384780     0.377137     0.369494     0.361851     0.354208     0.346565     0.338922
      0.331278     0.323635     0.315992     0.308349     0.300706     0.293063     0.285420     0.277777     0.270133     0.262490
      0.254847     0.247204     0.239561     0.231918     0.224275     0.216631     0.208988     0.201345
 NY phased data points follow
   4.33338E+00  2.54732E+00  5.40235E+00  4.60709E+00  3.79449E+00  3.21168E+00  3.02516E+00  2.49685E+00  4.71770E+00  2.36206E+00
   2.02319E+00  1.84515E+00  5.36223E+00  1.50857E+00  2.09735E+00  2.85470E+00  1.73887E+00  6.43489E-01  1.11330E+00  1.78579E+00
   1.30217E+00  5.12124E-01  1.47877E+00 -4.52324E-01  3.92817E-01  1.62674E+00  5.87805E-01  5.88614E-01  1.42421E+00  2.17030E+00
   7.50498E-01  1.19908E+00 -6.88558E-01  4.24566E-01  9.63037E-01  1.33638E+00  4.11007E-01 -2.76666E-01  9.26692E-01  8.93378E-01
  -5.70696E-02  2.46364E+00  2.20937E-01 -1.27669E-01 -1.25081E+00 -8.12637E-02  5.91873E-01 -8.69220E-01 -4.03654E-01  9.10487E-01
  -3.78377E-02 -2.13201E+00 -1.30192E+00  4.26534E-01 -2.10086E-01 -1.33776E+00 -6.43115E-01 -3.88222E-01 -4.96043E-01  3.62863E-01
  -2.27202E+00 -2.33981E-01  9.80770E-02 -2.76562E+00 -1.58291E+00 -1.18556E+00 -3.92339E-02 -8.81116E-01 -1.52105E+00 -2.36053E+00
  -3.71730E+00 -3.08520E+00 -1.23008E+00 -2.19375E+00 -2.07853E+00 -1.66782E+00 -4.20463E-01 -1.93773E+00 -8.54454E-01 -2.34104E+00
   3.69196E-01 -3.68582E-01 -2.23349E+00 -1.37394E+00 -2.36999E+00 -3.44007E+00 -5.54175E-01 -3.34968E+00 -9.38442E-01 -4.32272E-01
  -3.26356E+00 -6.99958E-01 -1.89811E+00 -3.40138E+00 -2.04964E+00  3.92221E-01 -2.40378E+00 -9.45346E-01 -2.39372E+00 -1.19724E+00
  -3.19029E+00 -3.66355E+00 -4.48684E+00 -2.19085E+00 -3.50889E+00 -3.97393E+00 -4.98415E+00 -3.17426E+00 -3.20770E+00 -2.85260E+00
  -2.28977E+00 -4.27617E+00 -1.97027E+00 -4.05430E-01 -1.60302E+00 -2.03581E+00 -2.20079E+00 -2.79021E+00 -2.57771E+00 -2.87295E+00
  -2.45785E+00 -2.43143E+00 -2.72598E+00 -8.69448E-01 -2.08182E+00 -4.41871E+00 -2.60886E+00 -9.79910E-01 -3.27773E+00 -3.76004E+00
  -2.46677E+00 -4.17635E+00 -3.73138E+00 -2.06991E+00 -2.08094E+00 -8.62528E-01 -3.73691E+00 -5.24777E+00 -3.46283E+00 -3.67142E+00
  -2.84180E+00 -2.32989E+00 -5.22510E+00 -4.02170E+00 -3.79747E+00 -2.81267E+00 -3.90452E+00 -1.72425E+00 -2.87872E+00 -3.53969E+00
  -3.25452E+00 -4.91230E+00 -4.07399E+00 -2.71061E+00 -5.04086E+00 -3.13285E+00 -4.54922E+00 -3.09653E+00 -3.83889E+00 -5.67635E+00
  -4.28889E+00 -3.81813E+00 -3.95484E+00 -2.59334E+00 -5.35240E+00 -4.72328E+00 -4.38550E+00 -2.91211E+00 -3.61358E+00 -4.01840E+00
  -4.37657E+00 -5.74737E+00 -4.32858E+00 -6.30426E+00 -6.44333E+00 -3.52217E+00 -2.77275E+00 -3.38517E+00 -4.59274E+00 -4.28306E+00
  -4.88167E+00 -3.55814E+00 -2.40343E+00 -6.63116E+00 -4.49059E+00 -4.12356E+00 -6.67328E+00 -5.02857E+00 -3.01293E+00 -5.91405E+00
  -3.66539E+00 -4.23161E+00 -4.92428E+00 -4.12889E+00 -4.38473E+00 -3.57285E+00 -8.02614E+00 -4.94192E+00 -4.44216E+00 -4.71552E+00
  -4.40981E+00 -6.66294E+00 -3.52483E+00 -5.74223E+00 -2.55811E+00 -4.49453E+00 -1.59170E+00 -5.97653E+00 -5.54705E+00 -6.75212E+00
  -4.62893E+00 -4.01151E+00 -5.97995E+00 -3.58369E+00 -3.76493E+00 -4.94985E+00 -3.02161E+00 -5.31023E+00 -5.08399E+00 -6.00758E+00
  -6.21041E+00 -5.02009E+00 -4.33458E+00 -5.70564E+00 -4.63117E+00 -6.18519E+00 -4.41195E+00 -6.23847E+00 -4.50321E+00 -5.06208E+00
  -2.53842E+00 -4.33016E+00 -4.94322E+00 -5.32672E+00 -3.81569E+00 -3.32053E+00 -5.03948E+00 -3.93465E+00 -5.16480E+00 -4.41061E+00
  -5.08907E+00 -7.24674E+00 -4.03974E+00 -5.90989E+00 -3.29387E+00 -3.18695E+00 -5.80923E+00 -3.25842E+00 -1.43433E+00 -3.79442E+00
  -5.83435E+00 -3.14885E+00 -3.77148E+00 -4.35548E+00 -4.85345E+00 -5.68223E+00 -5.84744E+00 -3.40267E+00 -2.62915E+00 -3.97408E+00
  -3.77513E+00 -4.76288E+00 -6.44255E+00 -6.52338E+00 -6.24559E+00 -6.31717E+00 -5.14253E+00 -3.71549E+00 -5.81763E+00 -5.97442E+00
  -4.96980E+00 -3.19493E+00 -4.42087E+00 -4.23509E+00 -5.97088E+00 -4.67459E+00 -3.08922E+00 -3.40635E+00 -5.06619E+00 -6.03686E+00
  -4.41535E+00 -4.58500E+00 -4.69771E+00 -4.33367E+00 -4.01056E+00 -5.02007E+00 -7.55279E+00 -5.60209E+00 -3.43281E+00 -4.15294E+00
  -4.60847E+00 -3.15133E+00 -4.34177E+00 -5.46049E+00 -3.63431E+00 -6.50322E+00 -3.50716E+00 -4.93925E+00 -4.95216E+00 -2.94571E+00
  -4.67177E+00 -3.42511E+00 -4.01453E+00 -5.78797E+00 -7.67406E+00 -4.29051E+00 -3.41084E+00 -4.79990E+00 -5.37799E+00 -2.31450E+00
  -5.13242E+00 -4.22699E+00 -5.47197E+00 -3.69234E+00 -3.97774E+00 -5.04253E+00 -4.43051E+00 -5.41670E+00 -5.78936E+00 -4.12902E+00
  -2.76755E+00 -4.27790E+00 -3.45202E+00 -3.11007E+00 -3.03513E+00 -2.86684E+00 -3.83795E+00 -2.35277E+00 -2.13989E+00 -2.96961E+00
  -4.18427E+00 -3.26277E+00 -4.22091E+00 -4.01896E+00 -3.95331E+00 -4.70532E+00 -1.74380E+00 -3.85004E+00 -5.56671E+00 -4.65022E+00
  -6.03630E+00 -5.20410E+00 -3.19869E+00 -2.30473E+00 -1.96590E+00 -2.40003E+00 -4.68522E+00 -3.65945E+00 -4.92184E+00 -2.48960E+00
  -4.81700E+00 -3.46038E+00 -3.78408E+00 -2.88838E+00 -3.86378E+00 -3.61415E+00 -4.53861E+00 -2.62803E+00 -3.57793E+00 -2.38585E+00
  -2.49932E+00 -5.25409E+00 -4.50185E+00 -5.48841E+00 -6.01646E+00 -3.83797E+00 -5.26044E+00 -3.13091E+00 -2.43199E+00 -2.33040E+00
  -3.78932E+00 -4.19692E+00 -4.52121E+00 -2.21128E+00 -3.26088E+00 -4.86674E+00 -2.46070E+00 -3.07194E+00 -4.30147E+00 -3.57998E+00
  -3.04496E+00 -4.71993E+00 -3.09953E+00 -4.95478E+00 -2.87484E+00 -2.31487E+00 -5.78905E+00 -4.44418E+00 -4.08317E+00 -2.70896E+00
  -5.49001E+00 -2.92546E+00 -3.78130E+00 -3.52179E+00 -4.63936E+00 -3.70045E+00 -3.41795E+00 -4.24313E+00 -2.43765E+00 -5.87723E+00
  -5.15097E+00 -3.98111E+00 -3.46277E+00 -3.57582E+00 -4.95703E+00 -3.52504E+00 -1.19966E+00 -5.84748E+00 -2.37649E+00 -4.38068E+00
  -4.89878E+00 -2.24369E+00 -3.30157E+00 -2.17634E+00 -4.71028E+00 -2.50971E+00 -3.49960E+00 -6.19574E+00 -4.09228E+00 -4.21577E+00
  -4.45889E+00 -4.72175E+00 -5.30544E+00 -4.75125E+00 -4.22468E+00 -4.33039E+00 -3.95956E+00 -5.48619E+00 -6.39838E+00 -4.11602E+00
  -4.41493E+00 -5.18104E+00 -5.17169E+00 -2.92006E+00 -5.29190E+00 -3.75842E+00 -2.71878E+00 -4.37103E+00 -4.07861E+00 -3.47447E+00
  -2.14134E+00 -4.66801E+00 -5.55388E+00 -4.33708E+00 -4.50322E+00 -5.06380E+00 -5.20213E+00 -5.20380E+00 -2.79808E+00 -2.68626E+00
  -4.78865E+00 -4.74813E+00 -2.72324E+00 -4.17186E+00 -4.42078E+00 -4.59626E+00 -3.61092E+00 -3.39034E+00 -3.96591E+00 -3.95692E+00
  -2.47346E+00 -3.62280E+00 -6.02345E+00 -4.15376E+00 -2.38071E+00 -2.23931E+00 -2.46887E+00 -3.78403E+00 -3.77919E+00 -4.78821E+00
  -3.92225E+00 -3.68822E+00 -4.14483E+00 -3.02074E+00 -5.78409E+00 -3.55290E+00 -2.99398E+00 -3.19409E+00 -2.65036E+00 -4.79530E+00
  -4.60931E+00 -4.21263E+00 -2.83560E+00 -1.63580E+00 -1.73016E+00 -1.80259E+00 -4.75853E+00 -2.30289E+00 -4.06006E+00 -3.26429E+00
  -1.32887E+00 -2.57425E+00 -4.06255E+00 -4.50438E+00 -1.94595E+00 -2.76497E+00 -4.04897E+00 -4.24990E+00
 NY points of the fit to the data follow
   1.39779E+00  1.33273E+00  1.28953E+00  1.31414E+00  1.45283E+00  1.63944E+00  1.79860E+00  1.89173E+00  1.91138E+00  1.86356E+00
   1.75727E+00  1.60355E+00  1.41357E+00  1.20196E+00  9.98558E-01  8.51484E-01  7.83271E-01  7.49107E-01  7.26941E-01  7.06111E-01
   6.84763E-01  6.71264E-01  6.59634E-01  6.18760E-01  5.62720E-01  5.67929E-01  6.45524E-01  7.55269E-01  8.75433E-01  9.94202E-01
   1.08139E+00  1.09710E+00  1.03652E+00  9.07701E-01  7.06466E-01  4.56617E-01  2.20596E-01  5.17675E-02 -6.32715E-02 -1.40676E-01
  -1.75019E-01 -1.67548E-01 -1.16734E-01 -1.83635E-02  1.02338E-01  1.90371E-01  2.11908E-01  1.75786E-01  9.47989E-02 -2.12469E-02
  -1.62146E-01 -3.16284E-01 -4.70850E-01 -6.08519E-01 -6.96127E-01 -7.13169E-01 -6.83219E-01 -6.40379E-01 -6.09958E-01 -6.04311E-01
  -6.27445E-01 -6.76746E-01 -7.42685E-01 -8.14668E-01 -8.85647E-01 -9.51500E-01 -1.00444E+00 -1.03224E+00 -1.03836E+00 -1.03449E+00
  -1.03405E+00 -1.04377E+00 -1.06642E+00 -1.10210E+00 -1.14712E+00 -1.19794E+00 -1.25194E+00 -1.30676E+00 -1.35953E+00 -1.40523E+00
  -1.44549E+00 -1.48276E+00 -1.52608E+00 -1.58396E+00 -1.65820E+00 -1.73999E+00 -1.81805E+00 -1.88448E+00 -1.93519E+00 -1.96792E+00
  -1.98399E+00 -1.98492E+00 -1.97398E+00 -1.96301E+00 -1.96659E+00 -1.99175E+00 -2.03603E+00 -2.09168E+00 -2.15298E+00 -2.21543E+00
  -2.27368E+00 -2.32154E+00 -2.35766E+00 -2.38179E+00 -2.39724E+00 -2.41013E+00 -2.42300E+00 -2.43696E+00 -2.45219E+00 -2.46929E+00
  -2.48935E+00 -2.51241E+00 -2.53675E+00 -2.56077E+00 -2.58528E+00 -2.61187E+00 -2.64055E+00 -2.66929E+00 -2.69541E+00 -2.71364E+00
  -2.70619E+00 -2.59727E+00 -2.32922E+00 -2.00788E+00 -1.74046E+00 -1.57733E+00 -1.52373E+00 -1.56722E+00 -1.68666E+00 -1.86316E+00
  -2.09964E+00 -2.39011E+00 -2.68798E+00 -2.91563E+00 -3.04624E+00 -3.13486E+00 -3.19745E+00 -3.23089E+00 -3.24215E+00 -3.23734E+00
  -3.21857E+00 -3.19299E+00 -3.17790E+00 -3.18254E+00 -3.20628E+00 -3.24669E+00 -3.29630E+00 -3.34622E+00 -3.39181E+00 -3.43098E+00
  -3.46930E+00 -3.50614E+00 -3.53874E+00 -3.56586E+00 -3.58781E+00 -3.60715E+00 -3.62535E+00 -3.64365E+00 -3.66269E+00 -3.68285E+00
  -3.70507E+00 -3.73056E+00 -3.75828E+00 -3.78522E+00 -3.81025E+00 -3.83412E+00 -3.85586E+00 -3.87443E+00 -3.88937E+00 -3.90161E+00
  -3.91467E+00 -3.93161E+00 -3.95190E+00 -3.97402E+00 -3.99670E+00 -4.02010E+00 -4.04531E+00 -4.07294E+00 -4.10146E+00 -4.12552E+00
  -4.14608E+00 -4.16606E+00 -4.18630E+00 -4.20549E+00 -4.21919E+00 -4.22062E+00 -4.20483E+00 -4.17325E+00 -4.13723E+00 -4.11149E+00
  -4.10375E+00 -4.11613E+00 -4.15491E+00 -4.22201E+00 -4.29661E+00 -4.35734E+00 -4.39537E+00 -4.40837E+00 -4.39725E+00 -4.36600E+00
  -4.32177E+00 -4.27200E+00 -4.23405E+00 -4.22087E+00 -4.23983E+00 -4.30149E+00 -4.38811E+00 -4.47877E+00 -4.55434E+00 -4.58868E+00
  -4.55558E+00 -4.41202E+00 -4.20382E+00 -4.01331E+00 -3.89751E+00 -3.87812E+00 -3.97280E+00 -4.21500E+00 -4.57947E+00 -4.96647E+00
  -5.27418E+00 -5.45330E+00 -5.47931E+00 -5.35110E+00 -5.13308E+00 -4.88392E+00 -4.65119E+00 -4.47544E+00 -4.37994E+00 -4.37471E+00
  -4.42623E+00 -4.47568E+00 -4.49124E+00 -4.47756E+00 -4.45275E+00 -4.44562E+00 -4.47268E+00 -4.53590E+00 -4.64246E+00 -4.76671E+00
  -4.86522E+00 -4.91268E+00 -4.91034E+00 -4.86183E+00 -4.77902E+00 -4.69254E+00 -4.63745E+00 -4.62713E+00 -4.64622E+00 -4.67703E+00
  -4.69574E+00 -4.64441E+00 -4.52897E+00 -4.41115E+00 -4.32752E+00 -4.27501E+00 -4.24749E+00 -4.25213E+00 -4.29182E+00 -4.35469E+00
  -4.43334E+00 -4.52116E+00 -4.58931E+00 -4.61613E+00 -4.62924E+00 -4.65860E+00 -4.70153E+00 -4.74778E+00 -4.78675E+00 -4.81033E+00
  -4.81499E+00 -4.80339E+00 -4.78711E+00 -4.77212E+00 -4.75683E+00 -4.74504E+00 -4.74026E+00 -4.74270E+00 -4.75107E+00 -4.76297E+00
  -4.77358E+00 -4.77886E+00 -4.77888E+00 -4.77566E+00 -4.77083E+00 -4.76485E+00 -4.75827E+00 -4.75161E+00 -4.74477E+00 -4.73663E+00
  -4.72660E+00 -4.71473E+00 -4.70137E+00 -4.68677E+00 -4.67168E+00 -4.65665E+00 -4.64175E+00 -4.62702E+00 -4.61234E+00 -4.59735E+00
  -4.58213E+00 -4.56702E+00 -4.55231E+00 -4.53821E+00 -4.52490E+00 -4.51259E+00 -4.50146E+00 -4.49125E+00 -4.48162E+00 -4.47220E+00
  -4.46257E+00 -4.45231E+00 -4.44106E+00 -4.42845E+00 -4.41409E+00 -4.39765E+00 -4.37882E+00 -4.35738E+00 -4.33316E+00 -4.30612E+00
  -4.27629E+00 -4.24380E+00 -4.20888E+00 -4.17186E+00 -4.13312E+00 -4.09314E+00 -4.05242E+00 -4.01150E+00 -3.97093E+00 -3.93123E+00
  -3.89290E+00 -3.85636E+00 -3.82195E+00 -3.78989E+00 -3.76027E+00 -3.73301E+00 -3.70783E+00 -3.68421E+00 -3.66125E+00 -3.63736E+00
  -3.60948E+00 -3.57012E+00 -3.50543E+00 -3.43791E+00 -3.41102E+00 -3.43619E+00 -3.50418E+00 -3.60139E+00 -3.71916E+00 -3.84732E+00
  -3.94196E+00 -3.97331E+00 -3.94640E+00 -3.87299E+00 -3.76743E+00 -3.66377E+00 -3.58917E+00 -3.54558E+00 -3.53337E+00 -3.55468E+00
  -3.60891E+00 -3.68294E+00 -3.74735E+00 -3.79559E+00 -3.83690E+00 -3.87502E+00 -3.91130E+00 -3.94623E+00 -3.97990E+00 -4.01225E+00
  -4.04309E+00 -4.07224E+00 -4.09948E+00 -4.12461E+00 -4.14748E+00 -4.16789E+00 -4.18572E+00 -4.20083E+00 -4.21313E+00 -4.22254E+00
  -4.22898E+00 -4.23239E+00 -4.23268E+00 -4.22983E+00 -4.22377E+00 -4.21448E+00 -4.20196E+00 -4.18620E+00 -4.16726E+00 -4.14523E+00
  -4.12030E+00 -4.09268E+00 -4.06269E+00 -4.03072E+00 -3.99726E+00 -3.96288E+00 -3.92823E+00 -3.89402E+00 -3.86099E+00 -3.82990E+00
  -3.80149E+00 -3.77646E+00 -3.75544E+00 -3.73891E+00 -3.72726E+00 -3.72070E+00 -3.71930E+00 -3.72295E+00 -3.73139E+00 -3.74423E+00
  -3.76093E+00 -3.78090E+00 -3.80346E+00 -3.82793E+00 -3.85361E+00 -3.87984E+00 -3.90600E+00 -3.93155E+00 -3.95605E+00 -3.97913E+00
  -4.00049E+00 -4.01996E+00 -4.03741E+00 -4.05280E+00 -4.06614E+00 -4.07748E+00 -4.08693E+00 -4.09458E+00 -4.10058E+00 -4.10506E+00
  -4.10818E+00 -4.11005E+00 -4.11082E+00 -4.11060E+00 -4.10950E+00 -4.10764E+00 -4.10509E+00 -4.10194E+00 -4.09825E+00 -4.09409E+00
  -4.08951E+00 -4.08456E+00 -4.07928E+00 -4.07370E+00 -4.06786E+00 -4.06177E+00 -4.05546E+00 -4.04896E+00 -4.04228E+00 -4.03544E+00
  -4.02844E+00 -4.02131E+00 -4.01405E+00 -4.00667E+00 -3.99919E+00 -3.99160E+00 -3.98391E+00 -3.97614E+00 -3.96829E+00 -3.96037E+00
  -3.95237E+00 -3.94430E+00 -3.93617E+00 -3.92798E+00 -3.91974E+00 -3.91144E+00 -3.90310E+00 -3.89470E+00 -3.88626E+00 -3.87779E+00
  -3.86927E+00 -3.86072E+00 -3.85213E+00 -3.84350E+00 -3.83484E+00 -3.82616E+00 -3.81745E+00 -3.80871E+00 -3.79994E+00 -3.79115E+00
  -3.78234E+00 -3.77352E+00 -3.76467E+00 -3.75580E+00 -3.74691E+00 -3.73801E+00 -3.72910E+00 -3.72017E+00 -3.71123E+00 -3.70227E+00
  -3.69330E+00 -3.68433E+00 -3.67534E+00 -3.66635E+00 -3.65735E+00 -3.64834E+00 -3.63933E+00 -3.63031E+00
 NY background values follow
     1.229E+00    1.193E+00    1.157E+00    1.120E+00    1.084E+00    1.047E+00    1.011E+00    9.748E-01    9.384E-01    9.021E-01
     8.657E-01    8.294E-01    7.931E-01    7.567E-01    7.204E-01    6.842E-01    6.479E-01    6.116E-01    5.754E-01    5.391E-01
     5.029E-01    4.668E-01    4.306E-01    3.945E-01    3.583E-01    3.223E-01    2.862E-01    2.502E-01    2.142E-01    1.782E-01
     1.423E-01    1.064E-01    7.054E-02    3.473E-02   -1.045E-03   -3.678E-02   -7.247E-02   -1.081E-01   -1.437E-01   -1.793E-01
    -2.148E-01   -2.502E-01   -2.856E-01   -3.210E-01   -3.562E-01   -3.915E-01   -4.267E-01   -4.618E-01   -4.968E-01   -5.318E-01
    -5.668E-01   -6.016E-01   -6.364E-01   -6.711E-01   -7.058E-01   -7.404E-01   -7.749E-01   -8.094E-01   -8.437E-01   -8.780E-01
    -9.122E-01   -9.464E-01   -9.804E-01   -1.014E+00   -1.048E+00   -1.082E+00   -1.116E+00   -1.149E+00   -1.183E+00   -1.216E+00
    -1.250E+00   -1.283E+00   -1.316E+00   -1.349E+00   -1.382E+00   -1.415E+00   -1.448E+00   -1.480E+00   -1.513E+00   -1.545E+00
    -1.578E+00   -1.610E+00   -1.642E+00   -1.674E+00   -1.706E+00   -1.738E+00   -1.769E+00   -1.801E+00   -1.832E+00   -1.863E+00
    -1.895E+00   -1.926E+00   -1.957E+00   -1.987E+00   -2.018E+00   -2.049E+00   -2.079E+00   -2.109E+00   -2.139E+00   -2.169E+00
    -2.199E+00   -2.229E+00   -2.259E+00   -2.288E+00   -2.317E+00   -2.347E+00   -2.376E+00   -2.405E+00   -2.433E+00   -2.462E+00
    -2.490E+00   -2.519E+00   -2.547E+00   -2.575E+00   -2.603E+00   -2.631E+00   -2.658E+00   -2.686E+00   -2.713E+00   -2.740E+00
    -2.767E+00   -2.794E+00   -2.821E+00   -2.848E+00   -2.874E+00   -2.900E+00   -2.926E+00   -2.952E+00   -2.978E+00   -3.004E+00
    -3.029E+00   -3.054E+00   -3.080E+00   -3.104E+00   -3.129E+00   -3.154E+00   -3.178E+00   -3.203E+00   -3.227E+00   -3.251E+00
    -3.275E+00   -3.298E+00   -3.322E+00   -3.345E+00   -3.368E+00   -3.391E+00   -3.414E+00   -3.437E+00   -3.459E+00   -3.481E+00
    -3.503E+00   -3.525E+00   -3.547E+00   -3.569E+00   -3.590E+00   -3.611E+00   -3.632E+00   -3.653E+00   -3.674E+00   -3.695E+00
    -3.715E+00   -3.735E+00   -3.755E+00   -3.775E+00   -3.795E+00   -3.814E+00   -3.833E+00   -3.853E+00   -3.872E+00   -3.890E+00
    -3.909E+00   -3.927E+00   -3.946E+00   -3.964E+00   -3.982E+00   -3.999E+00   -4.017E+00   -4.034E+00   -4.051E+00   -4.068E+00
    -4.085E+00   -4.102E+00   -4.118E+00   -4.134E+00   -4.150E+00   -4.166E+00   -4.182E+00   -4.197E+00   -4.213E+00   -4.228E+00
    -4.243E+00   -4.258E+00   -4.272E+00   -4.287E+00   -4.301E+00   -4.315E+00   -4.329E+00   -4.343E+00   -4.356E+00   -4.370E+00
    -4.383E+00   -4.396E+00   -4.409E+00   -4.422E+00   -4.434E+00   -4.446E+00   -4.459E+00   -4.471E+00   -4.482E+00   -4.494E+00
    -4.506E+00   -4.517E+00   -4.528E+00   -4.539E+00   -4.550E+00   -4.561E+00   -4.571E+00   -4.582E+00   -4.592E+00   -4.602E+00
    -4.612E+00   -4.621E+00   -4.631E+00   -4.640E+00   -4.649E+00   -4.658E+00   -4.667E+00   -4.676E+00   -4.685E+00   -4.693E+00
    -4.701E+00   -4.709E+00   -4.717E+00   -4.725E+00   -4.733E+00   -4.740E+00   -4.748E+00   -4.755E+00   -4.762E+00   -4.769E+00
    -4.776E+00   -4.782E+00   -4.789E+00   -4.795E+00   -4.801E+00   -4.807E+00   -4.813E+00   -4.819E+00   -4.824E+00   -4.830E+00
    -4.835E+00   -4.840E+00   -4.845E+00   -4.850E+00   -4.855E+00   -4.859E+00   -4.864E+00   -4.868E+00   -4.872E+00   -4.876E+00
    -4.880E+00   -4.884E+00   -4.888E+00   -4.891E+00   -4.895E+00   -4.898E+00   -4.901E+00   -4.904E+00   -4.907E+00   -4.910E+00
    -4.913E+00   -4.915E+00   -4.918E+00   -4.920E+00   -4.922E+00   -4.924E+00   -4.926E+00   -4.928E+00   -4.930E+00   -4.931E+00
    -4.933E+00   -4.934E+00   -4.936E+00   -4.937E+00   -4.938E+00   -4.939E+00   -4.939E+00   -4.940E+00   -4.941E+00   -4.941E+00
    -4.942E+00   -4.942E+00   -4.942E+00   -4.942E+00   -4.942E+00   -4.942E+00   -4.942E+00   -4.941E+00   -4.941E+00   -4.940E+00
    -4.939E+00   -4.939E+00   -4.938E+00   -4.937E+00   -4.936E+00   -4.935E+00   -4.933E+00   -4.932E+00   -4.931E+00   -4.929E+00
    -4.928E+00   -4.926E+00   -4.924E+00   -4.922E+00   -4.920E+00   -4.918E+00   -4.916E+00   -4.914E+00   -4.911E+00   -4.909E+00
    -4.907E+00   -4.904E+00   -4.901E+00   -4.899E+00   -4.896E+00   -4.893E+00   -4.890E+00   -4.887E+00   -4.884E+00   -4.881E+00
    -4.877E+00   -4.874E+00   -4.870E+00   -4.867E+00   -4.863E+00   -4.860E+00   -4.856E+00   -4.852E+00   -4.848E+00   -4.844E+00
    -4.840E+00   -4.836E+00   -4.832E+00   -4.828E+00   -4.824E+00   -4.819E+00   -4.815E+00   -4.810E+00   -4.806E+00   -4.801E+00
    -4.796E+00   -4.792E+00   -4.787E+00   -4.782E+00   -4.777E+00   -4.772E+00   -4.767E+00   -4.762E+00   -4.757E+00   -4.751E+00
    -4.746E+00   -4.741E+00   -4.735E+00   -4.730E+00   -4.724E+00   -4.719E+00   -4.713E+00   -4.708E+00   -4.702E+00   -4.696E+00
    -4.690E+00   -4.684E+00   -4.678E+00   -4.672E+00   -4.666E+00   -4.660E+00   -4.654E+00   -4.648E+00   -4.642E+00   -4.635E+00
    -4.629E+00   -4.623E+00   -4.616E+00   -4.610E+00   -4.603E+00   -4.597E+00   -4.590E+00   -4.583E+00   -4.576E+00   -4.570E+00
    -4.563E+00   -4.556E+00   -4.549E+00   -4.542E+00   -4.535E+00   -4.528E+00   -4.521E+00   -4.514E+00   -4.507E+00   -4.499E+00
    -4.492E+00   -4.485E+00   -4.477E+00   -4.470E+00   -4.463E+00   -4.455E+00   -4.448E+00   -4.440E+00   -4.432E+00   -4.425E+00
    -4.417E+00   -4.409E+00   -4.402E+00   -4.394E+00   -4.386E+00   -4.378E+00   -4.370E+00   -4.362E+00   -4.354E+00   -4.346E+00
    -4.338E+00   -4.330E+00   -4.322E+00   -4.314E+00   -4.306E+00   -4.297E+00   -4.289E+00   -4.281E+00   -4.273E+00   -4.264E+00
    -4.256E+00   -4.247E+00   -4.239E+00   -4.230E+00   -4.222E+00   -4.213E+00   -4.205E+00   -4.196E+00   -4.188E+00   -4.179E+00
    -4.170E+00   -4.162E+00   -4.153E+00   -4.144E+00   -4.135E+00   -4.127E+00   -4.118E+00   -4.109E+00   -4.100E+00   -4.091E+00
    -4.082E+00   -4.074E+00   -4.065E+00   -4.056E+00   -4.047E+00   -4.038E+00   -4.029E+00   -4.020E+00   -4.011E+00   -4.001E+00
    -3.992E+00   -3.983E+00   -3.974E+00   -3.965E+00   -3.956E+00   -3.947E+00   -3.938E+00   -3.928E+00   -3.919E+00   -3.910E+00
    -3.901E+00   -3.891E+00   -3.882E+00   -3.873E+00   -3.864E+00   -3.854E+00   -3.845E+00   -3.836E+00   -3.827E+00   -3.817E+00
    -3.808E+00   -3.799E+00   -3.789E+00   -3.780E+00   -3.771E+00   -3.761E+00   -3.752E+00   -3.743E+00   -3.733E+00   -3.724E+00
    -3.715E+00   -3.706E+00   -3.696E+00   -3.687E+00   -3.678E+00   -3.668E+00   -3.659E+00   -3.650E+00
 Asp      Conc. = 2.95E+00
