 LCModel (Version 6.3-1L) Copyright: S.W. Provencher.          Ref.: Magn. Reson. Med. 30:672-679 (1993).                
 Slice#1 Row#4 Col#6  PD_05_press_1_raw_act
 36 lines in following concentration table = NCONC+1
    Conc.  %SD /Cr+PCr  Metabolite                                         
  111.036 128%   0.119 Ala                                                 
    0.000 999%   0.000 Asp                                                 
  161.872 166%   0.173 Cr                                                  
  774.403  35%   0.827 PCr                                                 
    0.000 999%   0.000 GABA                                                
  226.339  63%   0.242 Glc                                                 
  725.152  47%   0.775 Gln                                                 
  659.800  59%   0.705 Glu                                                 
  522.275   5%   0.558 GPC                                                 
    0.000 999%   0.000 PCh                                                 
  464.504  19%   0.496 GSH                                                 
 1.99E+03  16%   2.126 Ins                                                 
    0.000 999%   0.000 Lac                                                 
 1.71E+03   4%   1.829 NAA                                                 
    0.000 999%   0.000 NAAG                                                
  183.034  16%   0.195 Scyllo                                              
  256.255  77%   0.274 Tau                                                 
  232.247  51%   0.248 -CrCH2                                              
  522.275   5%   0.558 GPC+PCh                                             
 1.71E+03   4%   1.829 NAA+NAAG                                            
  936.275   6%   1.000 Cr+PCr                                              
 1.38E+03  46%   1.479 Glu+Gln                                             
  291.815  93%   0.312 Lip13a                                              
    0.000 999%   0.000 Lip13b                                              
    0.000 999%   0.000 Lip09                                               
  958.050  17%   1.023 MM09                                                
   95.332 126%   0.102 Lip20                                               
 1.60E+03  20%   1.708 MM20                                                
  524.977  24%   0.561 MM12                                                
    0.000 999%   0.000 MM14                                                
  425.737  41%   0.455 MM17                                                
  291.815  93%   0.312 Lip13a+Lip13b                                       
  816.791  33%   0.872 MM14+Lip13a+Lip13b+MM12                             
  958.050  17%   1.023 MM09+Lip09                                          
 1.69E+03  19%   1.809 MM20+Lip20                                          
   6 lines in following misc. output table
  FWHM = 0.076 ppm    S/N =   8                                            
  Data shift =-0.046 ppm                                                   
  Ph: -61 deg     -20.7 deg/ppm                                            
  alphaB,S = 6.0E-01,   2.1E+01                                            
   14 spline knots.   Ns = 9(1)                                            
  (15)13 infls.   (19) 3 extrs.                                            
  498 points on ppm-axis = NY
      4.000000     3.992357     3.984714     3.977070     3.969427     3.961784     3.954141     3.946497     3.938854     3.931211
      3.923568     3.915925     3.908281     3.900638     3.892995     3.885352     3.877708     3.870065     3.862422     3.854779
      3.847136     3.839492     3.831849     3.824206     3.816563     3.808919     3.801276     3.793633     3.785990     3.778347
      3.770703     3.763060     3.755417     3.747774     3.740130     3.732487     3.724844     3.717201     3.709558     3.701914
      3.694271     3.686628     3.678985     3.671341     3.663698     3.656055     3.648412     3.640769     3.633125     3.625482
      3.617839     3.610196     3.602552     3.594909     3.587266     3.579623     3.571980     3.564336     3.556693     3.549050
      3.541407     3.533763     3.526120     3.518477     3.510834     3.503191     3.495547     3.487904     3.480261     3.472618
      3.464974     3.457331     3.449688     3.442045     3.434402     3.426758     3.419115     3.411472     3.403829     3.396185
      3.388542     3.380899     3.373256     3.365613     3.357969     3.350326     3.342683     3.335040     3.327396     3.319753
      3.312110     3.304467     3.296824     3.289180     3.281537     3.273894     3.266251     3.258607     3.250964     3.243321
      3.235678     3.228034     3.220391     3.212748     3.205105     3.197462     3.189818     3.182175     3.174532     3.166889
      3.159245     3.151602     3.143959     3.136316     3.128673     3.121029     3.113386     3.105743     3.098100     3.090456
      3.082813     3.075170     3.067527     3.059884     3.052240     3.044597     3.036954     3.029311     3.021667     3.014024
      3.006381     2.998738     2.991095     2.983451     2.975808     2.968165     2.960522     2.952878     2.945235     2.937592
      2.929949     2.922306     2.914662     2.907019     2.899376     2.891733     2.884089     2.876446     2.868803     2.861160
      2.853517     2.845873     2.838230     2.830587     2.822944     2.815300     2.807657     2.800014     2.792371     2.784728
      2.777084     2.769441     2.761798     2.754155     2.746511     2.738868     2.731225     2.723582     2.715939     2.708295
      2.700652     2.693009     2.685366     2.677722     2.670079     2.662436     2.654793     2.647150     2.639506     2.631863
      2.624220     2.616577     2.608933     2.601290     2.593647     2.586004     2.578361     2.570717     2.563074     2.555431
      2.547788     2.540144     2.532501     2.524858     2.517215     2.509572     2.501928     2.494285     2.486642     2.478999
      2.471355     2.463712     2.456069     2.448426     2.440783     2.433139     2.425496     2.417853     2.410210     2.402566
      2.394923     2.387280     2.379637     2.371994     2.364350     2.356707     2.349064     2.341421     2.333777     2.326134
      2.318491     2.310848     2.303205     2.295561     2.287918     2.280275     2.272632     2.264988     2.257345     2.249702
      2.242059     2.234416     2.226772     2.219129     2.211486     2.203843     2.196199     2.188556     2.180913     2.173270
      2.165627     2.157983     2.150340     2.142697     2.135054     2.127410     2.119767     2.112124     2.104481     2.096838
      2.089194     2.081551     2.073908     2.066265     2.058621     2.050978     2.043335     2.035692     2.028049     2.020405
      2.012762     2.005119     1.997476     1.989833     1.982190     1.974546     1.966903     1.959260     1.951617     1.943974
      1.936331     1.928688     1.921045     1.913402     1.905759     1.898115     1.890472     1.882829     1.875186     1.867543
      1.859900     1.852257     1.844614     1.836971     1.829327     1.821684     1.814041     1.806398     1.798755     1.791112
      1.783469     1.775826     1.768183     1.760540     1.752896     1.745253     1.737610     1.729967     1.722324     1.714681
      1.707038     1.699395     1.691752     1.684108     1.676465     1.668822     1.661179     1.653536     1.645893     1.638250
      1.630607     1.622964     1.615321     1.607677     1.600034     1.592391     1.584748     1.577105     1.569462     1.561819
      1.554176     1.546533     1.538890     1.531246     1.523603     1.515960     1.508317     1.500674     1.493031     1.485388
      1.477745     1.470102     1.462458     1.454815     1.447172     1.439529     1.431886     1.424243     1.416600     1.408957
      1.401314     1.393671     1.386027     1.378384     1.370741     1.363098     1.355455     1.347812     1.340169     1.332526
      1.324883     1.317240     1.309596     1.301953     1.294310     1.286667     1.279024     1.271381     1.263738     1.256095
      1.248452     1.240808     1.233165     1.225522     1.217879     1.210236     1.202593     1.194950     1.187307     1.179664
      1.172021     1.164377     1.156734     1.149091     1.141448     1.133805     1.126162     1.118519     1.110876     1.103233
      1.095590     1.087946     1.080303     1.072660     1.065017     1.057374     1.049731     1.042088     1.034445     1.026802
      1.019158     1.011515     1.003872     0.996229     0.988586     0.980943     0.973300     0.965657     0.958014     0.950371
      0.942727     0.935084     0.927441     0.919798     0.912155     0.904512     0.896869     0.889226     0.881583     0.873940
      0.866296     0.858653     0.851010     0.843367     0.835724     0.828081     0.820438     0.812795     0.805152     0.797508
      0.789865     0.782222     0.774579     0.766936     0.759293     0.751650     0.744007     0.736364     0.728721     0.721077
      0.713434     0.705791     0.698148     0.690505     0.682862     0.675219     0.667576     0.659933     0.652290     0.644646
      0.637003     0.629360     0.621717     0.614074     0.606431     0.598788     0.591145     0.583502     0.575858     0.568215
      0.560572     0.552929     0.545286     0.537643     0.530000     0.522357     0.514714     0.507071     0.499427     0.491784
      0.484141     0.476498     0.468855     0.461212     0.453569     0.445925     0.438282     0.430639     0.422996     0.415353
      0.407710     0.400067     0.392424     0.384780     0.377137     0.369494     0.361851     0.354208     0.346565     0.338922
      0.331278     0.323635     0.315992     0.308349     0.300706     0.293063     0.285420     0.277777     0.270133     0.262490
      0.254847     0.247204     0.239561     0.231918     0.224275     0.216631     0.208988     0.201345
 NY phased data points follow
  -3.73609E+01 -3.99516E+01 -3.19535E+01 -3.21897E+01 -2.63608E+01 -2.47767E+01 -2.09044E+01 -1.79794E+01 -1.81100E+01 -1.50462E+01
  -1.96595E+01 -1.45723E+01 -2.07965E+01 -2.23558E+01 -2.28416E+01 -2.53107E+01 -2.64764E+01 -2.73680E+01 -2.66595E+01 -2.29065E+01
  -2.82958E+01 -2.45728E+01 -2.19181E+01 -2.50452E+01 -2.29054E+01 -2.09705E+01 -2.13730E+01 -2.21233E+01 -1.77111E+01 -2.24060E+01
  -1.73001E+01 -1.86273E+01 -1.71431E+01 -1.77494E+01 -1.65184E+01 -2.08497E+01 -1.85149E+01 -1.59559E+01 -1.76618E+01 -1.72971E+01
  -1.96847E+01 -1.45650E+01 -1.27720E+01 -1.56259E+01 -1.57631E+01 -1.39700E+01 -1.25192E+01 -1.63289E+01 -1.28346E+01 -1.21801E+01
  -1.47507E+01 -1.38781E+01 -1.55075E+01 -1.81963E+01 -1.27777E+01 -1.44525E+01 -1.08417E+01 -1.70575E+01 -1.45591E+01 -1.29843E+01
  -2.08254E+01 -1.46123E+01 -1.70739E+01 -1.95397E+01 -1.71712E+01 -1.61357E+01 -1.85897E+01 -1.98493E+01 -1.85904E+01 -1.67261E+01
  -1.55536E+01 -1.51760E+01 -1.47185E+01 -1.63144E+01 -1.57916E+01 -1.49053E+01 -1.28698E+01 -1.32506E+01 -9.08064E+00 -1.11912E+01
  -1.06672E+01 -1.50582E+01 -7.76561E+00 -1.24601E+01 -1.00563E+01 -9.99106E+00 -4.64262E+00 -1.50260E+01 -1.37151E+01 -1.13494E+01
  -1.66461E+01 -1.27141E+01 -1.24899E+01 -1.18659E+01 -6.94875E+00 -1.40544E+01 -9.57094E+00  2.44640E+00  1.05466E+01  5.68674E+00
   1.35600E+01  1.48898E+01  1.63103E+01  2.03869E+01  1.90591E+01  1.86904E+01  1.15722E+01  6.62563E+00 -3.28540E-01 -4.41895E+00
  -5.35099E+00 -7.36198E+00 -8.52096E+00 -8.06607E+00 -1.23721E+01 -1.40417E+01 -1.19870E+01 -1.31924E+01 -1.26482E+01 -1.09408E+01
  -4.09493E+00 -6.61855E+00  1.24900E-01  1.96414E+00  9.62641E+00  9.01630E+00  1.33605E+01  5.73029E+00  1.38415E+01  5.55996E+00
   4.79467E+00  3.11250E+00  3.32708E+00 -5.12425E+00 -5.75218E+00 -9.56079E+00 -7.31264E+00 -1.08270E+01 -7.04442E+00 -1.20861E+01
  -7.60744E+00 -1.02444E+01 -1.34849E+01 -1.29149E+01 -9.52556E+00 -9.23071E+00 -8.32767E+00 -1.15205E+01 -9.80548E+00 -8.08453E+00
  -1.00832E+01 -1.27192E+01 -9.00868E+00 -4.06946E+00 -6.60043E+00 -1.17528E+01 -9.65141E+00 -9.60334E+00 -8.62609E+00 -8.81821E+00
  -1.06321E+01 -9.59395E+00 -8.11982E+00 -1.20876E+01 -7.20261E+00 -1.08740E+01 -1.24116E+01 -1.24323E+01 -8.32787E+00 -1.30117E+01
  -1.09425E+01 -1.28852E+01 -1.00945E+01 -1.26403E+01 -1.30533E+01 -1.43778E+01 -1.35747E+01 -1.27649E+01 -1.62053E+01 -1.50000E+01
  -1.27987E+01 -1.29578E+01 -1.66018E+01 -1.57030E+01 -1.16327E+01 -1.37502E+01 -1.18625E+01 -1.06162E+01 -4.85138E+00 -7.06881E+00
  -7.62253E+00 -7.06237E+00 -6.63173E+00 -7.35598E+00 -3.83325E+00 -6.84866E+00 -4.75143E+00 -4.25272E+00 -7.76254E+00 -7.12088E+00
  -4.75553E+00 -2.43882E+00 -4.58177E+00 -4.86740E+00 -1.03429E+00 -4.59503E+00 -3.02462E+00 -5.71324E+00 -3.77193E+00 -1.72449E+00
  -3.12831E+00 -3.35742E+00  1.80460E+00 -2.71874E+00  9.41639E-01  8.49142E-01  5.44436E-01  1.17799E+00 -3.37746E+00 -4.50317E+00
   1.26881E+00 -2.06678E+00  2.35810E+00 -1.50827E+00  1.88367E+00 -1.17908E+00 -2.40974E+00  2.54765E+00  1.40160E+00  2.09535E+00
   2.94995E+00  4.23564E+00  2.78543E+00 -4.60641E+00  5.28490E+00  2.44287E+00  3.61060E+00 -2.17783E+00  5.77668E-01  1.36973E+00
  -9.78963E-02  1.42275E+00  2.32440E-01  1.11114E+00  4.39867E+00  2.04511E+00  1.87489E+00  4.90728E-01  9.84491E-01  1.73641E+00
   2.74897E+00  1.08300E+01  9.74888E+00  1.55525E+01  1.78843E+01  2.42389E+01  2.59730E+01  3.61026E+01  4.04785E+01  4.12107E+01
   4.33350E+01  4.21064E+01  4.18283E+01  3.06227E+01  3.12312E+01  2.81669E+01  2.29811E+01  1.56847E+01  1.26720E+01  7.79244E+00
   5.09947E+00  2.68243E+00  9.35705E+00  3.10195E+00  5.10419E+00  2.32494E+00 -2.64908E+00  9.81989E-02  7.98095E-01 -1.24524E+00
  -2.90324E+00  5.98824E-01 -1.41358E+00 -2.82305E-01 -3.60884E-01 -1.58045E+00 -1.63059E+00 -3.98716E+00 -2.70406E+00 -3.10378E+00
  -6.07826E-01 -2.99484E-01  2.45330E-02  2.15993E+00  7.53816E-01  2.47385E+00  1.04361E+00  4.15968E+00  5.70026E-01  3.07444E+00
   2.70472E+00  9.90314E-02  3.25647E+00  1.47123E+00  1.12646E+00  3.25509E+00  4.55596E+00  2.68536E+00  2.43972E+00  3.76965E-01
   5.25572E+00  5.22367E+00  6.65916E+00  9.34062E-01  5.70716E+00  3.50203E+00 -8.12701E-02  4.67267E+00  9.59324E-01  2.82495E+00
   1.71563E+00 -3.72722E-01  6.43062E+00  3.56923E+00  4.01297E+00  2.50849E+00  1.57329E+00  3.66970E+00 -2.00486E+00 -4.91999E-02
  -1.25848E+00  1.13229E+00 -1.06255E-01  5.82324E+00  2.18234E-01  5.34524E-01  1.75473E+00  3.71100E+00  2.53617E+00 -3.83006E+00
   3.62931E+00  1.17089E+00  1.48730E+00  1.72406E+00  1.35199E+00  4.81944E+00  5.03414E+00  2.65576E+00  4.67748E+00  4.00682E+00
   6.19382E+00  2.66957E+00  1.10005E+00  3.77622E+00  3.52567E+00  3.17595E+00  2.28346E+00  9.22176E+00  4.41703E+00  7.08776E+00
   6.30020E+00  5.59274E+00  1.12193E+01  9.08145E+00  6.84054E+00  7.36281E+00  7.49871E+00  8.34852E+00  6.75159E+00  7.53330E+00
   8.47895E+00  7.44297E+00  7.16206E+00  1.47895E+01  7.23778E+00  5.17148E+00  5.92386E+00  1.17820E+01  9.63889E+00  9.35618E+00
   7.40265E+00  7.35510E+00  8.34714E+00  5.14349E+00  6.91132E+00  7.07178E+00  5.55950E+00  5.18215E+00  4.30042E+00  5.80336E+00
   9.03709E+00  8.01151E+00  8.65789E+00  9.70659E+00  9.95015E+00  7.36402E+00  6.98966E+00  9.96431E+00  9.44316E+00  6.67632E+00
   9.31081E+00  9.05554E+00  6.54746E+00  7.41057E+00  5.61922E+00  1.00894E+01  1.03660E+01  9.53556E+00  1.14883E+01  4.74412E+00
   6.16048E+00  7.66488E+00  9.72966E+00  9.07069E+00  7.74605E+00  6.60876E+00  5.18275E+00  1.70179E+00  1.19158E+01  7.01829E+00
   8.12078E+00  7.70823E+00  8.63541E+00  4.21169E+00  1.01438E+01  1.08098E+01  6.55340E+00  6.84803E+00  4.53309E+00  4.33100E+00
   5.76599E+00  4.59085E+00  7.00562E+00  2.11775E+00  2.43539E+00  2.33081E+00  3.55632E+00  4.42481E+00  3.29128E+00  2.91028E+00
   5.16200E+00  1.19178E+00  8.75587E+00  3.51670E+00  3.44638E+00  1.49545E+00  2.96519E+00  2.25217E+00  2.90272E+00  3.27235E+00
   3.61748E+00  6.36999E+00  5.96332E+00  7.00400E+00  6.05617E+00  2.33313E-01  3.42773E+00  7.45129E+00  3.76429E+00  5.30531E+00
   5.91787E+00  3.73784E+00 -2.85544E+00  2.13733E+00  5.78557E+00  5.05792E+00 -2.65102E-01  2.11794E+00  5.60576E+00  3.99147E+00
   4.63896E+00  2.70680E+00  6.26506E+00  4.49919E+00  2.22374E+00  3.09453E+00  4.72010E+00  1.22609E+00  4.97506E+00  4.04995E+00
   6.93819E+00  2.93527E+00  7.22297E+00  5.32177E+00  4.68247E+00  1.90915E+00  7.72685E+00  6.61549E+00  6.29169E+00  7.03315E+00
   5.13337E+00 -4.77561E-01  2.73220E+00  2.92830E+00  3.62136E+00  5.62753E+00  5.88560E+00  8.16049E+00
 NY points of the fit to the data follow
  -3.00866E+01 -2.97842E+01 -2.93461E+01 -2.77407E+01 -2.57318E+01 -2.41498E+01 -2.22815E+01 -2.06134E+01 -1.96014E+01 -1.87875E+01
  -1.82048E+01 -1.85432E+01 -1.95092E+01 -2.02985E+01 -2.13082E+01 -2.27114E+01 -2.37264E+01 -2.45457E+01 -2.51402E+01 -2.58323E+01
  -2.64299E+01 -2.63342E+01 -2.63245E+01 -2.57583E+01 -2.43288E+01 -2.29459E+01 -2.16015E+01 -1.99650E+01 -1.86006E+01 -1.76366E+01
  -1.66865E+01 -1.60040E+01 -1.63968E+01 -1.70329E+01 -1.74303E+01 -1.85474E+01 -1.97663E+01 -2.00493E+01 -2.01052E+01 -2.00322E+01
  -1.93060E+01 -1.78075E+01 -1.65562E+01 -1.53088E+01 -1.39489E+01 -1.33101E+01 -1.30055E+01 -1.27561E+01 -1.32972E+01 -1.44482E+01
  -1.54353E+01 -1.61976E+01 -1.70140E+01 -1.77020E+01 -1.78378E+01 -1.74893E+01 -1.72653E+01 -1.74224E+01 -1.74590E+01 -1.72355E+01
  -1.70362E+01 -1.71178E+01 -1.71473E+01 -1.71833E+01 -1.72303E+01 -1.71271E+01 -1.68460E+01 -1.64851E+01 -1.60172E+01 -1.55712E+01
  -1.50948E+01 -1.47919E+01 -1.44651E+01 -1.42363E+01 -1.42365E+01 -1.41786E+01 -1.38869E+01 -1.36277E+01 -1.36922E+01 -1.30851E+01
  -1.20419E+01 -1.17223E+01 -1.15370E+01 -1.10359E+01 -1.10615E+01 -1.12795E+01 -1.13241E+01 -1.16991E+01 -1.27467E+01 -1.32986E+01
  -1.35296E+01 -1.42620E+01 -1.47138E+01 -1.38191E+01 -1.13826E+01 -1.01595E+01 -6.77944E+00 -2.52723E-01  4.89252E+00  9.03676E+00
   1.42405E+01  1.70190E+01  1.81869E+01  1.94258E+01  1.89701E+01  1.48218E+01  1.07115E+01  7.75553E+00  3.17348E+00 -1.84797E+00
  -4.87147E+00 -7.09031E+00 -8.63081E+00 -1.14069E+01 -1.30451E+01 -1.33329E+01 -1.32535E+01 -1.26692E+01 -1.09531E+01 -9.83443E+00
  -7.57555E+00 -3.28147E+00  2.88046E-01  2.95369E+00  6.37722E+00  8.61220E+00  9.52209E+00  1.05174E+01  1.06869E+01  8.27546E+00
   5.53243E+00  3.61127E+00  5.97064E-01 -2.80027E+00 -4.91193E+00 -6.46442E+00 -7.55074E+00 -9.17393E+00 -1.02010E+01 -1.02920E+01
  -1.01549E+01 -9.90242E+00 -9.68480E+00 -9.53083E+00 -9.55796E+00 -9.59224E+00 -9.59301E+00 -9.67140E+00 -9.78283E+00 -9.86121E+00
  -9.96489E+00 -1.00381E+01 -1.01903E+01 -1.02553E+01 -1.02671E+01 -1.03745E+01 -1.04419E+01 -1.04496E+01 -1.04830E+01 -1.04294E+01
  -1.03493E+01 -1.03637E+01 -1.03769E+01 -1.03404E+01 -1.03261E+01 -1.03517E+01 -1.04114E+01 -1.05542E+01 -1.07608E+01 -1.08750E+01
  -1.11395E+01 -1.14219E+01 -1.15001E+01 -1.15450E+01 -1.15978E+01 -1.16643E+01 -1.17540E+01 -1.17018E+01 -1.16121E+01 -1.14871E+01
  -1.13472E+01 -1.12801E+01 -1.10680E+01 -1.06149E+01 -1.00861E+01 -9.52322E+00 -8.78126E+00 -8.00060E+00 -7.39592E+00 -6.92256E+00
  -6.48544E+00 -6.27602E+00 -6.17213E+00 -6.10819E+00 -6.09646E+00 -6.01027E+00 -5.69717E+00 -5.28450E+00 -4.70149E+00 -4.04169E+00
  -3.47517E+00 -3.19108E+00 -2.91840E+00 -3.03776E+00 -3.60836E+00 -4.06559E+00 -4.45068E+00 -5.11244E+00 -5.49265E+00 -5.38600E+00
  -5.17887E+00 -4.87144E+00 -4.17070E+00 -3.48461E+00 -3.14984E+00 -2.73729E+00 -2.41451E+00 -2.50146E+00 -2.67496E+00 -2.76724E+00
  -2.62837E+00 -2.53881E+00 -2.55888E+00 -2.35555E+00 -1.84540E+00 -1.37464E+00 -1.21058E+00 -9.68055E-01 -4.51750E-01 -1.51315E-01
  -5.27301E-02  2.73095E-01  7.36552E-01  1.02485E+00  1.33505E+00  1.68691E+00  1.73303E+00  1.68813E+00  1.82962E+00  1.80059E+00
   1.48910E+00  1.48592E+00  1.69524E+00  1.65516E+00  1.68811E+00  2.11058E+00  2.66264E+00  3.11237E+00  3.63820E+00  4.33542E+00
   5.24663E+00  7.32515E+00  1.04597E+01  1.26123E+01  1.81075E+01  2.54687E+01  3.04319E+01  3.49013E+01  3.99212E+01  4.18178E+01
   4.25070E+01  4.29981E+01  4.08109E+01  3.51140E+01  3.04635E+01  2.63156E+01  2.02671E+01  1.47526E+01  1.14545E+01  8.85504E+00
   6.61061E+00  3.32270E+00  1.84024E+00  1.41137E+00  1.18959E+00  1.03137E+00  9.11433E-01  7.98741E-01  7.00780E-01  6.08382E-01
   5.23169E-01  4.51856E-01  4.01603E-01  3.66381E-01  3.37270E-01  3.23613E-01  3.31917E-01  3.58726E-01  3.99863E-01  4.56836E-01
   5.32035E-01  6.26883E-01  7.35041E-01  8.58833E-01  9.98936E-01  1.15274E+00  1.31833E+00  1.49484E+00  1.67883E+00  1.86698E+00
   2.05481E+00  2.23889E+00  2.41477E+00  2.57835E+00  2.72519E+00  2.85190E+00  2.95548E+00  3.03429E+00  3.08655E+00  3.11249E+00
   3.11304E+00  3.09046E+00  3.04762E+00  2.98875E+00  2.91868E+00  2.84428E+00  2.77372E+00  2.72243E+00  2.70621E+00  2.65557E+00
   2.63155E+00  2.67131E+00  2.60891E+00  2.45819E+00  2.31807E+00  2.10245E+00  1.86781E+00  1.67799E+00  1.43335E+00  1.25525E+00
   1.23504E+00  1.30124E+00  1.40898E+00  1.59952E+00  1.84344E+00  2.13044E+00  2.45625E+00  2.69146E+00  2.83844E+00  3.05331E+00
   3.24520E+00  3.33664E+00  3.40484E+00  3.50214E+00  3.62372E+00  3.74190E+00  3.81748E+00  3.93575E+00  4.08526E+00  4.25228E+00
   4.43086E+00  4.61776E+00  4.81007E+00  5.00556E+00  5.20157E+00  5.39583E+00  5.58552E+00  5.76822E+00  5.94103E+00  6.10154E+00
   6.24703E+00  6.37543E+00  6.48455E+00  6.57307E+00  6.63973E+00  6.68429E+00  6.70672E+00  6.70804E+00  6.68956E+00  6.65356E+00
   6.60253E+00  6.53981E+00  6.46875E+00  6.39331E+00  6.31722E+00  6.24459E+00  6.17908E+00  6.12447E+00  6.08393E+00  6.06059E+00
   6.05683E+00  6.07491E+00  6.11628E+00  6.18223E+00  6.27319E+00  6.38937E+00  6.53013E+00  6.69459E+00  6.88097E+00  7.08718E+00
   7.31022E+00  7.54683E+00  7.79282E+00  8.04381E+00  8.29462E+00  8.54006E+00  8.77439E+00  8.99215E+00  9.18768E+00  9.35599E+00
   9.49231E+00  9.59287E+00  9.65454E+00  9.67548E+00  9.65468E+00  9.59258E+00  9.49045E+00  9.35090E+00  9.17723E+00  8.97377E+00
   8.74515E+00  8.49667E+00  8.23350E+00  7.96102E+00  7.68413E+00  7.40760E+00  7.13543E+00  6.87128E+00  6.61793E+00  6.37775E+00
   6.15223E+00  5.94256E+00  5.74912E+00  5.57212E+00  5.41113E+00  5.26570E+00  5.13491E+00  5.01795E+00  4.91366E+00  4.82110E+00
   4.73909E+00  4.66671E+00  4.60287E+00  4.54677E+00  4.49747E+00  4.45429E+00  4.41646E+00  4.38347E+00  4.35468E+00  4.32970E+00
   4.30804E+00  4.28940E+00  4.27338E+00  4.25979E+00  4.24829E+00  4.23877E+00  4.23094E+00  4.22474E+00  4.21992E+00  4.21647E+00
   4.21417E+00  4.21304E+00  4.21288E+00  4.21372E+00  4.21540E+00  4.21793E+00  4.22117E+00  4.22515E+00  4.22973E+00  4.23496E+00
   4.24071E+00  4.24702E+00  4.25379E+00  4.26106E+00  4.26872E+00  4.27684E+00  4.28531E+00  4.29417E+00  4.30336E+00  4.31290E+00
   4.32273E+00  4.33289E+00  4.34331E+00  4.35403E+00  4.36499E+00  4.37624E+00  4.38770E+00  4.39943E+00  4.41137E+00  4.42356E+00
   4.43594E+00  4.44856E+00  4.46137E+00  4.47442E+00  4.48765E+00  4.50111E+00  4.51476E+00  4.52864E+00  4.54271E+00  4.55702E+00
   4.57152E+00  4.58628E+00  4.60125E+00  4.61649E+00  4.63197E+00  4.64776E+00  4.66383E+00  4.68024E+00
 NY background values follow
    -3.636E+01   -3.613E+01   -3.591E+01   -3.569E+01   -3.547E+01   -3.525E+01   -3.502E+01   -3.480E+01   -3.458E+01   -3.436E+01
    -3.414E+01   -3.392E+01   -3.369E+01   -3.347E+01   -3.325E+01   -3.303E+01   -3.281E+01   -3.259E+01   -3.237E+01   -3.215E+01
    -3.194E+01   -3.172E+01   -3.150E+01   -3.128E+01   -3.107E+01   -3.085E+01   -3.064E+01   -3.042E+01   -3.021E+01   -2.999E+01
    -2.978E+01   -2.957E+01   -2.936E+01   -2.915E+01   -2.894E+01   -2.873E+01   -2.852E+01   -2.831E+01   -2.811E+01   -2.790E+01
    -2.770E+01   -2.749E+01   -2.729E+01   -2.709E+01   -2.689E+01   -2.669E+01   -2.649E+01   -2.630E+01   -2.610E+01   -2.591E+01
    -2.571E+01   -2.552E+01   -2.533E+01   -2.514E+01   -2.495E+01   -2.476E+01   -2.457E+01   -2.439E+01   -2.420E+01   -2.402E+01
    -2.384E+01   -2.365E+01   -2.347E+01   -2.329E+01   -2.312E+01   -2.294E+01   -2.276E+01   -2.259E+01   -2.241E+01   -2.224E+01
    -2.207E+01   -2.190E+01   -2.173E+01   -2.156E+01   -2.139E+01   -2.123E+01   -2.106E+01   -2.090E+01   -2.074E+01   -2.057E+01
    -2.041E+01   -2.025E+01   -2.009E+01   -1.994E+01   -1.978E+01   -1.963E+01   -1.947E+01   -1.932E+01   -1.917E+01   -1.902E+01
    -1.887E+01   -1.872E+01   -1.857E+01   -1.842E+01   -1.828E+01   -1.813E+01   -1.799E+01   -1.785E+01   -1.770E+01   -1.756E+01
    -1.742E+01   -1.728E+01   -1.715E+01   -1.701E+01   -1.687E+01   -1.674E+01   -1.661E+01   -1.647E+01   -1.634E+01   -1.621E+01
    -1.608E+01   -1.595E+01   -1.582E+01   -1.569E+01   -1.556E+01   -1.544E+01   -1.531E+01   -1.519E+01   -1.506E+01   -1.494E+01
    -1.482E+01   -1.469E+01   -1.457E+01   -1.445E+01   -1.433E+01   -1.421E+01   -1.409E+01   -1.398E+01   -1.386E+01   -1.374E+01
    -1.363E+01   -1.351E+01   -1.339E+01   -1.328E+01   -1.317E+01   -1.305E+01   -1.294E+01   -1.283E+01   -1.272E+01   -1.261E+01
    -1.249E+01   -1.238E+01   -1.227E+01   -1.216E+01   -1.206E+01   -1.195E+01   -1.184E+01   -1.173E+01   -1.162E+01   -1.152E+01
    -1.141E+01   -1.130E+01   -1.120E+01   -1.109E+01   -1.099E+01   -1.088E+01   -1.078E+01   -1.068E+01   -1.057E+01   -1.047E+01
    -1.037E+01   -1.026E+01   -1.016E+01   -1.006E+01   -9.958E+00   -9.856E+00   -9.755E+00   -9.654E+00   -9.553E+00   -9.453E+00
    -9.352E+00   -9.252E+00   -9.152E+00   -9.052E+00   -8.953E+00   -8.853E+00   -8.754E+00   -8.655E+00   -8.556E+00   -8.457E+00
    -8.358E+00   -8.260E+00   -8.161E+00   -8.063E+00   -7.965E+00   -7.867E+00   -7.769E+00   -7.671E+00   -7.574E+00   -7.477E+00
    -7.380E+00   -7.284E+00   -7.187E+00   -7.092E+00   -6.996E+00   -6.901E+00   -6.806E+00   -6.712E+00   -6.618E+00   -6.525E+00
    -6.432E+00   -6.340E+00   -6.248E+00   -6.157E+00   -6.066E+00   -5.976E+00   -5.887E+00   -5.798E+00   -5.710E+00   -5.623E+00
    -5.536E+00   -5.450E+00   -5.365E+00   -5.281E+00   -5.197E+00   -5.114E+00   -5.032E+00   -4.951E+00   -4.871E+00   -4.792E+00
    -4.713E+00   -4.636E+00   -4.560E+00   -4.484E+00   -4.410E+00   -4.336E+00   -4.264E+00   -4.192E+00   -4.122E+00   -4.053E+00
    -3.984E+00   -3.917E+00   -3.851E+00   -3.785E+00   -3.721E+00   -3.657E+00   -3.595E+00   -3.533E+00   -3.472E+00   -3.412E+00
    -3.352E+00   -3.294E+00   -3.236E+00   -3.179E+00   -3.122E+00   -3.066E+00   -3.011E+00   -2.957E+00   -2.903E+00   -2.850E+00
    -2.797E+00   -2.745E+00   -2.694E+00   -2.643E+00   -2.592E+00   -2.542E+00   -2.493E+00   -2.444E+00   -2.395E+00   -2.347E+00
    -2.299E+00   -2.251E+00   -2.204E+00   -2.157E+00   -2.110E+00   -2.064E+00   -2.018E+00   -1.972E+00   -1.926E+00   -1.880E+00
    -1.835E+00   -1.790E+00   -1.745E+00   -1.700E+00   -1.655E+00   -1.610E+00   -1.565E+00   -1.521E+00   -1.476E+00   -1.432E+00
    -1.387E+00   -1.343E+00   -1.299E+00   -1.255E+00   -1.210E+00   -1.166E+00   -1.122E+00   -1.078E+00   -1.034E+00   -9.903E-01
    -9.464E-01   -9.024E-01   -8.585E-01   -8.145E-01   -7.706E-01   -7.267E-01   -6.827E-01   -6.387E-01   -5.947E-01   -5.506E-01
    -5.066E-01   -4.624E-01   -4.182E-01   -3.740E-01   -3.297E-01   -2.853E-01   -2.409E-01   -1.964E-01   -1.518E-01   -1.071E-01
    -6.228E-02   -1.739E-02    2.761E-02    7.272E-02    1.179E-01    1.633E-01    2.088E-01    2.544E-01    3.001E-01    3.460E-01
     3.919E-01    4.380E-01    4.841E-01    5.303E-01    5.765E-01    6.228E-01    6.691E-01    7.154E-01    7.617E-01    8.081E-01
     8.543E-01    9.006E-01    9.468E-01    9.929E-01    1.039E+00    1.085E+00    1.131E+00    1.177E+00    1.222E+00    1.268E+00
     1.313E+00    1.358E+00    1.403E+00    1.448E+00    1.493E+00    1.537E+00    1.582E+00    1.626E+00    1.669E+00    1.713E+00
     1.756E+00    1.799E+00    1.841E+00    1.884E+00    1.926E+00    1.967E+00    2.009E+00    2.050E+00    2.090E+00    2.130E+00
     2.170E+00    2.209E+00    2.248E+00    2.287E+00    2.325E+00    2.363E+00    2.400E+00    2.437E+00    2.473E+00    2.509E+00
     2.545E+00    2.580E+00    2.614E+00    2.649E+00    2.682E+00    2.716E+00    2.749E+00    2.781E+00    2.814E+00    2.845E+00
     2.877E+00    2.907E+00    2.938E+00    2.968E+00    2.998E+00    3.027E+00    3.056E+00    3.084E+00    3.112E+00    3.139E+00
     3.167E+00    3.193E+00    3.220E+00    3.245E+00    3.271E+00    3.296E+00    3.320E+00    3.345E+00    3.368E+00    3.392E+00
     3.415E+00    3.437E+00    3.460E+00    3.481E+00    3.503E+00    3.524E+00    3.544E+00    3.564E+00    3.584E+00    3.603E+00
     3.622E+00    3.641E+00    3.659E+00    3.677E+00    3.694E+00    3.711E+00    3.728E+00    3.745E+00    3.761E+00    3.777E+00
     3.792E+00    3.808E+00    3.823E+00    3.838E+00    3.853E+00    3.867E+00    3.881E+00    3.895E+00    3.909E+00    3.923E+00
     3.936E+00    3.950E+00    3.963E+00    3.976E+00    3.989E+00    4.002E+00    4.014E+00    4.027E+00    4.039E+00    4.052E+00
     4.064E+00    4.077E+00    4.089E+00    4.101E+00    4.114E+00    4.126E+00    4.138E+00    4.150E+00    4.163E+00    4.175E+00
     4.187E+00    4.200E+00    4.212E+00    4.225E+00    4.237E+00    4.250E+00    4.263E+00    4.276E+00    4.289E+00    4.302E+00
     4.315E+00    4.328E+00    4.341E+00    4.354E+00    4.368E+00    4.381E+00    4.395E+00    4.408E+00    4.422E+00    4.435E+00
     4.449E+00    4.463E+00    4.477E+00    4.491E+00    4.505E+00    4.519E+00    4.533E+00    4.547E+00    4.561E+00    4.575E+00
     4.589E+00    4.604E+00    4.618E+00    4.632E+00    4.647E+00    4.661E+00    4.676E+00    4.691E+00    4.705E+00    4.720E+00
     4.735E+00    4.749E+00    4.764E+00    4.779E+00    4.794E+00    4.809E+00    4.824E+00    4.839E+00
 Ala      Conc. = 1.11E+02
