 LCModel (Version 6.3-1L) Copyright: S.W. Provencher.          Ref.: Magn. Reson. Med. 30:672-679 (1993).                
 Slice#2 Row#14 Col#12  PD_05_press_1_raw_act
 36 lines in following concentration table = NCONC+1
    Conc.  %SD /Cr+PCr  Metabolite                                         
   83.807  29%   0.000 Ala                                                 
    0.103 550%   0.000 Asp                                                 
    0.000 999%   0.000 Cr                                                  
    0.000 999%   0.000 PCr                                                 
 6.16E-02 551%   0.000 GABA                                                
 6.18E-02 550%   0.000 Glc                                                 
   26.312 170%   0.000 Gln                                                 
   51.320  97%   0.000 Glu                                                 
    0.000 999%   0.000 GPC                                                 
    0.686 541%   0.000 PCh                                                 
    0.000 999%   0.000 GSH                                                 
  101.828  44%   0.000 Ins                                                 
   26.939  94%   0.000 Lac                                                 
    0.000 999%   0.000 NAA                                                 
    0.000 999%   0.000 NAAG                                                
 2.07E-02 548%   0.000 Scyllo                                              
    0.103 551%   0.000 Tau                                                 
    0.000 999%   0.000 -CrCH2                                              
    0.686 541%   0.000 GPC+PCh                                             
    0.000 999%   0.000 NAA+NAAG                                            
    0.000 999%   0.000 Cr+PCr                                              
   77.632  88%   0.000 Glu+Gln                                             
  821.483  13%   0.000 Lip13a                                              
    0.000 999%   0.000 Lip13b                                              
  173.147  25%   0.000 Lip09                                               
   56.925  51%   0.000 MM09                                                
   46.968  71%   0.000 Lip20                                               
    0.000 999%   0.000 MM20                                                
   19.171  84%   0.000 MM12                                                
  287.613  17%   0.000+MM14                                                
  118.380  29%   0.000 MM17                                                
  821.483  13%   0.000 Lip13a+Lip13b                                       
 1.13E+03   8%   0.000 MM14+Lip13a+Lip13b+MM12                             
  230.072  16%   0.000 MM09+Lip09                                          
   46.968  71%   0.000 MM20+Lip20                                          
   6 lines in following misc. output table
  FWHM = 0.061 ppm    S/N =   2                                            
  Data shift = 0.015 ppm                                                   
  Ph: 109 deg     -28.1 deg/ppm                                            
  alphaB,S = 8.5E+01,   5.1E+01                                            
   14 spline knots.   Ns = 5(1)                                            
   2 inflections.     1 extrema                                            
  498 points on ppm-axis = NY
      4.000000     3.992357     3.984714     3.977070     3.969427     3.961784     3.954141     3.946497     3.938854     3.931211
      3.923568     3.915925     3.908281     3.900638     3.892995     3.885352     3.877708     3.870065     3.862422     3.854779
      3.847136     3.839492     3.831849     3.824206     3.816563     3.808919     3.801276     3.793633     3.785990     3.778347
      3.770703     3.763060     3.755417     3.747774     3.740130     3.732487     3.724844     3.717201     3.709558     3.701914
      3.694271     3.686628     3.678985     3.671341     3.663698     3.656055     3.648412     3.640769     3.633125     3.625482
      3.617839     3.610196     3.602552     3.594909     3.587266     3.579623     3.571980     3.564336     3.556693     3.549050
      3.541407     3.533763     3.526120     3.518477     3.510834     3.503191     3.495547     3.487904     3.480261     3.472618
      3.464974     3.457331     3.449688     3.442045     3.434402     3.426758     3.419115     3.411472     3.403829     3.396185
      3.388542     3.380899     3.373256     3.365613     3.357969     3.350326     3.342683     3.335040     3.327396     3.319753
      3.312110     3.304467     3.296824     3.289180     3.281537     3.273894     3.266251     3.258607     3.250964     3.243321
      3.235678     3.228034     3.220391     3.212748     3.205105     3.197462     3.189818     3.182175     3.174532     3.166889
      3.159245     3.151602     3.143959     3.136316     3.128673     3.121029     3.113386     3.105743     3.098100     3.090456
      3.082813     3.075170     3.067527     3.059884     3.052240     3.044597     3.036954     3.029311     3.021667     3.014024
      3.006381     2.998738     2.991095     2.983451     2.975808     2.968165     2.960522     2.952878     2.945235     2.937592
      2.929949     2.922306     2.914662     2.907019     2.899376     2.891733     2.884089     2.876446     2.868803     2.861160
      2.853517     2.845873     2.838230     2.830587     2.822944     2.815300     2.807657     2.800014     2.792371     2.784728
      2.777084     2.769441     2.761798     2.754155     2.746511     2.738868     2.731225     2.723582     2.715939     2.708295
      2.700652     2.693009     2.685366     2.677722     2.670079     2.662436     2.654793     2.647150     2.639506     2.631863
      2.624220     2.616577     2.608933     2.601290     2.593647     2.586004     2.578361     2.570717     2.563074     2.555431
      2.547788     2.540144     2.532501     2.524858     2.517215     2.509572     2.501928     2.494285     2.486642     2.478999
      2.471355     2.463712     2.456069     2.448426     2.440783     2.433139     2.425496     2.417853     2.410210     2.402566
      2.394923     2.387280     2.379637     2.371994     2.364350     2.356707     2.349064     2.341421     2.333777     2.326134
      2.318491     2.310848     2.303205     2.295561     2.287918     2.280275     2.272632     2.264988     2.257345     2.249702
      2.242059     2.234416     2.226772     2.219129     2.211486     2.203843     2.196199     2.188556     2.180913     2.173270
      2.165627     2.157983     2.150340     2.142697     2.135054     2.127410     2.119767     2.112124     2.104481     2.096838
      2.089194     2.081551     2.073908     2.066265     2.058621     2.050978     2.043335     2.035692     2.028049     2.020405
      2.012762     2.005119     1.997476     1.989833     1.982190     1.974546     1.966903     1.959260     1.951617     1.943974
      1.936331     1.928688     1.921045     1.913402     1.905759     1.898115     1.890472     1.882829     1.875186     1.867543
      1.859900     1.852257     1.844614     1.836971     1.829327     1.821684     1.814041     1.806398     1.798755     1.791112
      1.783469     1.775826     1.768183     1.760540     1.752896     1.745253     1.737610     1.729967     1.722324     1.714681
      1.707038     1.699395     1.691752     1.684108     1.676465     1.668822     1.661179     1.653536     1.645893     1.638250
      1.630607     1.622964     1.615321     1.607677     1.600034     1.592391     1.584748     1.577105     1.569462     1.561819
      1.554176     1.546533     1.538890     1.531246     1.523603     1.515960     1.508317     1.500674     1.493031     1.485388
      1.477745     1.470102     1.462458     1.454815     1.447172     1.439529     1.431886     1.424243     1.416600     1.408957
      1.401314     1.393671     1.386027     1.378384     1.370741     1.363098     1.355455     1.347812     1.340169     1.332526
      1.324883     1.317240     1.309596     1.301953     1.294310     1.286667     1.279024     1.271381     1.263738     1.256095
      1.248452     1.240808     1.233165     1.225522     1.217879     1.210236     1.202593     1.194950     1.187307     1.179664
      1.172021     1.164377     1.156734     1.149091     1.141448     1.133805     1.126162     1.118519     1.110876     1.103233
      1.095590     1.087946     1.080303     1.072660     1.065017     1.057374     1.049731     1.042088     1.034445     1.026802
      1.019158     1.011515     1.003872     0.996229     0.988586     0.980943     0.973300     0.965657     0.958014     0.950371
      0.942727     0.935084     0.927441     0.919798     0.912155     0.904512     0.896869     0.889226     0.881583     0.873940
      0.866296     0.858653     0.851010     0.843367     0.835724     0.828081     0.820438     0.812795     0.805152     0.797508
      0.789865     0.782222     0.774579     0.766936     0.759293     0.751650     0.744007     0.736364     0.728721     0.721077
      0.713434     0.705791     0.698148     0.690505     0.682862     0.675219     0.667576     0.659933     0.652290     0.644646
      0.637003     0.629360     0.621717     0.614074     0.606431     0.598788     0.591145     0.583502     0.575858     0.568215
      0.560572     0.552929     0.545286     0.537643     0.530000     0.522357     0.514714     0.507071     0.499427     0.491784
      0.484141     0.476498     0.468855     0.461212     0.453569     0.445925     0.438282     0.430639     0.422996     0.415353
      0.407710     0.400067     0.392424     0.384780     0.377137     0.369494     0.361851     0.354208     0.346565     0.338922
      0.331278     0.323635     0.315992     0.308349     0.300706     0.293063     0.285420     0.277777     0.270133     0.262490
      0.254847     0.247204     0.239561     0.231918     0.224275     0.216631     0.208988     0.201345
 NY phased data points follow
   1.13999E-01 -3.46722E-01 -1.57900E-01 -3.04871E-01  6.39558E-01 -1.59224E-01 -3.05800E-01  2.41264E-01 -3.22747E-01  7.01807E-01
  -8.01483E-01 -2.82363E-01  4.23212E-01 -9.08630E-01  1.20870E+00 -2.63287E-01  2.91492E-01 -8.43218E-01 -1.27360E-01  7.29103E-02
   1.53032E-01  4.73708E-02  1.11888E+00  1.13303E+00  1.59637E+00 -2.62342E-01  2.48418E-01 -3.76602E-01 -4.51938E-01  1.09029E+00
  -1.25071E+00 -5.52375E-01 -1.01230E-01 -6.56048E-01 -5.40219E-01  4.69298E-01  1.76327E-01  4.22415E-01  7.51111E-01  2.26242E-01
  -8.90877E-02 -6.27369E-01  5.72824E-01 -6.49734E-02  1.40004E+00  1.79913E+00 -1.72083E-01 -7.02554E-01  5.82187E-01  4.67307E-01
   7.81981E-01 -1.49520E+00 -8.57800E-02  1.16120E-01 -8.43367E-01  3.81741E-02  4.44393E-01  9.07649E-01  7.18931E-01 -2.61592E-01
   7.06516E-01  6.45402E-02  3.08350E-01  1.68596E-01 -3.96208E-02  2.89602E-01  2.03959E-01  9.78366E-01 -3.14278E-01 -1.20786E+00
   2.71604E-01  5.97130E-01  7.42584E-02 -1.45809E+00 -6.48312E-01  1.19414E+00  7.32373E-01 -6.83391E-01 -8.28716E-01  7.02232E-01
  -4.93972E-02  1.16318E+00 -1.20979E-01 -1.62260E-02 -6.11448E-02  4.59504E-01 -2.85223E-01 -5.48066E-01  5.68885E-01  3.34279E-01
   2.26752E-01 -7.34734E-01  7.69505E-03  9.52623E-02  4.64489E-02 -8.19014E-01 -3.69792E-01 -7.39793E-01 -9.07024E-01 -8.82076E-01
  -8.00695E-01 -5.56324E-01 -1.37266E+00  4.57833E-01  3.76413E-01  1.21662E-01  5.90396E-01 -1.82729E-01  1.45607E-01 -4.01340E-01
   1.66493E-01 -7.19199E-01  7.04132E-01  1.82656E-01 -4.96158E-01  1.38255E-01  5.05232E-01  1.13547E+00  5.60434E-01  4.63369E-01
   5.48551E-02 -1.79171E-01  9.30269E-01 -5.64844E-01 -3.61257E-01 -6.29527E-01 -2.00746E-01 -1.51975E-01 -9.24818E-01 -5.56395E-01
   8.25971E-01 -6.70482E-01 -7.51815E-01 -7.50208E-01 -8.63371E-02  2.65593E-01  3.37985E-01 -3.90024E-01  2.64513E-02  3.67366E-01
  -9.54117E-01 -1.14430E+00 -3.04122E-01  9.94493E-01  3.96471E-01 -8.97825E-02  1.49086E-01  7.24917E-01 -6.17536E-01  4.05791E-01
  -1.35943E+00 -1.27569E-01 -6.56229E-01  1.18850E-01  2.65393E-03  8.40373E-01  2.45411E-01 -1.65285E+00 -1.19742E+00  1.48767E-01
  -9.57458E-01  1.11548E+00  1.11015E-01 -6.99739E-01  6.87481E-01 -1.59299E-02  2.89467E-01  2.47382E-01 -8.96993E-01 -1.48283E+00
   2.90528E-01 -1.72116E+00  4.53538E-01  8.49750E-01  2.00210E-01  4.14453E-01 -3.10371E-01  5.05653E-01  2.56851E-01  5.66131E-01
  -5.80492E-01  4.98144E-01 -5.08468E-01  1.95482E+00  1.19565E-01 -1.49308E+00 -6.50016E-02 -8.31718E-02  3.36997E-01 -2.24507E-01
   1.19790E+00  1.41095E-01  6.34133E-01  5.34081E-01 -6.01840E-01 -2.05877E-01  2.97677E-01  3.35678E-01  3.53549E-01 -8.92174E-02
  -1.78674E-01 -7.70921E-01  3.28515E-01 -3.74510E-01 -2.64002E-02  5.20557E-01 -8.64117E-01  3.05737E-01 -8.62472E-01 -2.98346E-01
   4.79170E-01  5.28198E-02  3.22611E-01  6.66814E-01  9.27231E-01 -8.05348E-02  1.05307E+00  3.12157E-01  1.41512E+00 -7.17776E-01
  -4.23679E-01 -4.09609E-01  1.72482E+00 -4.63518E-01 -5.08335E-01  7.59702E-02  2.63826E-01 -2.79643E-01 -1.23168E+00  8.89922E-01
  -2.34306E-01  5.07314E-01  9.61148E-01  6.44937E-01  1.25233E+00  9.80198E-01  3.94673E-01  5.71769E-03  1.01525E+00 -3.49745E-01
  -8.60616E-02  1.29464E+00  5.87897E-01 -2.70286E-01 -2.19510E-01 -3.94924E-01  2.28365E-01 -6.87985E-01  7.41773E-01 -3.96208E-01
   9.76021E-01 -7.70566E-01  6.47664E-01  2.06015E+00 -6.24689E-01  9.46930E-01 -4.86292E-01 -5.60914E-01 -3.03647E-01  5.71106E-02
  -1.75181E-01 -1.01927E-01 -2.28261E-01  5.18153E-01  4.23366E-01 -6.26167E-01  8.27157E-01 -2.78221E-01 -8.61311E-01 -1.90484E-01
   7.50674E-01  1.00918E+00 -1.10568E+00  2.55046E-01  7.81513E-01  5.97908E-01  7.20911E-01  2.55127E-01 -1.08333E+00  4.96772E-02
   6.51075E-01  4.53161E-01  1.12559E+00 -3.21074E-03 -3.22876E-01 -1.05255E-01  8.82686E-02 -8.21477E-01  1.39840E-01  7.65013E-01
   1.05363E+00  8.42740E-01 -1.58795E-01 -8.67923E-02  8.60054E-03  1.65613E+00  1.86509E+00  1.56801E+00  2.59396E+00  1.31588E+00
   2.32964E+00  8.60314E-01  2.15403E+00  1.80275E+00  2.09407E+00  9.79958E-01  2.52571E+00  1.90013E+00  1.90166E+00  1.52113E+00
   7.15024E-01  2.07382E+00  1.89992E+00  2.46958E+00  2.71287E+00  2.56364E+00  3.48553E+00  2.88921E+00  3.77162E+00  3.60044E+00
   3.57141E+00  3.90419E+00  4.36980E+00  3.86461E+00  3.14147E+00  3.64201E+00  3.94366E+00  3.30238E+00  4.16479E+00  2.91597E+00
   3.01142E+00  3.53998E+00  2.29187E+00  2.27286E+00  3.05430E+00  4.15653E+00  4.09873E+00  4.27488E+00  3.96806E+00  3.22461E+00
   4.75890E+00  4.34971E+00  3.59157E+00  2.91914E+00  3.72939E+00  4.86387E+00  3.23806E+00  4.09875E+00  3.23957E+00  4.23540E+00
   4.08001E+00  3.73263E+00  3.86527E+00  3.04512E+00  2.61548E+00  2.73120E+00  2.26103E+00  3.28803E+00  1.92352E+00  4.22678E+00
   5.01244E+00  2.34347E+00  3.97845E+00  4.65011E+00  4.23146E+00  3.05440E+00  2.42027E+00  1.87611E+00  3.64731E+00  2.80570E+00
   3.28978E+00  1.54328E+00  1.44911E+00  2.23634E+00  1.34043E+00  1.75205E+00  7.11034E-01  1.88373E+00  2.36008E+00  1.93202E+00
   8.61158E-01  9.89416E-01  1.19348E+00  1.98132E+00  9.26963E-01  5.52107E-01  2.06314E+00  3.13302E+00  2.20314E+00  3.55277E+00
   8.70677E-01  1.14787E+00  2.06046E+00  2.14002E+00  2.41857E+00  1.08021E+00  2.06223E+00  7.13515E-01  1.74369E+00  2.82955E+00
   1.44700E+00  2.97399E+00  6.93933E-01  1.50798E+00  1.54940E+00  7.80914E-01  2.17053E+00  1.99282E+00  3.49277E-01  6.77621E-01
   1.20354E+00  1.41333E+00  3.30076E+00  2.25920E+00  2.92807E-01  3.89774E-01  1.51253E+00  1.32231E+00  1.53895E+00  5.68670E-02
   1.36448E+00  1.09730E+00  1.81866E+00 -1.67067E-01  8.83721E-01  1.50803E+00  8.83305E-01  1.26283E+00  2.67279E-01  8.56166E-01
   9.83583E-01  1.33238E+00  5.78867E-02  7.76623E-01  3.66951E-01 -9.21354E-02  6.18110E-01 -1.38430E-01  2.14228E-01  2.42325E-01
   9.88993E-01  1.33273E+00  1.07144E+00  1.02472E+00  7.25620E-01  4.54575E-01  8.64228E-01  1.49434E+00  2.40703E+00  5.04940E-01
   1.33507E+00  6.68113E-01  2.20307E+00  5.38467E-01  1.56892E+00  1.49895E+00 -1.15763E+00  4.70607E-01  1.81079E-01 -9.86642E-01
  -1.20476E-03  2.13916E+00  1.89019E+00  1.35005E-02  9.08979E-01  4.50877E-01  8.37849E-01  1.14651E+00 -1.36134E-02  2.26171E-01
   1.03281E+00  9.97258E-01  1.86350E+00 -2.93774E-02  9.27870E-01  7.70828E-01  2.30324E+00 -4.39902E-02 -7.06583E-02  5.76370E-01
   9.20614E-01 -2.61542E-02 -3.10417E-01  5.80480E-01 -1.33719E+00  3.00746E-01  3.47036E-01  7.67488E-01  6.98308E-02  2.75856E-01
   9.32481E-01 -2.35150E-01  6.77650E-01 -2.52487E-01  1.10418E+00  4.25511E-01 -2.78511E-02  5.95075E-01
 NY points of the fit to the data follow
  -9.97706E-02 -1.59231E-01 -1.96781E-01 -2.08324E-01 -2.08436E-01 -2.07180E-01 -2.06437E-01 -2.04824E-01 -2.02350E-01 -1.99540E-01
  -1.97079E-01 -1.95773E-01 -1.98138E-01 -2.09649E-01 -2.25004E-01 -2.34809E-01 -2.34359E-01 -2.21682E-01 -1.94630E-01 -1.47535E-01
  -7.31791E-02  5.32669E-03  5.61915E-02  6.21427E-02  1.95085E-02 -6.65869E-02 -1.76338E-01 -2.84906E-01 -3.60574E-01 -3.76386E-01
  -3.29658E-01 -2.23279E-01 -6.79530E-02  8.82782E-02  1.99432E-01  2.47594E-01  2.28885E-01  1.51831E-01  3.42669E-02 -8.94864E-02
  -1.75536E-01 -1.91137E-01 -1.17305E-01  3.96945E-02  2.32476E-01  4.01923E-01  5.12964E-01  5.59057E-01  5.41218E-01  4.65933E-01
   3.36952E-01  1.65238E-01 -2.42597E-02 -1.76649E-01 -2.24339E-01 -1.68258E-01 -6.49453E-02  3.85327E-02  1.20189E-01  1.71383E-01
   1.89218E-01  1.76104E-01  1.41598E-01  9.31555E-02  3.60611E-02 -1.78782E-02 -4.30670E-02 -2.80188E-02  1.75118E-02  7.41499E-02
   1.22323E-01  1.52962E-01  1.63098E-01  1.55564E-01  1.37366E-01  1.11817E-01  8.24622E-02  5.13908E-02  2.80246E-02  1.67760E-02
   9.68392E-03 -3.80301E-03 -3.42356E-02 -8.38906E-02 -1.46290E-01 -2.09966E-01 -2.64992E-01 -3.04841E-01 -3.23827E-01 -3.17168E-01
  -2.84059E-01 -2.23677E-01 -1.48419E-01 -8.22628E-02 -4.43942E-02 -3.85367E-02 -5.78887E-02 -9.25784E-02 -1.32674E-01 -1.68672E-01
  -1.93828E-01 -2.03596E-01 -1.97435E-01 -1.75327E-01 -1.48143E-01 -1.24950E-01 -1.08368E-01 -9.79426E-02 -9.33084E-02 -9.26630E-02
  -9.14687E-02 -8.76328E-02 -8.29584E-02 -7.86434E-02 -7.59497E-02 -7.49301E-02 -7.52527E-02 -7.62160E-02 -7.70773E-02 -7.71796E-02
  -7.61094E-02 -7.37107E-02 -7.02031E-02 -6.57703E-02 -6.08225E-02 -5.58988E-02 -5.12277E-02 -4.68369E-02 -4.26055E-02 -3.84644E-02
  -3.43921E-02 -3.03460E-02 -2.62784E-02 -2.21369E-02 -1.78589E-02 -1.34355E-02 -8.89857E-03 -4.26852E-03  4.47784E-04  5.25753E-03
   1.01485E-02  1.51004E-02  2.00865E-02  2.50712E-02  3.00089E-02  3.48744E-02  3.96584E-02  4.43353E-02  4.88654E-02  5.31944E-02
   5.72904E-02  6.11464E-02  6.47589E-02  6.81215E-02  7.12007E-02  7.39514E-02  7.63643E-02  7.84533E-02  8.02475E-02  8.17599E-02
   8.29924E-02  8.39479E-02  8.46525E-02  8.51399E-02  8.54467E-02  8.55919E-02  8.55576E-02  8.53625E-02  8.50684E-02  8.47313E-02
   8.44150E-02  8.41199E-02  8.38182E-02  8.34937E-02  8.31672E-02  8.28919E-02  8.27080E-02  8.26642E-02  8.27926E-02  8.31793E-02
   8.38877E-02  8.48718E-02  8.61628E-02  8.78128E-02  8.96638E-02  9.15745E-02  9.34847E-02  9.53722E-02  9.67993E-02  9.62767E-02
   9.37988E-02  8.84940E-02  8.03945E-02  7.16707E-02  6.45523E-02  6.11305E-02  6.54515E-02  8.13700E-02  1.08490E-01  1.42839E-01
   1.82430E-01  2.22590E-01  2.54178E-01  2.67623E-01  2.56506E-01  2.10792E-01  1.41031E-01  6.97143E-02  1.42672E-02 -1.28842E-02
  -4.43955E-03  5.21688E-02  1.50230E-01  2.64659E-01  3.71274E-01  4.51319E-01  4.81869E-01  4.38128E-01  3.34734E-01  2.08062E-01
   8.83563E-02 -3.06378E-03 -4.49800E-02 -2.32573E-02  4.33965E-02  1.34656E-01  2.37287E-01  3.34678E-01  4.06866E-01  4.35859E-01
   4.24556E-01  3.92450E-01  3.58790E-01  3.31432E-01  3.17431E-01  3.17970E-01  3.31533E-01  3.52269E-01  3.65404E-01  3.70947E-01
   3.74503E-01  3.75128E-01  3.66360E-01  3.47108E-01  3.26830E-01  3.11565E-01  3.04802E-01  3.09608E-01  3.28551E-01  3.54982E-01
   3.77524E-01  3.99727E-01  4.21348E-01  4.35965E-01  4.42226E-01  4.46631E-01  4.50737E-01  4.51656E-01  4.49812E-01  4.49905E-01
   4.55411E-01  4.65297E-01  4.79043E-01  4.93203E-01  5.02566E-01  5.01293E-01  4.90288E-01  4.75573E-01  4.62300E-01  4.53204E-01
   4.49986E-01  4.53033E-01  4.58871E-01  4.65253E-01  4.73806E-01  4.83281E-01  4.92014E-01  4.99129E-01  5.03908E-01  5.06369E-01
   5.08787E-01  5.13410E-01  5.20670E-01  5.30359E-01  5.42496E-01  5.57246E-01  5.74522E-01  5.93891E-01  6.15306E-01  6.39484E-01
   6.66968E-01  6.98169E-01  7.33457E-01  7.73137E-01  8.17388E-01  8.66208E-01  9.19551E-01  9.77325E-01  1.03925E+00  1.10487E+00
   1.17365E+00  1.24492E+00  1.31795E+00  1.39201E+00  1.46641E+00  1.54055E+00  1.61398E+00  1.68648E+00  1.75806E+00  1.82907E+00
   1.90017E+00  1.97222E+00  2.04632E+00  2.12372E+00  2.20585E+00  2.29420E+00  2.39034E+00  2.49600E+00  2.61338E+00  2.74596E+00
   2.90073E+00  3.09575E+00  3.35879E+00  3.61564E+00  3.76273E+00  3.78086E+00  3.68661E+00  3.49858E+00  3.22497E+00  2.87216E+00
   2.53439E+00  2.34103E+00  2.33108E+00  2.52449E+00  2.90086E+00  3.31838E+00  3.67502E+00  3.96201E+00  4.15952E+00  4.23640E+00
   4.16812E+00  3.98737E+00  3.83599E+00  3.79808E+00  3.79344E+00  3.77619E+00  3.73701E+00  3.67665E+00  3.59573E+00  3.49283E+00
   3.38619E+00  3.31543E+00  3.29148E+00  3.31856E+00  3.40159E+00  3.51747E+00  3.61278E+00  3.67216E+00  3.69046E+00  3.65874E+00
   3.56878E+00  3.42632E+00  3.26868E+00  3.13195E+00  3.00641E+00  2.88410E+00  2.76322E+00  2.64382E+00  2.52659E+00  2.41242E+00
   2.30226E+00  2.19700E+00  2.09745E+00  2.00428E+00  1.91806E+00  1.83921E+00  1.76803E+00  1.70471E+00  1.64938E+00  1.60206E+00
   1.56273E+00  1.53130E+00  1.50762E+00  1.49151E+00  1.48276E+00  1.48109E+00  1.48619E+00  1.49764E+00  1.51499E+00  1.53769E+00
   1.56509E+00  1.59645E+00  1.63093E+00  1.66757E+00  1.70534E+00  1.74313E+00  1.77980E+00  1.81416E+00  1.84505E+00  1.87137E+00
   1.89213E+00  1.90644E+00  1.91362E+00  1.91316E+00  1.90477E+00  1.88838E+00  1.86418E+00  1.83253E+00  1.79401E+00  1.74934E+00
   1.69939E+00  1.64510E+00  1.58747E+00  1.52750E+00  1.46616E+00  1.40437E+00  1.34295E+00  1.28265E+00  1.22408E+00  1.16775E+00
   1.11404E+00  1.06324E+00  1.01554E+00  9.71014E-01  9.29694E-01  8.91532E-01  8.56434E-01  8.24267E-01  7.94876E-01  7.68090E-01
   7.43728E-01  7.21602E-01  7.01530E-01  6.83336E-01  6.66855E-01  6.51929E-01  6.38414E-01  6.26174E-01  6.15085E-01  6.05038E-01
   5.95934E-01  5.87682E-01  5.80201E-01  5.73415E-01  5.67261E-01  5.61680E-01  5.56621E-01  5.52038E-01  5.47886E-01  5.44128E-01
   5.40730E-01  5.37663E-01  5.34901E-01  5.32418E-01  5.30191E-01  5.28200E-01  5.26428E-01  5.24859E-01  5.23478E-01  5.22271E-01
   5.21224E-01  5.20326E-01  5.19569E-01  5.18944E-01  5.18441E-01  5.18052E-01  5.17768E-01  5.17583E-01  5.17494E-01  5.17493E-01
   5.17576E-01  5.17735E-01  5.17967E-01  5.18269E-01  5.18638E-01  5.19069E-01  5.19558E-01  5.20102E-01  5.20698E-01  5.21345E-01
   5.22041E-01  5.22782E-01  5.23564E-01  5.24387E-01  5.25250E-01  5.26150E-01  5.27088E-01  5.28060E-01  5.29063E-01  5.30098E-01
   5.31164E-01  5.32261E-01  5.33388E-01  5.34541E-01  5.35721E-01  5.36928E-01  5.38162E-01  5.39424E-01
 NY background values follow
    -3.141E-01   -3.124E-01   -3.107E-01   -3.090E-01   -3.072E-01   -3.055E-01   -3.038E-01   -3.021E-01   -3.004E-01   -2.987E-01
    -2.970E-01   -2.953E-01   -2.935E-01   -2.918E-01   -2.901E-01   -2.884E-01   -2.867E-01   -2.850E-01   -2.833E-01   -2.816E-01
    -2.798E-01   -2.781E-01   -2.764E-01   -2.747E-01   -2.730E-01   -2.713E-01   -2.696E-01   -2.679E-01   -2.661E-01   -2.644E-01
    -2.627E-01   -2.610E-01   -2.593E-01   -2.576E-01   -2.559E-01   -2.542E-01   -2.524E-01   -2.507E-01   -2.490E-01   -2.473E-01
    -2.456E-01   -2.439E-01   -2.422E-01   -2.405E-01   -2.387E-01   -2.370E-01   -2.353E-01   -2.336E-01   -2.319E-01   -2.302E-01
    -2.285E-01   -2.268E-01   -2.250E-01   -2.233E-01   -2.216E-01   -2.199E-01   -2.182E-01   -2.165E-01   -2.148E-01   -2.131E-01
    -2.113E-01   -2.096E-01   -2.079E-01   -2.062E-01   -2.045E-01   -2.028E-01   -2.011E-01   -1.994E-01   -1.976E-01   -1.959E-01
    -1.942E-01   -1.925E-01   -1.908E-01   -1.891E-01   -1.874E-01   -1.857E-01   -1.839E-01   -1.822E-01   -1.805E-01   -1.788E-01
    -1.771E-01   -1.754E-01   -1.737E-01   -1.720E-01   -1.703E-01   -1.685E-01   -1.668E-01   -1.651E-01   -1.634E-01   -1.617E-01
    -1.600E-01   -1.583E-01   -1.566E-01   -1.548E-01   -1.531E-01   -1.514E-01   -1.497E-01   -1.480E-01   -1.463E-01   -1.446E-01
    -1.429E-01   -1.412E-01   -1.394E-01   -1.377E-01   -1.360E-01   -1.343E-01   -1.326E-01   -1.309E-01   -1.292E-01   -1.275E-01
    -1.257E-01   -1.240E-01   -1.223E-01   -1.206E-01   -1.189E-01   -1.172E-01   -1.155E-01   -1.138E-01   -1.121E-01   -1.103E-01
    -1.086E-01   -1.069E-01   -1.052E-01   -1.035E-01   -1.018E-01   -1.001E-01   -9.836E-02   -9.665E-02   -9.494E-02   -9.323E-02
    -9.152E-02   -8.981E-02   -8.809E-02   -8.638E-02   -8.467E-02   -8.296E-02   -8.125E-02   -7.954E-02   -7.783E-02   -7.612E-02
    -7.440E-02   -7.269E-02   -7.098E-02   -6.927E-02   -6.756E-02   -6.585E-02   -6.414E-02   -6.243E-02   -6.071E-02   -5.900E-02
    -5.729E-02   -5.558E-02   -5.387E-02   -5.216E-02   -5.045E-02   -4.874E-02   -4.702E-02   -4.531E-02   -4.360E-02   -4.189E-02
    -4.018E-02   -3.847E-02   -3.676E-02   -3.505E-02   -3.334E-02   -3.163E-02   -2.991E-02   -2.820E-02   -2.649E-02   -2.478E-02
    -2.307E-02   -2.136E-02   -1.965E-02   -1.794E-02   -1.623E-02   -1.452E-02   -1.281E-02   -1.109E-02   -9.383E-03   -7.673E-03
    -5.962E-03   -4.251E-03   -2.540E-03   -8.293E-04    8.815E-04    2.592E-03    4.303E-03    6.014E-03    7.725E-03    9.435E-03
     1.115E-02    1.286E-02    1.457E-02    1.628E-02    1.799E-02    1.970E-02    2.141E-02    2.312E-02    2.483E-02    2.654E-02
     2.825E-02    2.996E-02    3.167E-02    3.338E-02    3.509E-02    3.681E-02    3.852E-02    4.023E-02    4.194E-02    4.365E-02
     4.536E-02    4.707E-02    4.878E-02    5.049E-02    5.220E-02    5.391E-02    5.562E-02    5.733E-02    5.904E-02    6.075E-02
     6.246E-02    6.417E-02    6.588E-02    6.759E-02    6.930E-02    7.101E-02    7.272E-02    7.443E-02    7.614E-02    7.785E-02
     7.956E-02    8.127E-02    8.299E-02    8.470E-02    8.641E-02    8.812E-02    8.983E-02    9.154E-02    9.325E-02    9.496E-02
     9.667E-02    9.838E-02    1.001E-01    1.018E-01    1.035E-01    1.052E-01    1.069E-01    1.086E-01    1.103E-01    1.121E-01
     1.138E-01    1.155E-01    1.172E-01    1.189E-01    1.206E-01    1.223E-01    1.240E-01    1.257E-01    1.274E-01    1.292E-01
     1.309E-01    1.326E-01    1.343E-01    1.360E-01    1.377E-01    1.394E-01    1.411E-01    1.428E-01    1.445E-01    1.463E-01
     1.480E-01    1.497E-01    1.514E-01    1.531E-01    1.548E-01    1.565E-01    1.582E-01    1.599E-01    1.616E-01    1.633E-01
     1.651E-01    1.668E-01    1.685E-01    1.702E-01    1.719E-01    1.736E-01    1.753E-01    1.770E-01    1.787E-01    1.804E-01
     1.822E-01    1.839E-01    1.856E-01    1.873E-01    1.890E-01    1.907E-01    1.924E-01    1.941E-01    1.958E-01    1.975E-01
     1.992E-01    2.010E-01    2.027E-01    2.044E-01    2.061E-01    2.078E-01    2.095E-01    2.112E-01    2.129E-01    2.146E-01
     2.163E-01    2.180E-01    2.198E-01    2.215E-01    2.232E-01    2.249E-01    2.266E-01    2.283E-01    2.300E-01    2.317E-01
     2.334E-01    2.351E-01    2.368E-01    2.386E-01    2.403E-01    2.420E-01    2.437E-01    2.454E-01    2.471E-01    2.488E-01
     2.505E-01    2.522E-01    2.539E-01    2.556E-01    2.573E-01    2.591E-01    2.608E-01    2.625E-01    2.642E-01    2.659E-01
     2.676E-01    2.693E-01    2.710E-01    2.727E-01    2.744E-01    2.761E-01    2.779E-01    2.796E-01    2.813E-01    2.830E-01
     2.847E-01    2.864E-01    2.881E-01    2.898E-01    2.915E-01    2.932E-01    2.949E-01    2.966E-01    2.984E-01    3.001E-01
     3.018E-01    3.035E-01    3.052E-01    3.069E-01    3.086E-01    3.103E-01    3.120E-01    3.137E-01    3.154E-01    3.171E-01
     3.188E-01    3.206E-01    3.223E-01    3.240E-01    3.257E-01    3.274E-01    3.291E-01    3.308E-01    3.325E-01    3.342E-01
     3.359E-01    3.376E-01    3.393E-01    3.410E-01    3.428E-01    3.445E-01    3.462E-01    3.479E-01    3.496E-01    3.513E-01
     3.530E-01    3.547E-01    3.564E-01    3.581E-01    3.598E-01    3.615E-01    3.632E-01    3.650E-01    3.667E-01    3.684E-01
     3.701E-01    3.718E-01    3.735E-01    3.752E-01    3.769E-01    3.786E-01    3.803E-01    3.820E-01    3.837E-01    3.854E-01
     3.872E-01    3.889E-01    3.906E-01    3.923E-01    3.940E-01    3.957E-01    3.974E-01    3.991E-01    4.008E-01    4.025E-01
     4.042E-01    4.059E-01    4.076E-01    4.093E-01    4.110E-01    4.128E-01    4.145E-01    4.162E-01    4.179E-01    4.196E-01
     4.213E-01    4.230E-01    4.247E-01    4.264E-01    4.281E-01    4.298E-01    4.315E-01    4.332E-01    4.349E-01    4.367E-01
     4.384E-01    4.401E-01    4.418E-01    4.435E-01    4.452E-01    4.469E-01    4.486E-01    4.503E-01    4.520E-01    4.537E-01
     4.554E-01    4.571E-01    4.588E-01    4.605E-01    4.622E-01    4.640E-01    4.657E-01    4.674E-01    4.691E-01    4.708E-01
     4.725E-01    4.742E-01    4.759E-01    4.776E-01    4.793E-01    4.810E-01    4.827E-01    4.844E-01    4.861E-01    4.878E-01
     4.895E-01    4.912E-01    4.930E-01    4.947E-01    4.964E-01    4.981E-01    4.998E-01    5.015E-01    5.032E-01    5.049E-01
     5.066E-01    5.083E-01    5.100E-01    5.117E-01    5.134E-01    5.151E-01    5.168E-01    5.185E-01    5.202E-01    5.220E-01
     5.237E-01    5.254E-01    5.271E-01    5.288E-01    5.305E-01    5.322E-01    5.339E-01    5.356E-01
 Ala      Conc. = 8.38E+01
