 LCModel (Version 6.3-1L) Copyright: S.W. Provencher.          Ref.: Magn. Reson. Med. 30:672-679 (1993).                
 Slice#2 Row#2 Col#10  PD_05_press_1_raw_act
 36 lines in following concentration table = NCONC+1
    Conc.  %SD /Cr+PCr  Metabolite                                         
    0.000 999%   0.000 Ala                                                 
   37.092 141%   0.138 Asp                                                 
   20.790 434% 7.7E-02 Cr                                                  
  248.295  38%   0.923 PCr                                                 
   34.101  94%   0.127 GABA                                                
   15.695 204% 5.8E-02 Glc                                                 
   54.020 180%   0.201 Gln                                                 
  246.862  44%   0.917 Glu                                                 
   89.447  11%   0.332 GPC                                                 
    0.000 999%   0.000 PCh                                                 
  102.503  32%   0.381 GSH                                                 
  202.674  50%   0.753 Ins                                                 
    0.000 999%   0.000 Lac                                                 
  380.649  13%   1.415 NAA                                                 
  112.423  45%   0.418 NAAG                                                
   12.553  68% 4.7E-02 Scyllo                                              
   23.417 212% 8.7E-02 Tau                                                 
   43.916  92%   0.163 -CrCH2                                              
   89.447  11%   0.332 GPC+PCh                                             
  493.072   7%   1.832 NAA+NAAG                                            
  269.085  10%   1.000 Cr+PCr                                              
  300.882  49%   1.118 Glu+Gln                                             
  529.848  13%   1.969 Lip13a                                              
    0.000 999%   0.000 Lip13b                                              
    0.000 999%   0.000 Lip09                                               
  560.332  12%   2.082 MM09                                                
  177.615  43%   0.660 Lip20                                               
 1.13E+03  11%   4.193 MM20                                                
  172.232  22%   0.640 MM12                                                
    0.000 999%   0.000 MM14                                                
  441.346  16%   1.640 MM17                                                
  529.848  13%   1.969 Lip13a+Lip13b                                       
  702.081   9%   2.609 MM14+Lip13a+Lip13b+MM12                             
  560.332  12%   2.082 MM09+Lip09                                          
 1.31E+03  10%   4.853 MM20+Lip20                                          
   6 lines in following misc. output table
  FWHM = 0.061 ppm    S/N =   5                                            
  Data shift = 0.092 ppm                                                   
  Ph:  45 deg       9.2 deg/ppm                                            
  alphaB,S = 8.5E+01,   5.1E+01                                            
   14 spline knots.   Ns = 7(1)                                            
   2 inflections.     1 extrema                                            
  498 points on ppm-axis = NY
      4.000000     3.992357     3.984714     3.977070     3.969427     3.961784     3.954141     3.946497     3.938854     3.931211
      3.923568     3.915925     3.908281     3.900638     3.892995     3.885352     3.877708     3.870065     3.862422     3.854779
      3.847136     3.839492     3.831849     3.824206     3.816563     3.808919     3.801276     3.793633     3.785990     3.778347
      3.770703     3.763060     3.755417     3.747774     3.740130     3.732487     3.724844     3.717201     3.709558     3.701914
      3.694271     3.686628     3.678985     3.671341     3.663698     3.656055     3.648412     3.640769     3.633125     3.625482
      3.617839     3.610196     3.602552     3.594909     3.587266     3.579623     3.571980     3.564336     3.556693     3.549050
      3.541407     3.533763     3.526120     3.518477     3.510834     3.503191     3.495547     3.487904     3.480261     3.472618
      3.464974     3.457331     3.449688     3.442045     3.434402     3.426758     3.419115     3.411472     3.403829     3.396185
      3.388542     3.380899     3.373256     3.365613     3.357969     3.350326     3.342683     3.335040     3.327396     3.319753
      3.312110     3.304467     3.296824     3.289180     3.281537     3.273894     3.266251     3.258607     3.250964     3.243321
      3.235678     3.228034     3.220391     3.212748     3.205105     3.197462     3.189818     3.182175     3.174532     3.166889
      3.159245     3.151602     3.143959     3.136316     3.128673     3.121029     3.113386     3.105743     3.098100     3.090456
      3.082813     3.075170     3.067527     3.059884     3.052240     3.044597     3.036954     3.029311     3.021667     3.014024
      3.006381     2.998738     2.991095     2.983451     2.975808     2.968165     2.960522     2.952878     2.945235     2.937592
      2.929949     2.922306     2.914662     2.907019     2.899376     2.891733     2.884089     2.876446     2.868803     2.861160
      2.853517     2.845873     2.838230     2.830587     2.822944     2.815300     2.807657     2.800014     2.792371     2.784728
      2.777084     2.769441     2.761798     2.754155     2.746511     2.738868     2.731225     2.723582     2.715939     2.708295
      2.700652     2.693009     2.685366     2.677722     2.670079     2.662436     2.654793     2.647150     2.639506     2.631863
      2.624220     2.616577     2.608933     2.601290     2.593647     2.586004     2.578361     2.570717     2.563074     2.555431
      2.547788     2.540144     2.532501     2.524858     2.517215     2.509572     2.501928     2.494285     2.486642     2.478999
      2.471355     2.463712     2.456069     2.448426     2.440783     2.433139     2.425496     2.417853     2.410210     2.402566
      2.394923     2.387280     2.379637     2.371994     2.364350     2.356707     2.349064     2.341421     2.333777     2.326134
      2.318491     2.310848     2.303205     2.295561     2.287918     2.280275     2.272632     2.264988     2.257345     2.249702
      2.242059     2.234416     2.226772     2.219129     2.211486     2.203843     2.196199     2.188556     2.180913     2.173270
      2.165627     2.157983     2.150340     2.142697     2.135054     2.127410     2.119767     2.112124     2.104481     2.096838
      2.089194     2.081551     2.073908     2.066265     2.058621     2.050978     2.043335     2.035692     2.028049     2.020405
      2.012762     2.005119     1.997476     1.989833     1.982190     1.974546     1.966903     1.959260     1.951617     1.943974
      1.936331     1.928688     1.921045     1.913402     1.905759     1.898115     1.890472     1.882829     1.875186     1.867543
      1.859900     1.852257     1.844614     1.836971     1.829327     1.821684     1.814041     1.806398     1.798755     1.791112
      1.783469     1.775826     1.768183     1.760540     1.752896     1.745253     1.737610     1.729967     1.722324     1.714681
      1.707038     1.699395     1.691752     1.684108     1.676465     1.668822     1.661179     1.653536     1.645893     1.638250
      1.630607     1.622964     1.615321     1.607677     1.600034     1.592391     1.584748     1.577105     1.569462     1.561819
      1.554176     1.546533     1.538890     1.531246     1.523603     1.515960     1.508317     1.500674     1.493031     1.485388
      1.477745     1.470102     1.462458     1.454815     1.447172     1.439529     1.431886     1.424243     1.416600     1.408957
      1.401314     1.393671     1.386027     1.378384     1.370741     1.363098     1.355455     1.347812     1.340169     1.332526
      1.324883     1.317240     1.309596     1.301953     1.294310     1.286667     1.279024     1.271381     1.263738     1.256095
      1.248452     1.240808     1.233165     1.225522     1.217879     1.210236     1.202593     1.194950     1.187307     1.179664
      1.172021     1.164377     1.156734     1.149091     1.141448     1.133805     1.126162     1.118519     1.110876     1.103233
      1.095590     1.087946     1.080303     1.072660     1.065017     1.057374     1.049731     1.042088     1.034445     1.026802
      1.019158     1.011515     1.003872     0.996229     0.988586     0.980943     0.973300     0.965657     0.958014     0.950371
      0.942727     0.935084     0.927441     0.919798     0.912155     0.904512     0.896869     0.889226     0.881583     0.873940
      0.866296     0.858653     0.851010     0.843367     0.835724     0.828081     0.820438     0.812795     0.805152     0.797508
      0.789865     0.782222     0.774579     0.766936     0.759293     0.751650     0.744007     0.736364     0.728721     0.721077
      0.713434     0.705791     0.698148     0.690505     0.682862     0.675219     0.667576     0.659933     0.652290     0.644646
      0.637003     0.629360     0.621717     0.614074     0.606431     0.598788     0.591145     0.583502     0.575858     0.568215
      0.560572     0.552929     0.545286     0.537643     0.530000     0.522357     0.514714     0.507071     0.499427     0.491784
      0.484141     0.476498     0.468855     0.461212     0.453569     0.445925     0.438282     0.430639     0.422996     0.415353
      0.407710     0.400067     0.392424     0.384780     0.377137     0.369494     0.361851     0.354208     0.346565     0.338922
      0.331278     0.323635     0.315992     0.308349     0.300706     0.293063     0.285420     0.277777     0.270133     0.262490
      0.254847     0.247204     0.239561     0.231918     0.224275     0.216631     0.208988     0.201345
 NY phased data points follow
   2.36582E-01  3.73306E+00  3.57237E+00  3.10495E+00  1.75454E+00  3.00243E+00  7.56257E+00  6.99051E+00  7.30756E+00  6.28551E+00
   9.17578E+00  7.80411E+00  8.19642E+00  5.12348E+00  4.64035E+00  4.62705E+00  3.56522E+00  3.55163E+00  4.38658E+00  5.40251E+00
   3.49276E+00  4.18457E+00  1.62482E+00  3.22424E+00  3.64903E+00  3.42887E+00  5.36479E+00  3.87540E+00  4.46634E+00  3.85462E+00
   6.57681E+00  4.23775E+00  2.67719E+00  3.52133E+00  4.62088E+00  3.92317E+00  7.17553E+00  4.89409E+00  3.49810E+00  1.76967E+00
   2.43886E+00  4.76718E+00  8.14524E-01  5.47855E+00  4.36860E+00  8.16159E+00  4.71020E+00  4.40539E+00  4.11363E+00  4.15223E+00
   4.93517E+00  3.00260E+00  3.22682E+00  2.36557E+00  4.35142E+00  3.57734E+00  1.49874E+00  3.73893E+00  3.15784E+00  2.82046E+00
   1.32818E+00  5.19315E-01  2.34126E+00  3.91023E+00  1.25486E+00  2.77350E+00  1.74788E+00  3.54269E+00  6.67938E-01  1.19058E+00
   1.70293E+00  3.28436E+00  2.76244E+00  1.60269E+00  1.17267E+00  1.61363E+00  3.06803E+00  6.26146E-01  2.30408E+00  3.56355E-01
   1.92816E+00  1.13567E+00  3.42373E+00  4.55128E+00  1.96306E+00  1.63357E+00  3.78081E+00  1.39605E+00  8.13210E-01  2.67839E+00
   2.27461E+00  3.02030E+00  3.89329E+00  3.87290E+00  9.51776E-01  3.18387E-01  8.89848E-01  1.06698E+00  4.31037E+00  4.93122E+00
   8.97446E+00  1.00148E+01  8.70131E+00  1.21984E+01  1.03483E+01  8.30649E+00  4.85123E+00  7.22790E+00  3.06370E+00  3.88633E+00
   5.41265E+00  4.59253E+00  3.67860E+00  1.26173E+00  1.11136E+00  4.49715E+00  4.01580E+00  2.31060E+00  2.92120E+00  2.80393E+00
   5.16745E-01 -1.18280E+00  4.42115E+00  6.56131E+00  8.93905E+00  8.70410E+00  1.10283E+01  1.22219E+01  1.19372E+01  1.08500E+01
   1.10937E+01  5.27184E+00  7.19959E+00  3.87568E+00  4.56253E+00  1.58925E+00  1.18196E+00  2.89263E+00  3.61003E+00  3.54998E+00
   5.92202E-01  9.58944E-01  8.49268E-01  4.17454E+00  4.13307E+00  4.26057E+00  9.20677E-01  9.71493E-01  3.60803E+00  1.71479E+00
   4.05885E+00  1.80731E+00  5.37335E+00  3.66175E+00  1.34154E+00  4.50242E+00  2.69082E+00  2.55973E+00  1.55940E+00  1.24034E+00
   1.31453E+00 -1.62807E+00 -1.47471E+00  3.46072E+00 -7.83179E-01  6.26341E-01 -4.28847E-01  1.77256E-01 -2.07225E-01 -3.14414E-01
   3.73055E+00  8.71222E-01 -2.32958E-02 -1.97653E+00 -9.93384E-01 -2.76061E+00 -2.93754E+00  4.82981E-01  1.44481E+00  6.30926E-01
  -3.93831E-01 -1.81538E+00  2.59746E-01 -1.61655E+00 -2.11769E+00 -9.32608E-01  1.33097E+00  1.53658E+00  2.95916E+00  2.12800E+00
   2.73736E+00  3.01021E+00  1.03457E+00  2.34739E+00  3.14882E+00  1.90146E+00  3.18825E+00 -3.85478E+00  1.85217E+00 -1.48365E+00
   3.23834E+00  1.27691E+00  3.46226E+00  3.27254E+00  3.02896E+00  4.66097E+00  8.23950E-01 -1.04634E+00 -6.72478E-02  3.24038E+00
   2.01763E+00  4.24842E-01  2.64771E+00  3.66624E+00  2.40282E+00  3.91064E+00  3.29727E+00  7.31925E+00  4.21688E+00  1.13267E+00
   2.50547E+00  3.43475E+00  1.10674E+00  2.81583E+00  2.78467E+00  1.46300E+00  4.35834E+00  3.41207E+00  2.48397E+00  2.45111E+00
   2.92090E+00  4.61468E+00  3.19109E+00  1.42755E-01  3.07213E+00  5.22552E+00  4.40898E+00  2.14846E+00  5.52808E+00  3.41738E+00
   3.99665E+00  3.89254E+00  3.10933E+00  5.88727E+00  4.78539E+00  5.99193E+00  8.21698E+00  7.62572E+00  7.62064E+00  8.33379E+00
   6.31975E+00  8.09321E+00  7.93642E+00  7.20714E+00  9.55938E+00  1.03211E+01  1.35226E+01  1.69152E+01  1.94907E+01  2.04879E+01
   1.80206E+01  1.79281E+01  1.41555E+01  1.45054E+01  9.06401E+00  7.87585E+00  3.72131E+00  4.37194E+00  4.28044E+00  4.11580E+00
   1.32378E+00  1.05622E+00  3.90681E+00  5.39448E+00  6.88742E-01  2.01704E+00  1.75136E+00  1.44407E+00  2.83907E+00  1.55738E+00
   2.30127E+00  3.74970E+00  3.57511E+00  4.30935E+00  1.88748E+00  2.08958E+00  1.59166E+00  8.54564E-01  3.10577E+00  8.23343E-01
   2.32615E+00  2.30773E+00  3.30913E+00  1.99576E+00  1.54030E+00  2.28975E+00  1.81640E+00  1.74410E+00  2.95868E+00  2.90996E+00
   1.15699E+00  2.34717E+00  3.61284E+00  1.81135E+00  4.72944E+00  4.42306E+00  4.93232E+00  4.67382E+00  2.36328E+00  3.56336E+00
   3.78496E+00  3.18425E+00  4.09932E+00  4.14290E+00  3.53823E+00  4.19133E+00  1.70741E+00  1.81601E+00  1.77687E+00  2.92213E+00
   2.01331E+00  3.07132E+00  1.82817E+00 -1.92290E+00  2.12032E+00  1.30322E+00  2.29911E+00 -2.51713E+00 -9.54648E-01 -3.09372E+00
  -3.57182E-01 -7.05424E-01 -2.33972E+00 -6.72215E-01 -2.54957E+00 -2.01354E+00 -6.03417E+00 -3.38040E+00 -2.35279E+00 -1.65262E+00
  -4.04843E+00 -3.14730E+00 -1.59922E+00 -9.01769E-01 -1.91284E+00 -1.77810E+00 -6.03028E-01  4.06628E-01 -1.99464E+00 -2.10357E-01
   2.26976E+00  9.29294E-01  9.25236E-01  3.27754E+00  1.08428E+00  3.41405E+00  3.47763E+00  5.54128E+00  4.26888E+00  4.52787E+00
   4.91082E+00  5.87679E+00  3.05274E+00  5.34390E+00  5.02193E+00  5.39138E+00  5.42212E+00  3.58311E+00  3.67895E+00  3.52892E+00
   6.20127E+00  5.85159E+00  5.22284E+00  2.22385E+00  2.26309E+00  3.76641E+00  4.11041E+00  3.46605E+00  3.45051E+00  2.77204E+00
   4.69537E-01  3.22970E+00  2.22149E+00  4.78270E+00  2.10319E+00  1.68684E+00  2.95575E+00  2.00357E+00  1.42524E+00  1.26807E+00
   1.64805E+00  3.30399E-01  1.53549E+00  1.37169E+00  1.94847E+00  9.41874E-01 -3.05296E-01  2.11843E+00  1.78531E+00  1.20543E+00
   3.83559E-02  1.19321E+00  2.07417E-01  1.29151E+00  3.38049E-01  6.71815E-01  6.38201E-01  4.16270E+00  1.00335E-01  1.28261E+00
   2.20175E+00  1.95683E+00  1.73720E+00  4.48761E+00 -1.04946E+00 -2.84615E+00 -1.86870E+00  2.69840E-01 -1.44593E+00 -8.87864E-01
  -2.64333E-01 -2.09015E+00 -2.17046E+00 -6.32009E-01 -3.54767E-01 -3.48436E+00 -2.86120E+00 -3.00170E+00 -1.62634E+00 -2.29935E+00
   1.01781E+00 -1.51437E+00 -6.46726E-01 -3.02328E+00 -2.02199E+00 -3.11514E+00 -5.18278E-01 -4.62463E-01 -9.69231E-01 -1.45302E+00
   3.80037E-01 -3.31537E+00 -1.00986E+00 -2.95454E+00 -1.94775E+00 -2.96868E-01 -3.27150E-01 -1.28540E+00 -2.44646E+00 -2.20557E+00
  -2.88385E+00  1.10102E+00 -3.43219E+00 -1.03215E+00 -7.11000E+00 -2.40414E+00  6.28070E-01 -4.21727E-01 -1.21073E+00 -8.31715E-01
  -2.83253E+00 -6.87824E-01 -1.07143E+00 -1.59150E+00 -1.88364E+00 -1.42446E+00 -4.48473E-01 -1.15188E+00 -1.11323E+00 -1.90271E+00
   5.80966E-01  4.34667E-01 -2.76237E+00  1.08100E+00 -2.66656E+00 -4.14704E-01 -7.72315E-01 -2.07687E+00 -7.60574E-01 -3.67493E+00
  -1.01163E+00 -3.44786E+00 -2.81204E+00 -4.80007E-01  5.86086E-01 -5.60494E-01 -2.61364E+00  1.74269E+00 -7.13712E-01 -5.27257E-01
  -8.30184E-01 -1.88972E+00 -3.48189E+00 -1.66826E+00 -8.01406E-01 -2.62625E+00 -2.09197E+00 -2.98164E+00
 NY points of the fit to the data follow
   2.95798E+00  2.88204E+00  2.80883E+00  2.82909E+00  3.31945E+00  4.35945E+00  5.67228E+00  6.87364E+00  7.71341E+00  8.13089E+00
   8.12794E+00  7.71807E+00  6.99118E+00  6.10917E+00  5.26707E+00  4.60471E+00  4.13741E+00  3.77375E+00  3.49776E+00  3.33708E+00
   3.20955E+00  3.12473E+00  3.04759E+00  2.91665E+00  2.90955E+00  3.18260E+00  3.68389E+00  4.25607E+00  4.76930E+00  5.18439E+00
   5.45264E+00  5.50074E+00  5.31283E+00  4.92393E+00  4.43492E+00  3.95603E+00  3.55023E+00  3.22629E+00  2.99385E+00  2.88579E+00
   2.84461E+00  2.88989E+00  3.10617E+00  3.47970E+00  3.89448E+00  4.21239E+00  4.38150E+00  4.40134E+00  4.26948E+00  4.00352E+00
   3.65123E+00  3.28749E+00  2.98230E+00  2.77098E+00  2.65992E+00  2.64745E+00  2.72728E+00  2.85317E+00  2.95744E+00  3.00049E+00
   2.96870E+00  2.87678E+00  2.74562E+00  2.60651E+00  2.48902E+00  2.41095E+00  2.38926E+00  2.42129E+00  2.48593E+00  2.55501E+00
   2.61653E+00  2.67016E+00  2.70683E+00  2.71500E+00  2.68672E+00  2.62488E+00  2.54629E+00  2.46607E+00  2.39422E+00  2.32427E+00
   2.29991E+00  2.37225E+00  2.50053E+00  2.59537E+00  2.60392E+00  2.53487E+00  2.42315E+00  2.29194E+00  2.15607E+00  2.03091E+00
   1.94631E+00  1.92235E+00  1.94233E+00  1.96858E+00  1.96658E+00  1.89258E+00  1.73353E+00  2.14322E+00  3.61906E+00  5.83779E+00
   8.04626E+00  9.66438E+00  1.05311E+01  1.06884E+01  1.01130E+01  8.87554E+00  7.24666E+00  5.63673E+00  4.38951E+00  3.58635E+00
   3.03059E+00  2.57064E+00  2.35458E+00  2.30519E+00  2.29251E+00  2.28303E+00  2.27236E+00  2.26405E+00  2.25736E+00  2.22987E+00
   2.10080E+00  2.34554E+00  3.65223E+00  5.89964E+00  8.35192E+00  1.03055E+01  1.14751E+01  1.19070E+01  1.16416E+01  1.06668E+01
   9.13655E+00  7.39926E+00  5.82648E+00  4.62418E+00  3.72099E+00  2.96340E+00  2.50340E+00  2.38183E+00  2.41793E+00  2.52838E+00
   2.65505E+00  2.74996E+00  2.79054E+00  2.77510E+00  2.70533E+00  2.60504E+00  2.49630E+00  2.38568E+00  2.27578E+00  2.15558E+00
   2.02955E+00  1.91752E+00  1.83131E+00  1.78567E+00  1.77716E+00  1.76209E+00  1.69859E+00  1.58518E+00  1.45363E+00  1.35649E+00
   1.30936E+00  1.29097E+00  1.28368E+00  1.27757E+00  1.25685E+00  1.20841E+00  1.12901E+00  1.03652E+00  9.62543E-01  9.15626E-01
   8.53031E-01  7.39199E-01  6.01165E-01  4.92743E-01  4.51792E-01  4.40355E-01  4.10041E-01  3.59509E-01  3.27956E-01  3.34006E-01
   3.61083E-01  3.59199E-01  3.16860E-01  2.94629E-01  3.59140E-01  5.25325E-01  7.81759E-01  1.09775E+00  1.41562E+00  1.68170E+00
   1.85195E+00  1.90719E+00  1.81675E+00  1.60495E+00  1.35932E+00  1.16994E+00  1.07052E+00  1.06473E+00  1.16354E+00  1.36197E+00
   1.62919E+00  1.91130E+00  2.12805E+00  2.23453E+00  2.19724E+00  2.01159E+00  1.72677E+00  1.37739E+00  1.02893E+00  7.62775E-01
   6.87645E-01  9.07377E-01  1.36711E+00  1.90666E+00  2.36908E+00  2.67432E+00  2.77029E+00  2.57984E+00  2.11150E+00  1.53439E+00
   1.08036E+00  8.93170E-01  9.70758E-01  1.25163E+00  1.66937E+00  2.13737E+00  2.52932E+00  2.75123E+00  2.82648E+00  2.84765E+00
   2.89572E+00  3.01533E+00  3.22685E+00  3.51906E+00  3.83967E+00  4.09905E+00  4.24479E+00  4.24897E+00  4.12229E+00  3.94545E+00
   3.83075E+00  3.85253E+00  4.03078E+00  4.33566E+00  4.71378E+00  5.09163E+00  5.40434E+00  5.61582E+00  5.70960E+00  5.72197E+00
   5.96867E+00  6.67269E+00  7.64276E+00  8.40970E+00  9.27104E+00  1.11718E+01  1.40638E+01  1.69558E+01  1.88817E+01  1.95425E+01
   1.91415E+01  1.78476E+01  1.57170E+01  1.29634E+01  1.00644E+01  7.64219E+00  5.94087E+00  4.75657E+00  3.76713E+00  3.06855E+00
   2.74851E+00  2.56522E+00  2.42862E+00  2.31130E+00  2.20035E+00  2.07768E+00  1.93695E+00  1.78216E+00  1.62450E+00  1.47504E+00
   1.34548E+00  1.23961E+00  1.15512E+00  1.09040E+00  1.04313E+00  1.00851E+00  9.85116E-01  9.76395E-01  9.87134E-01  1.02016E+00
   1.07439E+00  1.15010E+00  1.24927E+00  1.36920E+00  1.50557E+00  1.65797E+00  1.82692E+00  2.01234E+00  2.21258E+00  2.42288E+00
   2.63637E+00  2.84657E+00  3.04551E+00  3.22391E+00  3.37319E+00  3.48640E+00  3.55876E+00  3.58705E+00  3.56892E+00  3.50458E+00
   3.39619E+00  3.24741E+00  3.06344E+00  2.85067E+00  2.61619E+00  2.36748E+00  2.11201E+00  1.85686E+00  1.60826E+00  1.37145E+00
   1.15052E+00  9.48434E-01  7.67065E-01  6.07199E-01  4.68704E-01  3.50721E-01  2.51872E-01  1.70477E-01  1.04696E-01  5.26563E-02
   1.25558E-02 -1.72084E-02 -3.79554E-02 -5.06506E-02 -5.58957E-02 -5.39202E-02 -4.45741E-02 -2.72696E-02 -9.60588E-04  3.58550E-02
   8.50755E-02  1.48954E-01  2.30040E-01  3.31124E-01  4.55096E-01  6.04751E-01  7.82511E-01  9.90176E-01  1.22866E+00  1.49772E+00
   1.79572E+00  2.11937E+00  2.46359E+00  2.82153E+00  3.18468E+00  3.54324E+00  3.88641E+00  4.20297E+00  4.48185E+00  4.71283E+00
   4.88724E+00  4.99851E+00  5.04261E+00  5.01836E+00  4.92747E+00  4.77456E+00  4.56678E+00  4.31340E+00  4.02516E+00  3.71364E+00
   3.39059E+00  3.06737E+00  2.75437E+00  2.46064E+00  2.19354E+00  1.95864E+00  1.75973E+00  1.59890E+00  1.47675E+00  1.39258E+00
   1.34459E+00  1.33014E+00  1.34600E+00  1.38856E+00  1.45388E+00  1.53785E+00  1.63622E+00  1.74470E+00  1.85902E+00  1.97497E+00
   2.08839E+00  2.19529E+00  2.29184E+00  2.37455E+00  2.44033E+00  2.48656E+00  2.51114E+00  2.51261E+00  2.49014E+00  2.44363E+00
   2.37366E+00  2.28146E+00  2.16883E+00  2.03803E+00  1.89171E+00  1.73282E+00  1.56443E+00  1.38963E+00  1.21137E+00  1.03244E+00
   8.55327E-01  6.82237E-01  5.15000E-01  3.55061E-01  2.03470E-01  6.09420E-02 -7.21136E-02 -1.95544E-01 -3.09442E-01 -4.14100E-01
  -5.09961E-01 -5.97549E-01 -6.77437E-01 -7.50221E-01 -8.16526E-01 -8.76978E-01 -9.32177E-01 -9.82669E-01 -1.02894E+00 -1.07146E+00
  -1.11063E+00 -1.14686E+00 -1.18049E+00 -1.21180E+00 -1.24104E+00 -1.26843E+00 -1.29419E+00 -1.31851E+00 -1.34155E+00 -1.36342E+00
  -1.38423E+00 -1.40410E+00 -1.42313E+00 -1.44141E+00 -1.45901E+00 -1.47597E+00 -1.49235E+00 -1.50820E+00 -1.52360E+00 -1.53858E+00
  -1.55316E+00 -1.56736E+00 -1.58122E+00 -1.59477E+00 -1.60805E+00 -1.62108E+00 -1.63385E+00 -1.64638E+00 -1.65870E+00 -1.67083E+00
  -1.68279E+00 -1.69459E+00 -1.70621E+00 -1.71768E+00 -1.72900E+00 -1.74021E+00 -1.75131E+00 -1.76229E+00 -1.77314E+00 -1.78388E+00
  -1.79454E+00 -1.80512E+00 -1.81561E+00 -1.82601E+00 -1.83632E+00 -1.84655E+00 -1.85672E+00 -1.86683E+00 -1.87688E+00 -1.88685E+00
  -1.89674E+00 -1.90659E+00 -1.91639E+00 -1.92614E+00 -1.93582E+00 -1.94544E+00 -1.95500E+00 -1.96452E+00 -1.97400E+00 -1.98343E+00
  -1.99279E+00 -2.00208E+00 -2.01133E+00 -2.02053E+00 -2.02969E+00 -2.03877E+00 -2.04777E+00 -2.05670E+00
 NY background values follow
     2.628E+00    2.619E+00    2.610E+00    2.601E+00    2.591E+00    2.582E+00    2.573E+00    2.564E+00    2.555E+00    2.546E+00
     2.537E+00    2.528E+00    2.519E+00    2.509E+00    2.500E+00    2.491E+00    2.482E+00    2.473E+00    2.464E+00    2.455E+00
     2.445E+00    2.436E+00    2.427E+00    2.418E+00    2.409E+00    2.400E+00    2.391E+00    2.381E+00    2.372E+00    2.363E+00
     2.354E+00    2.345E+00    2.336E+00    2.327E+00    2.317E+00    2.308E+00    2.299E+00    2.290E+00    2.281E+00    2.272E+00
     2.262E+00    2.253E+00    2.244E+00    2.235E+00    2.226E+00    2.217E+00    2.207E+00    2.198E+00    2.189E+00    2.180E+00
     2.171E+00    2.162E+00    2.152E+00    2.143E+00    2.134E+00    2.125E+00    2.116E+00    2.107E+00    2.097E+00    2.088E+00
     2.079E+00    2.070E+00    2.061E+00    2.051E+00    2.042E+00    2.033E+00    2.024E+00    2.015E+00    2.005E+00    1.996E+00
     1.987E+00    1.978E+00    1.969E+00    1.959E+00    1.950E+00    1.941E+00    1.932E+00    1.923E+00    1.913E+00    1.904E+00
     1.895E+00    1.886E+00    1.877E+00    1.867E+00    1.858E+00    1.849E+00    1.840E+00    1.830E+00    1.821E+00    1.812E+00
     1.803E+00    1.794E+00    1.784E+00    1.775E+00    1.766E+00    1.757E+00    1.747E+00    1.738E+00    1.729E+00    1.720E+00
     1.711E+00    1.701E+00    1.692E+00    1.683E+00    1.674E+00    1.664E+00    1.655E+00    1.646E+00    1.637E+00    1.627E+00
     1.618E+00    1.609E+00    1.600E+00    1.591E+00    1.581E+00    1.572E+00    1.563E+00    1.554E+00    1.544E+00    1.535E+00
     1.526E+00    1.517E+00    1.507E+00    1.498E+00    1.489E+00    1.480E+00    1.470E+00    1.461E+00    1.452E+00    1.443E+00
     1.433E+00    1.424E+00    1.415E+00    1.406E+00    1.396E+00    1.387E+00    1.378E+00    1.369E+00    1.359E+00    1.350E+00
     1.341E+00    1.332E+00    1.322E+00    1.313E+00    1.304E+00    1.294E+00    1.285E+00    1.276E+00    1.267E+00    1.257E+00
     1.248E+00    1.239E+00    1.230E+00    1.220E+00    1.211E+00    1.202E+00    1.193E+00    1.183E+00    1.174E+00    1.165E+00
     1.155E+00    1.146E+00    1.137E+00    1.128E+00    1.118E+00    1.109E+00    1.100E+00    1.091E+00    1.081E+00    1.072E+00
     1.063E+00    1.053E+00    1.044E+00    1.035E+00    1.026E+00    1.016E+00    1.007E+00    9.978E-01    9.886E-01    9.793E-01
     9.700E-01    9.607E-01    9.514E-01    9.422E-01    9.329E-01    9.236E-01    9.143E-01    9.050E-01    8.958E-01    8.865E-01
     8.772E-01    8.679E-01    8.586E-01    8.493E-01    8.401E-01    8.308E-01    8.215E-01    8.122E-01    8.029E-01    7.936E-01
     7.844E-01    7.751E-01    7.658E-01    7.565E-01    7.472E-01    7.379E-01    7.286E-01    7.193E-01    7.101E-01    7.008E-01
     6.915E-01    6.822E-01    6.729E-01    6.636E-01    6.543E-01    6.450E-01    6.358E-01    6.265E-01    6.172E-01    6.079E-01
     5.986E-01    5.893E-01    5.800E-01    5.707E-01    5.615E-01    5.522E-01    5.429E-01    5.336E-01    5.243E-01    5.150E-01
     5.057E-01    4.964E-01    4.871E-01    4.778E-01    4.686E-01    4.593E-01    4.500E-01    4.407E-01    4.314E-01    4.221E-01
     4.128E-01    4.035E-01    3.942E-01    3.849E-01    3.757E-01    3.664E-01    3.571E-01    3.478E-01    3.385E-01    3.292E-01
     3.199E-01    3.106E-01    3.013E-01    2.921E-01    2.828E-01    2.735E-01    2.642E-01    2.549E-01    2.456E-01    2.363E-01
     2.270E-01    2.177E-01    2.085E-01    1.992E-01    1.899E-01    1.806E-01    1.713E-01    1.620E-01    1.527E-01    1.435E-01
     1.342E-01    1.249E-01    1.156E-01    1.063E-01    9.702E-02    8.774E-02    7.846E-02    6.917E-02    5.989E-02    5.060E-02
     4.132E-02    3.204E-02    2.275E-02    1.347E-02    4.187E-03   -5.095E-03   -1.438E-02   -2.366E-02   -3.294E-02   -4.222E-02
    -5.150E-02   -6.078E-02   -7.006E-02   -7.934E-02   -8.862E-02   -9.790E-02   -1.072E-01   -1.165E-01   -1.257E-01   -1.350E-01
    -1.443E-01   -1.536E-01   -1.628E-01   -1.721E-01   -1.814E-01   -1.907E-01   -1.999E-01   -2.092E-01   -2.185E-01   -2.278E-01
    -2.370E-01   -2.463E-01   -2.556E-01   -2.648E-01   -2.741E-01   -2.834E-01   -2.927E-01   -3.019E-01   -3.112E-01   -3.205E-01
    -3.297E-01   -3.390E-01   -3.483E-01   -3.575E-01   -3.668E-01   -3.761E-01   -3.853E-01   -3.946E-01   -4.038E-01   -4.131E-01
    -4.224E-01   -4.316E-01   -4.409E-01   -4.501E-01   -4.594E-01   -4.687E-01   -4.779E-01   -4.872E-01   -4.964E-01   -5.057E-01
    -5.149E-01   -5.242E-01   -5.334E-01   -5.427E-01   -5.520E-01   -5.612E-01   -5.705E-01   -5.797E-01   -5.890E-01   -5.982E-01
    -6.075E-01   -6.167E-01   -6.259E-01   -6.352E-01   -6.444E-01   -6.537E-01   -6.629E-01   -6.722E-01   -6.814E-01   -6.906E-01
    -6.999E-01   -7.091E-01   -7.184E-01   -7.276E-01   -7.368E-01   -7.461E-01   -7.553E-01   -7.645E-01   -7.738E-01   -7.830E-01
    -7.922E-01   -8.015E-01   -8.107E-01   -8.199E-01   -8.292E-01   -8.384E-01   -8.476E-01   -8.568E-01   -8.661E-01   -8.753E-01
    -8.845E-01   -8.937E-01   -9.029E-01   -9.122E-01   -9.214E-01   -9.306E-01   -9.398E-01   -9.490E-01   -9.582E-01   -9.675E-01
    -9.767E-01   -9.859E-01   -9.951E-01   -1.004E+00   -1.014E+00   -1.023E+00   -1.032E+00   -1.041E+00   -1.050E+00   -1.060E+00
    -1.069E+00   -1.078E+00   -1.087E+00   -1.096E+00   -1.106E+00   -1.115E+00   -1.124E+00   -1.133E+00   -1.142E+00   -1.152E+00
    -1.161E+00   -1.170E+00   -1.179E+00   -1.188E+00   -1.197E+00   -1.207E+00   -1.216E+00   -1.225E+00   -1.234E+00   -1.243E+00
    -1.253E+00   -1.262E+00   -1.271E+00   -1.280E+00   -1.289E+00   -1.298E+00   -1.308E+00   -1.317E+00   -1.326E+00   -1.335E+00
    -1.344E+00   -1.353E+00   -1.363E+00   -1.372E+00   -1.381E+00   -1.390E+00   -1.399E+00   -1.408E+00   -1.418E+00   -1.427E+00
    -1.436E+00   -1.445E+00   -1.454E+00   -1.463E+00   -1.472E+00   -1.482E+00   -1.491E+00   -1.500E+00   -1.509E+00   -1.518E+00
    -1.527E+00   -1.536E+00   -1.546E+00   -1.555E+00   -1.564E+00   -1.573E+00   -1.582E+00   -1.591E+00   -1.600E+00   -1.610E+00
    -1.619E+00   -1.628E+00   -1.637E+00   -1.646E+00   -1.655E+00   -1.664E+00   -1.673E+00   -1.682E+00   -1.692E+00   -1.701E+00
    -1.710E+00   -1.719E+00   -1.728E+00   -1.737E+00   -1.746E+00   -1.755E+00   -1.764E+00   -1.774E+00   -1.783E+00   -1.792E+00
    -1.801E+00   -1.810E+00   -1.819E+00   -1.828E+00   -1.837E+00   -1.846E+00   -1.855E+00   -1.864E+00   -1.874E+00   -1.883E+00
    -1.892E+00   -1.901E+00   -1.910E+00   -1.919E+00   -1.928E+00   -1.937E+00   -1.946E+00   -1.955E+00
 Asp      Conc. = 3.71E+01
