 LCModel (Version 6.3-1L) Copyright: S.W. Provencher.          Ref.: Magn. Reson. Med. 30:672-679 (1993).                
 Slice#1 Row#3 Col#7  PD_05_press_1_raw_act
 36 lines in following concentration table = NCONC+1
    Conc.  %SD /Cr+PCr  Metabolite                                         
    0.000 999%   0.000 Ala                                                 
    0.000 999%   0.000 Asp                                                 
  618.695  39%   0.539 Cr                                                  
  529.856  45%   0.461 PCr                                                 
  174.969  80%   0.152 GABA                                                
   22.444 585% 2.0E-02 Glc                                                 
  489.705  68%   0.426 Gln                                                 
 1.14E+03  33%   0.992 Glu                                                 
  440.182   4%   0.383 GPC                                                 
    0.000 999%   0.000 PCh                                                 
  454.025  17%   0.395 GSH                                                 
 2.20E+03  11%   1.916 Ins                                                 
  393.729  40%   0.343 Lac                                                 
  922.913  16%   0.804 NAA                                                 
  750.731  20%   0.654 NAAG                                                
  146.870  17%   0.128 Scyllo                                              
    0.000 999%   0.000 Tau                                                 
  170.592  55%   0.149 -CrCH2                                              
  440.182   4%   0.383 GPC+PCh                                             
 1.67E+03   4%   1.457 NAA+NAAG                                            
 1.15E+03   5%   1.000 Cr+PCr                                              
 1.63E+03  38%   1.418 Glu+Gln                                             
 1.28E+03  28%   1.111 Lip13a                                              
    0.000 999%   0.000 Lip13b                                              
    0.000 999%   0.000 Lip09                                               
 1.16E+03  13%   1.007 MM09                                                
  257.617  76%   0.224 Lip20                                               
 1.94E+03  13%   1.687 MM20                                                
  390.724  20%   0.340 MM12                                                
  549.720  38%   0.479 MM14                                                
  781.753  17%   0.681 MM17                                                
 1.28E+03  28%   1.111 Lip13a+Lip13b                                       
 2.22E+03  13%   1.930 MM14+Lip13a+Lip13b+MM12                             
 1.16E+03  13%   1.007 MM09+Lip09                                          
 2.20E+03  12%   1.911 MM20+Lip20                                          
   6 lines in following misc. output table
  FWHM = 0.076 ppm    S/N =   8                                            
  Data shift =-0.031 ppm                                                   
  Ph: -25 deg      -8.8 deg/ppm                                            
  alphaB,S = 8.5E+01,   3.2E+02                                            
   14 spline knots.   Ns = 9(1)                                            
   3 inflections.     1 extrema                                            
  498 points on ppm-axis = NY
      4.000000     3.992357     3.984714     3.977070     3.969427     3.961784     3.954141     3.946497     3.938854     3.931211
      3.923568     3.915925     3.908281     3.900638     3.892995     3.885352     3.877708     3.870065     3.862422     3.854779
      3.847136     3.839492     3.831849     3.824206     3.816563     3.808919     3.801276     3.793633     3.785990     3.778347
      3.770703     3.763060     3.755417     3.747774     3.740130     3.732487     3.724844     3.717201     3.709558     3.701914
      3.694271     3.686628     3.678985     3.671341     3.663698     3.656055     3.648412     3.640769     3.633125     3.625482
      3.617839     3.610196     3.602552     3.594909     3.587266     3.579623     3.571980     3.564336     3.556693     3.549050
      3.541407     3.533763     3.526120     3.518477     3.510834     3.503191     3.495547     3.487904     3.480261     3.472618
      3.464974     3.457331     3.449688     3.442045     3.434402     3.426758     3.419115     3.411472     3.403829     3.396185
      3.388542     3.380899     3.373256     3.365613     3.357969     3.350326     3.342683     3.335040     3.327396     3.319753
      3.312110     3.304467     3.296824     3.289180     3.281537     3.273894     3.266251     3.258607     3.250964     3.243321
      3.235678     3.228034     3.220391     3.212748     3.205105     3.197462     3.189818     3.182175     3.174532     3.166889
      3.159245     3.151602     3.143959     3.136316     3.128673     3.121029     3.113386     3.105743     3.098100     3.090456
      3.082813     3.075170     3.067527     3.059884     3.052240     3.044597     3.036954     3.029311     3.021667     3.014024
      3.006381     2.998738     2.991095     2.983451     2.975808     2.968165     2.960522     2.952878     2.945235     2.937592
      2.929949     2.922306     2.914662     2.907019     2.899376     2.891733     2.884089     2.876446     2.868803     2.861160
      2.853517     2.845873     2.838230     2.830587     2.822944     2.815300     2.807657     2.800014     2.792371     2.784728
      2.777084     2.769441     2.761798     2.754155     2.746511     2.738868     2.731225     2.723582     2.715939     2.708295
      2.700652     2.693009     2.685366     2.677722     2.670079     2.662436     2.654793     2.647150     2.639506     2.631863
      2.624220     2.616577     2.608933     2.601290     2.593647     2.586004     2.578361     2.570717     2.563074     2.555431
      2.547788     2.540144     2.532501     2.524858     2.517215     2.509572     2.501928     2.494285     2.486642     2.478999
      2.471355     2.463712     2.456069     2.448426     2.440783     2.433139     2.425496     2.417853     2.410210     2.402566
      2.394923     2.387280     2.379637     2.371994     2.364350     2.356707     2.349064     2.341421     2.333777     2.326134
      2.318491     2.310848     2.303205     2.295561     2.287918     2.280275     2.272632     2.264988     2.257345     2.249702
      2.242059     2.234416     2.226772     2.219129     2.211486     2.203843     2.196199     2.188556     2.180913     2.173270
      2.165627     2.157983     2.150340     2.142697     2.135054     2.127410     2.119767     2.112124     2.104481     2.096838
      2.089194     2.081551     2.073908     2.066265     2.058621     2.050978     2.043335     2.035692     2.028049     2.020405
      2.012762     2.005119     1.997476     1.989833     1.982190     1.974546     1.966903     1.959260     1.951617     1.943974
      1.936331     1.928688     1.921045     1.913402     1.905759     1.898115     1.890472     1.882829     1.875186     1.867543
      1.859900     1.852257     1.844614     1.836971     1.829327     1.821684     1.814041     1.806398     1.798755     1.791112
      1.783469     1.775826     1.768183     1.760540     1.752896     1.745253     1.737610     1.729967     1.722324     1.714681
      1.707038     1.699395     1.691752     1.684108     1.676465     1.668822     1.661179     1.653536     1.645893     1.638250
      1.630607     1.622964     1.615321     1.607677     1.600034     1.592391     1.584748     1.577105     1.569462     1.561819
      1.554176     1.546533     1.538890     1.531246     1.523603     1.515960     1.508317     1.500674     1.493031     1.485388
      1.477745     1.470102     1.462458     1.454815     1.447172     1.439529     1.431886     1.424243     1.416600     1.408957
      1.401314     1.393671     1.386027     1.378384     1.370741     1.363098     1.355455     1.347812     1.340169     1.332526
      1.324883     1.317240     1.309596     1.301953     1.294310     1.286667     1.279024     1.271381     1.263738     1.256095
      1.248452     1.240808     1.233165     1.225522     1.217879     1.210236     1.202593     1.194950     1.187307     1.179664
      1.172021     1.164377     1.156734     1.149091     1.141448     1.133805     1.126162     1.118519     1.110876     1.103233
      1.095590     1.087946     1.080303     1.072660     1.065017     1.057374     1.049731     1.042088     1.034445     1.026802
      1.019158     1.011515     1.003872     0.996229     0.988586     0.980943     0.973300     0.965657     0.958014     0.950371
      0.942727     0.935084     0.927441     0.919798     0.912155     0.904512     0.896869     0.889226     0.881583     0.873940
      0.866296     0.858653     0.851010     0.843367     0.835724     0.828081     0.820438     0.812795     0.805152     0.797508
      0.789865     0.782222     0.774579     0.766936     0.759293     0.751650     0.744007     0.736364     0.728721     0.721077
      0.713434     0.705791     0.698148     0.690505     0.682862     0.675219     0.667576     0.659933     0.652290     0.644646
      0.637003     0.629360     0.621717     0.614074     0.606431     0.598788     0.591145     0.583502     0.575858     0.568215
      0.560572     0.552929     0.545286     0.537643     0.530000     0.522357     0.514714     0.507071     0.499427     0.491784
      0.484141     0.476498     0.468855     0.461212     0.453569     0.445925     0.438282     0.430639     0.422996     0.415353
      0.407710     0.400067     0.392424     0.384780     0.377137     0.369494     0.361851     0.354208     0.346565     0.338922
      0.331278     0.323635     0.315992     0.308349     0.300706     0.293063     0.285420     0.277777     0.270133     0.262490
      0.254847     0.247204     0.239561     0.231918     0.224275     0.216631     0.208988     0.201345
 NY phased data points follow
   8.96848E+00  8.10010E+00  5.91219E+00  7.83069E+00  1.31064E+01  1.31693E+01  1.68844E+01  1.81499E+01  2.09835E+01  2.19990E+01
   1.85356E+01  1.60861E+01  1.33247E+01  1.72803E+01  1.35783E+01  1.32622E+01  5.75967E+00  7.64200E+00  5.93589E+00  7.98395E+00
   1.09539E+01  6.99762E+00  5.53104E+00  7.48406E+00  5.87372E+00  8.56664E+00  9.97513E+00  9.71202E+00  8.72467E+00  1.26826E+01
   1.18530E+01  8.50615E+00  8.05179E+00  8.85424E+00  8.64413E+00  9.88534E+00  1.05033E+01  1.04694E+01  7.67245E+00  8.50260E+00
   6.33055E+00  1.24883E+01  9.42339E+00  1.23213E+01  9.65640E+00  1.29113E+01  1.04456E+01  1.24696E+01  1.51985E+01  1.25178E+01
   1.23453E+01  1.09733E+01  8.19318E+00  5.55629E+00  8.48248E+00  4.51194E+00  8.37928E+00  2.27279E+00  4.04727E+00  3.24348E+00
   8.15176E+00  7.52703E-01  5.49031E+00  2.37179E+00  3.92255E+00  5.80686E+00  1.29667E+00  1.41010E+00  2.28776E+00  2.13048E+00
   5.25289E+00  4.22913E+00  1.69561E+00  3.86322E+00  1.76037E+00  4.30923E+00  4.88805E+00  4.11082E+00  6.90686E+00 -7.80044E-01
   4.94736E+00  8.99417E+00  5.85895E+00  1.50562E+00  6.36519E+00  6.87167E+00  9.82888E+00  5.18055E+00  4.45857E+00  5.08617E+00
   3.29001E+00  2.61864E+00  9.61103E+00  8.07968E+00  1.16121E+01  9.93897E+00  1.27073E+01  1.29083E+01  1.80701E+01  2.09222E+01
   2.53820E+01  3.06942E+01  3.32069E+01  3.06419E+01  2.55284E+01  1.87813E+01  1.77973E+01  1.08718E+01  9.49649E+00  6.69396E+00
   2.36071E+00 -3.16804E-01  2.76833E+00  4.32187E+00  3.00136E+00  5.21562E+00  3.36435E+00  6.19700E+00  8.11879E+00  9.07921E+00
   9.51186E+00  1.21581E+01  1.97928E+01  1.70042E+01  2.65139E+01  2.90887E+01  3.05495E+01  3.03085E+01  2.48274E+01  2.44546E+01
   1.84062E+01  1.46669E+01  1.25156E+01  8.58369E+00  4.40724E+00  2.20774E+00  2.08313E+00 -2.49797E+00  9.67040E-01  1.42304E-01
   1.17522E-01  3.95634E+00 -1.44948E+00 -1.16852E-01  1.54125E+00  3.92767E+00  2.64728E+00  4.44695E-02  5.29526E-02  1.52892E+00
   4.05025E-01  1.29485E+00 -1.84908E-01  5.75475E-01 -2.12861E-01  1.54903E+00  7.23630E-03  2.75125E+00  4.66398E+00 -5.66400E-01
  -1.64746E+00 -2.14873E+00 -1.32861E+00 -2.93632E+00 -1.43436E+00 -1.35585E+00 -2.90116E+00 -1.49001E+00 -4.82332E+00 -3.39885E+00
  -3.73394E+00 -4.05197E+00 -6.67485E+00 -6.25845E+00 -6.89221E+00 -8.13644E+00 -6.11749E+00 -3.13710E+00 -1.70630E+00 -1.72297E+00
  -2.65787E+00 -4.71030E+00 -4.03103E+00 -7.97466E+00 -5.78973E+00 -3.29070E+00 -5.24030E+00 -7.43134E+00 -3.74322E+00 -5.16200E+00
  -3.52465E+00 -2.58345E-01 -1.57986E+00 -1.11058E+00 -9.39764E-01 -9.53553E-01 -3.53081E+00 -4.29513E-03  2.39487E+00 -3.75576E+00
  -6.66800E-01  3.51398E-01  9.13183E-01  1.93969E+00  1.92193E+00  2.47821E+00  1.87214E+00  3.38813E+00  2.84763E-01  3.21746E+00
   2.09105E-02  3.16074E+00  3.63640E+00  3.22887E+00  1.99129E+00  1.14699E+00  3.24196E+00  4.13705E+00  5.85592E+00  1.02016E+00
  -9.52052E-01  1.32077E+00 -7.99735E-01  8.58566E-01  4.11522E+00  4.73725E+00  5.99129E+00  6.23815E+00  3.97988E+00  1.16420E+01
   4.22404E+00  4.96749E+00  1.03148E+00  1.62878E+00  5.80030E+00  4.78840E+00  4.39336E+00  3.83563E+00  2.68640E+00  5.03098E+00
   5.48276E+00  5.02771E+00  6.63568E+00  7.75790E+00  8.34727E+00  1.00826E+01  9.08912E+00  1.24088E+01  1.55087E+01  1.61559E+01
   2.16878E+01  2.60343E+01  2.63277E+01  3.33864E+01  3.04702E+01  2.97355E+01  3.89248E+01  4.32543E+01  4.58608E+01  4.46815E+01
   4.69197E+01  3.77278E+01  3.89671E+01  3.62544E+01  2.71086E+01  1.74181E+01  1.34312E+01  6.69274E+00  7.92504E+00  1.16730E+01
   7.73842E+00  8.09653E+00  3.56868E+00  7.95592E+00  5.57275E+00  9.79821E+00  3.99529E+00  9.84236E-01  5.78796E+00  3.60991E+00
   5.41632E+00  4.91204E+00  6.36548E+00  3.55763E+00  4.92117E+00  2.60648E+00 -1.38541E+00  3.47481E+00  3.39736E+00  3.75445E+00
   5.51959E+00  9.34684E+00  2.44343E+00  3.96284E-01  3.51751E+00  3.72432E+00  4.79854E+00  2.88950E+00  3.68310E+00  6.80731E+00
   6.87297E+00  7.69607E+00  6.30122E+00  6.21241E+00  5.17472E+00  1.04447E+01  1.00043E+01  6.75629E+00  1.07779E+01  7.95109E+00
   9.09230E+00  3.88834E+00  6.22388E+00  8.36652E+00  8.90437E+00  7.70728E+00  6.91959E+00  7.33116E+00  1.02950E+01  4.09453E+00
   2.59243E+00  7.72242E+00  7.17782E+00  4.15854E+00  4.20157E+00  7.59417E+00  3.64170E+00  2.41946E+00  4.25927E+00  8.13849E+00
   4.44141E+00  7.70967E+00  4.88325E+00  8.15629E+00  2.20373E+00  7.87932E+00  6.25342E+00  3.61848E+00  7.42831E+00  7.75127E+00
   4.90876E+00  4.92155E+00  4.62481E+00  5.81735E+00  1.01127E+01  6.95914E+00  6.16617E+00  9.15264E+00  6.30803E+00  4.74242E+00
   7.71907E+00  5.27750E+00  6.26800E+00  3.93270E+00  2.81075E+00  6.74722E+00  9.22312E+00  5.24435E+00  1.16190E+01  1.15237E+01
   1.34029E+01  1.04726E+01  1.30175E+01  9.40256E+00  1.28039E+01  1.28055E+01  1.25626E+01  1.26081E+01  9.89042E+00  9.93274E+00
   1.19715E+01  1.32970E+01  1.02309E+01  1.34408E+01  1.04236E+01  1.16363E+01  1.00400E+01  1.29670E+01  1.19244E+01  1.20504E+01
   1.17550E+01  1.01484E+01  9.73979E+00  1.16972E+01  1.08993E+01  6.55699E+00  1.00605E+01  7.68689E+00  6.86193E+00  9.89995E+00
   1.08727E+01  8.74228E+00  6.75645E+00  5.64050E+00  6.46264E+00  5.63420E+00  8.86372E+00  6.88383E+00  7.00384E+00  3.85413E+00
   8.60542E+00  1.09008E+01  7.27620E+00  6.29450E+00  5.13602E+00  5.41149E+00  7.92165E+00  6.97725E+00  7.57361E+00  6.61986E+00
   8.16846E+00  4.93942E+00  2.23579E+00  2.85672E+00  5.19188E+00  9.00968E+00  1.75543E+00  5.08328E+00  4.98802E+00  3.37815E+00
   4.18991E-01  1.54716E+00  4.33443E+00  3.20164E+00  2.37545E+00  2.97874E+00  5.47690E+00  2.71933E+00  1.04104E+00  4.52158E-01
  -3.03337E+00  2.54097E+00  2.11513E+00  6.73579E-01  2.06258E+00  3.72676E+00  1.35059E-01  1.78809E+00  9.52850E-01  2.94668E+00
   1.95160E+00  3.04520E+00 -3.87446E-02  1.50457E+00  2.90238E+00  7.13903E+00  4.07003E+00 -5.04145E-02 -9.26475E-01  3.54573E+00
   1.55629E+00  5.34413E+00  1.55353E+00  3.36472E+00  4.28568E+00  3.23464E+00  2.19875E+00  3.25683E+00  7.10899E+00  4.65468E+00
   4.66128E+00  2.33772E+00  3.21919E+00  7.66191E-01  2.42431E+00  2.59342E+00  2.47112E+00 -2.34663E+00  2.50483E+00  2.71315E+00
   5.77155E+00 -8.88851E-01  3.42430E+00  2.27419E-01  3.43793E+00 -2.77145E-01  5.35420E+00  2.91279E+00  4.65442E+00  6.43164E+00
   2.87939E+00  2.01925E+00  2.72963E+00  4.55778E+00  1.26976E+00  4.85835E+00  2.57622E+00  2.50503E-01  4.62345E+00  5.24039E+00
   2.83778E+00  4.28204E+00 -1.17553E+00 -6.87732E-01  4.86951E+00  2.73216E+00  2.36837E+00  2.98501E+00
 NY points of the fit to the data follow
   8.59636E+00  8.74470E+00  9.55272E+00  1.08335E+01  1.23457E+01  1.39552E+01  1.56187E+01  1.72230E+01  1.84989E+01  1.91900E+01
   1.91521E+01  1.83518E+01  1.68841E+01  1.49603E+01  1.28056E+01  1.06314E+01  8.65066E+00  6.98182E+00  5.61978E+00  4.61494E+00
   4.14212E+00  4.30630E+00  4.84908E+00  5.54686E+00  6.36568E+00  7.31853E+00  8.35361E+00  9.43017E+00  1.04977E+01  1.14242E+01
   1.20162E+01  1.21045E+01  1.16731E+01  1.08393E+01  9.73395E+00  8.49462E+00  7.31711E+00  6.39256E+00  5.96095E+00  6.16945E+00
   6.88054E+00  7.79388E+00  8.75762E+00  9.84597E+00  1.10385E+01  1.21637E+01  1.29634E+01  1.32227E+01  1.28011E+01  1.16903E+01
   1.01210E+01  8.41079E+00  6.82665E+00  5.55966E+00  4.64686E+00  4.08139E+00  3.85773E+00  3.95497E+00  4.34124E+00  4.85748E+00
   5.25486E+00  5.35415E+00  5.16281E+00  4.83076E+00  4.46608E+00  4.15804E+00  3.98183E+00  3.97978E+00  4.13742E+00  4.40266E+00
   4.73033E+00  5.04937E+00  5.27809E+00  5.36765E+00  5.30059E+00  5.11369E+00  4.88654E+00  4.79267E+00  4.91715E+00  5.03562E+00
   5.05562E+00  5.06217E+00  5.14972E+00  5.32584E+00  5.50048E+00  5.58008E+00  5.48003E+00  5.19168E+00  4.75665E+00  4.24392E+00
   3.78268E+00  3.55222E+00  3.91202E+00  5.67926E+00  8.48635E+00  1.13235E+01  1.39939E+01  1.68102E+01  1.99546E+01  2.32281E+01
   2.62242E+01  2.84107E+01  2.92477E+01  2.84163E+01  2.59894E+01  2.23631E+01  1.81009E+01  1.37970E+01  9.88070E+00  6.53465E+00
   3.80967E+00  1.75816E+00  5.19123E-01  2.03784E-01  4.09044E-01  7.73454E-01  1.41418E+00  2.96000E+00  5.60188E+00  8.53650E+00
   1.13868E+01  1.43105E+01  1.75365E+01  2.10419E+01  2.45138E+01  2.73851E+01  2.90233E+01  2.90416E+01  2.74075E+01  2.44049E+01
   2.05440E+01  1.63595E+01  1.23145E+01  8.65277E+00  5.46553E+00  2.86493E+00  1.03278E+00  1.51982E-01  3.94430E-02  2.38521E-01
   5.40725E-01  8.40450E-01  1.07214E+00  1.20860E+00  1.24480E+00  1.15680E+00  9.49257E-01  6.84364E-01  4.00935E-01  1.27288E-01
  -1.03598E-01 -3.09751E-01 -5.09315E-01 -6.87600E-01 -8.19426E-01 -8.91916E-01 -9.13720E-01 -9.38326E-01 -1.00441E+00 -1.11650E+00
  -1.26624E+00 -1.44445E+00 -1.61407E+00 -1.74852E+00 -1.86393E+00 -1.99665E+00 -2.17843E+00 -2.40758E+00 -2.62543E+00 -2.76948E+00
  -2.84380E+00 -2.90106E+00 -2.99629E+00 -3.12695E+00 -3.25475E+00 -3.33050E+00 -3.35383E+00 -3.34748E+00 -3.33136E+00 -3.27778E+00
  -3.14467E+00 -2.90798E+00 -2.54889E+00 -2.06529E+00 -1.50841E+00 -9.36804E-01 -3.70423E-01  1.70786E-01  6.45129E-01  1.01895E+00
   1.28852E+00  1.41963E+00  1.37250E+00  1.17493E+00  9.19556E-01  7.18426E-01  6.59886E-01  7.87126E-01  1.06961E+00  1.48204E+00
   1.90748E+00  2.20434E+00  2.34916E+00  2.35677E+00  2.17319E+00  1.80039E+00  1.35839E+00  9.72790E-01  6.16319E-01  3.65347E-01
   3.67575E-01  6.82711E-01  1.20711E+00  1.74386E+00  2.19700E+00  2.54623E+00  2.68666E+00  2.51484E+00  2.06132E+00  1.46410E+00
   9.03865E-01  5.42097E-01  4.65427E-01  7.36316E-01  1.34797E+00  2.20208E+00  3.15436E+00  4.02329E+00  4.70025E+00  5.18932E+00
   5.51610E+00  5.73207E+00  5.91597E+00  6.06828E+00  6.18466E+00  6.33201E+00  6.51680E+00  6.65993E+00  6.71481E+00  6.70187E+00
   6.65588E+00  6.61439E+00  6.64208E+00  6.84754E+00  7.28587E+00  7.94075E+00  8.95687E+00  1.07558E+01  1.30133E+01  1.52550E+01
   1.75919E+01  2.08293E+01  2.51391E+01  2.96875E+01  3.39367E+01  3.77123E+01  4.08477E+01  4.31309E+01  4.43650E+01  4.43680E+01
   4.30007E+01  4.02634E+01  3.63613E+01  3.16445E+01  2.65500E+01  2.15761E+01  1.71928E+01  1.36503E+01  1.07644E+01  8.41426E+00
   6.68674E+00  5.70557E+00  5.25568E+00  4.97816E+00  4.76383E+00  4.56683E+00  4.34997E+00  4.11467E+00  3.87021E+00  3.62493E+00
   3.39165E+00  3.18101E+00  3.00324E+00  2.87352E+00  2.79776E+00  2.76974E+00  2.77914E+00  2.81870E+00  2.88609E+00  2.98268E+00
   3.10736E+00  3.26258E+00  3.45062E+00  3.67012E+00  3.91834E+00  4.18961E+00  4.47877E+00  4.78478E+00  5.10517E+00  5.43606E+00
   5.77257E+00  6.10676E+00  6.42970E+00  6.73326E+00  7.00610E+00  7.23619E+00  7.41489E+00  7.53676E+00  7.59890E+00  7.60042E+00
   7.54305E+00  7.43317E+00  7.27886E+00  7.08882E+00  6.87268E+00  6.64021E+00  6.40111E+00  6.16457E+00  5.93879E+00  5.73063E+00
   5.54550E+00  5.38725E+00  5.25827E+00  5.15954E+00  5.09077E+00  5.05062E+00  5.03709E+00  5.04779E+00  5.08022E+00  5.13198E+00
   5.20104E+00  5.28598E+00  5.38634E+00  5.50293E+00  5.63846E+00  5.79847E+00  5.99401E+00  6.25002E+00  6.62996E+00  7.14009E+00
   7.58595E+00  7.90609E+00  8.14914E+00  8.34572E+00  8.45605E+00  8.38973E+00  8.16081E+00  7.88464E+00  7.52612E+00  7.07300E+00
   6.61913E+00  6.31674E+00  6.30334E+00  6.64412E+00  7.31034E+00  8.19570E+00  9.16069E+00  1.00809E+01  1.08707E+01  1.14502E+01
   1.17506E+01  1.18174E+01  1.17207E+01  1.15068E+01  1.12078E+01  1.08601E+01  1.05328E+01  1.02757E+01  1.00575E+01  9.85777E+00
   9.67071E+00  9.49603E+00  9.33575E+00  9.19275E+00  9.07022E+00  8.97107E+00  8.89770E+00  8.85171E+00  8.83381E+00  8.84363E+00
   8.87978E+00  8.93973E+00  9.02000E+00  9.11615E+00  9.22303E+00  9.33487E+00  9.44556E+00  9.54883E+00  9.63857E+00  9.70897E+00
   9.75489E+00  9.77190E+00  9.75658E+00  9.70655E+00  9.62061E+00  9.49870E+00  9.34189E+00  9.15226E+00  8.93281E+00  8.68722E+00
   8.41975E+00  8.13495E+00  7.83757E+00  7.53226E+00  7.22350E+00  6.91538E+00  6.61161E+00  6.31536E+00  6.02924E+00  5.75532E+00
   5.49513E+00  5.24967E+00  5.01956E+00  4.80495E+00  4.60573E+00  4.42148E+00  4.25162E+00  4.09539E+00  3.95200E+00  3.82054E+00
   3.70013E+00  3.58985E+00  3.48887E+00  3.39634E+00  3.31154E+00  3.23371E+00  3.16223E+00  3.09647E+00  3.03592E+00  2.98007E+00
   2.92851E+00  2.88082E+00  2.83666E+00  2.79570E+00  2.75767E+00  2.72231E+00  2.68941E+00  2.65874E+00  2.63014E+00  2.60342E+00
   2.57846E+00  2.55510E+00  2.53324E+00  2.51275E+00  2.49354E+00  2.47550E+00  2.45858E+00  2.44268E+00  2.42774E+00  2.41369E+00
   2.40047E+00  2.38803E+00  2.37633E+00  2.36531E+00  2.35494E+00  2.34516E+00  2.33597E+00  2.32730E+00  2.31915E+00  2.31146E+00
   2.30423E+00  2.29741E+00  2.29099E+00  2.28495E+00  2.27927E+00  2.27391E+00  2.26888E+00  2.26413E+00  2.25968E+00  2.25548E+00
   2.25155E+00  2.24784E+00  2.24437E+00  2.24109E+00  2.23803E+00  2.23514E+00  2.23244E+00  2.22988E+00  2.22749E+00  2.22523E+00
   2.22311E+00  2.22110E+00  2.21920E+00  2.21739E+00  2.21567E+00  2.21402E+00  2.21245E+00  2.21092E+00  2.20945E+00  2.20798E+00
   2.20655E+00  2.20510E+00  2.20366E+00  2.20218E+00  2.20065E+00  2.19905E+00  2.19738E+00  2.19559E+00
 NY background values follow
    -1.797E+00   -1.791E+00   -1.785E+00   -1.779E+00   -1.773E+00   -1.767E+00   -1.761E+00   -1.755E+00   -1.749E+00   -1.743E+00
    -1.737E+00   -1.731E+00   -1.725E+00   -1.719E+00   -1.713E+00   -1.707E+00   -1.701E+00   -1.695E+00   -1.689E+00   -1.683E+00
    -1.677E+00   -1.670E+00   -1.664E+00   -1.658E+00   -1.652E+00   -1.646E+00   -1.640E+00   -1.634E+00   -1.628E+00   -1.622E+00
    -1.616E+00   -1.610E+00   -1.604E+00   -1.598E+00   -1.592E+00   -1.586E+00   -1.579E+00   -1.573E+00   -1.567E+00   -1.561E+00
    -1.555E+00   -1.549E+00   -1.543E+00   -1.537E+00   -1.531E+00   -1.525E+00   -1.518E+00   -1.512E+00   -1.506E+00   -1.500E+00
    -1.494E+00   -1.488E+00   -1.482E+00   -1.476E+00   -1.469E+00   -1.463E+00   -1.457E+00   -1.451E+00   -1.445E+00   -1.439E+00
    -1.433E+00   -1.426E+00   -1.420E+00   -1.414E+00   -1.408E+00   -1.402E+00   -1.396E+00   -1.389E+00   -1.383E+00   -1.377E+00
    -1.371E+00   -1.365E+00   -1.359E+00   -1.352E+00   -1.346E+00   -1.340E+00   -1.334E+00   -1.328E+00   -1.321E+00   -1.315E+00
    -1.309E+00   -1.303E+00   -1.297E+00   -1.290E+00   -1.284E+00   -1.278E+00   -1.272E+00   -1.266E+00   -1.259E+00   -1.253E+00
    -1.247E+00   -1.241E+00   -1.234E+00   -1.228E+00   -1.222E+00   -1.216E+00   -1.209E+00   -1.203E+00   -1.197E+00   -1.191E+00
    -1.184E+00   -1.178E+00   -1.172E+00   -1.166E+00   -1.159E+00   -1.153E+00   -1.147E+00   -1.141E+00   -1.134E+00   -1.128E+00
    -1.122E+00   -1.116E+00   -1.109E+00   -1.103E+00   -1.097E+00   -1.090E+00   -1.084E+00   -1.078E+00   -1.072E+00   -1.065E+00
    -1.059E+00   -1.053E+00   -1.046E+00   -1.040E+00   -1.034E+00   -1.028E+00   -1.021E+00   -1.015E+00   -1.009E+00   -1.002E+00
    -9.961E-01   -9.898E-01   -9.835E-01   -9.772E-01   -9.708E-01   -9.645E-01   -9.582E-01   -9.519E-01   -9.456E-01   -9.392E-01
    -9.329E-01   -9.266E-01   -9.203E-01   -9.139E-01   -9.076E-01   -9.013E-01   -8.949E-01   -8.886E-01   -8.823E-01   -8.759E-01
    -8.696E-01   -8.632E-01   -8.569E-01   -8.505E-01   -8.442E-01   -8.379E-01   -8.315E-01   -8.252E-01   -8.188E-01   -8.124E-01
    -8.061E-01   -7.997E-01   -7.934E-01   -7.870E-01   -7.806E-01   -7.743E-01   -7.679E-01   -7.616E-01   -7.552E-01   -7.488E-01
    -7.424E-01   -7.361E-01   -7.297E-01   -7.233E-01   -7.170E-01   -7.106E-01   -7.042E-01   -6.978E-01   -6.914E-01   -6.851E-01
    -6.787E-01   -6.723E-01   -6.659E-01   -6.595E-01   -6.531E-01   -6.467E-01   -6.404E-01   -6.340E-01   -6.276E-01   -6.212E-01
    -6.148E-01   -6.084E-01   -6.020E-01   -5.956E-01   -5.892E-01   -5.828E-01   -5.764E-01   -5.700E-01   -5.636E-01   -5.572E-01
    -5.508E-01   -5.444E-01   -5.380E-01   -5.315E-01   -5.251E-01   -5.187E-01   -5.123E-01   -5.059E-01   -4.995E-01   -4.931E-01
    -4.867E-01   -4.803E-01   -4.738E-01   -4.674E-01   -4.610E-01   -4.546E-01   -4.482E-01   -4.417E-01   -4.353E-01   -4.289E-01
    -4.225E-01   -4.161E-01   -4.096E-01   -4.032E-01   -3.968E-01   -3.904E-01   -3.839E-01   -3.775E-01   -3.711E-01   -3.646E-01
    -3.582E-01   -3.518E-01   -3.454E-01   -3.389E-01   -3.325E-01   -3.261E-01   -3.196E-01   -3.132E-01   -3.068E-01   -3.003E-01
    -2.939E-01   -2.875E-01   -2.810E-01   -2.746E-01   -2.681E-01   -2.617E-01   -2.553E-01   -2.488E-01   -2.424E-01   -2.360E-01
    -2.295E-01   -2.231E-01   -2.166E-01   -2.102E-01   -2.038E-01   -1.973E-01   -1.909E-01   -1.844E-01   -1.780E-01   -1.715E-01
    -1.651E-01   -1.587E-01   -1.522E-01   -1.458E-01   -1.393E-01   -1.329E-01   -1.264E-01   -1.200E-01   -1.136E-01   -1.071E-01
    -1.007E-01   -9.422E-02   -8.778E-02   -8.133E-02   -7.489E-02   -6.844E-02   -6.200E-02   -5.555E-02   -4.911E-02   -4.266E-02
    -3.622E-02   -2.978E-02   -2.333E-02   -1.689E-02   -1.044E-02   -3.996E-03    2.448E-03    8.893E-03    1.534E-02    2.178E-02
     2.823E-02    3.467E-02    4.111E-02    4.756E-02    5.400E-02    6.044E-02    6.689E-02    7.333E-02    7.977E-02    8.622E-02
     9.266E-02    9.910E-02    1.055E-01    1.120E-01    1.184E-01    1.249E-01    1.313E-01    1.377E-01    1.442E-01    1.506E-01
     1.571E-01    1.635E-01    1.699E-01    1.764E-01    1.828E-01    1.893E-01    1.957E-01    2.021E-01    2.086E-01    2.150E-01
     2.214E-01    2.279E-01    2.343E-01    2.407E-01    2.472E-01    2.536E-01    2.600E-01    2.665E-01    2.729E-01    2.793E-01
     2.858E-01    2.922E-01    2.986E-01    3.050E-01    3.115E-01    3.179E-01    3.243E-01    3.307E-01    3.372E-01    3.436E-01
     3.500E-01    3.564E-01    3.629E-01    3.693E-01    3.757E-01    3.821E-01    3.885E-01    3.950E-01    4.014E-01    4.078E-01
     4.142E-01    4.206E-01    4.270E-01    4.334E-01    4.399E-01    4.463E-01    4.527E-01    4.591E-01    4.655E-01    4.719E-01
     4.783E-01    4.847E-01    4.911E-01    4.975E-01    5.039E-01    5.103E-01    5.167E-01    5.231E-01    5.295E-01    5.359E-01
     5.423E-01    5.487E-01    5.551E-01    5.615E-01    5.679E-01    5.743E-01    5.807E-01    5.870E-01    5.934E-01    5.998E-01
     6.062E-01    6.126E-01    6.190E-01    6.253E-01    6.317E-01    6.381E-01    6.445E-01    6.509E-01    6.572E-01    6.636E-01
     6.700E-01    6.763E-01    6.827E-01    6.891E-01    6.954E-01    7.018E-01    7.082E-01    7.145E-01    7.209E-01    7.273E-01
     7.336E-01    7.400E-01    7.463E-01    7.527E-01    7.590E-01    7.654E-01    7.717E-01    7.781E-01    7.844E-01    7.908E-01
     7.971E-01    8.034E-01    8.098E-01    8.161E-01    8.225E-01    8.288E-01    8.351E-01    8.415E-01    8.478E-01    8.541E-01
     8.604E-01    8.668E-01    8.731E-01    8.794E-01    8.857E-01    8.920E-01    8.984E-01    9.047E-01    9.110E-01    9.173E-01
     9.236E-01    9.299E-01    9.362E-01    9.425E-01    9.488E-01    9.551E-01    9.614E-01    9.677E-01    9.740E-01    9.803E-01
     9.866E-01    9.929E-01    9.992E-01    1.005E+00    1.012E+00    1.018E+00    1.024E+00    1.031E+00    1.037E+00    1.043E+00
     1.049E+00    1.056E+00    1.062E+00    1.068E+00    1.074E+00    1.081E+00    1.087E+00    1.093E+00    1.099E+00    1.106E+00
     1.112E+00    1.118E+00    1.124E+00    1.131E+00    1.137E+00    1.143E+00    1.149E+00    1.156E+00    1.162E+00    1.168E+00
     1.174E+00    1.181E+00    1.187E+00    1.193E+00    1.199E+00    1.205E+00    1.212E+00    1.218E+00    1.224E+00    1.230E+00
     1.236E+00    1.243E+00    1.249E+00    1.255E+00    1.261E+00    1.267E+00    1.274E+00    1.280E+00    1.286E+00    1.292E+00
     1.298E+00    1.305E+00    1.311E+00    1.317E+00    1.323E+00    1.329E+00    1.335E+00    1.342E+00
 Cr       Conc. = 6.19E+02
