 LCModel (Version 6.3-1L) Copyright: S.W. Provencher.          Ref.: Magn. Reson. Med. 30:672-679 (1993).                
 Slice#1 Row#1 Col#1  PD_05_press_1_raw_act
 36 lines in following concentration table = NCONC+1
    Conc.  %SD /Cr+PCr  Metabolite                                         
  232.870  63%  11.243 Ala                                                 
    1.036 167% 5.0E-02 Asp                                                 
   20.713 115%   1.000 Cr                                                  
    0.000 999%   0.000 PCr                                                 
    0.623 166% 3.0E-02 GABA                                                
    0.624 166% 3.0E-02 Glc                                                 
  364.532  61%  17.600 Gln                                                 
    0.000 999%   0.000 Glu                                                 
    0.000 999%   0.000 GPC                                                 
    0.000 999%   0.000 PCh                                                 
   45.318  85%   2.188 GSH                                                 
   11.217 756%   0.542 Ins                                                 
 1.18E+03  10%  56.994 Lac                                                 
    0.000 999%   0.000 NAA                                                 
    0.000 999%   0.000 NAAG                                                
    0.212 164% 1.0E-02 Scyllo                                              
    1.025 169% 5.0E-02 Tau                                                 
    2.071 115%   0.100 -CrCH2                                              
    0.000 999%   0.000 GPC+PCh                                             
    0.000 999%   0.000 NAA+NAAG                                            
   20.713 115%   1.000 Cr+PCr                                              
  364.532  61%  17.600 Glu+Gln                                             
    0.000 999%   0.000 Lip13a                                              
  112.313  32%   5.422 Lip13b                                              
   17.298 101%   0.835 Lip09                                               
    0.000 999%   0.000 MM09                                                
   17.044  69%   0.823 Lip20                                               
    0.000 999%   0.000 MM20                                                
    0.000 999%   0.000 MM12                                                
 9.51E-03 999% 4.6E-04 MM14                                                
    0.000 999%   0.000 MM17                                                
  112.313  32%   5.422 Lip13a+Lip13b                                       
  112.323  32%   5.423 MM14+Lip13a+Lip13b+MM12                             
   17.298 101%   0.835 MM09+Lip09                                          
   17.044  69%   0.823 MM20+Lip20                                          
   6 lines in following misc. output table
  FWHM = 0.138 ppm    S/N =   2                                            
  Data shift = 0.138 ppm                                                   
  Ph: -99 deg     -48.0 deg/ppm                                            
  alphaB,S = 8.5E+01,   2.0E+02                                            
   14 spline knots.   Ns = 7(2)                                            
   2 inflections.     1 extrema                                            
  498 points on ppm-axis = NY
      4.000000     3.992357     3.984714     3.977070     3.969427     3.961784     3.954141     3.946497     3.938854     3.931211
      3.923568     3.915925     3.908281     3.900638     3.892995     3.885352     3.877708     3.870065     3.862422     3.854779
      3.847136     3.839492     3.831849     3.824206     3.816563     3.808919     3.801276     3.793633     3.785990     3.778347
      3.770703     3.763060     3.755417     3.747774     3.740130     3.732487     3.724844     3.717201     3.709558     3.701914
      3.694271     3.686628     3.678985     3.671341     3.663698     3.656055     3.648412     3.640769     3.633125     3.625482
      3.617839     3.610196     3.602552     3.594909     3.587266     3.579623     3.571980     3.564336     3.556693     3.549050
      3.541407     3.533763     3.526120     3.518477     3.510834     3.503191     3.495547     3.487904     3.480261     3.472618
      3.464974     3.457331     3.449688     3.442045     3.434402     3.426758     3.419115     3.411472     3.403829     3.396185
      3.388542     3.380899     3.373256     3.365613     3.357969     3.350326     3.342683     3.335040     3.327396     3.319753
      3.312110     3.304467     3.296824     3.289180     3.281537     3.273894     3.266251     3.258607     3.250964     3.243321
      3.235678     3.228034     3.220391     3.212748     3.205105     3.197462     3.189818     3.182175     3.174532     3.166889
      3.159245     3.151602     3.143959     3.136316     3.128673     3.121029     3.113386     3.105743     3.098100     3.090456
      3.082813     3.075170     3.067527     3.059884     3.052240     3.044597     3.036954     3.029311     3.021667     3.014024
      3.006381     2.998738     2.991095     2.983451     2.975808     2.968165     2.960522     2.952878     2.945235     2.937592
      2.929949     2.922306     2.914662     2.907019     2.899376     2.891733     2.884089     2.876446     2.868803     2.861160
      2.853517     2.845873     2.838230     2.830587     2.822944     2.815300     2.807657     2.800014     2.792371     2.784728
      2.777084     2.769441     2.761798     2.754155     2.746511     2.738868     2.731225     2.723582     2.715939     2.708295
      2.700652     2.693009     2.685366     2.677722     2.670079     2.662436     2.654793     2.647150     2.639506     2.631863
      2.624220     2.616577     2.608933     2.601290     2.593647     2.586004     2.578361     2.570717     2.563074     2.555431
      2.547788     2.540144     2.532501     2.524858     2.517215     2.509572     2.501928     2.494285     2.486642     2.478999
      2.471355     2.463712     2.456069     2.448426     2.440783     2.433139     2.425496     2.417853     2.410210     2.402566
      2.394923     2.387280     2.379637     2.371994     2.364350     2.356707     2.349064     2.341421     2.333777     2.326134
      2.318491     2.310848     2.303205     2.295561     2.287918     2.280275     2.272632     2.264988     2.257345     2.249702
      2.242059     2.234416     2.226772     2.219129     2.211486     2.203843     2.196199     2.188556     2.180913     2.173270
      2.165627     2.157983     2.150340     2.142697     2.135054     2.127410     2.119767     2.112124     2.104481     2.096838
      2.089194     2.081551     2.073908     2.066265     2.058621     2.050978     2.043335     2.035692     2.028049     2.020405
      2.012762     2.005119     1.997476     1.989833     1.982190     1.974546     1.966903     1.959260     1.951617     1.943974
      1.936331     1.928688     1.921045     1.913402     1.905759     1.898115     1.890472     1.882829     1.875186     1.867543
      1.859900     1.852257     1.844614     1.836971     1.829327     1.821684     1.814041     1.806398     1.798755     1.791112
      1.783469     1.775826     1.768183     1.760540     1.752896     1.745253     1.737610     1.729967     1.722324     1.714681
      1.707038     1.699395     1.691752     1.684108     1.676465     1.668822     1.661179     1.653536     1.645893     1.638250
      1.630607     1.622964     1.615321     1.607677     1.600034     1.592391     1.584748     1.577105     1.569462     1.561819
      1.554176     1.546533     1.538890     1.531246     1.523603     1.515960     1.508317     1.500674     1.493031     1.485388
      1.477745     1.470102     1.462458     1.454815     1.447172     1.439529     1.431886     1.424243     1.416600     1.408957
      1.401314     1.393671     1.386027     1.378384     1.370741     1.363098     1.355455     1.347812     1.340169     1.332526
      1.324883     1.317240     1.309596     1.301953     1.294310     1.286667     1.279024     1.271381     1.263738     1.256095
      1.248452     1.240808     1.233165     1.225522     1.217879     1.210236     1.202593     1.194950     1.187307     1.179664
      1.172021     1.164377     1.156734     1.149091     1.141448     1.133805     1.126162     1.118519     1.110876     1.103233
      1.095590     1.087946     1.080303     1.072660     1.065017     1.057374     1.049731     1.042088     1.034445     1.026802
      1.019158     1.011515     1.003872     0.996229     0.988586     0.980943     0.973300     0.965657     0.958014     0.950371
      0.942727     0.935084     0.927441     0.919798     0.912155     0.904512     0.896869     0.889226     0.881583     0.873940
      0.866296     0.858653     0.851010     0.843367     0.835724     0.828081     0.820438     0.812795     0.805152     0.797508
      0.789865     0.782222     0.774579     0.766936     0.759293     0.751650     0.744007     0.736364     0.728721     0.721077
      0.713434     0.705791     0.698148     0.690505     0.682862     0.675219     0.667576     0.659933     0.652290     0.644646
      0.637003     0.629360     0.621717     0.614074     0.606431     0.598788     0.591145     0.583502     0.575858     0.568215
      0.560572     0.552929     0.545286     0.537643     0.530000     0.522357     0.514714     0.507071     0.499427     0.491784
      0.484141     0.476498     0.468855     0.461212     0.453569     0.445925     0.438282     0.430639     0.422996     0.415353
      0.407710     0.400067     0.392424     0.384780     0.377137     0.369494     0.361851     0.354208     0.346565     0.338922
      0.331278     0.323635     0.315992     0.308349     0.300706     0.293063     0.285420     0.277777     0.270133     0.262490
      0.254847     0.247204     0.239561     0.231918     0.224275     0.216631     0.208988     0.201345
 NY phased data points follow
   2.99532E-01 -1.19826E+00 -9.55546E-01  3.66981E-01  1.76781E+00 -1.11450E+00  5.81688E-01  2.49671E-01 -7.59642E-01  1.34118E+00
   8.49365E-01 -9.72457E-01  1.90237E+00  8.80870E-01  1.14712E+00  1.48032E+00 -6.48923E-01  6.99605E-01 -1.49262E+00  1.49194E+00
  -1.52091E+00  1.00230E+00 -9.26920E-01  2.47030E-01  5.02842E-01 -9.27665E-01 -7.21225E-02 -1.68825E+00  3.73196E-01  4.57303E-01
   4.34600E-01  2.26647E-01 -1.90225E-01 -5.29634E-02  2.79153E+00  9.33348E-01  1.48719E+00 -4.77663E-01  2.41875E-01  6.51461E-01
  -9.12649E-01  4.52773E-01  4.47279E-01  1.77384E-01  3.87652E-01 -4.00173E-01 -1.28212E+00 -1.41540E+00 -2.62398E-01 -4.65317E-01
   1.19673E-02 -4.43109E-01 -1.13268E+00  4.09652E-01 -4.79163E-02 -4.27743E-01  5.69289E-01 -1.41038E+00 -2.04885E+00 -5.69429E-01
  -1.52647E+00 -2.72199E+00 -2.52670E-01  1.19926E+00 -5.78125E-02 -1.11731E+00  9.39616E-02 -1.45318E+00  1.80223E+00 -7.05916E-01
  -1.22629E+00  4.38938E-02 -4.74167E-01 -6.39453E-01 -2.70849E-01  2.11982E+00  8.00320E-01 -1.44139E+00  3.74129E-01  8.90484E-01
   1.44361E+00 -1.36622E+00  1.28971E+00 -6.93352E-01  1.01088E+00 -5.80341E-02 -1.75366E+00 -1.52189E+00  1.22443E+00 -8.50196E-01
  -2.78006E-01  4.08438E-01 -8.06656E-01  3.44719E-01 -1.47932E+00 -6.90677E-01 -7.77001E-02  1.54257E+00 -3.38507E-01 -5.68338E-01
  -1.01295E+00 -2.08074E+00 -2.62768E+00  1.47589E-01 -1.24124E+00 -3.84733E+00 -3.07462E-01  6.75100E-01  6.10321E-01  5.49782E-01
   5.41251E-01  4.97811E-01  4.04256E-01 -2.19358E+00  1.60465E-01 -1.38172E-01 -8.57817E-01 -7.05221E-01 -1.65321E+00 -3.60713E-01
  -5.23902E-01 -1.90396E+00 -7.10763E-01 -1.77180E-01 -1.79464E-01  1.37420E+00 -1.34891E-01 -4.08070E-01  7.08652E-02 -1.13574E-01
   1.67572E+00 -2.56299E+00 -5.70719E-02  1.57513E+00 -4.90162E-02 -5.26002E-02  5.76109E-01 -1.24127E+00  3.40907E-02  5.26359E-01
  -1.38609E+00  4.97788E-01 -2.07917E-01 -3.38252E-01  2.04112E+00 -8.82091E-01 -1.68945E+00  3.06587E-01  5.89066E-01  1.03032E+00
  -1.04613E+00  1.26290E-01 -4.22307E-01  2.17919E-01  2.58594E-01 -1.29703E+00 -9.37806E-01 -9.48781E-02 -9.00300E-01 -2.04685E-01
  -1.11918E-01 -7.40751E-01  3.85720E-01 -6.61643E-01  1.69375E+00 -2.01029E+00 -7.25624E-01  1.99001E-01 -1.12630E-01 -5.56581E-01
  -4.18187E-01  1.16879E+00 -2.68231E+00 -1.04153E+00  1.87318E-02 -6.86306E-01 -4.11654E-01  5.51119E-02  9.54782E-01 -2.42767E-01
   8.81058E-01 -2.68037E+00  5.14182E-01  6.27121E-01 -9.76160E-01 -1.57024E-02 -3.49634E-01 -1.05202E+00  1.04154E-01  8.13533E-03
  -2.80747E+00  1.98527E-01 -1.26786E+00  4.91740E-01 -6.11269E-02 -7.97400E-01 -8.80779E-01 -1.70191E+00 -1.63237E-01 -1.00831E+00
  -8.31754E-01  1.00899E+00  1.55155E+00  2.99800E-01 -1.27407E+00 -6.98933E-02 -5.24917E-01  5.38653E-01 -5.34952E-01 -1.40126E+00
   1.12112E+00 -2.40672E-01 -2.02849E+00 -8.43946E-02  7.64590E-01  2.58245E-01 -6.13974E-01  2.74313E+00 -8.33828E-01 -4.80024E-01
  -5.27873E-01  1.93314E-01 -1.47319E+00 -3.32768E-01  2.39714E-01 -2.83550E-02  2.01499E+00 -6.45201E-01  5.20102E-01  9.30128E-02
   2.84095E-01  2.48196E+00  9.92893E-01  4.39296E-01  1.66022E+00  2.10633E+00  5.26864E-01  2.41900E-01 -1.09225E+00  1.27415E-02
   1.62495E+00  6.80804E-01  2.17497E+00  1.73813E+00  1.05165E+00  3.62487E-01  7.52928E-02 -1.49062E+00 -3.86934E-01 -1.77634E+00
  -1.62770E+00 -3.29161E-01 -1.95098E+00 -9.94991E-01  4.36171E-02  2.32140E-01 -9.05155E-01 -1.22074E+00  5.14959E-01 -1.46354E+00
   3.47963E-01 -1.24633E-01 -1.44633E+00 -2.49674E-01 -8.17921E-01  6.05907E-01  3.20369E-01 -1.08963E+00  1.06109E-01  1.19017E+00
   1.80152E-01 -6.25204E-01  4.59607E-01  1.06896E+00 -3.00289E-01 -2.28877E-01 -3.41840E-02  1.06418E+00  1.91643E-01  1.61191E-01
  -1.62369E+00 -5.40476E-01  1.13958E-01 -5.68154E-01 -1.31871E+00 -5.43252E-01 -1.23248E+00 -5.26843E-01  8.36992E-01 -1.30864E+00
  -2.09851E+00  3.48969E-02 -1.89294E+00 -5.22894E-01 -9.88571E-01 -1.74498E+00  1.74655E-01 -3.29528E+00 -1.24581E+00 -2.32043E+00
  -1.30970E-01 -6.80897E-01 -1.41953E+00 -2.13817E+00 -3.45717E-01  2.82669E-02  1.54481E-02 -5.03652E-01 -5.91456E-01 -4.73422E-01
   6.46801E-01  1.35984E+00 -9.01040E-01  2.10572E+00 -5.70050E-01 -2.44744E-01 -8.79977E-01 -8.95224E-01  4.94269E-01  1.81147E+00
   1.05578E+00  2.46205E+00  1.48323E+00  2.14934E+00  3.03100E+00  1.70709E+00  1.68910E+00  2.97563E+00  3.31329E+00  7.33363E-01
   1.20048E+00  2.33632E+00  2.71243E+00  1.30550E+00  3.96117E+00  3.67625E+00  4.57978E+00  3.55099E+00  4.02379E+00  3.96619E+00
   4.30675E+00  3.06685E+00  5.34301E+00  2.62448E+00  1.74268E+00  2.25033E+00  1.93341E+00  4.71217E+00  3.87550E+00  1.28021E+00
   4.89361E+00  4.38769E+00  2.22645E+00  1.30807E+00  2.38578E+00  3.36893E+00  4.44124E+00  3.53110E+00  2.95159E+00  3.93303E+00
   2.65825E+00  1.76219E+00  2.18098E+00  1.76794E+00  1.15784E+00  2.90839E+00  2.88215E+00  1.13498E+00  1.33123E+00  1.20997E+00
   2.20644E+00  1.83729E+00  3.54345E-01  1.70341E+00  1.09748E+00  1.58608E+00  2.59952E+00  1.92157E+00  8.01108E-01  1.49024E+00
   1.39950E-01 -6.66745E-01  2.08858E+00  4.35525E-01  1.74565E+00 -1.72364E-03 -9.18999E-01 -5.72057E-01 -1.51291E+00 -1.21831E+00
  -7.65932E-01 -9.72335E-02 -1.04915E+00 -8.24880E-01 -7.86150E-01  8.01826E-01 -2.16407E-01 -1.90900E+00 -1.28508E+00 -1.23220E-01
  -1.67672E+00  1.03794E-01 -1.18351E+00  1.26869E+00  7.98081E-01 -6.07929E-01 -8.89451E-01  5.54828E-02 -6.83658E-01 -7.04294E-01
  -1.00991E+00 -2.34047E-01 -1.47144E+00 -1.07049E+00 -7.60979E-01 -6.81889E-01 -1.77947E+00  1.11207E+00  3.43890E-01 -1.25172E-01
  -2.30830E+00  1.77059E+00  1.55179E+00  7.80974E-01 -2.57967E-01 -4.13586E-02  9.20518E-01  2.19596E+00  2.68231E+00  3.35376E-01
   1.79229E+00  1.15074E+00  1.64178E+00  5.49526E-01  1.35721E+00  7.69449E-01 -1.25677E+00 -6.23211E-01  4.17687E-01  1.42260E+00
   1.10139E+00 -6.07932E-01  6.10977E-01 -1.58460E-01  6.90643E-01 -1.16846E+00  1.94234E+00  6.69771E-01  4.40604E-01  1.08348E+00
  -4.48269E-01 -1.61077E+00 -2.96674E-01 -9.99284E-02  2.23430E+00  6.11477E-01  1.30487E+00 -7.25411E-01  3.76522E-01 -7.39273E-01
   1.55960E+00  3.44196E-01 -3.29375E-01  4.57451E-01 -7.37677E-01  1.57479E+00  5.82300E-01 -5.32085E-01  8.96169E-01  7.39644E-01
   5.43827E-01 -1.37980E+00 -2.10583E+00  1.44800E+00  5.34003E-01 -1.22771E+00  2.02613E+00  1.13118E+00 -1.26160E+00 -1.33579E+00
   7.46071E-02  2.60720E-01 -9.28020E-01 -3.42643E-01  1.72879E+00  1.54982E-01  8.60254E-01 -1.02262E+00 -9.43352E-02 -1.57791E+00
  -8.66322E-01 -5.22639E-01 -7.07246E-01  1.21482E+00 -4.76079E-01  1.01698E-01  1.84548E+00  1.44900E+00
 NY points of the fit to the data follow
  -3.98563E-01 -8.48825E-02 -2.25840E-01 -2.96614E-02 -1.60687E-01 -8.33745E-02 -2.05664E-01 -2.05912E-01 -2.88401E-01 -2.09770E-01
  -2.00689E-01 -9.60041E-02 -6.33800E-02  1.09317E-02  3.08709E-02  5.54674E-02  4.33221E-02  5.42310E-02  7.57472E-02  7.54159E-02
   1.50677E-01  1.22501E-01  2.43071E-01  1.66986E-01  3.15475E-01  2.00134E-01  3.55509E-01  1.97799E-01  3.67566E-01  1.96078E-01
   3.83806E-01  1.99179E-01  3.89026E-01  1.98093E-01  3.60293E-01  1.62215E-01  2.77330E-01  9.05639E-02  1.78459E-01  2.71610E-02
   9.97735E-02 -9.13333E-03  4.10632E-02 -2.94684E-02 -4.15839E-02 -1.11048E-01 -1.55026E-01 -1.93174E-01 -2.22672E-01 -2.27704E-01
  -2.32053E-01 -2.28323E-01 -2.23836E-01 -2.31036E-01 -2.32452E-01 -2.50070E-01 -2.54062E-01 -2.58705E-01 -2.64591E-01 -2.71578E-01
  -2.76171E-01 -2.81916E-01 -2.84826E-01 -2.89325E-01 -2.90347E-01 -2.92845E-01 -2.92027E-01 -2.94015E-01 -2.93263E-01 -2.95313E-01
  -2.94663E-01 -2.96806E-01 -2.96154E-01 -2.98854E-01 -2.98638E-01 -3.01946E-01 -3.02104E-01 -3.05403E-01 -3.05414E-01 -3.08797E-01
  -3.08663E-01 -3.12452E-01 -3.12174E-01 -3.16197E-01 -3.15825E-01 -3.19710E-01 -3.19393E-01 -3.22949E-01 -3.22773E-01 -3.25820E-01
  -3.25306E-01 -3.27614E-01 -3.27037E-01 -3.28599E-01 -3.27825E-01 -3.28880E-01 -3.28080E-01 -3.28664E-01 -3.27864E-01 -3.27847E-01
  -3.26838E-01 -3.26144E-01 -3.24756E-01 -3.23401E-01 -3.21386E-01 -3.20006E-01 -3.18505E-01 -3.17049E-01 -3.15840E-01 -3.13771E-01
  -3.12080E-01 -3.07516E-01 -3.00662E-01 -2.77171E-01 -2.65017E-01 -2.27964E-01 -2.13981E-01 -1.67032E-01 -1.52865E-01 -9.74541E-02
  -8.33886E-02 -3.15253E-02 -2.32282E-02  1.82455E-02  1.85121E-02  4.97647E-02  4.52874E-02  6.64361E-02  6.08787E-02  6.49996E-02
   6.02449E-02  4.70563E-02  4.59066E-02  1.64813E-02  2.02578E-02 -2.06626E-02 -1.38701E-02 -6.33476E-02 -5.48314E-02 -1.10223E-01
  -9.85847E-02 -1.55195E-01 -1.38492E-01 -1.89036E-01 -1.67507E-01 -1.99552E-01 -1.80193E-01 -2.08177E-01 -1.93841E-01 -2.14439E-01
  -2.02415E-01 -2.14645E-01 -2.05718E-01 -2.19527E-01 -2.20266E-01 -2.33900E-01 -2.41533E-01 -2.50088E-01 -2.57022E-01 -2.59606E-01
  -2.62774E-01 -2.63965E-01 -2.66223E-01 -2.67380E-01 -2.69346E-01 -2.70717E-01 -2.72540E-01 -2.73900E-01 -2.76093E-01 -2.78210E-01
  -2.80397E-01 -2.85087E-01 -2.87475E-01 -2.94255E-01 -2.95709E-01 -3.02979E-01 -3.00514E-01 -3.04904E-01 -2.96786E-01 -3.01367E-01
  -2.98471E-01 -3.04576E-01 -3.23849E-01 -3.36554E-01 -3.82681E-01 -3.93330E-01 -4.56797E-01 -4.38982E-01 -4.95818E-01 -4.40791E-01
  -4.87515E-01 -3.84340E-01 -4.31605E-01 -3.00088E-01 -3.73035E-01 -2.57802E-01 -4.07359E-01 -2.82593E-01 -4.72970E-01 -3.24333E-01
  -5.33332E-01 -3.53751E-01 -5.65460E-01 -3.61118E-01 -5.70274E-01 -3.53029E-01 -5.52249E-01 -3.38227E-01 -5.16810E-01 -3.03605E-01
  -4.47289E-01 -2.35235E-01 -3.39132E-01 -1.41449E-01 -2.19346E-01 -5.33854E-02 -1.03814E-01  2.49624E-02 -2.67130E-03  1.12032E-01
   1.20380E-01  2.03417E-01  2.04185E-01  2.76474E-01  2.61773E-01  3.07345E-01  2.62824E-01  2.93411E-01  1.84320E-01  2.35694E-01
   1.24733E-01  1.74233E-01  5.20359E-02  8.71349E-02 -4.24108E-02 -2.88983E-02 -1.48230E-01 -1.35384E-01 -2.20917E-01 -2.06390E-01
  -2.55909E-01 -2.45730E-01 -2.68890E-01 -2.81174E-01 -2.84403E-01 -3.15643E-01 -2.93017E-01 -3.32388E-01 -2.76682E-01 -3.19257E-01
  -2.41654E-01 -2.90656E-01 -2.05691E-01 -2.74994E-01 -2.09169E-01 -2.60689E-01 -1.82863E-01 -2.11403E-01 -1.23074E-01 -1.25833E-01
  -5.54203E-02 -7.50737E-02 -2.30884E-02 -5.57126E-02 -2.43607E-02 -6.04026E-02 -3.97929E-02 -7.30052E-02 -5.10771E-02 -6.57958E-02
  -4.27262E-02 -4.49348E-02 -2.62044E-02 -2.07727E-02 -1.17774E-02 -5.29109E-03 -2.15902E-03  5.06325E-04  3.05776E-03  5.63967E-03
   8.62443E-03  1.14804E-02  1.51225E-02  1.88847E-02  2.32297E-02  2.78215E-02  3.29664E-02  3.83758E-02  4.42648E-02  5.04920E-02
   5.71369E-02  6.41445E-02  7.15303E-02  7.93679E-02  8.77533E-02  9.66939E-02  1.06249E-01  1.16495E-01  1.27572E-01  1.39437E-01
   1.52359E-01  1.66352E-01  1.81730E-01  1.98591E-01  2.17317E-01  2.38171E-01  2.61719E-01  2.88521E-01  3.19594E-01  3.56118E-01
   4.00624E-01  4.57276E-01  5.37252E-01  6.60704E-01  7.49398E-01  8.51248E-01  9.30386E-01  9.69785E-01  1.02703E+00  9.66932E-01
   9.81239E-01  8.51310E-01  9.32442E-01  7.47034E-01  9.32720E-01  7.08235E-01  1.01675E+00  7.58294E-01  1.18836E+00  8.99830E-01
   1.46244E+00  1.23077E+00  2.02858E+00  2.14366E+00  2.98106E+00  3.07261E+00  3.81292E+00  3.66788E+00  4.16559E+00  3.58090E+00
   3.74617E+00  3.12873E+00  3.23803E+00  2.73211E+00  2.91337E+00  2.63688E+00  2.88951E+00  2.68499E+00  2.95319E+00  2.67314E+00
   2.93679E+00  2.61033E+00  2.86065E+00  2.60846E+00  2.96520E+00  2.85001E+00  3.20639E+00  3.00599E+00  3.24796E+00  2.89035E+00
   3.04315E+00  2.63124E+00  2.78670E+00  2.60497E+00  2.87523E+00  3.02071E+00  3.12719E+00  2.94049E+00  2.85631E+00  2.39993E+00
   2.13250E+00  1.54998E+00  1.19678E+00  9.78191E-01  8.23700E-01  7.07022E-01  6.15185E-01  5.41016E-01  4.79838E-01  4.28772E-01
   3.85588E-01  3.48877E-01  3.17357E-01  2.90272E-01  2.66833E-01  2.46646E-01  2.29178E-01  2.14202E-01  2.01305E-01  1.90361E-01
   1.81058E-01  1.73345E-01  1.66950E-01  1.61832E-01  1.57727E-01  1.54607E-01  1.52226E-01  1.50565E-01  1.49369E-01  1.48602E-01
   1.48003E-01  1.47546E-01  1.46989E-01  1.46327E-01  1.45327E-01  1.44000E-01  1.42148E-01  1.39830E-01  1.36900E-01  1.33460E-01
   1.29402E-01  1.24863E-01  1.19779E-01  1.14332E-01  1.08489E-01  1.02448E-01  9.61800E-02  8.98830E-02  8.35318E-02  7.73223E-02
   7.12153E-02  6.53804E-02  5.97509E-02  5.44745E-02  4.94699E-02  4.48677E-02  4.05648E-02  3.66673E-02  3.30543E-02  2.98242E-02
   2.68539E-02  2.42376E-02  2.18431E-02  1.97569E-02  1.78452E-02  1.62014E-02  1.46975E-02  1.34291E-02  1.22638E-02  1.12973E-02
   1.04014E-02  9.68129E-03  9.01314E-03  8.50194E-03  8.02014E-03  7.67398E-03  7.34131E-03  7.13556E-03  6.93506E-03  6.85067E-03
   6.75766E-03  6.76916E-03  6.76632E-03  6.86547E-03  6.94692E-03  7.12207E-03  7.27080E-03  7.50705E-03  7.71644E-03  8.01296E-03
   8.28000E-03  8.62698E-03  8.93896E-03  9.32849E-03  9.68516E-03  1.01193E-02  1.05172E-02  1.09865E-02  1.14163E-02  1.19182E-02
   1.23826E-02  1.29186E-02  1.34129E-02  1.39744E-02  1.44933E-02  1.50818E-02  1.56293E-02  1.62448E-02  1.68148E-02  1.74505E-02
   1.80419E-02  1.87021E-02  1.93188E-02  2.00019E-02  2.06381E-02  2.13409E-02  2.19998E-02  2.27282E-02  2.34127E-02  2.41646E-02
   2.48717E-02  2.56492E-02  2.63867E-02  2.71986E-02  2.79714E-02  2.88198E-02  2.96338E-02  3.05331E-02
 NY background values follow
    -4.379E-01   -4.370E-01   -4.361E-01   -4.352E-01   -4.343E-01   -4.334E-01   -4.324E-01   -4.315E-01   -4.306E-01   -4.297E-01
    -4.288E-01   -4.279E-01   -4.269E-01   -4.260E-01   -4.251E-01   -4.242E-01   -4.233E-01   -4.224E-01   -4.214E-01   -4.205E-01
    -4.196E-01   -4.187E-01   -4.178E-01   -4.169E-01   -4.159E-01   -4.150E-01   -4.141E-01   -4.132E-01   -4.123E-01   -4.113E-01
    -4.104E-01   -4.095E-01   -4.086E-01   -4.077E-01   -4.068E-01   -4.058E-01   -4.049E-01   -4.040E-01   -4.031E-01   -4.022E-01
    -4.013E-01   -4.003E-01   -3.994E-01   -3.985E-01   -3.976E-01   -3.967E-01   -3.958E-01   -3.948E-01   -3.939E-01   -3.930E-01
    -3.921E-01   -3.912E-01   -3.903E-01   -3.893E-01   -3.884E-01   -3.875E-01   -3.866E-01   -3.857E-01   -3.848E-01   -3.838E-01
    -3.829E-01   -3.820E-01   -3.811E-01   -3.802E-01   -3.793E-01   -3.783E-01   -3.774E-01   -3.765E-01   -3.756E-01   -3.747E-01
    -3.738E-01   -3.728E-01   -3.719E-01   -3.710E-01   -3.701E-01   -3.692E-01   -3.682E-01   -3.673E-01   -3.664E-01   -3.655E-01
    -3.646E-01   -3.637E-01   -3.627E-01   -3.618E-01   -3.609E-01   -3.600E-01   -3.591E-01   -3.582E-01   -3.572E-01   -3.563E-01
    -3.554E-01   -3.545E-01   -3.536E-01   -3.527E-01   -3.517E-01   -3.508E-01   -3.499E-01   -3.490E-01   -3.481E-01   -3.472E-01
    -3.462E-01   -3.453E-01   -3.444E-01   -3.435E-01   -3.426E-01   -3.417E-01   -3.407E-01   -3.398E-01   -3.389E-01   -3.380E-01
    -3.371E-01   -3.362E-01   -3.352E-01   -3.343E-01   -3.334E-01   -3.325E-01   -3.316E-01   -3.307E-01   -3.297E-01   -3.288E-01
    -3.279E-01   -3.270E-01   -3.261E-01   -3.251E-01   -3.242E-01   -3.233E-01   -3.224E-01   -3.215E-01   -3.206E-01   -3.196E-01
    -3.187E-01   -3.178E-01   -3.169E-01   -3.160E-01   -3.151E-01   -3.141E-01   -3.132E-01   -3.123E-01   -3.114E-01   -3.105E-01
    -3.096E-01   -3.086E-01   -3.077E-01   -3.068E-01   -3.059E-01   -3.050E-01   -3.041E-01   -3.031E-01   -3.022E-01   -3.013E-01
    -3.004E-01   -2.995E-01   -2.986E-01   -2.976E-01   -2.967E-01   -2.958E-01   -2.949E-01   -2.940E-01   -2.931E-01   -2.921E-01
    -2.912E-01   -2.903E-01   -2.894E-01   -2.885E-01   -2.875E-01   -2.866E-01   -2.857E-01   -2.848E-01   -2.839E-01   -2.830E-01
    -2.820E-01   -2.811E-01   -2.802E-01   -2.793E-01   -2.784E-01   -2.775E-01   -2.765E-01   -2.756E-01   -2.747E-01   -2.738E-01
    -2.729E-01   -2.720E-01   -2.710E-01   -2.701E-01   -2.692E-01   -2.683E-01   -2.674E-01   -2.665E-01   -2.655E-01   -2.646E-01
    -2.637E-01   -2.628E-01   -2.619E-01   -2.610E-01   -2.600E-01   -2.591E-01   -2.582E-01   -2.573E-01   -2.564E-01   -2.555E-01
    -2.545E-01   -2.536E-01   -2.527E-01   -2.518E-01   -2.509E-01   -2.499E-01   -2.490E-01   -2.481E-01   -2.472E-01   -2.463E-01
    -2.454E-01   -2.444E-01   -2.435E-01   -2.426E-01   -2.417E-01   -2.408E-01   -2.399E-01   -2.389E-01   -2.380E-01   -2.371E-01
    -2.362E-01   -2.353E-01   -2.344E-01   -2.334E-01   -2.325E-01   -2.316E-01   -2.307E-01   -2.298E-01   -2.289E-01   -2.279E-01
    -2.270E-01   -2.261E-01   -2.252E-01   -2.243E-01   -2.234E-01   -2.224E-01   -2.215E-01   -2.206E-01   -2.197E-01   -2.188E-01
    -2.178E-01   -2.169E-01   -2.160E-01   -2.151E-01   -2.142E-01   -2.133E-01   -2.123E-01   -2.114E-01   -2.105E-01   -2.096E-01
    -2.087E-01   -2.078E-01   -2.068E-01   -2.059E-01   -2.050E-01   -2.041E-01   -2.032E-01   -2.023E-01   -2.013E-01   -2.004E-01
    -1.995E-01   -1.986E-01   -1.977E-01   -1.968E-01   -1.958E-01   -1.949E-01   -1.940E-01   -1.931E-01   -1.922E-01   -1.912E-01
    -1.903E-01   -1.894E-01   -1.885E-01   -1.876E-01   -1.867E-01   -1.857E-01   -1.848E-01   -1.839E-01   -1.830E-01   -1.821E-01
    -1.812E-01   -1.802E-01   -1.793E-01   -1.784E-01   -1.775E-01   -1.766E-01   -1.757E-01   -1.747E-01   -1.738E-01   -1.729E-01
    -1.720E-01   -1.711E-01   -1.702E-01   -1.692E-01   -1.683E-01   -1.674E-01   -1.665E-01   -1.656E-01   -1.646E-01   -1.637E-01
    -1.628E-01   -1.619E-01   -1.610E-01   -1.601E-01   -1.591E-01   -1.582E-01   -1.573E-01   -1.564E-01   -1.555E-01   -1.546E-01
    -1.536E-01   -1.527E-01   -1.518E-01   -1.509E-01   -1.500E-01   -1.491E-01   -1.481E-01   -1.472E-01   -1.463E-01   -1.454E-01
    -1.445E-01   -1.436E-01   -1.426E-01   -1.417E-01   -1.408E-01   -1.399E-01   -1.390E-01   -1.380E-01   -1.371E-01   -1.362E-01
    -1.353E-01   -1.344E-01   -1.335E-01   -1.325E-01   -1.316E-01   -1.307E-01   -1.298E-01   -1.289E-01   -1.280E-01   -1.270E-01
    -1.261E-01   -1.252E-01   -1.243E-01   -1.234E-01   -1.225E-01   -1.215E-01   -1.206E-01   -1.197E-01   -1.188E-01   -1.179E-01
    -1.169E-01   -1.160E-01   -1.151E-01   -1.142E-01   -1.133E-01   -1.124E-01   -1.114E-01   -1.105E-01   -1.096E-01   -1.087E-01
    -1.078E-01   -1.069E-01   -1.059E-01   -1.050E-01   -1.041E-01   -1.032E-01   -1.023E-01   -1.014E-01   -1.004E-01   -9.952E-02
    -9.860E-02   -9.768E-02   -9.677E-02   -9.585E-02   -9.493E-02   -9.401E-02   -9.310E-02   -9.218E-02   -9.126E-02   -9.034E-02
    -8.943E-02   -8.851E-02   -8.759E-02   -8.668E-02   -8.576E-02   -8.484E-02   -8.392E-02   -8.301E-02   -8.209E-02   -8.117E-02
    -8.025E-02   -7.934E-02   -7.842E-02   -7.750E-02   -7.658E-02   -7.567E-02   -7.475E-02   -7.383E-02   -7.291E-02   -7.200E-02
    -7.108E-02   -7.016E-02   -6.924E-02   -6.833E-02   -6.741E-02   -6.649E-02   -6.557E-02   -6.466E-02   -6.374E-02   -6.282E-02
    -6.190E-02   -6.099E-02   -6.007E-02   -5.915E-02   -5.824E-02   -5.732E-02   -5.640E-02   -5.548E-02   -5.457E-02   -5.365E-02
    -5.273E-02   -5.181E-02   -5.090E-02   -4.998E-02   -4.906E-02   -4.814E-02   -4.723E-02   -4.631E-02   -4.539E-02   -4.447E-02
    -4.356E-02   -4.264E-02   -4.172E-02   -4.080E-02   -3.989E-02   -3.897E-02   -3.805E-02   -3.713E-02   -3.622E-02   -3.530E-02
    -3.438E-02   -3.346E-02   -3.255E-02   -3.163E-02   -3.071E-02   -2.979E-02   -2.888E-02   -2.796E-02   -2.704E-02   -2.612E-02
    -2.521E-02   -2.429E-02   -2.337E-02   -2.246E-02   -2.154E-02   -2.062E-02   -1.970E-02   -1.879E-02   -1.787E-02   -1.695E-02
    -1.603E-02   -1.512E-02   -1.420E-02   -1.328E-02   -1.236E-02   -1.145E-02   -1.053E-02   -9.611E-03   -8.694E-03   -7.776E-03
    -6.859E-03   -5.941E-03   -5.024E-03   -4.106E-03   -3.189E-03   -2.271E-03   -1.354E-03   -4.365E-04    4.809E-04    1.398E-03
     2.316E-03    3.233E-03    4.151E-03    5.068E-03    5.986E-03    6.903E-03    7.820E-03    8.738E-03    9.655E-03    1.057E-02
     1.149E-02    1.241E-02    1.333E-02    1.424E-02    1.516E-02    1.608E-02    1.699E-02    1.791E-02
 Ala      Conc. = 2.33E+02
