 LCModel (Version 6.3-1L) Copyright: S.W. Provencher.          Ref.: Magn. Reson. Med. 30:672-679 (1993).                
 Slice#2 Row#9 Col#3  PD_05_press_1_raw_act
 36 lines in following concentration table = NCONC+1
    Conc.  %SD /Cr+PCr  Metabolite                                         
    0.000 999%   0.000 Ala                                                 
    0.000 999%   0.000 Asp                                                 
   26.457 585% 3.7E-02 Cr                                                  
  687.498  23%   0.963 PCr                                                 
   50.758 147% 7.1E-02 GABA                                                
   14.143 511% 2.0E-02 Glc                                                 
  185.953  73%   0.260 Gln                                                 
  599.060  26%   0.839 Glu                                                 
  204.527   6%   0.286 GPC                                                 
    0.000 999%   0.000 PCh                                                 
  261.300  16%   0.366 GSH                                                 
  520.750  29%   0.729 Ins                                                 
   97.402  76%   0.136 Lac                                                 
 1.21E+03   5%   1.691 NAA                                                 
  149.453  46%   0.209 NAAG                                                
   53.613  27% 7.5E-02 Scyllo                                              
  100.213 104%   0.140 Tau                                                 
  320.849  22%   0.449 -CrCH2                                              
  204.527   6%   0.286 GPC+PCh                                             
 1.36E+03   3%   1.900 NAA+NAAG                                            
  713.955   4%   1.000 Cr+PCr                                              
  785.013  29%   1.100 Glu+Gln                                             
    0.000 999%   0.000 Lip13a                                              
  115.876  42%   0.162 Lip13b                                              
   17.994 123% 2.5E-02 Lip09                                               
  454.167  21%   0.636 MM09                                                
   19.953  73% 2.8E-02 Lip20                                               
  819.165  18%   1.147 MM20                                                
  132.905  26%   0.186 MM12                                                
  379.556  26%   0.532 MM14                                                
  172.310  37%   0.241 MM17                                                
  115.876  42%   0.162 Lip13a+Lip13b                                       
  628.336  21%   0.880 MM14+Lip13a+Lip13b+MM12                             
  472.161  20%   0.661 MM09+Lip09                                          
  839.118  18%   1.175 MM20+Lip20                                          
   6 lines in following misc. output table
  FWHM = 0.061 ppm    S/N =  12                                            
  Data shift = 0.000 ppm                                                   
  Ph: -36 deg     -19.7 deg/ppm                                            
  alphaB,S = 9.8E-01,   1.8E+02                                            
   14 spline knots.   Ns = 8(1)                                            
  (13) 2 infls.   ( 5) 1 extrs.                                            
  498 points on ppm-axis = NY
      4.000000     3.992357     3.984714     3.977070     3.969427     3.961784     3.954141     3.946497     3.938854     3.931211
      3.923568     3.915925     3.908281     3.900638     3.892995     3.885352     3.877708     3.870065     3.862422     3.854779
      3.847136     3.839492     3.831849     3.824206     3.816563     3.808919     3.801276     3.793633     3.785990     3.778347
      3.770703     3.763060     3.755417     3.747774     3.740130     3.732487     3.724844     3.717201     3.709558     3.701914
      3.694271     3.686628     3.678985     3.671341     3.663698     3.656055     3.648412     3.640769     3.633125     3.625482
      3.617839     3.610196     3.602552     3.594909     3.587266     3.579623     3.571980     3.564336     3.556693     3.549050
      3.541407     3.533763     3.526120     3.518477     3.510834     3.503191     3.495547     3.487904     3.480261     3.472618
      3.464974     3.457331     3.449688     3.442045     3.434402     3.426758     3.419115     3.411472     3.403829     3.396185
      3.388542     3.380899     3.373256     3.365613     3.357969     3.350326     3.342683     3.335040     3.327396     3.319753
      3.312110     3.304467     3.296824     3.289180     3.281537     3.273894     3.266251     3.258607     3.250964     3.243321
      3.235678     3.228034     3.220391     3.212748     3.205105     3.197462     3.189818     3.182175     3.174532     3.166889
      3.159245     3.151602     3.143959     3.136316     3.128673     3.121029     3.113386     3.105743     3.098100     3.090456
      3.082813     3.075170     3.067527     3.059884     3.052240     3.044597     3.036954     3.029311     3.021667     3.014024
      3.006381     2.998738     2.991095     2.983451     2.975808     2.968165     2.960522     2.952878     2.945235     2.937592
      2.929949     2.922306     2.914662     2.907019     2.899376     2.891733     2.884089     2.876446     2.868803     2.861160
      2.853517     2.845873     2.838230     2.830587     2.822944     2.815300     2.807657     2.800014     2.792371     2.784728
      2.777084     2.769441     2.761798     2.754155     2.746511     2.738868     2.731225     2.723582     2.715939     2.708295
      2.700652     2.693009     2.685366     2.677722     2.670079     2.662436     2.654793     2.647150     2.639506     2.631863
      2.624220     2.616577     2.608933     2.601290     2.593647     2.586004     2.578361     2.570717     2.563074     2.555431
      2.547788     2.540144     2.532501     2.524858     2.517215     2.509572     2.501928     2.494285     2.486642     2.478999
      2.471355     2.463712     2.456069     2.448426     2.440783     2.433139     2.425496     2.417853     2.410210     2.402566
      2.394923     2.387280     2.379637     2.371994     2.364350     2.356707     2.349064     2.341421     2.333777     2.326134
      2.318491     2.310848     2.303205     2.295561     2.287918     2.280275     2.272632     2.264988     2.257345     2.249702
      2.242059     2.234416     2.226772     2.219129     2.211486     2.203843     2.196199     2.188556     2.180913     2.173270
      2.165627     2.157983     2.150340     2.142697     2.135054     2.127410     2.119767     2.112124     2.104481     2.096838
      2.089194     2.081551     2.073908     2.066265     2.058621     2.050978     2.043335     2.035692     2.028049     2.020405
      2.012762     2.005119     1.997476     1.989833     1.982190     1.974546     1.966903     1.959260     1.951617     1.943974
      1.936331     1.928688     1.921045     1.913402     1.905759     1.898115     1.890472     1.882829     1.875186     1.867543
      1.859900     1.852257     1.844614     1.836971     1.829327     1.821684     1.814041     1.806398     1.798755     1.791112
      1.783469     1.775826     1.768183     1.760540     1.752896     1.745253     1.737610     1.729967     1.722324     1.714681
      1.707038     1.699395     1.691752     1.684108     1.676465     1.668822     1.661179     1.653536     1.645893     1.638250
      1.630607     1.622964     1.615321     1.607677     1.600034     1.592391     1.584748     1.577105     1.569462     1.561819
      1.554176     1.546533     1.538890     1.531246     1.523603     1.515960     1.508317     1.500674     1.493031     1.485388
      1.477745     1.470102     1.462458     1.454815     1.447172     1.439529     1.431886     1.424243     1.416600     1.408957
      1.401314     1.393671     1.386027     1.378384     1.370741     1.363098     1.355455     1.347812     1.340169     1.332526
      1.324883     1.317240     1.309596     1.301953     1.294310     1.286667     1.279024     1.271381     1.263738     1.256095
      1.248452     1.240808     1.233165     1.225522     1.217879     1.210236     1.202593     1.194950     1.187307     1.179664
      1.172021     1.164377     1.156734     1.149091     1.141448     1.133805     1.126162     1.118519     1.110876     1.103233
      1.095590     1.087946     1.080303     1.072660     1.065017     1.057374     1.049731     1.042088     1.034445     1.026802
      1.019158     1.011515     1.003872     0.996229     0.988586     0.980943     0.973300     0.965657     0.958014     0.950371
      0.942727     0.935084     0.927441     0.919798     0.912155     0.904512     0.896869     0.889226     0.881583     0.873940
      0.866296     0.858653     0.851010     0.843367     0.835724     0.828081     0.820438     0.812795     0.805152     0.797508
      0.789865     0.782222     0.774579     0.766936     0.759293     0.751650     0.744007     0.736364     0.728721     0.721077
      0.713434     0.705791     0.698148     0.690505     0.682862     0.675219     0.667576     0.659933     0.652290     0.644646
      0.637003     0.629360     0.621717     0.614074     0.606431     0.598788     0.591145     0.583502     0.575858     0.568215
      0.560572     0.552929     0.545286     0.537643     0.530000     0.522357     0.514714     0.507071     0.499427     0.491784
      0.484141     0.476498     0.468855     0.461212     0.453569     0.445925     0.438282     0.430639     0.422996     0.415353
      0.407710     0.400067     0.392424     0.384780     0.377137     0.369494     0.361851     0.354208     0.346565     0.338922
      0.331278     0.323635     0.315992     0.308349     0.300706     0.293063     0.285420     0.277777     0.270133     0.262490
      0.254847     0.247204     0.239561     0.231918     0.224275     0.216631     0.208988     0.201345
 NY phased data points follow
  -3.51775E+01 -3.46324E+01 -3.27682E+01 -3.20951E+01 -2.81413E+01 -2.62646E+01 -2.26827E+01 -1.98851E+01 -2.15464E+01 -1.96587E+01
  -1.88908E+01 -1.82207E+01 -2.22738E+01 -2.21153E+01 -2.38718E+01 -2.63109E+01 -2.60015E+01 -2.73305E+01 -2.69888E+01 -2.46662E+01
  -2.56314E+01 -2.74704E+01 -2.50942E+01 -2.30111E+01 -2.31633E+01 -2.05183E+01 -2.20041E+01 -2.17180E+01 -1.87062E+01 -2.02590E+01
  -1.88162E+01 -2.01704E+01 -2.05018E+01 -2.08503E+01 -2.15850E+01 -1.93703E+01 -2.16792E+01 -2.11837E+01 -2.06651E+01 -2.23052E+01
  -1.96580E+01 -1.94217E+01 -2.22971E+01 -1.73479E+01 -1.67309E+01 -1.65080E+01 -1.71266E+01 -1.74590E+01 -1.68453E+01 -1.79428E+01
  -1.75643E+01 -1.93325E+01 -1.96834E+01 -1.84099E+01 -1.88827E+01 -1.82410E+01 -1.91010E+01 -2.13451E+01 -1.91084E+01 -1.84035E+01
  -1.93763E+01 -1.98677E+01 -2.03372E+01 -2.00771E+01 -1.87243E+01 -2.03359E+01 -2.00362E+01 -1.72632E+01 -1.71282E+01 -2.04179E+01
  -1.64518E+01 -1.64566E+01 -1.62208E+01 -1.84994E+01 -1.43827E+01 -1.65508E+01 -1.59205E+01 -1.62525E+01 -1.66147E+01 -1.72077E+01
  -1.57747E+01 -1.61849E+01 -1.38336E+01 -1.35929E+01 -1.43577E+01 -1.38474E+01 -1.26909E+01 -1.57416E+01 -1.27629E+01 -1.36364E+01
  -1.11984E+01 -1.15976E+01 -1.13754E+01 -1.08765E+01 -1.03318E+01 -8.67514E+00 -1.04556E+01 -1.08346E+01 -3.70013E+00 -1.93680E+00
   9.25371E-01  4.51902E+00  2.01985E+00  2.77348E+00  7.65768E-01 -2.34232E+00 -5.00580E+00 -3.49408E+00 -7.96641E+00 -7.49032E+00
  -7.69763E+00 -1.24124E+01 -9.73064E+00 -1.06879E+01 -6.55392E+00 -9.53334E+00 -6.10347E+00 -6.61949E+00 -7.74556E+00 -6.21387E+00
  -5.73626E+00 -3.87644E+00 -1.71134E+00  2.51091E+00  7.28087E+00  8.25992E+00  1.24842E+01  9.84681E+00  8.82959E+00  5.85264E+00
   2.57128E+00  4.33170E-01 -2.20175E-01 -3.73356E+00 -5.28087E+00 -7.00696E+00 -8.00304E+00 -7.29734E+00 -7.62090E+00 -7.90308E+00
  -6.56665E+00 -7.45483E+00 -9.45382E+00 -7.85024E+00 -8.54230E+00 -7.22767E+00 -7.95645E+00 -8.99096E+00 -9.17065E+00 -6.90267E+00
  -5.35399E+00 -6.93673E+00 -8.95971E+00 -9.09934E+00 -7.43136E+00 -7.07905E+00 -4.04237E+00 -8.49512E+00 -4.76977E+00 -6.17285E+00
  -6.93577E+00 -6.44463E+00 -6.88225E+00 -7.08160E+00 -7.43527E+00 -5.76394E+00 -5.99159E+00 -9.38032E+00 -6.20231E+00 -8.64470E+00
  -7.26668E+00 -8.62878E+00 -9.47983E+00 -1.08453E+01 -1.10244E+01 -1.11725E+01 -9.31684E+00 -1.01286E+01 -7.30633E+00 -9.39537E+00
  -7.38848E+00 -9.00353E+00 -6.14547E+00 -5.94258E+00 -7.00685E+00 -7.46399E+00 -6.65256E+00 -4.38582E+00 -4.99482E+00 -3.88115E+00
  -8.70988E-01 -3.21998E+00 -9.59065E-01 -6.02085E-01 -5.82592E+00 -3.75358E+00 -2.21663E+00 -3.09004E+00 -4.33197E+00 -3.37031E+00
  -2.75540E+00 -3.84534E+00 -3.76425E+00 -1.19712E+00 -2.11889E+00 -3.27949E+00 -2.30257E+00 -3.26833E+00 -3.80973E+00 -2.29488E+00
  -1.69208E+00 -1.96983E+00  8.42008E-01 -1.48885E+00  1.27336E+00  1.89759E+00  4.68215E+00  1.65222E+00  2.03584E+00 -6.31396E-01
  -1.69920E-01 -6.54908E-01 -1.00990E+00 -9.28082E-01  1.12485E+00 -2.52097E-01 -1.47931E+00  9.07942E-01  1.80413E+00  2.27784E+00
   1.88741E+00  3.18517E+00  2.91935E+00  2.80805E+00  2.44636E+00  1.53124E+00  1.78312E+00  3.19905E+00  1.59775E+00  4.28909E+00
   2.53262E+00  4.61190E-01  2.37654E+00  4.39643E+00  6.31645E+00  6.44212E+00  3.73158E+00  6.05829E+00  4.80938E+00  1.19120E+01
   9.18420E+00  7.92671E+00  1.01803E+01  1.24270E+01  1.67582E+01  2.10149E+01  2.56161E+01  3.15664E+01  3.52516E+01  4.17461E+01
   4.22047E+01  3.86966E+01  3.29671E+01  2.55411E+01  2.21074E+01  1.66654E+01  1.55598E+01  1.04377E+01  7.58547E+00  6.51550E+00
   5.63687E+00  5.60023E+00  4.22180E+00  5.94067E+00  6.16918E+00  5.10871E+00  2.98091E+00  3.52743E+00  3.96265E+00  3.01925E+00
   4.27829E+00  5.40223E+00  1.12346E+00  3.89666E-01  3.84176E+00  3.29624E+00  2.24167E+00  1.49730E+00  1.44461E+00  1.52947E+00
   3.10597E+00  3.67871E+00  8.93463E-01  2.00451E+00  1.19043E+00  1.20392E+00  5.12621E+00  3.27528E+00  2.33177E+00  1.25310E+00
   5.20302E+00  2.15211E+00  3.69376E+00  4.52905E+00  2.45866E+00  2.78848E+00  3.26771E+00  5.51530E+00  5.21636E+00  2.17213E+00
   4.12756E+00  3.63957E+00  4.91217E+00  3.63198E+00  3.39006E+00  4.32095E+00  3.83958E+00  2.87199E+00  2.74694E+00  4.02592E+00
   6.27885E+00  4.01702E+00  5.55538E+00  4.15430E+00  3.08846E+00  7.15811E+00  5.43563E+00  4.53940E+00  4.02258E+00  4.16100E+00
   6.37043E+00  5.78663E+00  4.76700E+00  5.41175E+00  5.43194E+00  3.88370E+00  3.92186E+00  4.13258E+00  3.62371E+00  3.59868E+00
   2.84065E+00  6.04779E+00  5.15604E+00  5.85380E+00  5.65582E+00  4.82551E+00  4.19889E+00  2.89345E+00  3.09824E+00  5.10194E+00
   3.72436E+00  5.55926E+00  3.98639E+00  4.56387E+00  5.34898E+00  5.97802E+00  5.89219E+00  5.12460E+00  5.15327E+00  4.97322E+00
   6.45715E+00  5.44296E+00  4.78099E+00  2.56960E+00  5.73139E+00  2.97131E+00  3.22331E+00  5.41340E+00  5.54126E+00  3.51514E+00
   1.72714E+00  4.04795E+00  8.75918E-01 -1.11887E-01  3.60633E+00  2.43401E+00  3.24790E+00  5.97789E-01  2.42560E+00  3.18130E+00
   1.60137E+00  4.82006E+00  2.48912E+00  4.70755E+00  3.20353E+00  4.88915E+00  3.96014E+00  1.92579E+00  4.69307E+00  3.01318E+00
   5.22687E+00  4.71248E+00  6.05641E+00  3.61470E+00  5.98334E+00  2.19360E+00  6.39646E+00  4.69682E+00  7.04277E+00  3.22495E+00
   4.09052E+00  3.51493E+00  4.95636E+00  3.07207E+00  5.25868E+00  4.88975E+00  2.58999E+00  3.07891E+00  3.39097E+00  4.59160E+00
   6.20615E+00  6.06728E+00  2.48840E+00  7.08902E+00  3.02261E+00  5.50290E+00  4.54046E+00  3.94977E+00  4.77880E+00  4.47570E+00
   3.04696E+00  3.36594E+00  2.14406E+00  4.48331E+00  2.96633E+00  4.09574E+00  3.90372E+00  4.12499E+00  2.94154E+00  3.97901E+00
   3.59865E+00  3.48213E+00  3.41423E+00  4.21361E+00  4.01180E+00  3.27632E+00  3.30847E+00  1.86569E+00  2.38924E+00  5.15622E+00
   4.14007E+00  2.93592E+00  2.30894E+00  4.51964E+00  2.62991E+00  4.16607E+00  3.77723E+00  5.00705E+00  3.14033E+00  7.02348E+00
   5.78980E+00  2.94674E+00  5.72313E+00  4.56840E+00  6.38338E+00  3.96599E+00  1.58940E+00  2.82057E+00  4.22583E+00  4.24437E+00
   4.98500E+00  2.68346E+00  3.32962E+00  1.31258E+00  3.71232E+00  2.42236E+00  1.95495E+00  1.26206E+00  2.62347E+00  3.37376E+00
   4.79504E+00  3.82073E+00  2.43595E+00  5.25585E+00  3.80474E+00  2.26314E+00  4.19780E+00  4.84839E+00  3.58979E+00  4.28935E+00
   3.47929E+00  3.98826E+00  3.27593E+00  5.73072E+00  3.99689E+00  3.50665E+00  4.48544E+00  2.36743E+00  3.08713E+00  2.47620E+00
   3.23602E+00  3.45586E+00  5.78913E+00  2.88151E+00  4.78872E+00  3.16327E+00  3.80299E+00  4.73492E+00
 NY points of the fit to the data follow
  -3.03250E+01 -3.01632E+01 -2.95739E+01 -2.87129E+01 -2.75447E+01 -2.59838E+01 -2.41006E+01 -2.21605E+01 -2.05991E+01 -1.98104E+01
  -1.99048E+01 -2.06609E+01 -2.16513E+01 -2.25254E+01 -2.31992E+01 -2.37710E+01 -2.43298E+01 -2.49236E+01 -2.55094E+01 -2.58010E+01
  -2.58171E+01 -2.56785E+01 -2.53070E+01 -2.47582E+01 -2.40236E+01 -2.30687E+01 -2.19489E+01 -2.08064E+01 -1.98489E+01 -1.92419E+01
  -1.90438E+01 -1.92039E+01 -1.95947E+01 -2.00813E+01 -2.06015E+01 -2.11279E+01 -2.16394E+01 -2.20622E+01 -2.22825E+01 -2.21712E+01
  -2.17142E+01 -2.10813E+01 -2.03561E+01 -1.95940E+01 -1.88764E+01 -1.83187E+01 -1.80421E+01 -1.80868E+01 -1.83986E+01 -1.88531E+01
  -1.92940E+01 -1.95980E+01 -1.97424E+01 -1.97528E+01 -1.96745E+01 -1.95265E+01 -1.92966E+01 -1.90028E+01 -1.87221E+01 -1.85275E+01
  -1.84447E+01 -1.84388E+01 -1.84526E+01 -1.84211E+01 -1.83059E+01 -1.81156E+01 -1.78838E+01 -1.76356E+01 -1.73743E+01 -1.71042E+01
  -1.68401E+01 -1.65952E+01 -1.63898E+01 -1.62369E+01 -1.61340E+01 -1.60756E+01 -1.60462E+01 -1.60145E+01 -1.59276E+01 -1.57066E+01
  -1.53894E+01 -1.50046E+01 -1.45644E+01 -1.41133E+01 -1.37145E+01 -1.34282E+01 -1.33009E+01 -1.33299E+01 -1.34421E+01 -1.35576E+01
  -1.36170E+01 -1.36034E+01 -1.35385E+01 -1.33944E+01 -1.29080E+01 -1.17186E+01 -9.94359E+00 -7.62866E+00 -4.82515E+00 -1.77929E+00
   1.03010E+00  2.97523E+00  3.54262E+00  2.65893E+00  7.33688E-01 -1.57391E+00 -3.70271E+00 -5.46871E+00 -6.96587E+00 -8.30859E+00
  -9.52168E+00 -1.05371E+01 -1.11529E+01 -1.12688E+01 -1.11858E+01 -1.10475E+01 -1.08664E+01 -1.06072E+01 -1.00842E+01 -8.78685E+00
  -6.70891E+00 -4.04080E+00 -7.58981E-01  2.98959E+00  6.71858E+00  9.70471E+00  1.11931E+01  1.08243E+01  8.89883E+00  6.14285E+00
   3.29955E+00  7.64994E-01 -1.49686E+00 -3.61117E+00 -5.55497E+00 -7.18890E+00 -8.25945E+00 -8.50929E+00 -8.27084E+00 -7.94742E+00
  -7.67634E+00 -7.50036E+00 -7.40434E+00 -7.34195E+00 -7.29517E+00 -7.27358E+00 -7.28134E+00 -7.32435E+00 -7.39248E+00 -7.45845E+00
  -7.50445E+00 -7.50696E+00 -7.46650E+00 -7.41188E+00 -7.36622E+00 -7.33250E+00 -7.32302E+00 -7.33716E+00 -7.36733E+00 -7.40150E+00
  -7.39469E+00 -7.31477E+00 -7.18070E+00 -7.04910E+00 -6.98752E+00 -7.02741E+00 -7.13986E+00 -7.27209E+00 -7.38693E+00 -7.48145E+00
  -7.55627E+00 -7.64377E+00 -7.75942E+00 -7.87556E+00 -7.94808E+00 -7.91060E+00 -7.76377E+00 -7.58050E+00 -7.41913E+00 -7.31810E+00
  -7.25845E+00 -7.14748E+00 -6.92930E+00 -6.59388E+00 -6.14425E+00 -5.59141E+00 -4.94491E+00 -4.22849E+00 -3.51093E+00 -2.91552E+00
  -2.54615E+00 -2.42724E+00 -2.49359E+00 -2.61994E+00 -2.70765E+00 -2.70434E+00 -2.57158E+00 -2.32245E+00 -1.98817E+00 -1.57985E+00
  -1.15144E+00 -7.66474E-01 -5.05803E-01 -4.33479E-01 -5.77055E-01 -9.44397E-01 -1.47582E+00 -2.01938E+00 -2.41831E+00 -2.53533E+00
  -2.36889E+00 -1.94783E+00 -1.32105E+00 -5.96030E-01  6.27830E-02  4.47924E-01  4.35922E-01  6.31378E-02 -5.43378E-01 -1.20083E+00
  -1.71455E+00 -1.93411E+00 -1.80921E+00 -1.41575E+00 -8.70865E-01 -2.84576E-01  2.40975E-01  6.64617E-01  9.77055E-01  1.27106E+00
   1.61693E+00  2.01686E+00  2.43708E+00  2.80493E+00  3.06062E+00  3.17367E+00  3.12770E+00  2.96062E+00  2.74212E+00  2.54195E+00
   2.43723E+00  2.49037E+00  2.72835E+00  3.12465E+00  3.60121E+00  4.07124E+00  4.48886E+00  4.90629E+00  5.44452E+00  6.11806E+00
   6.96942E+00  8.10874E+00  9.96237E+00  1.31268E+01  1.71447E+01  2.17091E+01  2.68168E+01  3.21593E+01  3.69456E+01  4.00546E+01
   4.04586E+01  3.79092E+01  3.31658E+01  2.75740E+01  2.23373E+01  1.79490E+01  1.42826E+01  1.10217E+01  8.07052E+00  5.54669E+00
   3.85169E+00  3.23351E+00  3.07463E+00  3.02066E+00  2.99252E+00  2.96348E+00  2.91565E+00  2.85288E+00  2.78977E+00  2.73261E+00
   2.68425E+00  2.64777E+00  2.62217E+00  2.60567E+00  2.60085E+00  2.60785E+00  2.62354E+00  2.64637E+00  2.67679E+00  2.71572E+00
   2.76210E+00  2.81111E+00  2.86034E+00  2.90984E+00  2.95923E+00  3.00959E+00  3.06306E+00  3.12024E+00  3.18098E+00  3.24471E+00
   3.30997E+00  3.37510E+00  3.43895E+00  3.49980E+00  3.55619E+00  3.60749E+00  3.65347E+00  3.69408E+00  3.72918E+00  3.75869E+00
   3.78363E+00  3.80512E+00  3.82432E+00  3.84250E+00  3.86097E+00  3.88090E+00  3.90336E+00  3.92930E+00  3.95950E+00  3.99445E+00
   4.03437E+00  4.07918E+00  4.12854E+00  4.18184E+00  4.23819E+00  4.29644E+00  4.35530E+00  4.41336E+00  4.46926E+00  4.52165E+00
   4.56933E+00  4.61125E+00  4.64674E+00  4.67548E+00  4.69782E+00  4.71486E+00  4.72897E+00  4.74482E+00  4.77292E+00  4.83184E+00
   4.90545E+00  4.96475E+00  5.00457E+00  5.00816E+00  4.94301E+00  4.77834E+00  4.51037E+00  4.20864E+00  3.95919E+00  3.82855E+00
   3.86600E+00  4.07659E+00  4.41624E+00  4.81340E+00  5.18601E+00  5.46109E+00  5.60231E+00  5.61628E+00  5.51773E+00  5.33379E+00
   5.10206E+00  4.84390E+00  4.57444E+00  4.30671E+00  4.05907E+00  3.86450E+00  3.72597E+00  3.62684E+00  3.55657E+00  3.50752E+00
   3.47378E+00  3.45092E+00  3.43596E+00  3.42707E+00  3.42331E+00  3.42434E+00  3.43026E+00  3.44143E+00  3.45839E+00  3.48173E+00
   3.51202E+00  3.54980E+00  3.59558E+00  3.64977E+00  3.71276E+00  3.78475E+00  3.86581E+00  3.95581E+00  4.05444E+00  4.16116E+00
   4.27520E+00  4.39542E+00  4.52046E+00  4.64860E+00  4.77791E+00  4.90618E+00  5.03104E+00  5.14990E+00  5.26019E+00  5.35933E+00
   5.44493E+00  5.51479E+00  5.56712E+00  5.60044E+00  5.61383E+00  5.60689E+00  5.57981E+00  5.53328E+00  5.46855E+00  5.38726E+00
   5.29148E+00  5.18354E+00  5.06600E+00  4.94146E+00  4.81252E+00  4.68162E+00  4.55108E+00  4.42294E+00  4.29896E+00  4.18058E+00
   4.06891E+00  3.96474E+00  3.86861E+00  3.78079E+00  3.70134E+00  3.63007E+00  3.56672E+00  3.51087E+00  3.46207E+00  3.41979E+00
   3.38353E+00  3.35272E+00  3.32684E+00  3.30538E+00  3.28792E+00  3.27401E+00  3.26326E+00  3.25530E+00  3.24983E+00  3.24656E+00
   3.24526E+00  3.24568E+00  3.24766E+00  3.25098E+00  3.25552E+00  3.26113E+00  3.26771E+00  3.27513E+00  3.28331E+00  3.29215E+00
   3.30159E+00  3.31155E+00  3.32199E+00  3.33284E+00  3.34406E+00  3.35561E+00  3.36748E+00  3.37963E+00  3.39205E+00  3.40468E+00
   3.41753E+00  3.43057E+00  3.44380E+00  3.45719E+00  3.47075E+00  3.48444E+00  3.49826E+00  3.51220E+00  3.52627E+00  3.54044E+00
   3.55473E+00  3.56909E+00  3.58356E+00  3.59811E+00  3.61276E+00  3.62749E+00  3.64231E+00  3.65718E+00  3.67215E+00  3.68718E+00
   3.70230E+00  3.71749E+00  3.73276E+00  3.74808E+00  3.76350E+00  3.77899E+00  3.79457E+00  3.81022E+00  3.82596E+00  3.84177E+00
   3.85770E+00  3.87372E+00  3.88985E+00  3.90608E+00  3.92243E+00  3.93890E+00  3.95553E+00  3.97231E+00
 NY background values follow
    -3.173E+01   -3.154E+01   -3.135E+01   -3.115E+01   -3.096E+01   -3.077E+01   -3.058E+01   -3.038E+01   -3.019E+01   -3.000E+01
    -2.981E+01   -2.961E+01   -2.942E+01   -2.923E+01   -2.904E+01   -2.885E+01   -2.866E+01   -2.846E+01   -2.827E+01   -2.808E+01
    -2.789E+01   -2.770E+01   -2.751E+01   -2.732E+01   -2.713E+01   -2.694E+01   -2.675E+01   -2.656E+01   -2.638E+01   -2.619E+01
    -2.600E+01   -2.581E+01   -2.562E+01   -2.544E+01   -2.525E+01   -2.506E+01   -2.488E+01   -2.469E+01   -2.451E+01   -2.432E+01
    -2.414E+01   -2.395E+01   -2.377E+01   -2.359E+01   -2.340E+01   -2.322E+01   -2.304E+01   -2.286E+01   -2.268E+01   -2.250E+01
    -2.232E+01   -2.214E+01   -2.196E+01   -2.178E+01   -2.160E+01   -2.143E+01   -2.125E+01   -2.107E+01   -2.090E+01   -2.072E+01
    -2.055E+01   -2.037E+01   -2.020E+01   -2.003E+01   -1.985E+01   -1.968E+01   -1.951E+01   -1.934E+01   -1.917E+01   -1.900E+01
    -1.884E+01   -1.867E+01   -1.850E+01   -1.833E+01   -1.817E+01   -1.800E+01   -1.784E+01   -1.768E+01   -1.751E+01   -1.735E+01
    -1.719E+01   -1.703E+01   -1.687E+01   -1.671E+01   -1.655E+01   -1.639E+01   -1.624E+01   -1.608E+01   -1.593E+01   -1.577E+01
    -1.562E+01   -1.547E+01   -1.531E+01   -1.516E+01   -1.501E+01   -1.486E+01   -1.472E+01   -1.457E+01   -1.442E+01   -1.428E+01
    -1.413E+01   -1.399E+01   -1.384E+01   -1.370E+01   -1.356E+01   -1.342E+01   -1.328E+01   -1.314E+01   -1.300E+01   -1.286E+01
    -1.272E+01   -1.259E+01   -1.245E+01   -1.232E+01   -1.219E+01   -1.205E+01   -1.192E+01   -1.179E+01   -1.166E+01   -1.153E+01
    -1.140E+01   -1.127E+01   -1.115E+01   -1.102E+01   -1.090E+01   -1.077E+01   -1.065E+01   -1.052E+01   -1.040E+01   -1.028E+01
    -1.016E+01   -1.004E+01   -9.922E+00   -9.804E+00   -9.687E+00   -9.570E+00   -9.455E+00   -9.340E+00   -9.226E+00   -9.113E+00
    -9.001E+00   -8.889E+00   -8.778E+00   -8.668E+00   -8.558E+00   -8.449E+00   -8.341E+00   -8.234E+00   -8.127E+00   -8.021E+00
    -7.915E+00   -7.810E+00   -7.706E+00   -7.602E+00   -7.499E+00   -7.396E+00   -7.294E+00   -7.192E+00   -7.091E+00   -6.990E+00
    -6.890E+00   -6.790E+00   -6.691E+00   -6.592E+00   -6.494E+00   -6.396E+00   -6.298E+00   -6.201E+00   -6.104E+00   -6.008E+00
    -5.912E+00   -5.816E+00   -5.720E+00   -5.625E+00   -5.530E+00   -5.435E+00   -5.341E+00   -5.247E+00   -5.153E+00   -5.059E+00
    -4.965E+00   -4.872E+00   -4.779E+00   -4.686E+00   -4.593E+00   -4.500E+00   -4.408E+00   -4.315E+00   -4.223E+00   -4.132E+00
    -4.040E+00   -3.949E+00   -3.858E+00   -3.768E+00   -3.678E+00   -3.588E+00   -3.498E+00   -3.409E+00   -3.320E+00   -3.232E+00
    -3.144E+00   -3.056E+00   -2.969E+00   -2.883E+00   -2.796E+00   -2.711E+00   -2.625E+00   -2.541E+00   -2.456E+00   -2.373E+00
    -2.289E+00   -2.207E+00   -2.125E+00   -2.043E+00   -1.962E+00   -1.882E+00   -1.802E+00   -1.723E+00   -1.644E+00   -1.566E+00
    -1.489E+00   -1.413E+00   -1.337E+00   -1.262E+00   -1.187E+00   -1.113E+00   -1.040E+00   -9.682E-01   -8.967E-01   -8.259E-01
    -7.560E-01   -6.868E-01   -6.183E-01   -5.506E-01   -4.837E-01   -4.175E-01   -3.522E-01   -2.875E-01   -2.237E-01   -1.606E-01
    -9.837E-02   -3.688E-02    2.383E-02    8.374E-02    1.429E-01    2.012E-01    2.587E-01    3.155E-01    3.714E-01    4.266E-01
     4.809E-01    5.344E-01    5.871E-01    6.390E-01    6.901E-01    7.404E-01    7.898E-01    8.384E-01    8.862E-01    9.332E-01
     9.793E-01    1.025E+00    1.069E+00    1.113E+00    1.156E+00    1.197E+00    1.239E+00    1.279E+00    1.318E+00    1.357E+00
     1.394E+00    1.431E+00    1.467E+00    1.502E+00    1.537E+00    1.570E+00    1.603E+00    1.635E+00    1.666E+00    1.696E+00
     1.725E+00    1.754E+00    1.782E+00    1.809E+00    1.835E+00    1.861E+00    1.886E+00    1.910E+00    1.934E+00    1.956E+00
     1.979E+00    2.000E+00    2.021E+00    2.041E+00    2.060E+00    2.079E+00    2.097E+00    2.115E+00    2.132E+00    2.148E+00
     2.164E+00    2.179E+00    2.194E+00    2.208E+00    2.222E+00    2.235E+00    2.247E+00    2.259E+00    2.270E+00    2.281E+00
     2.292E+00    2.302E+00    2.311E+00    2.320E+00    2.329E+00    2.337E+00    2.344E+00    2.352E+00    2.358E+00    2.365E+00
     2.371E+00    2.376E+00    2.382E+00    2.387E+00    2.391E+00    2.395E+00    2.399E+00    2.403E+00    2.406E+00    2.409E+00
     2.412E+00    2.414E+00    2.416E+00    2.418E+00    2.420E+00    2.422E+00    2.423E+00    2.424E+00    2.425E+00    2.426E+00
     2.426E+00    2.427E+00    2.427E+00    2.427E+00    2.427E+00    2.427E+00    2.427E+00    2.427E+00    2.426E+00    2.426E+00
     2.425E+00    2.425E+00    2.424E+00    2.424E+00    2.423E+00    2.423E+00    2.422E+00    2.422E+00    2.422E+00    2.421E+00
     2.421E+00    2.421E+00    2.421E+00    2.421E+00    2.421E+00    2.421E+00    2.421E+00    2.422E+00    2.422E+00    2.423E+00
     2.424E+00    2.425E+00    2.426E+00    2.427E+00    2.429E+00    2.430E+00    2.432E+00    2.434E+00    2.436E+00    2.439E+00
     2.441E+00    2.444E+00    2.447E+00    2.450E+00    2.453E+00    2.457E+00    2.461E+00    2.465E+00    2.469E+00    2.474E+00
     2.479E+00    2.484E+00    2.489E+00    2.495E+00    2.501E+00    2.507E+00    2.514E+00    2.521E+00    2.528E+00    2.535E+00
     2.543E+00    2.551E+00    2.559E+00    2.568E+00    2.577E+00    2.587E+00    2.597E+00    2.607E+00    2.617E+00    2.628E+00
     2.639E+00    2.651E+00    2.663E+00    2.675E+00    2.687E+00    2.700E+00    2.713E+00    2.726E+00    2.740E+00    2.754E+00
     2.768E+00    2.782E+00    2.797E+00    2.812E+00    2.827E+00    2.842E+00    2.857E+00    2.873E+00    2.889E+00    2.904E+00
     2.920E+00    2.937E+00    2.953E+00    2.969E+00    2.986E+00    3.003E+00    3.019E+00    3.036E+00    3.053E+00    3.070E+00
     3.087E+00    3.104E+00    3.122E+00    3.139E+00    3.156E+00    3.173E+00    3.191E+00    3.208E+00    3.225E+00    3.242E+00
     3.259E+00    3.276E+00    3.293E+00    3.310E+00    3.327E+00    3.344E+00    3.361E+00    3.378E+00    3.395E+00    3.411E+00
     3.428E+00    3.445E+00    3.461E+00    3.478E+00    3.494E+00    3.511E+00    3.527E+00    3.543E+00    3.560E+00    3.576E+00
     3.592E+00    3.609E+00    3.625E+00    3.641E+00    3.657E+00    3.673E+00    3.690E+00    3.706E+00    3.722E+00    3.738E+00
     3.754E+00    3.770E+00    3.786E+00    3.802E+00    3.818E+00    3.835E+00    3.851E+00    3.867E+00    3.883E+00    3.899E+00
     3.915E+00    3.931E+00    3.947E+00    3.963E+00    3.980E+00    3.996E+00    4.012E+00    4.028E+00
 Cr       Conc. = 2.65E+01
