 LCModel (Version 6.3-1L) Copyright: S.W. Provencher.          Ref.: Magn. Reson. Med. 30:672-679 (1993).                
 Slice#1 Row#3 Col#3  PD_05_press_1_raw_act
 36 lines in following concentration table = NCONC+1
    Conc.  %SD /Cr+PCr  Metabolite                                         
   68.056  88%   1.046 Ala                                                 
    7.545  62%   0.116 Asp                                                 
    0.000 999%   0.000 Cr                                                  
   65.086  36%   1.000 PCr                                                 
    4.564  61% 7.0E-02 GABA                                                
    4.563  61% 7.0E-02 Glc                                                 
    0.000 999%   0.000 Gln                                                 
  146.743  92%   2.255 Glu                                                 
   26.240  35%   0.403 GPC                                                 
    0.000 999%   0.000 PCh                                                 
    4.549 778% 7.0E-02 GSH                                                 
   86.813 136%   1.334 Ins                                                 
  207.075  38%   3.182 Lac                                                 
    7.605 341%   0.117 NAA                                                 
    0.000 999%   0.000 NAAG                                                
    1.445  65% 2.2E-02 Scyllo                                              
    7.286  64%   0.112 Tau                                                 
    2.615 277% 4.0E-02 -CrCH2                                              
   26.240  35%   0.403 GPC+PCh                                             
    7.605 341%   0.117 NAA+NAAG                                            
   65.086  36%   1.000 Cr+PCr                                              
  146.743  92%   2.255 Glu+Gln                                             
  760.469  28%  11.684 Lip13a                                              
  151.935  64%   2.334 Lip13b                                              
    0.000 999%   0.000 Lip09                                               
    0.000 999%   0.000 MM09                                                
   89.693  90%   1.378 Lip20                                               
    0.000 999%   0.000 MM20                                                
 2.55E-04 999% 3.9E-06 MM12                                                
 3.29E-03 999% 5.1E-05 MM14                                                
 5.06E-03 999% 7.8E-05 MM17                                                
  912.405  16%  14.018 Lip13a+Lip13b                                       
  912.408  16%  14.018 MM14+Lip13a+Lip13b+MM12                             
    0.000 999%   0.000 MM09+Lip09                                          
   89.693  90%   1.378 MM20+Lip20                                          
   6 lines in following misc. output table
  FWHM = 0.061 ppm    S/N =   2                                            
  Data shift =-0.023 ppm                                                   
  Ph:  44 deg     -17.3 deg/ppm                                            
  alphaB,S = 9.2E-01,   7.3E+01                                            
   14 spline knots.   Ns = 7(1)                                            
   2 inflections.     1 extrema                                            
  498 points on ppm-axis = NY
      4.000000     3.992357     3.984714     3.977070     3.969427     3.961784     3.954141     3.946497     3.938854     3.931211
      3.923568     3.915925     3.908281     3.900638     3.892995     3.885352     3.877708     3.870065     3.862422     3.854779
      3.847136     3.839492     3.831849     3.824206     3.816563     3.808919     3.801276     3.793633     3.785990     3.778347
      3.770703     3.763060     3.755417     3.747774     3.740130     3.732487     3.724844     3.717201     3.709558     3.701914
      3.694271     3.686628     3.678985     3.671341     3.663698     3.656055     3.648412     3.640769     3.633125     3.625482
      3.617839     3.610196     3.602552     3.594909     3.587266     3.579623     3.571980     3.564336     3.556693     3.549050
      3.541407     3.533763     3.526120     3.518477     3.510834     3.503191     3.495547     3.487904     3.480261     3.472618
      3.464974     3.457331     3.449688     3.442045     3.434402     3.426758     3.419115     3.411472     3.403829     3.396185
      3.388542     3.380899     3.373256     3.365613     3.357969     3.350326     3.342683     3.335040     3.327396     3.319753
      3.312110     3.304467     3.296824     3.289180     3.281537     3.273894     3.266251     3.258607     3.250964     3.243321
      3.235678     3.228034     3.220391     3.212748     3.205105     3.197462     3.189818     3.182175     3.174532     3.166889
      3.159245     3.151602     3.143959     3.136316     3.128673     3.121029     3.113386     3.105743     3.098100     3.090456
      3.082813     3.075170     3.067527     3.059884     3.052240     3.044597     3.036954     3.029311     3.021667     3.014024
      3.006381     2.998738     2.991095     2.983451     2.975808     2.968165     2.960522     2.952878     2.945235     2.937592
      2.929949     2.922306     2.914662     2.907019     2.899376     2.891733     2.884089     2.876446     2.868803     2.861160
      2.853517     2.845873     2.838230     2.830587     2.822944     2.815300     2.807657     2.800014     2.792371     2.784728
      2.777084     2.769441     2.761798     2.754155     2.746511     2.738868     2.731225     2.723582     2.715939     2.708295
      2.700652     2.693009     2.685366     2.677722     2.670079     2.662436     2.654793     2.647150     2.639506     2.631863
      2.624220     2.616577     2.608933     2.601290     2.593647     2.586004     2.578361     2.570717     2.563074     2.555431
      2.547788     2.540144     2.532501     2.524858     2.517215     2.509572     2.501928     2.494285     2.486642     2.478999
      2.471355     2.463712     2.456069     2.448426     2.440783     2.433139     2.425496     2.417853     2.410210     2.402566
      2.394923     2.387280     2.379637     2.371994     2.364350     2.356707     2.349064     2.341421     2.333777     2.326134
      2.318491     2.310848     2.303205     2.295561     2.287918     2.280275     2.272632     2.264988     2.257345     2.249702
      2.242059     2.234416     2.226772     2.219129     2.211486     2.203843     2.196199     2.188556     2.180913     2.173270
      2.165627     2.157983     2.150340     2.142697     2.135054     2.127410     2.119767     2.112124     2.104481     2.096838
      2.089194     2.081551     2.073908     2.066265     2.058621     2.050978     2.043335     2.035692     2.028049     2.020405
      2.012762     2.005119     1.997476     1.989833     1.982190     1.974546     1.966903     1.959260     1.951617     1.943974
      1.936331     1.928688     1.921045     1.913402     1.905759     1.898115     1.890472     1.882829     1.875186     1.867543
      1.859900     1.852257     1.844614     1.836971     1.829327     1.821684     1.814041     1.806398     1.798755     1.791112
      1.783469     1.775826     1.768183     1.760540     1.752896     1.745253     1.737610     1.729967     1.722324     1.714681
      1.707038     1.699395     1.691752     1.684108     1.676465     1.668822     1.661179     1.653536     1.645893     1.638250
      1.630607     1.622964     1.615321     1.607677     1.600034     1.592391     1.584748     1.577105     1.569462     1.561819
      1.554176     1.546533     1.538890     1.531246     1.523603     1.515960     1.508317     1.500674     1.493031     1.485388
      1.477745     1.470102     1.462458     1.454815     1.447172     1.439529     1.431886     1.424243     1.416600     1.408957
      1.401314     1.393671     1.386027     1.378384     1.370741     1.363098     1.355455     1.347812     1.340169     1.332526
      1.324883     1.317240     1.309596     1.301953     1.294310     1.286667     1.279024     1.271381     1.263738     1.256095
      1.248452     1.240808     1.233165     1.225522     1.217879     1.210236     1.202593     1.194950     1.187307     1.179664
      1.172021     1.164377     1.156734     1.149091     1.141448     1.133805     1.126162     1.118519     1.110876     1.103233
      1.095590     1.087946     1.080303     1.072660     1.065017     1.057374     1.049731     1.042088     1.034445     1.026802
      1.019158     1.011515     1.003872     0.996229     0.988586     0.980943     0.973300     0.965657     0.958014     0.950371
      0.942727     0.935084     0.927441     0.919798     0.912155     0.904512     0.896869     0.889226     0.881583     0.873940
      0.866296     0.858653     0.851010     0.843367     0.835724     0.828081     0.820438     0.812795     0.805152     0.797508
      0.789865     0.782222     0.774579     0.766936     0.759293     0.751650     0.744007     0.736364     0.728721     0.721077
      0.713434     0.705791     0.698148     0.690505     0.682862     0.675219     0.667576     0.659933     0.652290     0.644646
      0.637003     0.629360     0.621717     0.614074     0.606431     0.598788     0.591145     0.583502     0.575858     0.568215
      0.560572     0.552929     0.545286     0.537643     0.530000     0.522357     0.514714     0.507071     0.499427     0.491784
      0.484141     0.476498     0.468855     0.461212     0.453569     0.445925     0.438282     0.430639     0.422996     0.415353
      0.407710     0.400067     0.392424     0.384780     0.377137     0.369494     0.361851     0.354208     0.346565     0.338922
      0.331278     0.323635     0.315992     0.308349     0.300706     0.293063     0.285420     0.277777     0.270133     0.262490
      0.254847     0.247204     0.239561     0.231918     0.224275     0.216631     0.208988     0.201345
 NY phased data points follow
   3.08488E+01  2.96972E+01  3.06217E+01  3.10577E+01  2.98420E+01  2.90611E+01  2.96044E+01  2.81299E+01  2.91154E+01  2.77392E+01
   3.11848E+01  2.98189E+01  2.60163E+01  2.65219E+01  2.76301E+01  2.59860E+01  2.42921E+01  2.52697E+01  2.68986E+01  2.35453E+01
   2.68287E+01  2.32721E+01  2.39012E+01  2.36179E+01  2.28708E+01  2.41444E+01  2.46369E+01  2.60370E+01  2.50356E+01  2.23962E+01
   2.44324E+01  2.29470E+01  2.56090E+01  2.12882E+01  2.48282E+01  2.28566E+01  2.18223E+01  2.03337E+01  2.29843E+01  1.97786E+01
   2.14322E+01  1.95811E+01  1.93501E+01  2.18855E+01  2.20832E+01  2.26217E+01  2.03283E+01  2.24349E+01  2.10276E+01  1.95044E+01
   2.32449E+01  2.04357E+01  2.08229E+01  1.95980E+01  2.02400E+01  1.79948E+01  2.07278E+01  2.05202E+01  1.97851E+01  1.85656E+01
   1.97556E+01  2.19225E+01  1.98090E+01  1.80524E+01  1.92150E+01  1.82232E+01  1.87372E+01  1.98248E+01  1.78495E+01  1.92037E+01
   1.70727E+01  1.70547E+01  1.93935E+01  1.97439E+01  1.72429E+01  1.93749E+01  1.76759E+01  2.01793E+01  1.63718E+01  1.76754E+01
   1.75230E+01  1.62453E+01  1.72166E+01  1.27407E+01  1.81081E+01  1.45744E+01  1.88133E+01  1.72178E+01  1.72426E+01  1.57763E+01
   1.52642E+01  1.31515E+01  1.56327E+01  1.67232E+01  1.59138E+01  1.48710E+01  1.40767E+01  1.40394E+01  1.37632E+01  1.57767E+01
   1.77847E+01  1.82095E+01  1.84033E+01  1.95533E+01  1.57115E+01  1.55240E+01  1.67568E+01  1.62806E+01  1.80940E+01  1.58165E+01
   1.29663E+01  1.56417E+01  1.57817E+01  1.53914E+01  1.46931E+01  1.29232E+01  1.56940E+01  1.54845E+01  1.15063E+01  1.30176E+01
   1.46791E+01  1.36660E+01  1.13300E+01  1.16891E+01  1.34366E+01  1.29869E+01  1.34086E+01  1.33151E+01  1.45282E+01  1.70890E+01
   1.13908E+01  1.53725E+01  1.64557E+01  1.39245E+01  1.40053E+01  1.30607E+01  1.25998E+01  1.19422E+01  1.12492E+01  1.33977E+01
   1.56267E+01  1.06546E+01  1.12844E+01  1.02066E+01  1.03778E+01  1.25721E+01  1.13811E+01  1.39712E+01  9.60501E+00  1.03753E+01
   1.26880E+01  1.15131E+01  1.22676E+01  8.16740E+00  1.18655E+01  1.18964E+01  1.25097E+01  1.16086E+01  1.24980E+01  1.49394E+01
   1.40668E+01  1.31100E+01  1.20079E+01  9.83009E+00  1.05617E+01  1.51776E+01  1.37345E+01  1.12064E+01  1.17762E+01  9.54125E+00
   1.15889E+01  1.10502E+01  1.22038E+01  9.74283E+00  9.98446E+00  7.56933E+00  1.17802E+01  9.64036E+00  1.09656E+01  1.07283E+01
   1.32194E+01  1.14747E+01  1.01359E+01  1.08854E+01  1.43822E+01  1.06061E+01  1.33402E+01  1.29214E+01  9.01766E+00  1.22431E+01
   1.04965E+01  7.87436E+00  8.82953E+00  8.75577E+00  1.12854E+01  1.18472E+01  7.64722E+00  8.58269E+00  9.84787E+00  9.65443E+00
   1.06442E+01  1.07673E+01  1.04925E+01  1.01692E+01  8.62607E+00  1.09663E+01  1.01718E+01  1.06902E+01  8.81514E+00  9.87043E+00
   1.05663E+01  6.23966E+00  1.17088E+01  1.32652E+01  7.72825E+00  1.15674E+01  7.73349E+00  7.73125E+00  7.63739E+00  7.38030E+00
   7.49151E+00  9.82593E+00  8.07722E+00  9.83722E+00  9.45175E+00  5.98988E+00  7.86497E+00  9.34915E+00  8.04154E+00  9.96941E+00
   9.78943E+00  9.30672E+00  9.00724E+00  9.01557E+00  8.02839E+00  9.75671E+00  8.95907E+00  6.12661E+00  7.59397E+00  8.13781E+00
   9.34497E+00  1.07449E+01  9.40141E+00  6.60154E+00  9.64891E+00  6.70484E+00  9.48562E+00  9.32920E+00  8.56598E+00  7.14806E+00
   6.38049E+00  6.86107E+00  9.71281E+00  5.57743E+00  7.80611E+00  6.59448E+00  6.53427E+00  8.35296E+00  5.90099E+00  9.85204E+00
   7.75422E+00  8.84451E+00  1.00661E+01  9.10199E+00  8.60166E+00  6.76554E+00  7.42298E+00  9.25014E+00  7.79768E+00  6.51142E+00
   9.05122E+00  6.05170E+00  6.54526E+00  9.09901E+00  6.26080E+00  7.47230E+00  9.34203E+00  7.48229E+00  6.55501E+00  9.59530E+00
   7.67035E+00  7.83656E+00  9.52346E+00  6.39669E+00  6.62345E+00  5.93967E+00  5.13907E+00  6.19013E+00  8.05556E+00  8.46257E+00
   8.49395E+00  9.23876E+00  8.88352E+00  6.01915E+00  5.13855E+00  7.21642E+00  7.03245E+00  7.46865E+00  6.71825E+00  6.59643E+00
   7.63617E+00  3.75864E+00  8.51878E+00  7.91524E+00  3.70717E+00  8.01592E+00  6.00423E+00  1.00168E+01  8.24501E+00  1.05065E+01
   9.79213E+00  5.96634E+00  7.02797E+00  8.21851E+00  7.12359E+00  6.48353E+00  6.83293E+00  6.49070E+00  7.94240E+00  6.47238E+00
   8.68074E+00  7.11494E+00  6.45951E+00  8.56124E+00  9.94279E+00  8.61534E+00  7.52143E+00  7.35911E+00  9.74103E+00  4.30203E+00
   7.92183E+00  5.39556E+00  7.68536E+00  4.87259E+00  6.77361E+00  7.64063E+00  1.05798E+01  4.64668E+00  6.25388E+00  4.31752E+00
   9.75608E+00  7.34684E+00  1.02796E+01  9.41935E+00  1.04807E+01  1.05824E+01  9.71929E+00  1.18014E+01  9.73663E+00  1.05075E+01
   8.83540E+00  6.67179E+00  1.30284E+01  9.84261E+00  8.65010E+00  1.03295E+01  1.30859E+01  1.22430E+01  1.36502E+01  1.43935E+01
   1.53813E+01  1.13999E+01  8.01304E+00  1.08572E+01  8.82515E+00  8.66315E+00  9.59026E+00  9.67257E+00  1.12371E+01  1.02354E+01
   9.96739E+00  9.76928E+00  8.43762E+00  1.09323E+01  8.29683E+00  6.63554E+00  7.50604E+00  6.59641E+00  6.97927E+00  8.81602E+00
   7.47753E+00  4.28417E+00  8.18933E+00  7.59072E+00  8.99465E+00  2.43680E+00  7.73802E+00  4.16511E+00  5.99664E+00  5.11151E+00
   3.23410E+00  6.57802E+00  6.45617E+00  2.91650E+00  5.22238E+00  3.03373E+00  5.06721E+00  3.33291E+00  6.59969E+00  2.74250E+00
   4.33884E+00  5.16548E+00  2.65250E+00  3.87446E+00  4.35634E+00  3.20899E+00  4.92461E+00  6.21967E+00  6.79623E+00  4.26366E+00
   6.75571E+00  3.34836E+00  5.25818E+00  6.68260E+00  5.56580E+00  5.11918E+00  2.23774E+00  8.25214E+00  5.12688E+00  5.85975E+00
   3.83320E+00  4.53934E+00  4.26856E+00  6.05507E+00  3.98457E+00  6.90606E+00  8.13655E+00  6.32966E+00  6.73245E+00  3.02411E+00
   5.43103E+00  4.00994E+00  6.84352E+00  3.33602E+00  6.38876E+00  4.53529E+00  7.04110E+00  6.10768E+00  7.40789E+00  6.67016E+00
   8.12348E+00  4.52457E+00  5.14496E+00  5.74787E+00  4.20624E+00  4.48831E+00  4.20409E+00  3.71698E+00  5.38847E+00  5.47199E+00
   5.83612E+00  2.57302E+00  3.82020E+00  3.51500E+00  5.26418E+00  4.01131E+00  3.44873E+00  5.12288E+00  5.39962E+00  5.13663E+00
   4.36511E+00  1.52200E+00  5.54645E+00  4.81090E+00  5.25977E+00  4.29029E+00  1.70276E+00  4.91275E+00  4.05521E+00  3.82607E+00
   4.75425E+00  3.34357E+00  3.49877E+00  3.66931E+00  3.05013E+00  4.64465E+00  1.26873E+00  4.10987E+00  7.86637E-01  2.19933E+00
   4.14630E+00  3.99724E+00  4.98675E+00  3.07371E+00  7.35706E+00  2.42961E+00  3.42557E+00  9.73153E-01  3.53934E+00  5.95107E+00
   1.34766E+00  2.24048E+00  3.20596E+00  6.93347E+00  3.58496E+00  1.42964E+00  1.82565E+00  1.43837E+00
 NY points of the fit to the data follow
   2.70270E+01  2.68553E+01  2.67422E+01  2.67012E+01  2.67418E+01  2.68509E+01  2.69854E+01  2.70981E+01  2.71638E+01  2.71653E+01
   2.70879E+01  2.69279E+01  2.66971E+01  2.64121E+01  2.60848E+01  2.57335E+01  2.53967E+01  2.51190E+01  2.49266E+01  2.48010E+01
   2.47035E+01  2.46132E+01  2.45099E+01  2.43793E+01  2.42181E+01  2.40320E+01  2.38331E+01  2.36408E+01  2.34800E+01  2.33660E+01
   2.32955E+01  2.32520E+01  2.32205E+01  2.31910E+01  2.31480E+01  2.30694E+01  2.29433E+01  2.27750E+01  2.25813E+01  2.23784E+01
   2.21865E+01  2.20349E+01  2.19468E+01  2.19195E+01  2.19235E+01  2.19275E+01  2.19090E+01  2.18532E+01  2.17517E+01  2.16053E+01
   2.14212E+01  2.12137E+01  2.09932E+01  2.07688E+01  2.05587E+01  2.03867E+01  2.02645E+01  2.01818E+01  2.01140E+01  2.00411E+01
   1.99520E+01  1.98438E+01  1.97185E+01  1.95823E+01  1.94417E+01  1.93015E+01  1.91666E+01  1.90430E+01  1.89367E+01  1.88478E+01
   1.87698E+01  1.86950E+01  1.86151E+01  1.85245E+01  1.84214E+01  1.83079E+01  1.81879E+01  1.80637E+01  1.79382E+01  1.78146E+01
   1.76960E+01  1.75824E+01  1.74680E+01  1.73477E+01  1.72200E+01  1.70868E+01  1.69513E+01  1.68177E+01  1.66906E+01  1.65744E+01
   1.64718E+01  1.63824E+01  1.63042E+01  1.62352E+01  1.61732E+01  1.61235E+01  1.61153E+01  1.61915E+01  1.63791E+01  1.66630E+01
   1.69807E+01  1.72620E+01  1.74607E+01  1.75422E+01  1.74827E+01  1.72876E+01  1.69844E+01  1.65970E+01  1.61413E+01  1.56587E+01
   1.52284E+01  1.49207E+01  1.47469E+01  1.46329E+01  1.45338E+01  1.44408E+01  1.43511E+01  1.42643E+01  1.41809E+01  1.41071E+01
   1.40677E+01  1.41021E+01  1.42390E+01  1.44741E+01  1.47608E+01  1.50349E+01  1.52485E+01  1.53688E+01  1.53701E+01  1.52475E+01
   1.50208E+01  1.47138E+01  1.43410E+01  1.39290E+01  1.35383E+01  1.32365E+01  1.30551E+01  1.29499E+01  1.28684E+01  1.27975E+01
   1.27336E+01  1.26749E+01  1.26196E+01  1.25658E+01  1.25111E+01  1.24547E+01  1.23961E+01  1.23359E+01  1.22755E+01  1.22155E+01
   1.21562E+01  1.20975E+01  1.20391E+01  1.19815E+01  1.19246E+01  1.18680E+01  1.18110E+01  1.17535E+01  1.16958E+01  1.16382E+01
   1.15811E+01  1.15249E+01  1.14698E+01  1.14162E+01  1.13639E+01  1.13127E+01  1.12623E+01  1.12121E+01  1.11614E+01  1.11096E+01
   1.10569E+01  1.10034E+01  1.09491E+01  1.08944E+01  1.08395E+01  1.07847E+01  1.07303E+01  1.06766E+01  1.06237E+01  1.05721E+01
   1.05218E+01  1.04728E+01  1.04250E+01  1.03785E+01  1.03336E+01  1.02904E+01  1.02491E+01  1.02093E+01  1.01704E+01  1.01313E+01
   1.00912E+01  1.00501E+01  1.00084E+01  9.96654E+00  9.92500E+00  9.88420E+00  9.84501E+00  9.80878E+00  9.77722E+00  9.75176E+00
   9.73176E+00  9.71431E+00  9.69504E+00  9.66830E+00  9.62855E+00  9.57192E+00  9.49840E+00  9.41557E+00  9.33890E+00  9.28955E+00
   9.28608E+00  9.33502E+00  9.42549E+00  9.52997E+00  9.61491E+00  9.64889E+00  9.60230E+00  9.46095E+00  9.23651E+00  8.96470E+00
   8.69262E+00  8.45796E+00  8.29318E+00  8.22841E+00  8.27092E+00  8.39662E+00  8.55585E+00  8.71613E+00  8.85734E+00  8.95676E+00
   8.99559E+00  8.97547E+00  8.92398E+00  8.87005E+00  8.82201E+00  8.77544E+00  8.72736E+00  8.67498E+00  8.61772E+00  8.55792E+00
   8.50110E+00  8.45556E+00  8.42655E+00  8.41359E+00  8.41238E+00  8.41515E+00  8.41377E+00  8.40373E+00  8.38513E+00  8.35822E+00
   8.32412E+00  8.28547E+00  8.24604E+00  8.21348E+00  8.19371E+00  8.19248E+00  8.21380E+00  8.25420E+00  8.29963E+00  8.33637E+00
   8.35823E+00  8.36300E+00  8.35048E+00  8.32203E+00  8.27796E+00  8.21441E+00  8.12965E+00  8.03062E+00  7.93466E+00  7.85612E+00
   7.79832E+00  7.75630E+00  7.72722E+00  7.70755E+00  7.69136E+00  7.67536E+00  7.65844E+00  7.63844E+00  7.61378E+00  7.58356E+00
   7.54840E+00  7.51092E+00  7.47482E+00  7.44217E+00  7.41298E+00  7.38685E+00  7.36338E+00  7.34163E+00  7.32051E+00  7.29921E+00
   7.27752E+00  7.25574E+00  7.23401E+00  7.21253E+00  7.19154E+00  7.17116E+00  7.15135E+00  7.13207E+00  7.11338E+00  7.09532E+00
   7.07784E+00  7.06088E+00  7.04445E+00  7.02850E+00  7.01306E+00  6.99815E+00  6.98381E+00  6.97012E+00  6.95717E+00  6.94506E+00
   6.93394E+00  6.92401E+00  6.91554E+00  6.90885E+00  6.90431E+00  6.90249E+00  6.90423E+00  6.91083E+00  6.92458E+00  6.95024E+00
   6.99789E+00  7.07549E+00  7.17637E+00  7.27642E+00  7.34087E+00  7.34216E+00  7.27133E+00  7.12856E+00  6.92352E+00  6.69062E+00
   6.48262E+00  6.34780E+00  6.31184E+00  6.38236E+00  6.56481E+00  6.85229E+00  7.20713E+00  7.56771E+00  7.90249E+00  8.22611E+00
   8.56975E+00  8.95464E+00  9.37154E+00  9.77987E+00  1.01159E+01  1.03132E+01  1.03283E+01  1.01532E+01  9.82471E+00  9.45321E+00
   9.18912E+00  9.14524E+00  9.34392E+00  9.76010E+00  1.03816E+01  1.11594E+01  1.19542E+01  1.25666E+01  1.28944E+01  1.29526E+01
   1.27505E+01  1.23013E+01  1.16783E+01  1.10124E+01  1.04378E+01  9.97239E+00  9.57683E+00  9.23132E+00  8.92459E+00  8.64873E+00
   8.39788E+00  8.16779E+00  7.95550E+00  7.75901E+00  7.57695E+00  7.40838E+00  7.25256E+00  7.10883E+00  6.97653E+00  6.85493E+00
   6.74327E+00  6.64076E+00  6.54661E+00  6.46004E+00  6.38032E+00  6.30671E+00  6.23854E+00  6.17520E+00  6.11616E+00  6.06092E+00
   6.00903E+00  5.96011E+00  5.91381E+00  5.86983E+00  5.82792E+00  5.78786E+00  5.74944E+00  5.71249E+00  5.67685E+00  5.64239E+00
   5.60902E+00  5.57662E+00  5.54510E+00  5.51438E+00  5.48439E+00  5.45507E+00  5.42638E+00  5.39825E+00  5.37065E+00  5.34352E+00
   5.31683E+00  5.29056E+00  5.26466E+00  5.23911E+00  5.21388E+00  5.18895E+00  5.16429E+00  5.13988E+00  5.11572E+00  5.09176E+00
   5.06801E+00  5.04444E+00  5.02104E+00  4.99780E+00  4.97471E+00  4.95174E+00  4.92889E+00  4.90616E+00  4.88353E+00  4.86099E+00
   4.83853E+00  4.81615E+00  4.79383E+00  4.77156E+00  4.74935E+00  4.72719E+00  4.70506E+00  4.68296E+00  4.66088E+00  4.63882E+00
   4.61678E+00  4.59474E+00  4.57270E+00  4.55066E+00  4.52861E+00  4.50654E+00  4.48446E+00  4.46236E+00  4.44023E+00  4.41806E+00
   4.39586E+00  4.37362E+00  4.35134E+00  4.32901E+00  4.30663E+00  4.28421E+00  4.26174E+00  4.23924E+00  4.21668E+00  4.19409E+00
   4.17146E+00  4.14879E+00  4.12608E+00  4.10334E+00  4.08056E+00  4.05775E+00  4.03491E+00  4.01204E+00  3.98914E+00  3.96621E+00
   3.94326E+00  3.92029E+00  3.89729E+00  3.87428E+00  3.85125E+00  3.82820E+00  3.80514E+00  3.78206E+00  3.75898E+00  3.73589E+00
   3.71279E+00  3.68968E+00  3.66657E+00  3.64346E+00  3.62035E+00  3.59724E+00  3.57414E+00  3.55104E+00  3.52795E+00  3.50486E+00
   3.48179E+00  3.45873E+00  3.43568E+00  3.41265E+00  3.38963E+00  3.36663E+00  3.34365E+00  3.32069E+00
 NY background values follow
     2.686E+01    2.673E+01    2.661E+01    2.648E+01    2.636E+01    2.623E+01    2.611E+01    2.598E+01    2.586E+01    2.573E+01
     2.561E+01    2.548E+01    2.536E+01    2.523E+01    2.511E+01    2.498E+01    2.486E+01    2.473E+01    2.461E+01    2.448E+01
     2.436E+01    2.424E+01    2.411E+01    2.399E+01    2.386E+01    2.374E+01    2.362E+01    2.350E+01    2.337E+01    2.325E+01
     2.313E+01    2.301E+01    2.288E+01    2.276E+01    2.264E+01    2.252E+01    2.240E+01    2.228E+01    2.216E+01    2.204E+01
     2.192E+01    2.180E+01    2.168E+01    2.157E+01    2.145E+01    2.133E+01    2.121E+01    2.110E+01    2.098E+01    2.086E+01
     2.075E+01    2.063E+01    2.052E+01    2.040E+01    2.029E+01    2.018E+01    2.006E+01    1.995E+01    1.984E+01    1.973E+01
     1.962E+01    1.951E+01    1.940E+01    1.929E+01    1.918E+01    1.907E+01    1.896E+01    1.885E+01    1.875E+01    1.864E+01
     1.853E+01    1.843E+01    1.832E+01    1.822E+01    1.811E+01    1.801E+01    1.791E+01    1.780E+01    1.770E+01    1.760E+01
     1.750E+01    1.740E+01    1.730E+01    1.720E+01    1.711E+01    1.701E+01    1.691E+01    1.681E+01    1.672E+01    1.662E+01
     1.653E+01    1.644E+01    1.634E+01    1.625E+01    1.616E+01    1.607E+01    1.598E+01    1.589E+01    1.580E+01    1.571E+01
     1.562E+01    1.553E+01    1.545E+01    1.536E+01    1.527E+01    1.519E+01    1.511E+01    1.502E+01    1.494E+01    1.486E+01
     1.477E+01    1.469E+01    1.461E+01    1.453E+01    1.445E+01    1.438E+01    1.430E+01    1.422E+01    1.414E+01    1.407E+01
     1.399E+01    1.392E+01    1.384E+01    1.377E+01    1.370E+01    1.362E+01    1.355E+01    1.348E+01    1.341E+01    1.334E+01
     1.327E+01    1.320E+01    1.314E+01    1.307E+01    1.300E+01    1.293E+01    1.287E+01    1.280E+01    1.274E+01    1.268E+01
     1.261E+01    1.255E+01    1.249E+01    1.243E+01    1.237E+01    1.230E+01    1.224E+01    1.219E+01    1.213E+01    1.207E+01
     1.201E+01    1.195E+01    1.190E+01    1.184E+01    1.178E+01    1.173E+01    1.167E+01    1.162E+01    1.157E+01    1.151E+01
     1.146E+01    1.141E+01    1.136E+01    1.130E+01    1.125E+01    1.120E+01    1.115E+01    1.110E+01    1.105E+01    1.100E+01
     1.095E+01    1.091E+01    1.086E+01    1.081E+01    1.076E+01    1.072E+01    1.067E+01    1.062E+01    1.058E+01    1.053E+01
     1.049E+01    1.044E+01    1.040E+01    1.036E+01    1.031E+01    1.027E+01    1.022E+01    1.018E+01    1.014E+01    1.010E+01
     1.006E+01    1.001E+01    9.972E+00    9.931E+00    9.890E+00    9.850E+00    9.810E+00    9.770E+00    9.731E+00    9.691E+00
     9.652E+00    9.614E+00    9.576E+00    9.538E+00    9.500E+00    9.462E+00    9.425E+00    9.388E+00    9.352E+00    9.316E+00
     9.280E+00    9.244E+00    9.208E+00    9.173E+00    9.138E+00    9.104E+00    9.070E+00    9.036E+00    9.002E+00    8.968E+00
     8.935E+00    8.902E+00    8.870E+00    8.837E+00    8.805E+00    8.773E+00    8.742E+00    8.710E+00    8.679E+00    8.648E+00
     8.618E+00    8.588E+00    8.558E+00    8.528E+00    8.498E+00    8.469E+00    8.440E+00    8.411E+00    8.383E+00    8.354E+00
     8.326E+00    8.298E+00    8.271E+00    8.243E+00    8.216E+00    8.189E+00    8.163E+00    8.136E+00    8.110E+00    8.084E+00
     8.058E+00    8.032E+00    8.007E+00    7.982E+00    7.957E+00    7.932E+00    7.907E+00    7.883E+00    7.859E+00    7.835E+00
     7.811E+00    7.788E+00    7.764E+00    7.741E+00    7.718E+00    7.695E+00    7.673E+00    7.650E+00    7.628E+00    7.606E+00
     7.584E+00    7.562E+00    7.541E+00    7.519E+00    7.498E+00    7.477E+00    7.456E+00    7.435E+00    7.415E+00    7.394E+00
     7.374E+00    7.354E+00    7.334E+00    7.314E+00    7.294E+00    7.274E+00    7.254E+00    7.235E+00    7.216E+00    7.196E+00
     7.177E+00    7.158E+00    7.139E+00    7.120E+00    7.102E+00    7.083E+00    7.064E+00    7.046E+00    7.027E+00    7.009E+00
     6.990E+00    6.972E+00    6.954E+00    6.936E+00    6.917E+00    6.899E+00    6.881E+00    6.863E+00    6.845E+00    6.827E+00
     6.809E+00    6.791E+00    6.773E+00    6.755E+00    6.737E+00    6.719E+00    6.702E+00    6.684E+00    6.666E+00    6.648E+00
     6.630E+00    6.612E+00    6.594E+00    6.576E+00    6.558E+00    6.540E+00    6.522E+00    6.504E+00    6.486E+00    6.468E+00
     6.450E+00    6.432E+00    6.414E+00    6.396E+00    6.378E+00    6.360E+00    6.342E+00    6.324E+00    6.306E+00    6.288E+00
     6.270E+00    6.251E+00    6.233E+00    6.215E+00    6.197E+00    6.179E+00    6.161E+00    6.143E+00    6.125E+00    6.107E+00
     6.088E+00    6.070E+00    6.052E+00    6.034E+00    6.016E+00    5.998E+00    5.979E+00    5.961E+00    5.943E+00    5.925E+00
     5.907E+00    5.889E+00    5.870E+00    5.852E+00    5.834E+00    5.816E+00    5.797E+00    5.779E+00    5.761E+00    5.743E+00
     5.724E+00    5.706E+00    5.688E+00    5.670E+00    5.651E+00    5.633E+00    5.615E+00    5.597E+00    5.578E+00    5.560E+00
     5.542E+00    5.523E+00    5.505E+00    5.487E+00    5.469E+00    5.450E+00    5.432E+00    5.414E+00    5.395E+00    5.377E+00
     5.359E+00    5.341E+00    5.322E+00    5.304E+00    5.286E+00    5.267E+00    5.249E+00    5.231E+00    5.212E+00    5.194E+00
     5.176E+00    5.157E+00    5.139E+00    5.121E+00    5.103E+00    5.084E+00    5.066E+00    5.048E+00    5.029E+00    5.011E+00
     4.993E+00    4.974E+00    4.956E+00    4.938E+00    4.919E+00    4.901E+00    4.883E+00    4.864E+00    4.846E+00    4.828E+00
     4.809E+00    4.791E+00    4.772E+00    4.754E+00    4.735E+00    4.716E+00    4.698E+00    4.679E+00    4.660E+00    4.642E+00
     4.623E+00    4.604E+00    4.585E+00    4.566E+00    4.547E+00    4.528E+00    4.509E+00    4.490E+00    4.471E+00    4.451E+00
     4.432E+00    4.412E+00    4.393E+00    4.373E+00    4.354E+00    4.334E+00    4.314E+00    4.294E+00    4.274E+00    4.254E+00
     4.234E+00    4.214E+00    4.193E+00    4.173E+00    4.153E+00    4.132E+00    4.111E+00    4.090E+00    4.070E+00    4.049E+00
     4.028E+00    4.007E+00    3.985E+00    3.964E+00    3.943E+00    3.922E+00    3.900E+00    3.879E+00    3.857E+00    3.836E+00
     3.814E+00    3.792E+00    3.771E+00    3.749E+00    3.727E+00    3.705E+00    3.684E+00    3.662E+00    3.640E+00    3.618E+00
     3.596E+00    3.574E+00    3.552E+00    3.530E+00    3.508E+00    3.486E+00    3.464E+00    3.442E+00    3.420E+00    3.398E+00
     3.376E+00    3.354E+00    3.332E+00    3.310E+00    3.288E+00    3.266E+00    3.244E+00    3.222E+00
 Ala      Conc. = 6.81E+01
