 LCModel (Version 6.3-1L) Copyright: S.W. Provencher.          Ref.: Magn. Reson. Med. 30:672-679 (1993).                
 Slice#1 Row#7 Col#10  PD_05_press_1_raw_act
 36 lines in following concentration table = NCONC+1
    Conc.  %SD /Cr+PCr  Metabolite                                         
   83.842  91%   0.117 Ala                                                 
    0.000 999%   0.000 Asp                                                 
   94.858 166%   0.132 Cr                                                  
  622.838  27%   0.868 PCr                                                 
   97.391 103%   0.136 GABA                                                
   66.142 154% 9.2E-02 Glc                                                 
  330.951  48%   0.461 Gln                                                 
 1.16E+03  16%   1.617 Glu                                                 
  342.838   5%   0.478 GPC                                                 
    0.000 999%   0.000 PCh                                                 
  273.268  20%   0.381 GSH                                                 
 1.21E+03  14%   1.689 Ins                                                 
    0.000 999%   0.000 Lac                                                 
 1.51E+03   5%   2.099 NAA                                                 
  227.030  35%   0.316 NAAG                                                
   96.450  21%   0.134 Scyllo                                              
  202.231  69%   0.282 Tau                                                 
  237.479  33%   0.331 -CrCH2                                              
  342.838   5%   0.478 GPC+PCh                                             
 1.73E+03   4%   2.415 NAA+NAAG                                            
  717.696   6%   1.000 Cr+PCr                                              
 1.49E+03  16%   2.079 Glu+Gln                                             
    0.000 999%   0.000 Lip13a                                              
    0.000 999%   0.000 Lip13b                                              
    0.625 999% 8.7E-04 Lip09                                               
 1.07E+03  12%   1.496 MM09                                                
    0.000 999%   0.000 Lip20                                               
 1.17E+03  21%   1.623 MM20                                                
  244.902  46%   0.341 MM12                                                
  921.826  20%   1.284 MM14                                                
    0.000 999%   0.000 MM17                                                
    0.000 999%   0.000 Lip13a+Lip13b                                       
 1.17E+03  17%   1.626 MM14+Lip13a+Lip13b+MM12                             
 1.07E+03  12%   1.497 MM09+Lip09                                          
 1.17E+03  21%   1.623 MM20+Lip20                                          
   6 lines in following misc. output table
  FWHM = 0.046 ppm    S/N =  11                                            
  Data shift =-0.008 ppm                                                   
  Ph: -45 deg      -4.1 deg/ppm                                            
  alphaB,S = 8.5E+01,   1.4E+02                                            
   14 spline knots.   Ns = 6(1)                                            
   2 inflections.     1 extrema                                            
  498 points on ppm-axis = NY
      4.000000     3.992357     3.984714     3.977070     3.969427     3.961784     3.954141     3.946497     3.938854     3.931211
      3.923568     3.915925     3.908281     3.900638     3.892995     3.885352     3.877708     3.870065     3.862422     3.854779
      3.847136     3.839492     3.831849     3.824206     3.816563     3.808919     3.801276     3.793633     3.785990     3.778347
      3.770703     3.763060     3.755417     3.747774     3.740130     3.732487     3.724844     3.717201     3.709558     3.701914
      3.694271     3.686628     3.678985     3.671341     3.663698     3.656055     3.648412     3.640769     3.633125     3.625482
      3.617839     3.610196     3.602552     3.594909     3.587266     3.579623     3.571980     3.564336     3.556693     3.549050
      3.541407     3.533763     3.526120     3.518477     3.510834     3.503191     3.495547     3.487904     3.480261     3.472618
      3.464974     3.457331     3.449688     3.442045     3.434402     3.426758     3.419115     3.411472     3.403829     3.396185
      3.388542     3.380899     3.373256     3.365613     3.357969     3.350326     3.342683     3.335040     3.327396     3.319753
      3.312110     3.304467     3.296824     3.289180     3.281537     3.273894     3.266251     3.258607     3.250964     3.243321
      3.235678     3.228034     3.220391     3.212748     3.205105     3.197462     3.189818     3.182175     3.174532     3.166889
      3.159245     3.151602     3.143959     3.136316     3.128673     3.121029     3.113386     3.105743     3.098100     3.090456
      3.082813     3.075170     3.067527     3.059884     3.052240     3.044597     3.036954     3.029311     3.021667     3.014024
      3.006381     2.998738     2.991095     2.983451     2.975808     2.968165     2.960522     2.952878     2.945235     2.937592
      2.929949     2.922306     2.914662     2.907019     2.899376     2.891733     2.884089     2.876446     2.868803     2.861160
      2.853517     2.845873     2.838230     2.830587     2.822944     2.815300     2.807657     2.800014     2.792371     2.784728
      2.777084     2.769441     2.761798     2.754155     2.746511     2.738868     2.731225     2.723582     2.715939     2.708295
      2.700652     2.693009     2.685366     2.677722     2.670079     2.662436     2.654793     2.647150     2.639506     2.631863
      2.624220     2.616577     2.608933     2.601290     2.593647     2.586004     2.578361     2.570717     2.563074     2.555431
      2.547788     2.540144     2.532501     2.524858     2.517215     2.509572     2.501928     2.494285     2.486642     2.478999
      2.471355     2.463712     2.456069     2.448426     2.440783     2.433139     2.425496     2.417853     2.410210     2.402566
      2.394923     2.387280     2.379637     2.371994     2.364350     2.356707     2.349064     2.341421     2.333777     2.326134
      2.318491     2.310848     2.303205     2.295561     2.287918     2.280275     2.272632     2.264988     2.257345     2.249702
      2.242059     2.234416     2.226772     2.219129     2.211486     2.203843     2.196199     2.188556     2.180913     2.173270
      2.165627     2.157983     2.150340     2.142697     2.135054     2.127410     2.119767     2.112124     2.104481     2.096838
      2.089194     2.081551     2.073908     2.066265     2.058621     2.050978     2.043335     2.035692     2.028049     2.020405
      2.012762     2.005119     1.997476     1.989833     1.982190     1.974546     1.966903     1.959260     1.951617     1.943974
      1.936331     1.928688     1.921045     1.913402     1.905759     1.898115     1.890472     1.882829     1.875186     1.867543
      1.859900     1.852257     1.844614     1.836971     1.829327     1.821684     1.814041     1.806398     1.798755     1.791112
      1.783469     1.775826     1.768183     1.760540     1.752896     1.745253     1.737610     1.729967     1.722324     1.714681
      1.707038     1.699395     1.691752     1.684108     1.676465     1.668822     1.661179     1.653536     1.645893     1.638250
      1.630607     1.622964     1.615321     1.607677     1.600034     1.592391     1.584748     1.577105     1.569462     1.561819
      1.554176     1.546533     1.538890     1.531246     1.523603     1.515960     1.508317     1.500674     1.493031     1.485388
      1.477745     1.470102     1.462458     1.454815     1.447172     1.439529     1.431886     1.424243     1.416600     1.408957
      1.401314     1.393671     1.386027     1.378384     1.370741     1.363098     1.355455     1.347812     1.340169     1.332526
      1.324883     1.317240     1.309596     1.301953     1.294310     1.286667     1.279024     1.271381     1.263738     1.256095
      1.248452     1.240808     1.233165     1.225522     1.217879     1.210236     1.202593     1.194950     1.187307     1.179664
      1.172021     1.164377     1.156734     1.149091     1.141448     1.133805     1.126162     1.118519     1.110876     1.103233
      1.095590     1.087946     1.080303     1.072660     1.065017     1.057374     1.049731     1.042088     1.034445     1.026802
      1.019158     1.011515     1.003872     0.996229     0.988586     0.980943     0.973300     0.965657     0.958014     0.950371
      0.942727     0.935084     0.927441     0.919798     0.912155     0.904512     0.896869     0.889226     0.881583     0.873940
      0.866296     0.858653     0.851010     0.843367     0.835724     0.828081     0.820438     0.812795     0.805152     0.797508
      0.789865     0.782222     0.774579     0.766936     0.759293     0.751650     0.744007     0.736364     0.728721     0.721077
      0.713434     0.705791     0.698148     0.690505     0.682862     0.675219     0.667576     0.659933     0.652290     0.644646
      0.637003     0.629360     0.621717     0.614074     0.606431     0.598788     0.591145     0.583502     0.575858     0.568215
      0.560572     0.552929     0.545286     0.537643     0.530000     0.522357     0.514714     0.507071     0.499427     0.491784
      0.484141     0.476498     0.468855     0.461212     0.453569     0.445925     0.438282     0.430639     0.422996     0.415353
      0.407710     0.400067     0.392424     0.384780     0.377137     0.369494     0.361851     0.354208     0.346565     0.338922
      0.331278     0.323635     0.315992     0.308349     0.300706     0.293063     0.285420     0.277777     0.270133     0.262490
      0.254847     0.247204     0.239561     0.231918     0.224275     0.216631     0.208988     0.201345
 NY phased data points follow
   4.93656E-01 -1.01960E+00 -5.11482E-01 -1.22193E+00 -1.23100E+00  1.12139E+00  3.46740E+00  5.84298E+00  6.46225E+00  1.26132E+01
   1.04912E+01  9.25498E+00  1.00933E+01  3.98711E+00 -8.24576E-02  3.94598E+00 -1.66290E-01 -2.22750E-01 -3.08837E+00  2.16583E+00
   5.09057E-02  9.64451E-01 -4.59618E-01  1.97272E+00 -1.84324E+00 -2.50792E+00  3.46190E+00  6.05983E+00  3.17029E+00  4.07337E+00
   7.39864E-02  6.98851E+00  4.25288E+00  1.06636E+00  2.41450E+00  4.71566E+00  7.57298E-01  1.23447E+00 -9.03368E-01  8.63424E-01
   3.39338E+00  2.29629E+00  3.38329E+00  8.73028E+00  7.68872E+00  7.38446E+00  7.75897E+00  7.57676E+00  8.95369E+00  8.10408E+00
   8.40128E-01  9.15006E-01 -2.73694E+00  1.25733E-01  3.68008E-01 -1.80722E-01  2.33302E+00  5.03915E+00  1.77666E+00  1.81855E+00
   1.62350E-01 -1.69282E+00 -1.68526E+00 -3.84681E+00 -3.73548E+00 -2.52548E+00 -1.63914E+00 -4.78193E+00 -3.33901E+00  4.01404E-01
  -2.20616E+00 -1.24904E+00 -3.56790E+00  2.35364E+00  4.99634E-01  2.19415E+00 -1.95463E+00  1.47513E+00 -2.30915E-01 -1.68086E+00
   1.85109E-01 -2.88057E+00 -2.80634E+00  1.09482E+00 -1.53021E+00 -2.44356E+00  1.96704E+00  1.05287E+00  2.83579E+00  3.28467E+00
   1.50532E+00  4.18766E+00  3.76514E+00  2.01588E+00  3.03852E+00  3.95039E+00 -2.89561E+00  2.46173E+00  4.38275E+00  9.12413E+00
   1.43910E+01  2.84997E+01  3.12181E+01  3.44300E+01  2.94680E+01  2.21436E+01  1.05439E+01  9.44794E+00  7.32020E+00  5.09025E+00
   5.69130E+00  3.47357E+00  8.49279E-01  3.74288E+00 -3.80666E+00  2.79808E+00 -6.12699E-01 -1.48923E-02 -4.58539E+00 -1.69491E+00
  -9.53306E-01  2.06522E-01 -2.09339E-01  2.89731E+00  8.46670E+00  1.89772E+01  2.40806E+01  2.87804E+01  2.28564E+01  2.24368E+01
   1.13327E+01  3.29321E+00  3.00752E+00  3.15571E+00 -1.99996E+00 -3.60049E-01 -5.97747E-01 -2.39555E+00 -5.20781E+00 -1.98944E+00
  -1.60012E+00 -4.16961E+00 -4.33408E+00 -1.42386E+00 -2.97244E+00 -2.11839E-01 -1.88138E+00 -2.40818E+00  3.84582E+00  3.59811E+00
  -1.56399E+00  5.64240E-01 -4.98045E+00 -6.79047E-01 -2.65959E-02  5.70489E-01  2.34823E+00 -3.16411E+00 -4.02615E-01 -1.76281E+00
  -2.94713E+00  2.08500E+00 -3.35353E+00 -4.12116E-01 -5.30851E+00 -4.51553E+00 -6.42970E+00 -3.84202E+00 -5.56555E+00 -5.67448E+00
  -9.63947E+00 -5.43484E+00 -1.34918E+01 -1.06283E+01 -1.28434E+01 -1.54755E+01 -1.35180E+01 -1.01341E+01 -1.06446E+01 -7.16488E+00
  -1.17667E+01 -5.87105E+00 -7.79766E+00 -8.66769E+00 -5.97395E+00 -3.49623E+00 -8.22066E+00 -8.22334E+00 -6.22161E+00 -3.17657E+00
  -1.86697E+00 -3.49694E+00 -4.42904E+00 -2.65710E+00 -3.52726E+00 -8.71284E+00 -9.64319E+00 -8.37411E+00 -1.31452E+01 -7.02215E+00
  -5.82963E+00 -6.43226E+00 -6.33532E+00 -1.52351E+00 -2.59647E-01 -1.62514E+00 -7.77088E-01 -5.33248E-01 -8.28250E+00 -9.82668E+00
  -7.40705E+00  5.31652E-01  3.47834E+00 -2.72255E+00  5.27545E+00  6.84645E+00  1.15057E+01  6.14578E+00  2.50686E+00 -2.20673E+00
  -5.54733E+00 -6.70938E+00 -9.91620E+00 -2.37380E+00 -1.36303E+00 -2.69807E+00 -2.33638E+00 -8.28899E-01 -6.66587E-01  5.80600E-01
   2.99733E-01 -8.02910E-01 -1.28715E+00  1.09330E+00  1.49652E-01  1.46211E+00  6.97618E-01  4.53622E+00  7.58597E-01 -2.47677E+00
  -2.36356E-01 -3.78803E+00 -8.40997E+00 -4.39864E+00 -5.17125E+00  3.92671E+00  4.25972E+00  5.89079E+00  9.11345E+00  2.42634E+00
   2.12220E+00  6.20459E+00  4.81328E+00  5.03529E+00  1.51067E+01  2.57675E+01  2.69941E+01  3.49507E+01  4.12776E+01  5.63586E+01
   7.02577E+01  6.21619E+01  4.91038E+01  2.66953E+01  1.49402E+01  1.40447E+01  1.18615E+01  7.50961E+00  6.04882E+00  1.45491E+00
   1.61817E+00 -5.67042E+00 -2.54486E+00  2.19162E+00 -2.75209E+00 -1.73694E+00 -4.98428E-02 -1.03390E+00 -4.63603E+00  7.16274E-01
  -1.04216E+00 -2.34700E+00 -3.07540E-01 -2.64170E+00 -2.65313E+00 -6.45850E-01 -3.32266E+00 -1.12327E+00 -7.24107E-01 -3.33966E+00
  -6.00084E+00 -1.04143E+00 -1.03789E+00 -3.91317E+00 -6.23016E-01 -2.49090E+00 -3.71668E+00 -1.43082E+00 -1.00342E+00 -8.49999E-01
   6.75903E-02 -2.79369E+00 -4.23418E+00 -1.93698E+00  2.98982E+00 -2.53574E+00 -3.35636E+00 -2.65583E+00  5.37849E-01  2.61709E+00
  -4.71835E+00 -2.58958E+00  1.10863E+00 -2.33339E+00 -2.04786E+00 -8.47661E-01  2.19847E+00 -1.92244E+00  3.54941E-01 -3.23811E+00
  -2.38978E+00 -2.84866E+00 -1.76525E+00  2.93855E+00  2.67355E+00  2.28755E+00  4.00968E-01  1.20017E+00  8.94670E-01  8.06621E-01
  -1.19378E+00  1.62157E+00  2.07832E+00  2.07887E+00  2.03529E+00 -1.96518E+00  4.01596E+00  4.25935E+00  3.93129E+00  7.73887E-01
   4.68903E+00  1.53499E+00  4.54616E+00  1.67703E+00  6.48942E+00  6.90058E+00 -1.10831E+00  2.40700E+00  2.54370E+00 -9.59068E-02
   2.29924E+00  2.79211E+00  1.41642E+00  4.72304E+00 -3.32119E-01  1.75673E+00 -1.65489E+00 -1.65455E+00 -1.58453E+00 -1.66471E+00
  -2.01549E+00 -3.20005E+00 -2.64426E+00 -8.62299E-01  1.20369E+00  1.58844E+00 -1.99347E+00 -7.06393E-01  1.94780E+00 -1.01953E+00
   1.50786E-01  1.80009E+00 -5.79191E-01 -3.94921E+00 -1.17683E+00 -2.21514E+00 -3.94260E+00 -4.05515E+00  2.87557E+00  2.25283E+00
   9.17452E-01 -1.46247E+00  2.87463E-01  1.46898E+00 -1.77737E+00 -2.86304E+00  3.35679E-01 -2.40047E-01  7.14425E-02  9.39329E-01
  -4.01466E+00  1.40160E+00  9.48866E-01  2.85947E+00  3.64226E+00  4.05208E+00  6.32320E+00  8.18829E+00  5.59260E+00  4.70419E+00
   6.84931E+00  5.74576E+00  1.61724E+00  8.26112E+00  8.73021E+00  3.85320E+00  5.09728E+00  1.04033E+01  1.14012E+01  8.03440E+00
   8.64069E+00  5.77678E+00  4.69169E+00  5.07817E+00  5.57104E+00  6.45846E+00  2.98839E+00  2.74998E+00  4.80663E+00  1.54746E+00
   3.41343E+00 -3.35995E-03  4.79208E+00  4.35824E-01 -4.67155E-01 -3.22971E-01  2.52008E+00  1.02811E+00 -1.16815E+00  1.03959E+00
  -9.89689E-02 -2.49858E+00 -1.53593E+00 -8.91116E-01 -1.58890E+00 -5.27282E+00 -9.76359E-01 -7.19162E+00 -1.08927E+00  9.08092E-01
  -4.44811E-01  3.20014E+00  3.97247E-01  1.99297E+00 -3.40887E+00 -2.94449E+00 -5.08278E+00  2.37809E-01 -2.33348E+00 -4.47178E+00
  -5.29133E+00 -4.14402E+00  5.03643E-01 -2.15771E+00 -1.62278E+00 -1.12012E+00 -2.19295E+00 -1.17628E+00  2.41501E-01 -4.34692E+00
  -3.16195E-01 -8.05247E-01  5.52168E-02  7.92873E-01 -4.74835E+00 -4.97435E+00  2.93984E-01 -1.93727E+00 -2.58468E+00 -3.25814E+00
  -9.36407E-01  3.29590E-01 -3.17441E+00  3.23523E-01 -1.21634E-01  1.41884E+00  1.76914E+00 -2.32377E+00  1.65063E-02  2.67135E-01
  -1.11933E+00  1.64942E+00 -6.89571E-01  5.51861E-01 -8.33844E-02  1.12707E-01 -9.05422E-01 -1.26987E+00  1.20952E+00 -2.62776E+00
  -6.53335E-01 -8.25453E-01 -1.92163E+00 -1.11044E+00 -1.90545E+00  1.12141E-01  9.11779E-01 -2.90863E+00
 NY points of the fit to the data follow
  -1.75340E+00 -1.90430E+00 -1.89305E+00 -1.51798E+00 -4.04179E-01  1.28979E+00  3.49184E+00  6.12007E+00  8.79151E+00  1.07301E+01
   1.11500E+01  9.87846E+00  7.49660E+00  5.01869E+00  3.18770E+00  2.01380E+00  1.08708E+00  3.03063E-01 -1.07061E-01 -3.23696E-01
  -4.19431E-01 -4.56545E-01 -5.59001E-01 -6.85196E-01 -5.45869E-01 -1.26559E-01  6.00222E-01  1.75056E+00  3.31222E+00  4.97477E+00
   6.21169E+00  6.71340E+00  6.43430E+00  5.53991E+00  4.27710E+00  2.75007E+00  9.75675E-01 -6.68585E-01 -1.64811E+00 -1.93170E+00
  -1.45642E+00 -1.63742E-01  1.69705E+00  3.80246E+00  5.96592E+00  7.93404E+00  9.03979E+00  8.60824E+00  6.65167E+00  3.90721E+00
   1.39038E+00 -2.61263E-01 -1.10184E+00 -1.46993E+00 -1.44346E+00 -9.06067E-01 -3.25999E-02  8.66700E-01  1.56600E+00  1.84793E+00
   1.56682E+00  7.83728E-01 -2.22876E-01 -1.04141E+00 -1.43300E+00 -1.38707E+00 -1.03282E+00 -5.40560E-01 -7.30021E-02  3.42272E-01
   7.05198E-01  9.53927E-01  1.03998E+00  9.75195E-01  8.11506E-01  5.70035E-01  2.12661E-01 -2.59302E-01 -7.86140E-01 -1.18648E+00
  -1.35506E+00 -1.19018E+00 -7.74651E-01 -2.87815E-01  2.68562E-01  8.70199E-01  1.37437E+00  1.52668E+00  1.16043E+00  4.18223E-01
  -3.20737E-01 -8.00427E-01 -1.05004E+00 -1.27441E+00 -1.61068E+00 -1.81492E+00 -1.39705E+00  7.30515E-01  4.86730E+00  1.06239E+01
   1.78305E+01  2.55885E+01  3.16850E+01  3.35367E+01  3.01350E+01  2.29431E+01  1.50477E+01  9.01950E+00  5.20844E+00  2.41534E+00
  -2.76922E-02 -1.43482E+00 -1.91118E+00 -2.12591E+00 -2.27209E+00 -2.39942E+00 -2.50359E+00 -2.59311E+00 -2.65149E+00 -2.61304E+00
  -2.27812E+00 -8.61468E-01  2.14096E+00  6.38127E+00  1.17443E+01  1.77721E+01  2.30018E+01  2.54141E+01  2.38583E+01  1.90562E+01
   1.31823E+01  8.30369E+00  4.94470E+00  2.26987E+00 -3.73328E-01 -2.34139E+00 -3.14227E+00 -3.22505E+00 -2.82139E+00 -2.19897E+00
  -1.63032E+00 -1.27275E+00 -1.18140E+00 -1.32596E+00 -1.57809E+00 -1.83595E+00 -2.06828E+00 -2.26558E+00 -2.45937E+00 -2.65488E+00
  -2.83397E+00 -2.99869E+00 -3.12971E+00 -3.19506E+00 -3.19092E+00 -3.19078E+00 -3.24454E+00 -3.38988E+00 -3.66906E+00 -4.01497E+00
  -4.31191E+00 -4.40831E+00 -4.22288E+00 -3.87974E+00 -3.66225E+00 -3.79898E+00 -4.25794E+00 -4.79331E+00 -5.18365E+00 -5.41869E+00
  -5.61368E+00 -5.87778E+00 -6.18832E+00 -6.48958E+00 -6.75896E+00 -6.92724E+00 -6.86341E+00 -6.56861E+00 -6.25132E+00 -6.13815E+00
  -6.25663E+00 -6.44485E+00 -6.46462E+00 -6.25228E+00 -5.96396E+00 -5.63147E+00 -5.03118E+00 -4.02545E+00 -2.73163E+00 -1.52489E+00
  -7.76018E-01 -6.23143E-01 -1.00288E+00 -1.64283E+00 -2.27596E+00 -2.77892E+00 -3.04706E+00 -2.98509E+00 -2.53437E+00 -1.74799E+00
  -7.66080E-01  2.01661E-01  9.09205E-01  1.18205E+00  8.28139E-01 -1.64736E-01 -1.70554E+00 -3.53290E+00 -5.18374E+00 -6.19184E+00
  -6.24338E+00 -5.23739E+00 -3.41586E+00 -1.09266E+00  1.31063E+00  3.15052E+00  3.63034E+00  2.29740E+00 -5.00541E-01 -3.72188E+00
  -6.47119E+00 -8.26810E+00 -8.77737E+00 -7.85470E+00 -5.71530E+00 -3.08834E+00 -9.91679E-01  1.43740E-01  4.60779E-01  3.41917E-01
   6.56228E-02 -1.57267E-01 -9.18152E-02  3.54898E-01  1.01272E+00  1.62774E+00  2.00008E+00  1.96834E+00  1.48079E+00  6.18484E-01
  -3.75874E-01 -1.15079E+00 -1.40631E+00 -1.03208E+00 -1.60044E-01  9.07515E-01  1.77732E+00  2.23005E+00  2.35309E+00  2.46325E+00
   3.01795E+00  4.11377E+00  5.79229E+00  8.25624E+00  1.27217E+01  1.98194E+01  2.81702E+01  3.76753E+01  4.82956E+01  5.78890E+01
   6.23059E+01  5.85043E+01  4.74105E+01  3.36248E+01  2.22752E+01  1.50204E+01  1.00493E+01  5.49273E+00  2.21568E+00  1.02328E+00
   4.98560E-01  2.31122E-01  1.70559E-01  2.54819E-01  3.44500E-01  3.49855E-01  2.35741E-01  1.63615E-02 -2.57936E-01 -5.29680E-01
  -7.72247E-01 -9.74246E-01 -1.11831E+00 -1.20264E+00 -1.25008E+00 -1.28951E+00 -1.33475E+00 -1.38357E+00 -1.43057E+00 -1.47552E+00
  -1.51122E+00 -1.53280E+00 -1.55002E+00 -1.57489E+00 -1.60837E+00 -1.64743E+00 -1.68723E+00 -1.72253E+00 -1.75000E+00 -1.76680E+00
  -1.76884E+00 -1.75728E+00 -1.73817E+00 -1.71620E+00 -1.69281E+00 -1.66710E+00 -1.63854E+00 -1.60718E+00 -1.57043E+00 -1.52625E+00
  -1.47406E+00 -1.41314E+00 -1.34236E+00 -1.26025E+00 -1.16513E+00 -1.05522E+00 -9.28828E-01 -7.83783E-01 -6.16881E-01 -4.22288E-01
  -1.87483E-01  1.12377E-01  4.59892E-01  8.02849E-01  1.11227E+00  1.33748E+00  1.40130E+00  1.25638E+00  9.46413E-01  6.30544E-01
   4.96109E-01  6.04535E-01  9.23008E-01  1.39735E+00  1.98413E+00  2.61172E+00  3.12407E+00  3.38651E+00  3.41139E+00  3.30329E+00
   3.16407E+00  3.01807E+00  2.83535E+00  2.62477E+00  2.42826E+00  2.23783E+00  2.04634E+00  1.85346E+00  1.66091E+00  1.47101E+00
   1.28603E+00  1.10832E+00  9.39967E-01  7.82793E-01  6.37889E-01  5.05751E-01  3.86284E-01  2.79224E-01  1.83997E-01  9.97950E-02
   2.53121E-02 -4.09095E-02 -1.00389E-01 -1.54323E-01 -2.03817E-01 -2.49836E-01 -2.93422E-01 -3.35320E-01 -3.75975E-01 -4.15313E-01
  -4.53110E-01 -4.88962E-01 -5.22465E-01 -5.52857E-01 -5.79102E-01 -5.99784E-01 -6.13498E-01 -6.18743E-01 -6.14002E-01 -5.97364E-01
  -5.66665E-01 -5.19423E-01 -4.53189E-01 -3.65357E-01 -2.53231E-01 -1.13742E-01  5.62172E-02  2.59706E-01  4.99266E-01  7.77011E-01
   1.09434E+00  1.45196E+00  1.84927E+00  2.28418E+00  2.75262E+00  3.24879E+00  3.76496E+00  4.29177E+00  4.81800E+00  5.33106E+00
   5.81725E+00  6.26272E+00  6.65400E+00  6.97882E+00  7.22642E+00  7.38833E+00  7.45880E+00  7.43546E+00  7.31924E+00  7.11442E+00
   6.82801E+00  6.46958E+00  6.05060E+00  5.58408E+00  5.08363E+00  4.56280E+00  4.03425E+00  3.50950E+00  2.99854E+00  2.50976E+00
   2.04955E+00  1.62243E+00  1.23094E+00  8.76204E-01  5.58021E-01  2.75342E-01  2.61784E-02 -1.92007E-01 -3.82217E-01 -5.47386E-01
  -6.90412E-01 -8.13932E-01 -9.20583E-01 -1.01276E+00 -1.09270E+00 -1.16215E+00 -1.22265E+00 -1.27539E+00 -1.32163E+00 -1.36238E+00
  -1.39853E+00 -1.43064E+00 -1.45921E+00 -1.48464E+00 -1.50745E+00 -1.52802E+00 -1.54669E+00 -1.56353E+00 -1.57872E+00 -1.59241E+00
  -1.60490E+00 -1.61633E+00 -1.62681E+00 -1.63628E+00 -1.64483E+00 -1.65256E+00 -1.65969E+00 -1.66624E+00 -1.67223E+00 -1.67756E+00
  -1.68236E+00 -1.68669E+00 -1.69071E+00 -1.69436E+00 -1.69763E+00 -1.70044E+00 -1.70292E+00 -1.70514E+00 -1.70720E+00 -1.70898E+00
  -1.71048E+00 -1.71164E+00 -1.71262E+00 -1.71346E+00 -1.71418E+00 -1.71467E+00 -1.71493E+00 -1.71495E+00 -1.71490E+00 -1.71477E+00
  -1.71455E+00 -1.71411E+00 -1.71349E+00 -1.71273E+00 -1.71196E+00 -1.71112E+00 -1.71018E+00 -1.70904E+00 -1.70778E+00 -1.70644E+00
  -1.70513E+00 -1.70374E+00 -1.70223E+00 -1.70055E+00 -1.69879E+00 -1.69700E+00 -1.69524E+00 -1.69335E+00
 NY background values follow
    -4.216E+00   -4.211E+00   -4.206E+00   -4.202E+00   -4.197E+00   -4.192E+00   -4.188E+00   -4.183E+00   -4.178E+00   -4.174E+00
    -4.169E+00   -4.165E+00   -4.160E+00   -4.155E+00   -4.151E+00   -4.146E+00   -4.141E+00   -4.137E+00   -4.132E+00   -4.128E+00
    -4.123E+00   -4.118E+00   -4.114E+00   -4.109E+00   -4.104E+00   -4.100E+00   -4.095E+00   -4.090E+00   -4.086E+00   -4.081E+00
    -4.077E+00   -4.072E+00   -4.067E+00   -4.063E+00   -4.058E+00   -4.053E+00   -4.049E+00   -4.044E+00   -4.040E+00   -4.035E+00
    -4.030E+00   -4.026E+00   -4.021E+00   -4.016E+00   -4.012E+00   -4.007E+00   -4.002E+00   -3.998E+00   -3.993E+00   -3.989E+00
    -3.984E+00   -3.979E+00   -3.975E+00   -3.970E+00   -3.965E+00   -3.961E+00   -3.956E+00   -3.952E+00   -3.947E+00   -3.942E+00
    -3.938E+00   -3.933E+00   -3.928E+00   -3.924E+00   -3.919E+00   -3.914E+00   -3.910E+00   -3.905E+00   -3.901E+00   -3.896E+00
    -3.891E+00   -3.887E+00   -3.882E+00   -3.877E+00   -3.873E+00   -3.868E+00   -3.864E+00   -3.859E+00   -3.854E+00   -3.850E+00
    -3.845E+00   -3.840E+00   -3.836E+00   -3.831E+00   -3.826E+00   -3.822E+00   -3.817E+00   -3.813E+00   -3.808E+00   -3.803E+00
    -3.799E+00   -3.794E+00   -3.789E+00   -3.785E+00   -3.780E+00   -3.776E+00   -3.771E+00   -3.766E+00   -3.762E+00   -3.757E+00
    -3.752E+00   -3.748E+00   -3.743E+00   -3.738E+00   -3.734E+00   -3.729E+00   -3.725E+00   -3.720E+00   -3.715E+00   -3.711E+00
    -3.706E+00   -3.701E+00   -3.697E+00   -3.692E+00   -3.687E+00   -3.683E+00   -3.678E+00   -3.674E+00   -3.669E+00   -3.664E+00
    -3.660E+00   -3.655E+00   -3.650E+00   -3.646E+00   -3.641E+00   -3.637E+00   -3.632E+00   -3.627E+00   -3.623E+00   -3.618E+00
    -3.613E+00   -3.609E+00   -3.604E+00   -3.599E+00   -3.595E+00   -3.590E+00   -3.586E+00   -3.581E+00   -3.576E+00   -3.572E+00
    -3.567E+00   -3.562E+00   -3.558E+00   -3.553E+00   -3.549E+00   -3.544E+00   -3.539E+00   -3.535E+00   -3.530E+00   -3.525E+00
    -3.521E+00   -3.516E+00   -3.511E+00   -3.507E+00   -3.502E+00   -3.498E+00   -3.493E+00   -3.488E+00   -3.484E+00   -3.479E+00
    -3.474E+00   -3.470E+00   -3.465E+00   -3.460E+00   -3.456E+00   -3.451E+00   -3.447E+00   -3.442E+00   -3.437E+00   -3.433E+00
    -3.428E+00   -3.423E+00   -3.419E+00   -3.414E+00   -3.410E+00   -3.405E+00   -3.400E+00   -3.396E+00   -3.391E+00   -3.386E+00
    -3.382E+00   -3.377E+00   -3.372E+00   -3.368E+00   -3.363E+00   -3.359E+00   -3.354E+00   -3.349E+00   -3.345E+00   -3.340E+00
    -3.335E+00   -3.331E+00   -3.326E+00   -3.321E+00   -3.317E+00   -3.312E+00   -3.308E+00   -3.303E+00   -3.298E+00   -3.294E+00
    -3.289E+00   -3.284E+00   -3.280E+00   -3.275E+00   -3.270E+00   -3.266E+00   -3.261E+00   -3.257E+00   -3.252E+00   -3.247E+00
    -3.243E+00   -3.238E+00   -3.233E+00   -3.229E+00   -3.224E+00   -3.219E+00   -3.215E+00   -3.210E+00   -3.206E+00   -3.201E+00
    -3.196E+00   -3.192E+00   -3.187E+00   -3.182E+00   -3.178E+00   -3.173E+00   -3.168E+00   -3.164E+00   -3.159E+00   -3.155E+00
    -3.150E+00   -3.145E+00   -3.141E+00   -3.136E+00   -3.131E+00   -3.127E+00   -3.122E+00   -3.117E+00   -3.113E+00   -3.108E+00
    -3.104E+00   -3.099E+00   -3.094E+00   -3.090E+00   -3.085E+00   -3.080E+00   -3.076E+00   -3.071E+00   -3.066E+00   -3.062E+00
    -3.057E+00   -3.053E+00   -3.048E+00   -3.043E+00   -3.039E+00   -3.034E+00   -3.029E+00   -3.025E+00   -3.020E+00   -3.015E+00
    -3.011E+00   -3.006E+00   -3.002E+00   -2.997E+00   -2.992E+00   -2.988E+00   -2.983E+00   -2.978E+00   -2.974E+00   -2.969E+00
    -2.964E+00   -2.960E+00   -2.955E+00   -2.951E+00   -2.946E+00   -2.941E+00   -2.937E+00   -2.932E+00   -2.927E+00   -2.923E+00
    -2.918E+00   -2.913E+00   -2.909E+00   -2.904E+00   -2.899E+00   -2.895E+00   -2.890E+00   -2.886E+00   -2.881E+00   -2.876E+00
    -2.872E+00   -2.867E+00   -2.862E+00   -2.858E+00   -2.853E+00   -2.848E+00   -2.844E+00   -2.839E+00   -2.835E+00   -2.830E+00
    -2.825E+00   -2.821E+00   -2.816E+00   -2.811E+00   -2.807E+00   -2.802E+00   -2.797E+00   -2.793E+00   -2.788E+00   -2.783E+00
    -2.779E+00   -2.774E+00   -2.770E+00   -2.765E+00   -2.760E+00   -2.756E+00   -2.751E+00   -2.746E+00   -2.742E+00   -2.737E+00
    -2.732E+00   -2.728E+00   -2.723E+00   -2.719E+00   -2.714E+00   -2.709E+00   -2.705E+00   -2.700E+00   -2.695E+00   -2.691E+00
    -2.686E+00   -2.681E+00   -2.677E+00   -2.672E+00   -2.667E+00   -2.663E+00   -2.658E+00   -2.654E+00   -2.649E+00   -2.644E+00
    -2.640E+00   -2.635E+00   -2.630E+00   -2.626E+00   -2.621E+00   -2.616E+00   -2.612E+00   -2.607E+00   -2.602E+00   -2.598E+00
    -2.593E+00   -2.589E+00   -2.584E+00   -2.579E+00   -2.575E+00   -2.570E+00   -2.565E+00   -2.561E+00   -2.556E+00   -2.551E+00
    -2.547E+00   -2.542E+00   -2.537E+00   -2.533E+00   -2.528E+00   -2.524E+00   -2.519E+00   -2.514E+00   -2.510E+00   -2.505E+00
    -2.500E+00   -2.496E+00   -2.491E+00   -2.486E+00   -2.482E+00   -2.477E+00   -2.472E+00   -2.468E+00   -2.463E+00   -2.459E+00
    -2.454E+00   -2.449E+00   -2.445E+00   -2.440E+00   -2.435E+00   -2.431E+00   -2.426E+00   -2.421E+00   -2.417E+00   -2.412E+00
    -2.407E+00   -2.403E+00   -2.398E+00   -2.394E+00   -2.389E+00   -2.384E+00   -2.380E+00   -2.375E+00   -2.370E+00   -2.366E+00
    -2.361E+00   -2.356E+00   -2.352E+00   -2.347E+00   -2.342E+00   -2.338E+00   -2.333E+00   -2.329E+00   -2.324E+00   -2.319E+00
    -2.315E+00   -2.310E+00   -2.305E+00   -2.301E+00   -2.296E+00   -2.291E+00   -2.287E+00   -2.282E+00   -2.277E+00   -2.273E+00
    -2.268E+00   -2.264E+00   -2.259E+00   -2.254E+00   -2.250E+00   -2.245E+00   -2.240E+00   -2.236E+00   -2.231E+00   -2.226E+00
    -2.222E+00   -2.217E+00   -2.212E+00   -2.208E+00   -2.203E+00   -2.199E+00   -2.194E+00   -2.189E+00   -2.185E+00   -2.180E+00
    -2.175E+00   -2.171E+00   -2.166E+00   -2.161E+00   -2.157E+00   -2.152E+00   -2.147E+00   -2.143E+00   -2.138E+00   -2.134E+00
    -2.129E+00   -2.124E+00   -2.120E+00   -2.115E+00   -2.110E+00   -2.106E+00   -2.101E+00   -2.096E+00   -2.092E+00   -2.087E+00
    -2.082E+00   -2.078E+00   -2.073E+00   -2.069E+00   -2.064E+00   -2.059E+00   -2.055E+00   -2.050E+00   -2.045E+00   -2.041E+00
    -2.036E+00   -2.031E+00   -2.027E+00   -2.022E+00   -2.017E+00   -2.013E+00   -2.008E+00   -2.003E+00   -1.999E+00   -1.994E+00
    -1.990E+00   -1.985E+00   -1.980E+00   -1.976E+00   -1.971E+00   -1.966E+00   -1.962E+00   -1.957E+00   -1.952E+00   -1.948E+00
    -1.943E+00   -1.938E+00   -1.934E+00   -1.929E+00   -1.925E+00   -1.920E+00   -1.915E+00   -1.911E+00
 Ala      Conc. = 8.38E+01
