 LCModel (Version 6.3-1L) Copyright: S.W. Provencher.          Ref.: Magn. Reson. Med. 30:672-679 (1993).                
 Slice#2 Row#14 Col#14  PD_05_press_1_raw_act
 36 lines in following concentration table = NCONC+1
    Conc.  %SD /Cr+PCr  Metabolite                                         
    0.000 999%   0.000 Ala                                                 
    1.992  74%   0.113 Asp                                                 
   17.637  57%   1.000 Cr                                                  
    0.000 999%   0.000 PCr                                                 
    1.217  72% 6.9E-02 GABA                                                
    1.217  72% 6.9E-02 Glc                                                 
   92.317  60%   5.234 Gln                                                 
    0.000 999%   0.000 Glu                                                 
    7.558  52%   0.429 GPC                                                 
    0.000 999%   0.000 PCh                                                 
   10.155 156%   0.576 GSH                                                 
   84.769  55%   4.806 Ins                                                 
   29.367 101%   1.665 Lac                                                 
    0.000 999%   0.000 NAA                                                 
    0.000 999%   0.000 NAAG                                                
    0.419  70% 2.4E-02 Scyllo                                              
    2.037  72%   0.115 Tau                                                 
    1.196 212% 6.8E-02 -CrCH2                                              
    7.558  52%   0.429 GPC+PCh                                             
    0.000 999%   0.000 NAA+NAAG                                            
   17.637  57%   1.000 Cr+PCr                                              
   92.317  60%   5.234 Glu+Gln                                             
  603.828  13%  34.237 Lip13a                                              
    0.000 999%   0.000 Lip13b                                              
  155.965  17%   8.843 Lip09                                               
    7.763 149%   0.440 MM09                                                
   60.601  34%   3.436 Lip20                                               
    0.000 999%   0.000 MM20                                                
    2.600 234%   0.147 MM12                                                
   51.293  44%   2.908 MM14                                                
    0.000 999%   0.000 MM17                                                
  603.828  13%  34.237 Lip13a+Lip13b                                       
  657.721  12%  37.293 MM14+Lip13a+Lip13b+MM12                             
  163.728  16%   9.283 MM09+Lip09                                          
   60.601  34%   3.436 MM20+Lip20                                          
   6 lines in following misc. output table
  FWHM = 0.069 ppm    S/N =   1                                            
  Data shift = 0.046 ppm                                                   
  Ph: 138 deg     -23.6 deg/ppm                                            
  alphaB,S = 8.5E+01,   5.1E+01                                            
   14 spline knots.   Ns = 6(1)                                            
   2 inflections.     1 extrema                                            
  498 points on ppm-axis = NY
      4.000000     3.992357     3.984714     3.977070     3.969427     3.961784     3.954141     3.946497     3.938854     3.931211
      3.923568     3.915925     3.908281     3.900638     3.892995     3.885352     3.877708     3.870065     3.862422     3.854779
      3.847136     3.839492     3.831849     3.824206     3.816563     3.808919     3.801276     3.793633     3.785990     3.778347
      3.770703     3.763060     3.755417     3.747774     3.740130     3.732487     3.724844     3.717201     3.709558     3.701914
      3.694271     3.686628     3.678985     3.671341     3.663698     3.656055     3.648412     3.640769     3.633125     3.625482
      3.617839     3.610196     3.602552     3.594909     3.587266     3.579623     3.571980     3.564336     3.556693     3.549050
      3.541407     3.533763     3.526120     3.518477     3.510834     3.503191     3.495547     3.487904     3.480261     3.472618
      3.464974     3.457331     3.449688     3.442045     3.434402     3.426758     3.419115     3.411472     3.403829     3.396185
      3.388542     3.380899     3.373256     3.365613     3.357969     3.350326     3.342683     3.335040     3.327396     3.319753
      3.312110     3.304467     3.296824     3.289180     3.281537     3.273894     3.266251     3.258607     3.250964     3.243321
      3.235678     3.228034     3.220391     3.212748     3.205105     3.197462     3.189818     3.182175     3.174532     3.166889
      3.159245     3.151602     3.143959     3.136316     3.128673     3.121029     3.113386     3.105743     3.098100     3.090456
      3.082813     3.075170     3.067527     3.059884     3.052240     3.044597     3.036954     3.029311     3.021667     3.014024
      3.006381     2.998738     2.991095     2.983451     2.975808     2.968165     2.960522     2.952878     2.945235     2.937592
      2.929949     2.922306     2.914662     2.907019     2.899376     2.891733     2.884089     2.876446     2.868803     2.861160
      2.853517     2.845873     2.838230     2.830587     2.822944     2.815300     2.807657     2.800014     2.792371     2.784728
      2.777084     2.769441     2.761798     2.754155     2.746511     2.738868     2.731225     2.723582     2.715939     2.708295
      2.700652     2.693009     2.685366     2.677722     2.670079     2.662436     2.654793     2.647150     2.639506     2.631863
      2.624220     2.616577     2.608933     2.601290     2.593647     2.586004     2.578361     2.570717     2.563074     2.555431
      2.547788     2.540144     2.532501     2.524858     2.517215     2.509572     2.501928     2.494285     2.486642     2.478999
      2.471355     2.463712     2.456069     2.448426     2.440783     2.433139     2.425496     2.417853     2.410210     2.402566
      2.394923     2.387280     2.379637     2.371994     2.364350     2.356707     2.349064     2.341421     2.333777     2.326134
      2.318491     2.310848     2.303205     2.295561     2.287918     2.280275     2.272632     2.264988     2.257345     2.249702
      2.242059     2.234416     2.226772     2.219129     2.211486     2.203843     2.196199     2.188556     2.180913     2.173270
      2.165627     2.157983     2.150340     2.142697     2.135054     2.127410     2.119767     2.112124     2.104481     2.096838
      2.089194     2.081551     2.073908     2.066265     2.058621     2.050978     2.043335     2.035692     2.028049     2.020405
      2.012762     2.005119     1.997476     1.989833     1.982190     1.974546     1.966903     1.959260     1.951617     1.943974
      1.936331     1.928688     1.921045     1.913402     1.905759     1.898115     1.890472     1.882829     1.875186     1.867543
      1.859900     1.852257     1.844614     1.836971     1.829327     1.821684     1.814041     1.806398     1.798755     1.791112
      1.783469     1.775826     1.768183     1.760540     1.752896     1.745253     1.737610     1.729967     1.722324     1.714681
      1.707038     1.699395     1.691752     1.684108     1.676465     1.668822     1.661179     1.653536     1.645893     1.638250
      1.630607     1.622964     1.615321     1.607677     1.600034     1.592391     1.584748     1.577105     1.569462     1.561819
      1.554176     1.546533     1.538890     1.531246     1.523603     1.515960     1.508317     1.500674     1.493031     1.485388
      1.477745     1.470102     1.462458     1.454815     1.447172     1.439529     1.431886     1.424243     1.416600     1.408957
      1.401314     1.393671     1.386027     1.378384     1.370741     1.363098     1.355455     1.347812     1.340169     1.332526
      1.324883     1.317240     1.309596     1.301953     1.294310     1.286667     1.279024     1.271381     1.263738     1.256095
      1.248452     1.240808     1.233165     1.225522     1.217879     1.210236     1.202593     1.194950     1.187307     1.179664
      1.172021     1.164377     1.156734     1.149091     1.141448     1.133805     1.126162     1.118519     1.110876     1.103233
      1.095590     1.087946     1.080303     1.072660     1.065017     1.057374     1.049731     1.042088     1.034445     1.026802
      1.019158     1.011515     1.003872     0.996229     0.988586     0.980943     0.973300     0.965657     0.958014     0.950371
      0.942727     0.935084     0.927441     0.919798     0.912155     0.904512     0.896869     0.889226     0.881583     0.873940
      0.866296     0.858653     0.851010     0.843367     0.835724     0.828081     0.820438     0.812795     0.805152     0.797508
      0.789865     0.782222     0.774579     0.766936     0.759293     0.751650     0.744007     0.736364     0.728721     0.721077
      0.713434     0.705791     0.698148     0.690505     0.682862     0.675219     0.667576     0.659933     0.652290     0.644646
      0.637003     0.629360     0.621717     0.614074     0.606431     0.598788     0.591145     0.583502     0.575858     0.568215
      0.560572     0.552929     0.545286     0.537643     0.530000     0.522357     0.514714     0.507071     0.499427     0.491784
      0.484141     0.476498     0.468855     0.461212     0.453569     0.445925     0.438282     0.430639     0.422996     0.415353
      0.407710     0.400067     0.392424     0.384780     0.377137     0.369494     0.361851     0.354208     0.346565     0.338922
      0.331278     0.323635     0.315992     0.308349     0.300706     0.293063     0.285420     0.277777     0.270133     0.262490
      0.254847     0.247204     0.239561     0.231918     0.224275     0.216631     0.208988     0.201345
 NY phased data points follow
   9.36927E-01  2.08691E-01 -1.47585E-01 -3.37248E-01  4.27805E-01  1.22014E+00 -5.81727E-02 -3.95791E-01  1.63968E+00  9.89628E-01
   1.35789E-01  5.31233E-01 -2.24236E-02  1.23723E+00  7.22934E-01  9.83774E-01  4.07762E-01  6.44147E-02  4.82673E-01 -8.04567E-01
  -1.22880E-01  5.54518E-02  7.31193E-01  1.04016E-01 -2.06175E-01  3.23978E-01 -2.78235E-01  4.37660E-01  2.32883E-01 -8.04148E-01
   8.44276E-01  8.66671E-01  5.74943E-01 -4.17266E-01  1.48933E-01  7.04938E-02  1.02225E+00 -2.87348E-01  1.81531E+00  3.66332E-01
  -1.58294E-01  1.22168E+00 -6.73518E-01  1.05086E+00  1.52513E-01  7.02174E-01  4.32395E-01  5.30188E-02 -9.34870E-01 -7.46617E-01
   7.83493E-01  3.69129E-01  7.68941E-01 -3.03353E-01 -1.44471E+00  5.62975E-01 -1.41983E-01  1.10879E+00 -4.50964E-01  5.92219E-01
  -8.46251E-01  1.64796E+00 -1.10988E+00 -6.12973E-02  5.06664E-01  2.95183E-01  5.17210E-01  1.22339E-01 -7.86794E-01 -1.57988E-01
  -7.93349E-01  2.34982E-02 -2.81468E-01  2.55936E-01  4.89387E-01 -9.96908E-02 -6.14214E-01  2.70812E-01  1.08659E-01  6.12495E-01
   1.19516E+00 -1.28207E+00  5.84305E-01  4.16525E-01  7.50920E-02  3.75946E-01  6.49877E-01 -2.16220E-01 -1.77397E-01  4.56167E-01
  -2.98252E-01 -1.28091E-01  2.08688E-01  6.82696E-01 -7.45602E-01  7.84771E-02  7.05905E-01 -4.71974E-01 -2.72682E-01  1.20049E+00
  -1.53527E+00 -6.16193E-02  5.34541E-01  9.48002E-01  8.73643E-02 -2.34642E-01  2.17984E-01  4.40392E-01  5.72155E-01  9.21382E-01
  -7.46413E-01  8.54140E-01  7.95879E-01 -3.77988E-01 -4.15706E-01  4.57683E-01 -8.14272E-01 -1.52705E-01  4.41342E-01 -1.13816E+00
   7.93891E-02 -1.40737E+00 -1.08943E+00 -1.28015E+00 -4.39095E-01  3.21064E-01  3.11857E-01 -1.09540E+00 -2.33935E-03  1.15929E+00
   1.50282E+00  1.92227E-01 -9.39412E-01  1.47820E-01 -1.23942E+00 -1.20036E-02 -1.63873E-01  2.66678E-01 -1.34878E+00  9.03408E-01
   9.66449E-01  1.04474E+00 -5.74856E-01  6.70127E-01 -4.22005E-01 -4.88276E-01 -7.66300E-01  7.32843E-02  1.00256E-01  4.59528E-01
   1.68281E-01 -5.07801E-02 -8.33901E-01 -7.08923E-01 -1.35811E+00  6.19696E-01 -1.14652E+00 -3.14871E-01  7.26124E-01  2.46149E-01
   6.53756E-01  4.39182E-01  5.84760E-01 -4.46526E-01 -1.90637E-01 -9.68859E-02 -5.97573E-01 -9.47843E-02  1.21773E-01  1.23190E-01
  -7.69460E-02 -8.56434E-01 -8.87107E-02 -9.89103E-01 -4.11640E-01 -1.24554E+00 -6.16330E-01  2.47464E-01  9.54283E-01  1.67487E-01
  -7.36482E-01  2.00815E-01 -4.11036E-01 -1.09255E+00 -1.10670E+00 -4.82268E-01 -1.31239E-01 -3.79840E-02  5.80542E-02 -1.97553E-01
  -5.97200E-01 -6.82810E-01 -3.14443E-01 -8.53250E-01 -3.72520E-01  3.88091E-01 -1.12801E+00 -2.19423E-01  1.05785E+00 -3.21507E-01
  -2.72792E-01  6.07569E-01 -5.76506E-01 -6.98522E-01 -9.70857E-01 -1.62929E-01 -1.49104E+00 -3.64965E-01  5.82546E-01 -7.64562E-01
   1.84183E-01 -1.12572E+00 -1.71913E+00 -5.73618E-01 -7.08703E-01 -5.52642E-01  9.12501E-01  6.54687E-01  1.46643E-01  3.45991E-02
  -1.65149E-01  5.85859E-01  8.44586E-01 -1.18413E+00  8.81661E-01  4.99352E-01 -1.07916E-01 -2.08603E-01 -4.39607E-01 -1.34001E+00
  -1.59637E+00  2.10929E-01  5.21065E-01  3.08080E-01 -2.17463E+00 -5.40240E-01 -1.04660E-01  9.55281E-01 -1.38720E+00 -2.64866E-01
  -4.24545E-01  4.34887E-01  1.15649E+00 -3.43414E-01 -6.10881E-02 -6.96968E-01 -4.59644E-01 -1.13759E-01 -1.40337E-01  7.84218E-01
   3.14815E-01  3.10380E-01 -1.83108E-01  2.38407E-01 -1.71492E+00 -6.49145E-02 -1.58218E+00 -1.05717E+00 -2.12295E+00 -6.40974E-01
  -8.76454E-01 -5.72329E-01  2.58424E-01 -1.08508E+00 -7.31399E-01  2.47235E-01  3.83520E-01 -2.09394E-01 -5.11788E-01 -6.47453E-01
  -5.11047E-01 -9.08529E-01 -9.46471E-01 -6.10999E-01 -1.59369E+00 -1.04340E+00 -1.32006E+00 -3.78896E-01 -8.87752E-01  4.38839E-01
  -1.92623E-01 -9.90613E-01 -1.44479E+00  8.90292E-01  1.29880E-01 -8.90891E-01 -1.21165E+00 -6.55085E-01  1.04564E+00 -6.58924E-01
   8.64498E-01 -9.52746E-01  1.58087E-01 -6.98533E-01 -4.88190E-01 -1.22777E+00  1.62433E-01  4.23090E-01 -7.87513E-01  2.28877E-02
  -1.12175E-01 -1.41899E+00  1.42594E-01 -1.25813E-01 -2.38975E-01 -1.30804E+00 -1.35570E-01  7.49333E-01  7.19360E-01 -4.32444E-01
   4.88491E-01 -1.22529E+00  6.36983E-01  2.97516E-02 -7.95327E-01  1.08364E+00  8.36137E-01  7.78349E-01  7.50936E-01  1.61417E+00
   6.56986E-01  8.98531E-01  1.67455E-01  1.02207E+00  8.08787E-01  3.09498E+00  7.86134E-01  2.00632E+00  1.18680E+00  1.23144E+00
   1.74090E+00  2.16278E+00  2.77001E+00  2.53677E+00  1.44746E+00  7.56111E-01  1.26781E+00  2.14905E+00  1.69503E+00  1.24376E+00
   2.37226E+00  1.51956E+00  2.34123E+00  6.52081E-01  1.70301E+00  2.50912E+00  2.56970E+00  5.93082E-01  2.08682E+00  2.26311E+00
   1.85442E+00  1.20965E+00  1.07796E+00  1.92896E+00  1.32412E+00  1.90908E+00  3.34620E+00  1.50227E+00  2.84258E+00  7.62500E-01
   8.90390E-01  1.91508E+00  1.57698E+00  1.48456E+00  1.72397E+00  1.20188E+00  7.12845E-02  5.62058E-01  2.83114E+00  2.51609E+00
   2.36899E+00  2.05979E+00  9.90674E-02  7.20972E-01  1.55488E+00  5.11554E-01  2.16932E+00  1.88069E+00  1.36815E-01  1.45569E+00
   1.36058E+00 -7.70393E-01  1.35031E+00  1.39369E+00  1.01066E+00  8.22943E-01  1.32264E+00  9.82530E-01  5.14450E-01  8.84869E-01
   5.44226E-01  1.48825E+00  9.87496E-01  9.22462E-01 -4.04620E-01 -5.50012E-01  1.60518E+00 -6.47330E-01  7.49233E-01  1.97123E+00
   5.34045E-01  5.77569E-01  1.40112E+00  7.07261E-01 -2.32402E-02  1.20696E+00  1.62331E+00  1.94002E+00  9.63760E-01  8.77245E-01
  -1.63219E-01  1.08006E+00  1.00695E+00 -4.56131E-01  5.42236E-01  7.24475E-01  1.82026E-01  4.61252E-01  4.65319E-01  2.92651E-01
   1.28843E+00  7.01994E-02  1.52631E-01  5.49694E-01  2.94658E-01  9.26874E-01  3.03062E-01  1.35940E+00  7.76268E-02  4.56413E-01
  -6.03722E-01  1.19656E+00  6.36718E-01 -2.01341E-01 -4.43700E-01  2.01010E-01  6.02261E-01 -9.75542E-01 -2.00506E-01  1.08544E+00
   5.65124E-01 -9.28523E-02 -1.50314E-01  7.27068E-01  1.38339E-01 -5.09705E-01 -5.46563E-01  3.60989E-01 -2.94294E-01 -8.24390E-01
  -1.21424E+00 -2.09214E-01 -2.26256E-02 -1.03707E+00  3.64973E-01 -5.85851E-01 -3.23936E-02  2.86417E-01 -2.68936E-01 -3.42481E-01
   1.11608E+00  5.17372E-01 -9.99779E-01  6.76240E-01  4.46116E-01 -3.59441E-01 -9.13412E-03 -7.40223E-01 -5.10137E-01  1.07489E-01
   7.57102E-01 -2.72471E-01  6.06426E-01 -4.31917E-01  1.43709E+00  3.01297E-01  5.46392E-01  3.32442E-02 -9.51220E-02 -6.06287E-01
  -6.40036E-01 -5.95567E-01  1.47647E-01  5.09297E-01 -1.35697E-01  7.37835E-02  3.44146E-01  8.65304E-01 -3.98414E-01 -2.77246E-01
   1.11062E+00 -9.18110E-01 -5.97782E-01  1.26879E-02  5.53493E-01  8.02514E-01  2.08826E-01  1.20522E+00
 NY points of the fit to the data follow
   3.17550E-02 -1.43549E-02 -4.62524E-02 -6.53533E-02 -6.68013E-02 -4.36467E-02  7.22131E-03  7.13937E-02  1.33973E-01  1.85642E-01
   2.22421E-01  2.45340E-01  2.57647E-01  2.58897E-01  2.42868E-01  2.04707E-01  1.48229E-01  8.55446E-02  3.46708E-02  1.33450E-02
   7.44828E-03 -8.95867E-03 -3.76319E-02 -6.84929E-02 -8.24373E-02 -6.80763E-02 -1.72943E-02  5.55825E-02  1.26963E-01  1.85803E-01
   2.31231E-01  2.65021E-01  2.89334E-01  3.01334E-01  2.80326E-01  2.16853E-01  1.22643E-01  2.29937E-02 -5.39049E-02 -9.35791E-02
  -8.61009E-02 -3.37354E-02  5.82553E-02  1.70831E-01  2.74728E-01  3.51275E-01  3.97760E-01  4.18164E-01  4.13656E-01  3.85887E-01
   3.32389E-01  2.48062E-01  1.35278E-01  1.77204E-02 -6.73161E-02 -9.16653E-02 -5.70821E-02  2.08903E-03  5.48384E-02  8.88671E-02
   1.03595E-01  1.03620E-01  9.28644E-02  7.36378E-02  4.69365E-02  1.48071E-02 -1.22692E-02 -2.23459E-02 -1.19945E-02  1.31417E-02
   4.49792E-02  7.24707E-02  8.95641E-02  9.49730E-02  8.96848E-02  7.62449E-02  5.70499E-02  3.49526E-02  1.24364E-02 -6.87662E-03
  -1.96649E-02 -3.45925E-02 -5.93739E-02 -9.52974E-02 -1.37351E-01 -1.79368E-01 -2.16101E-01 -2.44090E-01 -2.61603E-01 -2.68417E-01
  -2.62124E-01 -2.41279E-01 -2.09669E-01 -1.73073E-01 -1.39194E-01 -1.15674E-01 -9.52670E-02 -4.37934E-02  4.25603E-02  1.37152E-01
   2.20929E-01  2.84931E-01  3.28415E-01  3.55633E-01  3.71038E-01  3.65936E-01  3.22661E-01  2.35601E-01  1.17492E-01 -5.67544E-03
  -1.00599E-01 -1.41794E-01 -1.51289E-01 -1.54330E-01 -1.55808E-01 -1.57417E-01 -1.59123E-01 -1.60825E-01 -1.61642E-01 -1.59576E-01
  -1.48308E-01 -1.04380E-01 -2.04159E-02  7.97314E-02  1.75085E-01  2.53557E-01  3.10127E-01  3.46986E-01  3.68487E-01  3.69281E-01
   3.36230E-01  2.62509E-01  1.56537E-01  4.04130E-02 -5.61824E-02 -1.07329E-01 -1.22306E-01 -1.27340E-01 -1.28916E-01 -1.26928E-01
  -1.19684E-01 -1.06173E-01 -8.88694E-02 -7.35019E-02 -6.38198E-02 -6.09789E-02 -6.41947E-02 -7.03902E-02 -7.66201E-02 -8.15629E-02
  -8.43086E-02 -8.58743E-02 -8.68049E-02 -8.73829E-02 -8.78438E-02 -8.83341E-02 -8.87796E-02 -8.89348E-02 -8.90246E-02 -8.94111E-02
  -9.03725E-02 -9.18750E-02 -9.37891E-02 -9.59108E-02 -9.78903E-02 -9.97007E-02 -1.01489E-01 -1.03268E-01 -1.05021E-01 -1.06779E-01
  -1.08813E-01 -1.11443E-01 -1.14933E-01 -1.19238E-01 -1.24017E-01 -1.28888E-01 -1.33757E-01 -1.38656E-01 -1.43227E-01 -1.47663E-01
  -1.52089E-01 -1.55939E-01 -1.58879E-01 -1.60767E-01 -1.60530E-01 -1.56984E-01 -1.50264E-01 -1.43361E-01 -1.42302E-01 -1.48890E-01
  -1.67333E-01 -1.98816E-01 -2.39502E-01 -2.82575E-01 -3.20204E-01 -3.39807E-01 -3.30778E-01 -2.92743E-01 -2.32293E-01 -1.50958E-01
  -5.78862E-02  2.95909E-02  9.29953E-02  1.10291E-01  5.13325E-02 -6.60926E-02 -2.00061E-01 -3.22375E-01 -4.16715E-01 -4.70882E-01
  -4.83911E-01 -4.60958E-01 -3.98572E-01 -2.89230E-01 -1.48869E-01 -8.02712E-03  1.03109E-01  1.61107E-01  1.64675E-01  1.50067E-01
   1.38951E-01  1.30279E-01  1.22659E-01  1.16589E-01  1.11410E-01  1.04748E-01  9.36275E-02  7.91974E-02  6.37283E-02  4.16759E-02
   1.42535E-03 -4.60128E-02 -8.28049E-02 -9.98921E-02 -9.05566E-02 -4.93751E-02  8.16659E-03  5.56628E-02  8.57289E-02  9.94132E-02
   9.71834E-02  8.09444E-02  4.80075E-02 -1.33264E-02 -1.01237E-01 -1.82512E-01 -2.31700E-01 -2.39463E-01 -2.02293E-01 -1.27747E-01
  -4.31508E-02  2.90390E-02  8.60258E-02  1.21708E-01  1.34136E-01  1.26880E-01  1.04753E-01  7.32508E-02  4.23795E-02  2.04128E-02
   8.18837E-03  4.34118E-03  7.57233E-03  1.51002E-02  2.26770E-02  2.77395E-02  2.94837E-02  2.66128E-02  2.15281E-02  1.56208E-02
   9.45404E-03  3.41177E-03 -2.18764E-03 -7.13067E-03 -1.14408E-02 -1.52024E-02 -1.85044E-02 -2.14793E-02 -2.42003E-02 -2.65810E-02
  -2.85478E-02 -3.00728E-02 -3.11237E-02 -3.16077E-02 -3.13476E-02 -3.03500E-02 -2.87713E-02 -2.66868E-02 -2.41733E-02 -2.13846E-02
  -1.84329E-02 -1.53398E-02 -1.20970E-02 -8.63672E-03 -4.88175E-03 -7.95720E-04  3.66326E-03  8.57269E-03  1.39852E-02  1.99066E-02
   2.63878E-02  3.34776E-02  4.11825E-02  4.95400E-02  5.86034E-02  6.84374E-02  7.91195E-02  9.07374E-02  1.03380E-01  1.17136E-01
   1.32100E-01  1.48378E-01  1.66084E-01  1.85347E-01  2.06301E-01  2.29060E-01  2.53732E-01  2.80424E-01  3.09227E-01  3.40217E-01
   3.73450E-01  4.08964E-01  4.46778E-01  4.86896E-01  5.29299E-01  5.73946E-01  6.20781E-01  6.69742E-01  7.20765E-01  7.73786E-01
   8.28745E-01  8.85590E-01  9.44291E-01  1.00486E+00  1.06735E+00  1.13188E+00  1.19871E+00  1.26826E+00  1.34143E+00  1.42017E+00
   1.50972E+00  1.61958E+00  1.73440E+00  1.82607E+00  1.88381E+00  1.90751E+00  1.90109E+00  1.86900E+00  1.81678E+00  1.76710E+00
   1.73295E+00  1.71568E+00  1.72039E+00  1.75344E+00  1.81769E+00  1.90754E+00  1.99649E+00  2.06311E+00  2.09893E+00  2.09381E+00
   2.04360E+00  1.95419E+00  1.84517E+00  1.74667E+00  1.66269E+00  1.58450E+00  1.50892E+00  1.43509E+00  1.36293E+00  1.29268E+00
   1.22469E+00  1.15939E+00  1.09713E+00  1.03828E+00  9.83122E-01  9.31908E-01  8.84836E-01  8.42057E-01  8.03673E-01  7.69751E-01
   7.40327E-01  7.15418E-01  6.95016E-01  6.79094E-01  6.67603E-01  6.60475E-01  6.57621E-01  6.58926E-01  6.64239E-01  6.73367E-01
   6.86067E-01  7.02041E-01  7.20930E-01  7.42308E-01  7.65679E-01  7.90481E-01  8.16085E-01  8.41815E-01  8.66954E-01  8.90763E-01
   9.12502E-01  9.31453E-01  9.46945E-01  9.58381E-01  9.65256E-01  9.67181E-01  9.63891E-01  9.55264E-01  9.41316E-01  9.22208E-01
   8.98224E-01  8.69769E-01  8.37340E-01  8.01511E-01  7.62903E-01  7.22166E-01  6.79948E-01  6.36877E-01  5.93543E-01  5.50482E-01
   5.08166E-01  4.66997E-01  4.27301E-01  3.89331E-01  3.53272E-01  3.19243E-01  2.87307E-01  2.57479E-01  2.29731E-01  2.04006E-01
   1.80218E-01  1.58270E-01  1.38048E-01  1.19437E-01  1.02314E-01  8.65622E-02  7.20665E-02  5.87185E-02  4.64158E-02  3.50636E-02
   2.45737E-02  1.48666E-02  5.86927E-03 -2.48338E-03 -1.02510E-02 -1.74867E-02 -2.42392E-02 -3.05510E-02 -3.64610E-02 -4.20032E-02
  -4.72090E-02 -5.21063E-02 -5.67206E-02 -6.10741E-02 -6.51873E-02 -6.90782E-02 -7.27640E-02 -7.62594E-02 -7.95787E-02 -8.27336E-02
  -8.57359E-02 -8.85953E-02 -9.13218E-02 -9.39238E-02 -9.64095E-02 -9.87857E-02 -1.01060E-01 -1.03237E-01 -1.05324E-01 -1.07326E-01
  -1.09247E-01 -1.11093E-01 -1.12868E-01 -1.14575E-01 -1.16217E-01 -1.17799E-01 -1.19324E-01 -1.20793E-01 -1.22211E-01 -1.23579E-01
  -1.24900E-01 -1.26176E-01 -1.27410E-01 -1.28603E-01 -1.29757E-01 -1.30874E-01 -1.31954E-01 -1.33001E-01 -1.34016E-01 -1.34998E-01
  -1.35951E-01 -1.36874E-01 -1.37770E-01 -1.38638E-01 -1.39481E-01 -1.40298E-01 -1.41091E-01 -1.41860E-01
 NY background values follow
    -1.872E-01   -1.872E-01   -1.872E-01   -1.872E-01   -1.872E-01   -1.872E-01   -1.872E-01   -1.872E-01   -1.872E-01   -1.872E-01
    -1.872E-01   -1.872E-01   -1.872E-01   -1.872E-01   -1.872E-01   -1.872E-01   -1.872E-01   -1.872E-01   -1.872E-01   -1.872E-01
    -1.872E-01   -1.872E-01   -1.872E-01   -1.872E-01   -1.872E-01   -1.872E-01   -1.872E-01   -1.872E-01   -1.872E-01   -1.872E-01
    -1.872E-01   -1.872E-01   -1.872E-01   -1.872E-01   -1.872E-01   -1.872E-01   -1.872E-01   -1.872E-01   -1.872E-01   -1.872E-01
    -1.872E-01   -1.872E-01   -1.872E-01   -1.872E-01   -1.872E-01   -1.872E-01   -1.872E-01   -1.872E-01   -1.872E-01   -1.872E-01
    -1.872E-01   -1.872E-01   -1.872E-01   -1.872E-01   -1.872E-01   -1.872E-01   -1.872E-01   -1.872E-01   -1.872E-01   -1.872E-01
    -1.872E-01   -1.872E-01   -1.872E-01   -1.872E-01   -1.872E-01   -1.872E-01   -1.873E-01   -1.873E-01   -1.873E-01   -1.873E-01
    -1.873E-01   -1.873E-01   -1.873E-01   -1.873E-01   -1.873E-01   -1.873E-01   -1.873E-01   -1.873E-01   -1.873E-01   -1.873E-01
    -1.873E-01   -1.873E-01   -1.873E-01   -1.873E-01   -1.873E-01   -1.873E-01   -1.873E-01   -1.873E-01   -1.873E-01   -1.873E-01
    -1.873E-01   -1.873E-01   -1.873E-01   -1.873E-01   -1.873E-01   -1.873E-01   -1.873E-01   -1.873E-01   -1.873E-01   -1.873E-01
    -1.873E-01   -1.873E-01   -1.873E-01   -1.873E-01   -1.873E-01   -1.873E-01   -1.873E-01   -1.873E-01   -1.873E-01   -1.873E-01
    -1.873E-01   -1.873E-01   -1.873E-01   -1.873E-01   -1.873E-01   -1.873E-01   -1.873E-01   -1.873E-01   -1.873E-01   -1.873E-01
    -1.873E-01   -1.873E-01   -1.873E-01   -1.873E-01   -1.873E-01   -1.873E-01   -1.873E-01   -1.873E-01   -1.873E-01   -1.873E-01
    -1.873E-01   -1.873E-01   -1.873E-01   -1.873E-01   -1.873E-01   -1.873E-01   -1.873E-01   -1.873E-01   -1.873E-01   -1.873E-01
    -1.873E-01   -1.873E-01   -1.873E-01   -1.873E-01   -1.873E-01   -1.873E-01   -1.873E-01   -1.873E-01   -1.873E-01   -1.873E-01
    -1.873E-01   -1.873E-01   -1.873E-01   -1.873E-01   -1.873E-01   -1.873E-01   -1.873E-01   -1.873E-01   -1.873E-01   -1.873E-01
    -1.873E-01   -1.873E-01   -1.873E-01   -1.873E-01   -1.873E-01   -1.873E-01   -1.873E-01   -1.873E-01   -1.873E-01   -1.873E-01
    -1.873E-01   -1.873E-01   -1.873E-01   -1.873E-01   -1.873E-01   -1.873E-01   -1.873E-01   -1.873E-01   -1.873E-01   -1.873E-01
    -1.873E-01   -1.873E-01   -1.873E-01   -1.873E-01   -1.873E-01   -1.873E-01   -1.873E-01   -1.873E-01   -1.873E-01   -1.873E-01
    -1.873E-01   -1.873E-01   -1.873E-01   -1.873E-01   -1.873E-01   -1.873E-01   -1.873E-01   -1.873E-01   -1.873E-01   -1.873E-01
    -1.873E-01   -1.873E-01   -1.873E-01   -1.873E-01   -1.873E-01   -1.873E-01   -1.873E-01   -1.873E-01   -1.873E-01   -1.873E-01
    -1.873E-01   -1.873E-01   -1.873E-01   -1.873E-01   -1.873E-01   -1.873E-01   -1.873E-01   -1.873E-01   -1.873E-01   -1.873E-01
    -1.873E-01   -1.873E-01   -1.873E-01   -1.873E-01   -1.873E-01   -1.873E-01   -1.873E-01   -1.873E-01   -1.873E-01   -1.873E-01
    -1.873E-01   -1.873E-01   -1.873E-01   -1.873E-01   -1.873E-01   -1.873E-01   -1.873E-01   -1.873E-01   -1.873E-01   -1.873E-01
    -1.873E-01   -1.873E-01   -1.874E-01   -1.874E-01   -1.874E-01   -1.874E-01   -1.874E-01   -1.874E-01   -1.874E-01   -1.874E-01
    -1.874E-01   -1.874E-01   -1.874E-01   -1.874E-01   -1.874E-01   -1.874E-01   -1.874E-01   -1.874E-01   -1.874E-01   -1.874E-01
    -1.874E-01   -1.874E-01   -1.874E-01   -1.874E-01   -1.874E-01   -1.874E-01   -1.874E-01   -1.874E-01   -1.874E-01   -1.874E-01
    -1.874E-01   -1.874E-01   -1.874E-01   -1.874E-01   -1.874E-01   -1.874E-01   -1.874E-01   -1.874E-01   -1.874E-01   -1.874E-01
    -1.874E-01   -1.874E-01   -1.874E-01   -1.874E-01   -1.874E-01   -1.874E-01   -1.874E-01   -1.874E-01   -1.874E-01   -1.874E-01
    -1.874E-01   -1.874E-01   -1.874E-01   -1.874E-01   -1.874E-01   -1.874E-01   -1.874E-01   -1.874E-01   -1.874E-01   -1.874E-01
    -1.874E-01   -1.874E-01   -1.874E-01   -1.874E-01   -1.874E-01   -1.874E-01   -1.874E-01   -1.874E-01   -1.874E-01   -1.874E-01
    -1.874E-01   -1.874E-01   -1.874E-01   -1.874E-01   -1.874E-01   -1.874E-01   -1.874E-01   -1.874E-01   -1.874E-01   -1.874E-01
    -1.874E-01   -1.874E-01   -1.874E-01   -1.874E-01   -1.874E-01   -1.874E-01   -1.874E-01   -1.874E-01   -1.874E-01   -1.874E-01
    -1.874E-01   -1.874E-01   -1.874E-01   -1.874E-01   -1.874E-01   -1.874E-01   -1.874E-01   -1.874E-01   -1.874E-01   -1.874E-01
    -1.874E-01   -1.874E-01   -1.874E-01   -1.874E-01   -1.874E-01   -1.874E-01   -1.874E-01   -1.874E-01   -1.874E-01   -1.874E-01
    -1.874E-01   -1.874E-01   -1.874E-01   -1.874E-01   -1.874E-01   -1.874E-01   -1.874E-01   -1.874E-01   -1.874E-01   -1.874E-01
    -1.874E-01   -1.874E-01   -1.874E-01   -1.874E-01   -1.874E-01   -1.874E-01   -1.874E-01   -1.874E-01   -1.874E-01   -1.874E-01
    -1.874E-01   -1.874E-01   -1.874E-01   -1.874E-01   -1.874E-01   -1.874E-01   -1.874E-01   -1.874E-01   -1.874E-01   -1.874E-01
    -1.874E-01   -1.874E-01   -1.874E-01   -1.874E-01   -1.874E-01   -1.874E-01   -1.874E-01   -1.874E-01   -1.874E-01   -1.874E-01
    -1.874E-01   -1.874E-01   -1.874E-01   -1.874E-01   -1.874E-01   -1.874E-01   -1.874E-01   -1.874E-01   -1.874E-01   -1.874E-01
    -1.874E-01   -1.874E-01   -1.874E-01   -1.874E-01   -1.874E-01   -1.874E-01   -1.874E-01   -1.874E-01   -1.874E-01   -1.874E-01
    -1.874E-01   -1.874E-01   -1.874E-01   -1.874E-01   -1.874E-01   -1.874E-01   -1.874E-01   -1.874E-01   -1.874E-01   -1.874E-01
    -1.874E-01   -1.874E-01   -1.874E-01   -1.874E-01   -1.874E-01   -1.874E-01   -1.874E-01   -1.874E-01   -1.874E-01   -1.874E-01
    -1.874E-01   -1.874E-01   -1.874E-01   -1.874E-01   -1.874E-01   -1.874E-01   -1.874E-01   -1.874E-01   -1.874E-01   -1.874E-01
    -1.874E-01   -1.874E-01   -1.874E-01   -1.874E-01   -1.874E-01   -1.874E-01   -1.874E-01   -1.874E-01   -1.874E-01   -1.874E-01
    -1.874E-01   -1.874E-01   -1.874E-01   -1.874E-01   -1.874E-01   -1.874E-01   -1.874E-01   -1.874E-01   -1.874E-01   -1.874E-01
    -1.874E-01   -1.874E-01   -1.874E-01   -1.874E-01   -1.874E-01   -1.874E-01   -1.874E-01   -1.874E-01   -1.874E-01   -1.874E-01
    -1.874E-01   -1.874E-01   -1.874E-01   -1.874E-01   -1.874E-01   -1.874E-01   -1.874E-01   -1.874E-01   -1.874E-01   -1.874E-01
    -1.874E-01   -1.874E-01   -1.874E-01   -1.874E-01   -1.874E-01   -1.874E-01   -1.874E-01   -1.874E-01   -1.874E-01   -1.874E-01
    -1.874E-01   -1.874E-01   -1.874E-01   -1.874E-01   -1.874E-01   -1.874E-01   -1.874E-01   -1.874E-01
 Asp      Conc. = 1.99E+00
