 LCModel (Version 6.3-1L) Copyright: S.W. Provencher.          Ref.: Magn. Reson. Med. 30:672-679 (1993).                
 Slice#2 Row#10 Col#1  PD_05_press_1_raw_act
 36 lines in following concentration table = NCONC+1
    Conc.  %SD /Cr+PCr  Metabolite                                         
    0.000 999%   0.000 Ala                                                 
    5.782  74%   0.110 Asp                                                 
    0.000 999%   0.000 Cr                                                  
   52.738  21%   1.000 PCr                                                 
    3.261  78% 6.2E-02 GABA                                                
    3.342  77% 6.3E-02 Glc                                                 
   55.918  86%   1.060 Gln                                                 
   87.743  62%   1.664 Glu                                                 
    0.000 999%   0.000 GPC                                                 
    3.747 111% 7.1E-02 PCh                                                 
    0.000 999%   0.000 GSH                                                 
    0.000 999%   0.000 Ins                                                 
   38.690  68%   0.734 Lac                                                 
   46.187  28%   0.876 NAA                                                 
    0.000 999%   0.000 NAAG                                                
    1.127  75% 2.1E-02 Scyllo                                              
    5.531  77%   0.105 Tau                                                 
    0.000 999%   0.000 -CrCH2                                              
    3.747 111% 7.1E-02 GPC+PCh                                             
   46.187  28%   0.876 NAA+NAAG                                            
   52.738  21%   1.000 Cr+PCr                                              
  143.661  53%   2.724 Glu+Gln                                             
    0.000 999%   0.000 Lip13a                                              
    0.000 999%   0.000 Lip13b                                              
    0.000 999%   0.000 Lip09                                               
   92.875  41%   1.761 MM09                                                
    0.000 999%   0.000 Lip20                                               
  129.335  47%   2.452 MM20                                                
   24.982  60%   0.474 MM12                                                
  123.961  35%   2.350 MM14                                                
   41.420  72%   0.785 MM17                                                
    0.000 999%   0.000 Lip13a+Lip13b                                       
  148.943  35%   2.824 MM14+Lip13a+Lip13b+MM12                             
   92.875  41%   1.761 MM09+Lip09                                          
  129.335  47%   2.452 MM20+Lip20                                          
   6 lines in following misc. output table
  FWHM = 0.061 ppm    S/N =   1                                            
  Data shift =-0.015 ppm                                                   
  Ph: 101 deg       4.9 deg/ppm                                            
  alphaB,S = 5.4E-01,   2.2E+01                                            
   14 spline knots.   Ns = 5(1)                                            
  ( 4) 2 infls.   ( 4) 1 extrs.                                            
  498 points on ppm-axis = NY
      4.000000     3.992357     3.984714     3.977070     3.969427     3.961784     3.954141     3.946497     3.938854     3.931211
      3.923568     3.915925     3.908281     3.900638     3.892995     3.885352     3.877708     3.870065     3.862422     3.854779
      3.847136     3.839492     3.831849     3.824206     3.816563     3.808919     3.801276     3.793633     3.785990     3.778347
      3.770703     3.763060     3.755417     3.747774     3.740130     3.732487     3.724844     3.717201     3.709558     3.701914
      3.694271     3.686628     3.678985     3.671341     3.663698     3.656055     3.648412     3.640769     3.633125     3.625482
      3.617839     3.610196     3.602552     3.594909     3.587266     3.579623     3.571980     3.564336     3.556693     3.549050
      3.541407     3.533763     3.526120     3.518477     3.510834     3.503191     3.495547     3.487904     3.480261     3.472618
      3.464974     3.457331     3.449688     3.442045     3.434402     3.426758     3.419115     3.411472     3.403829     3.396185
      3.388542     3.380899     3.373256     3.365613     3.357969     3.350326     3.342683     3.335040     3.327396     3.319753
      3.312110     3.304467     3.296824     3.289180     3.281537     3.273894     3.266251     3.258607     3.250964     3.243321
      3.235678     3.228034     3.220391     3.212748     3.205105     3.197462     3.189818     3.182175     3.174532     3.166889
      3.159245     3.151602     3.143959     3.136316     3.128673     3.121029     3.113386     3.105743     3.098100     3.090456
      3.082813     3.075170     3.067527     3.059884     3.052240     3.044597     3.036954     3.029311     3.021667     3.014024
      3.006381     2.998738     2.991095     2.983451     2.975808     2.968165     2.960522     2.952878     2.945235     2.937592
      2.929949     2.922306     2.914662     2.907019     2.899376     2.891733     2.884089     2.876446     2.868803     2.861160
      2.853517     2.845873     2.838230     2.830587     2.822944     2.815300     2.807657     2.800014     2.792371     2.784728
      2.777084     2.769441     2.761798     2.754155     2.746511     2.738868     2.731225     2.723582     2.715939     2.708295
      2.700652     2.693009     2.685366     2.677722     2.670079     2.662436     2.654793     2.647150     2.639506     2.631863
      2.624220     2.616577     2.608933     2.601290     2.593647     2.586004     2.578361     2.570717     2.563074     2.555431
      2.547788     2.540144     2.532501     2.524858     2.517215     2.509572     2.501928     2.494285     2.486642     2.478999
      2.471355     2.463712     2.456069     2.448426     2.440783     2.433139     2.425496     2.417853     2.410210     2.402566
      2.394923     2.387280     2.379637     2.371994     2.364350     2.356707     2.349064     2.341421     2.333777     2.326134
      2.318491     2.310848     2.303205     2.295561     2.287918     2.280275     2.272632     2.264988     2.257345     2.249702
      2.242059     2.234416     2.226772     2.219129     2.211486     2.203843     2.196199     2.188556     2.180913     2.173270
      2.165627     2.157983     2.150340     2.142697     2.135054     2.127410     2.119767     2.112124     2.104481     2.096838
      2.089194     2.081551     2.073908     2.066265     2.058621     2.050978     2.043335     2.035692     2.028049     2.020405
      2.012762     2.005119     1.997476     1.989833     1.982190     1.974546     1.966903     1.959260     1.951617     1.943974
      1.936331     1.928688     1.921045     1.913402     1.905759     1.898115     1.890472     1.882829     1.875186     1.867543
      1.859900     1.852257     1.844614     1.836971     1.829327     1.821684     1.814041     1.806398     1.798755     1.791112
      1.783469     1.775826     1.768183     1.760540     1.752896     1.745253     1.737610     1.729967     1.722324     1.714681
      1.707038     1.699395     1.691752     1.684108     1.676465     1.668822     1.661179     1.653536     1.645893     1.638250
      1.630607     1.622964     1.615321     1.607677     1.600034     1.592391     1.584748     1.577105     1.569462     1.561819
      1.554176     1.546533     1.538890     1.531246     1.523603     1.515960     1.508317     1.500674     1.493031     1.485388
      1.477745     1.470102     1.462458     1.454815     1.447172     1.439529     1.431886     1.424243     1.416600     1.408957
      1.401314     1.393671     1.386027     1.378384     1.370741     1.363098     1.355455     1.347812     1.340169     1.332526
      1.324883     1.317240     1.309596     1.301953     1.294310     1.286667     1.279024     1.271381     1.263738     1.256095
      1.248452     1.240808     1.233165     1.225522     1.217879     1.210236     1.202593     1.194950     1.187307     1.179664
      1.172021     1.164377     1.156734     1.149091     1.141448     1.133805     1.126162     1.118519     1.110876     1.103233
      1.095590     1.087946     1.080303     1.072660     1.065017     1.057374     1.049731     1.042088     1.034445     1.026802
      1.019158     1.011515     1.003872     0.996229     0.988586     0.980943     0.973300     0.965657     0.958014     0.950371
      0.942727     0.935084     0.927441     0.919798     0.912155     0.904512     0.896869     0.889226     0.881583     0.873940
      0.866296     0.858653     0.851010     0.843367     0.835724     0.828081     0.820438     0.812795     0.805152     0.797508
      0.789865     0.782222     0.774579     0.766936     0.759293     0.751650     0.744007     0.736364     0.728721     0.721077
      0.713434     0.705791     0.698148     0.690505     0.682862     0.675219     0.667576     0.659933     0.652290     0.644646
      0.637003     0.629360     0.621717     0.614074     0.606431     0.598788     0.591145     0.583502     0.575858     0.568215
      0.560572     0.552929     0.545286     0.537643     0.530000     0.522357     0.514714     0.507071     0.499427     0.491784
      0.484141     0.476498     0.468855     0.461212     0.453569     0.445925     0.438282     0.430639     0.422996     0.415353
      0.407710     0.400067     0.392424     0.384780     0.377137     0.369494     0.361851     0.354208     0.346565     0.338922
      0.331278     0.323635     0.315992     0.308349     0.300706     0.293063     0.285420     0.277777     0.270133     0.262490
      0.254847     0.247204     0.239561     0.231918     0.224275     0.216631     0.208988     0.201345
 NY phased data points follow
   4.63967E+01  4.40271E+01  4.50525E+01  4.47048E+01  4.29638E+01  4.30966E+01  4.19080E+01  4.16493E+01  4.28146E+01  4.08379E+01
   4.22178E+01  3.96511E+01  4.07775E+01  4.08060E+01  3.79539E+01  3.82983E+01  3.84921E+01  3.62578E+01  3.72656E+01  3.71876E+01
   3.60772E+01  3.58212E+01  3.58374E+01  3.47477E+01  3.62605E+01  3.44423E+01  3.52330E+01  3.32038E+01  3.37331E+01  3.43424E+01
   3.42403E+01  3.27784E+01  3.16508E+01  3.28487E+01  3.25547E+01  3.09299E+01  3.08048E+01  3.06951E+01  3.17954E+01  2.93138E+01
   3.04798E+01  2.99472E+01  2.82284E+01  3.01316E+01  2.84346E+01  2.77124E+01  2.98312E+01  2.90251E+01  2.99734E+01  2.82127E+01
   2.83435E+01  2.60812E+01  2.69074E+01  2.64939E+01  2.75163E+01  2.70926E+01  2.71346E+01  2.46287E+01  2.50643E+01  2.59002E+01
   2.53669E+01  2.53427E+01  2.57100E+01  2.46677E+01  2.52033E+01  2.50773E+01  2.42359E+01  2.47487E+01  2.45901E+01  2.26301E+01
   2.39057E+01  2.42270E+01  2.45767E+01  2.34519E+01  2.46513E+01  2.36070E+01  2.25959E+01  2.29361E+01  2.29597E+01  2.18110E+01
   2.28717E+01  2.13940E+01  2.17737E+01  2.20366E+01  2.23946E+01  2.26789E+01  2.18632E+01  2.08485E+01  2.17503E+01  1.95409E+01
   2.08445E+01  2.03089E+01  2.04970E+01  1.95268E+01  2.01190E+01  1.95130E+01  1.97589E+01  1.86977E+01  2.03128E+01  1.86732E+01
   2.00002E+01  1.94032E+01  2.12930E+01  2.02503E+01  2.00156E+01  1.83077E+01  1.87759E+01  1.97148E+01  1.92132E+01  1.97867E+01
   1.91974E+01  1.82152E+01  1.98533E+01  2.09140E+01  1.89512E+01  1.79822E+01  1.92436E+01  1.78350E+01  1.77503E+01  1.80792E+01
   1.72703E+01  1.80030E+01  1.89196E+01  1.77258E+01  1.97035E+01  1.75038E+01  1.84175E+01  1.92870E+01  1.81329E+01  2.01969E+01
   1.73649E+01  1.55185E+01  1.71564E+01  1.54296E+01  1.66350E+01  1.77948E+01  1.86055E+01  1.73379E+01  1.58169E+01  1.75520E+01
   1.73492E+01  1.71909E+01  1.68354E+01  1.72125E+01  1.55910E+01  1.68403E+01  1.63475E+01  1.73587E+01  1.57815E+01  1.74815E+01
   1.61917E+01  1.65191E+01  1.56127E+01  1.51234E+01  1.67762E+01  1.53179E+01  1.57907E+01  1.45745E+01  1.50502E+01  1.49259E+01
   1.62588E+01  1.56147E+01  1.58506E+01  1.41811E+01  1.57203E+01  1.51543E+01  1.45933E+01  1.52922E+01  1.61088E+01  1.50829E+01
   1.57728E+01  1.53854E+01  1.47694E+01  1.53729E+01  1.54972E+01  1.49578E+01  1.55277E+01  1.59324E+01  1.60668E+01  1.37802E+01
   1.48071E+01  1.37205E+01  1.55050E+01  1.32428E+01  1.52588E+01  1.38064E+01  1.54254E+01  1.43090E+01  1.53509E+01  1.41849E+01
   1.46468E+01  1.48789E+01  1.53990E+01  1.52932E+01  1.29895E+01  1.40849E+01  1.34252E+01  1.21627E+01  1.32636E+01  1.41561E+01
   1.54315E+01  1.44549E+01  1.54855E+01  1.53144E+01  1.53472E+01  1.45736E+01  1.42512E+01  1.38961E+01  1.38118E+01  1.33727E+01
   1.53129E+01  1.22880E+01  1.36653E+01  1.27521E+01  1.46007E+01  1.36657E+01  1.43490E+01  1.33000E+01  1.36133E+01  1.24280E+01
   1.38750E+01  1.18887E+01  1.36039E+01  1.16751E+01  1.14875E+01  1.34516E+01  1.29211E+01  1.35023E+01  1.26676E+01  1.30408E+01
   1.35330E+01  1.34057E+01  1.18487E+01  1.35394E+01  1.42777E+01  1.30409E+01  1.22911E+01  1.37319E+01  1.37682E+01  1.35756E+01
   1.32633E+01  1.36496E+01  1.28530E+01  1.31675E+01  1.27269E+01  1.30548E+01  1.27542E+01  1.25340E+01  1.21249E+01  1.27415E+01
   1.11744E+01  1.26212E+01  1.31553E+01  1.24529E+01  1.21537E+01  1.19232E+01  1.41765E+01  1.32048E+01  1.36908E+01  1.41046E+01
   1.41285E+01  1.28970E+01  1.41532E+01  1.28486E+01  1.34897E+01  1.36992E+01  1.18966E+01  1.11085E+01  1.06348E+01  1.17476E+01
   1.21307E+01  1.07665E+01  1.23638E+01  1.30072E+01  1.19711E+01  1.28904E+01  1.12196E+01  1.11306E+01  1.06703E+01  1.19826E+01
   1.11314E+01  1.21988E+01  1.07595E+01  1.12932E+01  1.12691E+01  1.10261E+01  1.09649E+01  1.08486E+01  1.20376E+01  1.05357E+01
   1.16614E+01  1.00595E+01  1.33587E+01  1.10424E+01  1.12790E+01  1.10776E+01  1.10785E+01  1.03175E+01  1.00863E+01  9.13873E+00
   1.18837E+01  9.48557E+00  1.15430E+01  8.84858E+00  1.14909E+01  9.81910E+00  9.86203E+00  1.02993E+01  1.05770E+01  1.04854E+01
   1.15336E+01  1.03452E+01  1.09682E+01  1.02342E+01  1.08799E+01  1.19542E+01  1.04898E+01  9.43668E+00  1.00049E+01  1.16647E+01
   9.19079E+00  9.02285E+00  1.07170E+01  9.45848E+00  9.61103E+00  1.04303E+01  1.05344E+01  1.01184E+01  1.21221E+01  9.77597E+00
   1.13982E+01  9.43872E+00  9.83436E+00  9.73290E+00  9.07934E+00  9.06698E+00  9.63019E+00  9.81809E+00  8.82855E+00  9.13547E+00
   1.04607E+01  9.40068E+00  9.45746E+00  1.06546E+01  8.65595E+00  1.01847E+01  7.95771E+00  8.14012E+00  8.48501E+00  8.92062E+00
   7.61464E+00  7.41915E+00  8.09294E+00  8.55497E+00  7.48363E+00  7.77743E+00  8.60368E+00  8.61090E+00  8.38762E+00  7.44086E+00
   7.79467E+00  7.37425E+00  6.66587E+00  7.02139E+00  8.06094E+00  8.53261E+00  7.24914E+00  6.56577E+00  6.30862E+00  6.57865E+00
   6.70240E+00  6.49239E+00  6.84447E+00  7.61725E+00  6.23551E+00  7.11033E+00  6.62648E+00  6.87807E+00  5.34027E+00  6.40443E+00
   5.39261E+00  6.75441E+00  6.07316E+00  7.46435E+00  6.37824E+00  6.59841E+00  6.95832E+00  7.76484E+00  5.35441E+00  6.89699E+00
   6.67700E+00  7.54571E+00  6.84101E+00  5.80870E+00  6.84958E+00  6.17153E+00  6.01626E+00  6.58734E+00  8.56474E+00  7.26232E+00
   6.81986E+00  8.10903E+00  4.99883E+00  6.07212E+00  5.96303E+00  5.62790E+00  7.27102E+00  7.52061E+00  6.88207E+00  5.51499E+00
   6.93120E+00  6.50283E+00  7.40848E+00  6.12539E+00  6.20974E+00  6.38168E+00  5.08557E+00  5.39814E+00  6.54140E+00  4.96851E+00
   6.70148E+00  5.91577E+00  5.53865E+00  4.92196E+00  5.52469E+00  4.53773E+00  5.63840E+00  5.46551E+00  6.72266E+00  6.08174E+00
   6.81172E+00  4.26157E+00  5.49616E+00  4.91925E+00  6.33760E+00  5.74199E+00  6.38747E+00  6.40009E+00  5.28383E+00  5.09007E+00
   4.89477E+00  6.25055E+00  5.00624E+00  5.57321E+00  5.43710E+00  5.98203E+00  4.77179E+00  5.07794E+00  4.70673E+00  5.64692E+00
   4.11484E+00  4.65841E+00  4.53442E+00  4.70738E+00  4.68335E+00  5.72702E+00  6.27474E+00  3.79791E+00  4.52062E+00  4.19603E+00
   5.20322E+00  5.41095E+00  5.13990E+00  5.82555E+00  6.52853E+00  4.46616E+00  4.23005E+00  3.94902E+00  4.43849E+00  4.31372E+00
   5.00239E+00  4.96071E+00  4.69151E+00  4.09478E+00  4.87843E+00  5.09891E+00  4.50487E+00  2.51425E+00  3.00926E+00  5.28285E+00
   4.65667E+00  5.38088E+00  3.83899E+00  5.57087E+00  3.97313E+00  3.15842E+00  5.07795E+00  3.81965E+00  3.45722E+00  4.94261E+00
   5.19995E+00  3.98175E+00  2.69945E+00  3.69210E+00  3.74171E+00  5.02074E+00  4.77384E+00  2.98980E+00
 NY points of the fit to the data follow
   4.29017E+01  4.26048E+01  4.23248E+01  4.21024E+01  4.20245E+01  4.19994E+01  4.19077E+01  4.17209E+01  4.14664E+01  4.11674E+01
   4.08033E+01  4.03314E+01  3.97563E+01  3.91509E+01  3.86096E+01  3.81821E+01  3.78350E+01  3.75200E+01  3.72181E+01  3.69257E+01
   3.66452E+01  3.63705E+01  3.60754E+01  3.57382E+01  3.53727E+01  3.50022E+01  3.46463E+01  3.43396E+01  3.40946E+01  3.38845E+01
   3.36826E+01  3.34708E+01  3.32351E+01  3.29498E+01  3.26096E+01  3.22391E+01  3.18549E+01  3.14799E+01  3.11471E+01  3.08773E+01
   3.06633E+01  3.04766E+01  3.02804E+01  3.00491E+01  2.97810E+01  2.94965E+01  2.92171E+01  2.89497E+01  2.86922E+01  2.84420E+01
   2.81974E+01  2.79572E+01  2.77205E+01  2.74869E+01  2.72562E+01  2.70289E+01  2.68048E+01  2.65835E+01  2.63653E+01  2.61506E+01
   2.59399E+01  2.57339E+01  2.55321E+01  2.53324E+01  2.51348E+01  2.49388E+01  2.47439E+01  2.45514E+01  2.43617E+01  2.41746E+01
   2.39934E+01  2.38202E+01  2.36512E+01  2.34828E+01  2.33138E+01  2.31442E+01  2.29749E+01  2.28067E+01  2.26396E+01  2.24739E+01
   2.23133E+01  2.21670E+01  2.20348E+01  2.19055E+01  2.17725E+01  2.16352E+01  2.14958E+01  2.13552E+01  2.12107E+01  2.10592E+01
   2.09042E+01  2.07534E+01  2.06130E+01  2.04844E+01  2.03657E+01  2.02521E+01  2.01428E+01  2.00447E+01  1.99837E+01  1.99680E+01
   1.99508E+01  1.99034E+01  1.98263E+01  1.97342E+01  1.96312E+01  1.95055E+01  1.93451E+01  1.91602E+01  1.89800E+01  1.88315E+01
   1.87186E+01  1.86242E+01  1.85362E+01  1.84520E+01  1.83711E+01  1.82927E+01  1.82172E+01  1.81458E+01  1.80795E+01  1.80223E+01
   1.79909E+01  1.80758E+01  1.83930E+01  1.87676E+01  1.90312E+01  1.91547E+01  1.91860E+01  1.91522E+01  1.90084E+01  1.86883E+01
   1.82140E+01  1.77114E+01  1.73232E+01  1.71066E+01  1.69946E+01  1.69163E+01  1.68482E+01  1.67845E+01  1.67225E+01  1.66622E+01
   1.66039E+01  1.65479E+01  1.64930E+01  1.64374E+01  1.63814E+01  1.63264E+01  1.62729E+01  1.62199E+01  1.61663E+01  1.61121E+01
   1.60586E+01  1.60071E+01  1.59579E+01  1.59104E+01  1.58635E+01  1.58151E+01  1.57614E+01  1.57035E+01  1.56474E+01  1.55970E+01
   1.55547E+01  1.55160E+01  1.54765E+01  1.54379E+01  1.54027E+01  1.53696E+01  1.53338E+01  1.52905E+01  1.52404E+01  1.51883E+01
   1.51381E+01  1.50886E+01  1.50381E+01  1.49931E+01  1.49553E+01  1.49208E+01  1.48830E+01  1.48417E+01  1.48048E+01  1.47757E+01
   1.47506E+01  1.47209E+01  1.46809E+01  1.46384E+01  1.46070E+01  1.45858E+01  1.45668E+01  1.45430E+01  1.45140E+01  1.44814E+01
   1.44467E+01  1.44075E+01  1.43592E+01  1.43031E+01  1.42440E+01  1.41897E+01  1.41521E+01  1.41440E+01  1.41641E+01  1.41997E+01
   1.42425E+01  1.42858E+01  1.43055E+01  1.42850E+01  1.42086E+01  1.40440E+01  1.38184E+01  1.36096E+01  1.34536E+01  1.33631E+01
   1.33528E+01  1.34556E+01  1.36331E+01  1.38206E+01  1.39678E+01  1.40375E+01  1.39975E+01  1.38261E+01  1.35543E+01  1.32695E+01
   1.30534E+01  1.29331E+01  1.29087E+01  1.29573E+01  1.30622E+01  1.32071E+01  1.33483E+01  1.34364E+01  1.34502E+01  1.34069E+01
   1.33368E+01  1.32453E+01  1.31455E+01  1.30704E+01  1.30354E+01  1.30301E+01  1.30427E+01  1.30635E+01  1.30626E+01  1.30511E+01
   1.30396E+01  1.30137E+01  1.29569E+01  1.28802E+01  1.28012E+01  1.27305E+01  1.26803E+01  1.26595E+01  1.26662E+01  1.26850E+01
   1.27069E+01  1.27254E+01  1.27351E+01  1.27332E+01  1.27424E+01  1.28711E+01  1.31831E+01  1.34999E+01  1.37050E+01  1.38044E+01
   1.38445E+01  1.38333E+01  1.37172E+01  1.34355E+01  1.30178E+01  1.25824E+01  1.22541E+01  1.20674E+01  1.19621E+01  1.18906E+01
   1.18367E+01  1.17916E+01  1.17508E+01  1.17147E+01  1.16821E+01  1.16488E+01  1.16099E+01  1.15641E+01  1.15127E+01  1.14595E+01
   1.14077E+01  1.13592E+01  1.13146E+01  1.12739E+01  1.12365E+01  1.12015E+01  1.11678E+01  1.11345E+01  1.11015E+01  1.10689E+01
   1.10369E+01  1.10058E+01  1.09756E+01  1.09465E+01  1.09182E+01  1.08905E+01  1.08634E+01  1.08367E+01  1.08101E+01  1.07834E+01
   1.07562E+01  1.07282E+01  1.06991E+01  1.06689E+01  1.06373E+01  1.06041E+01  1.05695E+01  1.05333E+01  1.04956E+01  1.04568E+01
   1.04170E+01  1.03764E+01  1.03355E+01  1.02946E+01  1.02539E+01  1.02138E+01  1.01746E+01  1.01366E+01  1.01000E+01  1.00648E+01
   1.00312E+01  9.99915E+00  9.96847E+00  9.93898E+00  9.91037E+00  9.88223E+00  9.85411E+00  9.82557E+00  9.79609E+00  9.76519E+00
   9.73239E+00  9.69727E+00  9.65952E+00  9.61895E+00  9.57554E+00  9.52948E+00  9.48117E+00  9.43144E+00  9.38174E+00  9.33472E+00
   9.29573E+00  9.27848E+00  9.30678E+00  9.32559E+00  9.25852E+00  9.11127E+00  8.91977E+00  8.70462E+00  8.45468E+00  8.16278E+00
   7.92042E+00  7.80218E+00  7.80268E+00  7.88246E+00  7.98950E+00  8.09292E+00  8.18328E+00  8.23351E+00  8.20944E+00  8.10753E+00
   7.96359E+00  7.83014E+00  7.72832E+00  7.64807E+00  7.57876E+00  7.51583E+00  7.45713E+00  7.40147E+00  7.34813E+00  7.29671E+00
   7.24695E+00  7.19870E+00  7.15188E+00  7.10647E+00  7.06250E+00  7.02007E+00  6.97930E+00  6.94030E+00  6.90323E+00  6.86823E+00
   6.83550E+00  6.80525E+00  6.77767E+00  6.75296E+00  6.73129E+00  6.71283E+00  6.69774E+00  6.68612E+00  6.67800E+00  6.67334E+00
   6.67199E+00  6.67371E+00  6.67815E+00  6.68483E+00  6.69312E+00  6.70228E+00  6.71147E+00  6.71978E+00  6.72627E+00  6.72997E+00
   6.72995E+00  6.72537E+00  6.71551E+00  6.69985E+00  6.67804E+00  6.64995E+00  6.61565E+00  6.57546E+00  6.52988E+00  6.47959E+00
   6.42536E+00  6.36809E+00  6.30868E+00  6.24804E+00  6.18708E+00  6.12658E+00  6.06725E+00  6.00965E+00  5.95425E+00  5.90137E+00
   5.85123E+00  5.80392E+00  5.75946E+00  5.71777E+00  5.67872E+00  5.64214E+00  5.60785E+00  5.57564E+00  5.54528E+00  5.51657E+00
   5.48930E+00  5.46329E+00  5.43839E+00  5.41442E+00  5.39126E+00  5.36878E+00  5.34687E+00  5.32545E+00  5.30444E+00  5.28376E+00
   5.26335E+00  5.24314E+00  5.22309E+00  5.20317E+00  5.18332E+00  5.16352E+00  5.14371E+00  5.12388E+00  5.10400E+00  5.08404E+00
   5.06398E+00  5.04378E+00  5.02342E+00  5.00289E+00  4.98219E+00  4.96133E+00  4.94029E+00  4.91908E+00  4.89771E+00  4.87618E+00
   4.85449E+00  4.83265E+00  4.81066E+00  4.78851E+00  4.76623E+00  4.74381E+00  4.72127E+00  4.69860E+00  4.67581E+00  4.65289E+00
   4.62987E+00  4.60675E+00  4.58353E+00  4.56021E+00  4.53681E+00  4.51332E+00  4.48976E+00  4.46614E+00  4.44245E+00  4.41870E+00
   4.39490E+00  4.37106E+00  4.34718E+00  4.32327E+00  4.29934E+00  4.27538E+00  4.25141E+00  4.22744E+00  4.20347E+00  4.17950E+00
   4.15555E+00  4.13162E+00  4.10771E+00  4.08384E+00  4.06002E+00  4.03623E+00  4.01250E+00  3.98883E+00
 NY background values follow
     4.287E+01    4.255E+01    4.222E+01    4.190E+01    4.158E+01    4.126E+01    4.094E+01    4.062E+01    4.030E+01    3.998E+01
     3.966E+01    3.934E+01    3.902E+01    3.870E+01    3.839E+01    3.807E+01    3.775E+01    3.744E+01    3.713E+01    3.682E+01
     3.651E+01    3.620E+01    3.589E+01    3.559E+01    3.528E+01    3.498E+01    3.468E+01    3.438E+01    3.408E+01    3.378E+01
     3.349E+01    3.320E+01    3.291E+01    3.262E+01    3.234E+01    3.206E+01    3.178E+01    3.150E+01    3.122E+01    3.095E+01
     3.068E+01    3.041E+01    3.015E+01    2.989E+01    2.963E+01    2.937E+01    2.912E+01    2.887E+01    2.863E+01    2.838E+01
     2.814E+01    2.791E+01    2.767E+01    2.744E+01    2.721E+01    2.699E+01    2.677E+01    2.655E+01    2.633E+01    2.612E+01
     2.591E+01    2.570E+01    2.550E+01    2.529E+01    2.509E+01    2.490E+01    2.470E+01    2.451E+01    2.433E+01    2.414E+01
     2.396E+01    2.378E+01    2.360E+01    2.343E+01    2.325E+01    2.308E+01    2.292E+01    2.275E+01    2.259E+01    2.243E+01
     2.228E+01    2.212E+01    2.197E+01    2.182E+01    2.167E+01    2.153E+01    2.139E+01    2.125E+01    2.111E+01    2.097E+01
     2.084E+01    2.071E+01    2.058E+01    2.046E+01    2.033E+01    2.021E+01    2.009E+01    1.998E+01    1.986E+01    1.975E+01
     1.964E+01    1.953E+01    1.942E+01    1.932E+01    1.921E+01    1.911E+01    1.901E+01    1.891E+01    1.882E+01    1.873E+01
     1.863E+01    1.854E+01    1.845E+01    1.837E+01    1.828E+01    1.820E+01    1.811E+01    1.803E+01    1.795E+01    1.788E+01
     1.780E+01    1.772E+01    1.765E+01    1.758E+01    1.751E+01    1.744E+01    1.737E+01    1.730E+01    1.724E+01    1.717E+01
     1.711E+01    1.704E+01    1.698E+01    1.692E+01    1.686E+01    1.680E+01    1.674E+01    1.669E+01    1.663E+01    1.658E+01
     1.652E+01    1.647E+01    1.642E+01    1.636E+01    1.631E+01    1.626E+01    1.621E+01    1.617E+01    1.612E+01    1.607E+01
     1.602E+01    1.598E+01    1.593E+01    1.589E+01    1.584E+01    1.580E+01    1.575E+01    1.571E+01    1.567E+01    1.563E+01
     1.558E+01    1.554E+01    1.550E+01    1.546E+01    1.542E+01    1.538E+01    1.534E+01    1.530E+01    1.526E+01    1.522E+01
     1.519E+01    1.515E+01    1.511E+01    1.507E+01    1.503E+01    1.499E+01    1.496E+01    1.492E+01    1.488E+01    1.484E+01
     1.481E+01    1.477E+01    1.473E+01    1.469E+01    1.465E+01    1.462E+01    1.458E+01    1.454E+01    1.450E+01    1.446E+01
     1.443E+01    1.439E+01    1.435E+01    1.431E+01    1.427E+01    1.424E+01    1.420E+01    1.416E+01    1.412E+01    1.408E+01
     1.405E+01    1.401E+01    1.397E+01    1.393E+01    1.389E+01    1.386E+01    1.382E+01    1.378E+01    1.374E+01    1.370E+01
     1.367E+01    1.363E+01    1.359E+01    1.355E+01    1.352E+01    1.348E+01    1.344E+01    1.340E+01    1.337E+01    1.333E+01
     1.329E+01    1.325E+01    1.322E+01    1.318E+01    1.314E+01    1.311E+01    1.307E+01    1.303E+01    1.300E+01    1.296E+01
     1.293E+01    1.289E+01    1.285E+01    1.282E+01    1.278E+01    1.275E+01    1.271E+01    1.267E+01    1.264E+01    1.260E+01
     1.257E+01    1.253E+01    1.250E+01    1.246E+01    1.243E+01    1.239E+01    1.236E+01    1.232E+01    1.229E+01    1.225E+01
     1.222E+01    1.218E+01    1.215E+01    1.211E+01    1.208E+01    1.204E+01    1.201E+01    1.198E+01    1.194E+01    1.191E+01
     1.187E+01    1.184E+01    1.180E+01    1.177E+01    1.174E+01    1.170E+01    1.167E+01    1.163E+01    1.160E+01    1.157E+01
     1.153E+01    1.150E+01    1.146E+01    1.143E+01    1.139E+01    1.136E+01    1.133E+01    1.129E+01    1.126E+01    1.122E+01
     1.119E+01    1.115E+01    1.112E+01    1.109E+01    1.105E+01    1.102E+01    1.098E+01    1.094E+01    1.091E+01    1.087E+01
     1.084E+01    1.080E+01    1.076E+01    1.073E+01    1.069E+01    1.065E+01    1.061E+01    1.058E+01    1.054E+01    1.050E+01
     1.046E+01    1.042E+01    1.038E+01    1.034E+01    1.030E+01    1.026E+01    1.021E+01    1.017E+01    1.013E+01    1.008E+01
     1.004E+01    9.997E+00    9.952E+00    9.906E+00    9.860E+00    9.813E+00    9.766E+00    9.718E+00    9.670E+00    9.621E+00
     9.571E+00    9.521E+00    9.470E+00    9.419E+00    9.368E+00    9.316E+00    9.264E+00    9.211E+00    9.158E+00    9.105E+00
     9.052E+00    8.998E+00    8.944E+00    8.890E+00    8.836E+00    8.781E+00    8.727E+00    8.672E+00    8.617E+00    8.563E+00
     8.508E+00    8.454E+00    8.399E+00    8.345E+00    8.290E+00    8.236E+00    8.182E+00    8.129E+00    8.075E+00    8.022E+00
     7.969E+00    7.916E+00    7.864E+00    7.812E+00    7.760E+00    7.709E+00    7.659E+00    7.609E+00    7.559E+00    7.510E+00
     7.461E+00    7.413E+00    7.366E+00    7.319E+00    7.273E+00    7.228E+00    7.183E+00    7.139E+00    7.095E+00    7.052E+00
     7.010E+00    6.968E+00    6.927E+00    6.886E+00    6.846E+00    6.806E+00    6.768E+00    6.729E+00    6.692E+00    6.654E+00
     6.618E+00    6.582E+00    6.546E+00    6.511E+00    6.477E+00    6.443E+00    6.409E+00    6.376E+00    6.344E+00    6.312E+00
     6.281E+00    6.250E+00    6.220E+00    6.190E+00    6.161E+00    6.132E+00    6.103E+00    6.075E+00    6.048E+00    6.021E+00
     5.995E+00    5.969E+00    5.943E+00    5.918E+00    5.893E+00    5.869E+00    5.845E+00    5.822E+00    5.799E+00    5.776E+00
     5.754E+00    5.733E+00    5.711E+00    5.690E+00    5.670E+00    5.649E+00    5.629E+00    5.609E+00    5.590E+00    5.571E+00
     5.552E+00    5.533E+00    5.514E+00    5.496E+00    5.478E+00    5.460E+00    5.442E+00    5.424E+00    5.407E+00    5.389E+00
     5.372E+00    5.355E+00    5.337E+00    5.320E+00    5.303E+00    5.286E+00    5.269E+00    5.252E+00    5.235E+00    5.217E+00
     5.200E+00    5.183E+00    5.165E+00    5.148E+00    5.130E+00    5.113E+00    5.095E+00    5.077E+00    5.058E+00    5.040E+00
     5.021E+00    5.002E+00    4.983E+00    4.964E+00    4.944E+00    4.925E+00    4.905E+00    4.884E+00    4.864E+00    4.843E+00
     4.822E+00    4.801E+00    4.780E+00    4.758E+00    4.737E+00    4.715E+00    4.693E+00    4.671E+00    4.649E+00    4.626E+00
     4.604E+00    4.581E+00    4.559E+00    4.536E+00    4.513E+00    4.490E+00    4.466E+00    4.443E+00    4.420E+00    4.397E+00
     4.373E+00    4.350E+00    4.326E+00    4.302E+00    4.279E+00    4.255E+00    4.232E+00    4.208E+00    4.184E+00    4.160E+00
     4.137E+00    4.113E+00    4.089E+00    4.066E+00    4.042E+00    4.019E+00    3.995E+00    3.972E+00
 Asp      Conc. = 5.78E+00
