 LCModel (Version 6.3-1L) Copyright: S.W. Provencher.          Ref.: Magn. Reson. Med. 30:672-679 (1993).                
 Slice#2 Row#7 Col#6  PD_05_press_1_raw_act
 36 lines in following concentration table = NCONC+1
    Conc.  %SD /Cr+PCr  Metabolite                                         
   96.897  83% 8.0E-02 Ala                                                 
    0.000 999%   0.000 Asp                                                 
  217.827  81%   0.181 Cr                                                  
  987.956  19%   0.819 PCr                                                 
    0.000 999%   0.000 GABA                                                
   74.645 181% 6.2E-02 Glc                                                 
  688.501  24%   0.571 Gln                                                 
 1.28E+03  14%   1.063 Glu                                                 
  533.957   4%   0.443 GPC                                                 
    0.000 999%   0.000 PCh                                                 
  350.026  17%   0.290 GSH                                                 
  816.351  25%   0.677 Ins                                                 
    0.000 999%   0.000 Lac                                                 
 2.04E+03   4%   1.689 NAA                                                 
  306.341  28%   0.254 NAAG                                                
   91.068  26% 7.6E-02 Scyllo                                              
  207.935  89%   0.172 Tau                                                 
  265.086  36%   0.220 -CrCH2                                              
  533.957   4%   0.443 GPC+PCh                                             
 2.34E+03   3%   1.943 NAA+NAAG                                            
 1.21E+03   4%   1.000 Cr+PCr                                              
 1.97E+03  13%   1.634 Glu+Gln                                             
  309.727 102%   0.257 Lip13a                                              
    0.000 999%   0.000 Lip13b                                              
   31.932 463% 2.6E-02 Lip09                                               
 1.10E+03  17%   0.914 MM09                                                
   29.501 333% 2.4E-02 Lip20                                               
 2.10E+03  16%   1.746 MM20                                                
  420.088  32%   0.348 MM12                                                
    0.000 999%   0.000 MM14                                                
  686.059  31%   0.569 MM17                                                
  309.727 102%   0.257 Lip13a+Lip13b                                       
  729.816  42%   0.605 MM14+Lip13a+Lip13b+MM12                             
 1.13E+03  17%   0.940 MM09+Lip09                                          
 2.13E+03  16%   1.770 MM20+Lip20                                          
   6 lines in following misc. output table
  FWHM = 0.046 ppm    S/N =  14                                            
  Data shift = 0.008 ppm                                                   
  Ph: -41 deg     -11.2 deg/ppm                                            
  alphaB,S = 9.8E-01,   8.9E+01                                            
   14 spline knots.   Ns = 6(1)                                            
  (11) 3 infls.   ( 5) 1 extrs.                                            
  498 points on ppm-axis = NY
      4.000000     3.992357     3.984714     3.977070     3.969427     3.961784     3.954141     3.946497     3.938854     3.931211
      3.923568     3.915925     3.908281     3.900638     3.892995     3.885352     3.877708     3.870065     3.862422     3.854779
      3.847136     3.839492     3.831849     3.824206     3.816563     3.808919     3.801276     3.793633     3.785990     3.778347
      3.770703     3.763060     3.755417     3.747774     3.740130     3.732487     3.724844     3.717201     3.709558     3.701914
      3.694271     3.686628     3.678985     3.671341     3.663698     3.656055     3.648412     3.640769     3.633125     3.625482
      3.617839     3.610196     3.602552     3.594909     3.587266     3.579623     3.571980     3.564336     3.556693     3.549050
      3.541407     3.533763     3.526120     3.518477     3.510834     3.503191     3.495547     3.487904     3.480261     3.472618
      3.464974     3.457331     3.449688     3.442045     3.434402     3.426758     3.419115     3.411472     3.403829     3.396185
      3.388542     3.380899     3.373256     3.365613     3.357969     3.350326     3.342683     3.335040     3.327396     3.319753
      3.312110     3.304467     3.296824     3.289180     3.281537     3.273894     3.266251     3.258607     3.250964     3.243321
      3.235678     3.228034     3.220391     3.212748     3.205105     3.197462     3.189818     3.182175     3.174532     3.166889
      3.159245     3.151602     3.143959     3.136316     3.128673     3.121029     3.113386     3.105743     3.098100     3.090456
      3.082813     3.075170     3.067527     3.059884     3.052240     3.044597     3.036954     3.029311     3.021667     3.014024
      3.006381     2.998738     2.991095     2.983451     2.975808     2.968165     2.960522     2.952878     2.945235     2.937592
      2.929949     2.922306     2.914662     2.907019     2.899376     2.891733     2.884089     2.876446     2.868803     2.861160
      2.853517     2.845873     2.838230     2.830587     2.822944     2.815300     2.807657     2.800014     2.792371     2.784728
      2.777084     2.769441     2.761798     2.754155     2.746511     2.738868     2.731225     2.723582     2.715939     2.708295
      2.700652     2.693009     2.685366     2.677722     2.670079     2.662436     2.654793     2.647150     2.639506     2.631863
      2.624220     2.616577     2.608933     2.601290     2.593647     2.586004     2.578361     2.570717     2.563074     2.555431
      2.547788     2.540144     2.532501     2.524858     2.517215     2.509572     2.501928     2.494285     2.486642     2.478999
      2.471355     2.463712     2.456069     2.448426     2.440783     2.433139     2.425496     2.417853     2.410210     2.402566
      2.394923     2.387280     2.379637     2.371994     2.364350     2.356707     2.349064     2.341421     2.333777     2.326134
      2.318491     2.310848     2.303205     2.295561     2.287918     2.280275     2.272632     2.264988     2.257345     2.249702
      2.242059     2.234416     2.226772     2.219129     2.211486     2.203843     2.196199     2.188556     2.180913     2.173270
      2.165627     2.157983     2.150340     2.142697     2.135054     2.127410     2.119767     2.112124     2.104481     2.096838
      2.089194     2.081551     2.073908     2.066265     2.058621     2.050978     2.043335     2.035692     2.028049     2.020405
      2.012762     2.005119     1.997476     1.989833     1.982190     1.974546     1.966903     1.959260     1.951617     1.943974
      1.936331     1.928688     1.921045     1.913402     1.905759     1.898115     1.890472     1.882829     1.875186     1.867543
      1.859900     1.852257     1.844614     1.836971     1.829327     1.821684     1.814041     1.806398     1.798755     1.791112
      1.783469     1.775826     1.768183     1.760540     1.752896     1.745253     1.737610     1.729967     1.722324     1.714681
      1.707038     1.699395     1.691752     1.684108     1.676465     1.668822     1.661179     1.653536     1.645893     1.638250
      1.630607     1.622964     1.615321     1.607677     1.600034     1.592391     1.584748     1.577105     1.569462     1.561819
      1.554176     1.546533     1.538890     1.531246     1.523603     1.515960     1.508317     1.500674     1.493031     1.485388
      1.477745     1.470102     1.462458     1.454815     1.447172     1.439529     1.431886     1.424243     1.416600     1.408957
      1.401314     1.393671     1.386027     1.378384     1.370741     1.363098     1.355455     1.347812     1.340169     1.332526
      1.324883     1.317240     1.309596     1.301953     1.294310     1.286667     1.279024     1.271381     1.263738     1.256095
      1.248452     1.240808     1.233165     1.225522     1.217879     1.210236     1.202593     1.194950     1.187307     1.179664
      1.172021     1.164377     1.156734     1.149091     1.141448     1.133805     1.126162     1.118519     1.110876     1.103233
      1.095590     1.087946     1.080303     1.072660     1.065017     1.057374     1.049731     1.042088     1.034445     1.026802
      1.019158     1.011515     1.003872     0.996229     0.988586     0.980943     0.973300     0.965657     0.958014     0.950371
      0.942727     0.935084     0.927441     0.919798     0.912155     0.904512     0.896869     0.889226     0.881583     0.873940
      0.866296     0.858653     0.851010     0.843367     0.835724     0.828081     0.820438     0.812795     0.805152     0.797508
      0.789865     0.782222     0.774579     0.766936     0.759293     0.751650     0.744007     0.736364     0.728721     0.721077
      0.713434     0.705791     0.698148     0.690505     0.682862     0.675219     0.667576     0.659933     0.652290     0.644646
      0.637003     0.629360     0.621717     0.614074     0.606431     0.598788     0.591145     0.583502     0.575858     0.568215
      0.560572     0.552929     0.545286     0.537643     0.530000     0.522357     0.514714     0.507071     0.499427     0.491784
      0.484141     0.476498     0.468855     0.461212     0.453569     0.445925     0.438282     0.430639     0.422996     0.415353
      0.407710     0.400067     0.392424     0.384780     0.377137     0.369494     0.361851     0.354208     0.346565     0.338922
      0.331278     0.323635     0.315992     0.308349     0.300706     0.293063     0.285420     0.277777     0.270133     0.262490
      0.254847     0.247204     0.239561     0.231918     0.224275     0.216631     0.208988     0.201345
 NY phased data points follow
  -6.64673E+01 -5.90424E+01 -6.18401E+01 -5.83087E+01 -5.41973E+01 -4.83942E+01 -3.87302E+01 -3.68915E+01 -3.18172E+01 -2.65108E+01
  -2.92401E+01 -2.99478E+01 -2.81124E+01 -3.51012E+01 -3.95263E+01 -4.50542E+01 -4.85330E+01 -4.67937E+01 -4.38463E+01 -4.56693E+01
  -4.82372E+01 -4.45812E+01 -4.15408E+01 -4.40066E+01 -4.20015E+01 -4.10235E+01 -3.53074E+01 -3.42983E+01 -3.46522E+01 -4.15430E+01
  -3.56193E+01 -3.20962E+01 -3.39089E+01 -3.50041E+01 -3.36307E+01 -4.13213E+01 -3.81234E+01 -3.93996E+01 -3.72871E+01 -3.49734E+01
  -3.08320E+01 -3.31231E+01 -2.98225E+01 -2.90948E+01 -3.07886E+01 -2.91181E+01 -2.65968E+01 -2.77994E+01 -3.13490E+01 -2.73093E+01
  -2.80995E+01 -3.28306E+01 -3.21960E+01 -3.26792E+01 -3.67151E+01 -3.38145E+01 -3.28849E+01 -3.11072E+01 -3.07096E+01 -2.98387E+01
  -2.90142E+01 -3.43236E+01 -3.16840E+01 -3.36745E+01 -3.64462E+01 -3.42590E+01 -2.97498E+01 -3.65839E+01 -3.12693E+01 -3.35865E+01
  -2.97182E+01 -2.74812E+01 -2.93341E+01 -2.79136E+01 -2.68177E+01 -2.73797E+01 -2.76833E+01 -2.66373E+01 -2.78973E+01 -2.76488E+01
  -2.34810E+01 -2.60835E+01 -2.22124E+01 -2.24442E+01 -2.13057E+01 -2.29633E+01 -2.16963E+01 -2.37121E+01 -2.19985E+01 -2.32576E+01
  -2.24295E+01 -2.01672E+01 -1.69186E+01 -2.22278E+01 -1.72227E+01 -1.69093E+01 -1.31239E+01 -1.50851E+01 -8.76084E+00 -2.76356E+00
   1.50779E+01  2.79574E+01  3.14067E+01  3.19760E+01  2.44027E+01  1.01091E+01  4.78298E+00 -4.12920E+00 -7.65859E+00 -1.18873E+01
  -9.54007E+00 -1.38683E+01 -1.78475E+01 -1.56607E+01 -1.85822E+01 -1.78005E+01 -1.66709E+01 -1.25386E+01 -1.74497E+01 -1.35307E+01
  -1.41359E+01 -1.33955E+01 -8.11627E+00 -2.05552E+00  4.55820E+00  1.38129E+01  2.32904E+01  3.11132E+01  2.67933E+01  1.25716E+01
   1.19922E+01 -1.39402E+00 -6.86274E+00 -1.30543E+01 -9.44357E+00 -1.47117E+01 -1.72784E+01 -1.25509E+01 -1.59882E+01 -1.59420E+01
  -1.58094E+01 -1.87530E+01 -1.27876E+01 -1.49548E+01 -1.74421E+01 -1.69867E+01 -1.74332E+01 -1.40489E+01 -1.65392E+01 -1.21996E+01
  -1.96298E+01 -1.70468E+01 -1.83828E+01 -1.77151E+01 -1.60012E+01 -1.82136E+01 -1.33971E+01 -1.70021E+01 -1.11916E+01 -1.37409E+01
  -1.64393E+01 -2.16678E+01 -1.92327E+01 -1.98080E+01 -1.60334E+01 -1.64819E+01 -1.51502E+01 -1.53347E+01 -2.03234E+01 -1.81992E+01
  -1.59275E+01 -1.84082E+01 -1.78768E+01 -2.11982E+01 -2.92360E+01 -2.38000E+01 -2.41444E+01 -2.07915E+01 -2.06239E+01 -1.85975E+01
  -2.35936E+01 -2.02956E+01 -1.88710E+01 -2.02014E+01 -2.15003E+01 -2.03095E+01 -1.62881E+01 -1.66124E+01 -1.20775E+01 -1.15011E+01
  -8.14661E+00 -3.66182E+00 -9.53991E+00 -1.29459E+01 -4.84516E+00 -6.75504E+00 -9.28512E+00 -1.06421E+01 -1.02377E+01 -6.91522E+00
  -8.04209E+00 -1.38020E+01 -5.32546E+00 -1.30487E+01 -6.94913E+00 -5.29150E+00 -9.11181E+00 -1.57536E+01 -1.29094E+01 -1.36607E+01
  -1.58235E+01 -1.43893E+01 -1.06468E+01 -8.62000E+00 -2.63315E+00  1.50260E+00  3.97338E+00  5.60916E+00 -4.40335E+00 -5.90360E+00
  -6.40852E+00 -9.45202E+00 -1.27559E+01 -7.77725E+00 -8.65210E+00 -6.48580E+00 -1.54440E+00  1.19022E+00 -3.64101E-01  1.73778E+00
   3.84622E+00 -1.42444E+00 -3.17413E+00 -3.02720E+00 -1.98582E+00 -1.37436E+00 -2.61075E+00  8.93139E-02  2.71024E-01 -5.09383E-02
  -6.84741E-01 -4.86139E+00 -1.75233E+00 -4.65291E+00 -3.26495E+00 -5.94436E-01  4.26106E+00  3.76943E+00  5.54411E+00  3.47425E+00
   6.24022E+00  7.18659E+00  8.28261E+00  1.18600E+01  2.09848E+01  3.13246E+01  3.62134E+01  4.73089E+01  5.71405E+01  7.57976E+01
   8.64052E+01  8.09372E+01  6.24584E+01  4.62364E+01  2.78715E+01  2.38199E+01  1.66584E+01  1.14168E+01  4.42466E+00  5.51621E+00
   4.64751E+00  3.02073E+00  4.84367E+00 -1.46719E+00  4.78061E+00  3.97385E+00 -1.91626E+00 -1.10995E+00  1.75877E+00 -1.93214E+00
   2.99197E+00  4.79765E+00 -1.78709E+00  1.95945E+00  3.01759E+00  9.73466E-01  1.74786E+00 -2.98873E-01 -2.13068E+00  2.34219E+00
   3.80097E+00  3.69770E+00  1.07200E+00 -1.00610E+00 -2.10374E-01  6.39295E+00  3.94613E+00  1.10631E+00  6.09593E+00  6.20066E+00
  -1.68710E+00  3.11231E-01  1.42107E+00  4.41471E+00  1.91982E+00  6.56520E+00  4.61299E+00  5.70941E+00  5.30505E+00  5.62865E+00
   3.46865E+00  8.65493E+00  2.09254E+00  2.68163E+00  5.45542E+00  2.97607E-01  8.67097E+00  1.35384E+00  2.21807E+00 -1.39494E+00
   3.54006E+00  1.59509E+00  1.35815E+00  4.48479E+00  2.11902E-01 -1.31578E-01 -8.77342E-01 -9.78647E-01 -9.82956E-01 -4.40182E+00
  -7.55443E-01 -1.04423E+00  2.19956E+00  2.34807E+00  2.69772E+00  1.96688E+00  7.16424E+00  3.72752E+00  2.19966E+00  1.64289E+00
  -2.05923E-01  3.58409E+00  4.65333E-01  1.85195E+00  4.73200E+00  5.59655E+00  5.66175E+00  2.01473E+00  6.86339E+00  8.60211E+00
   1.05861E+01  4.07572E-01  4.64356E+00  4.94780E+00  6.53698E+00  5.39482E+00  2.51098E+00  3.48323E+00 -1.11206E+00  3.75723E+00
   4.31824E+00  3.32332E+00  5.19029E+00  8.80649E+00  7.98580E+00  8.04911E+00  5.63687E+00  6.15920E+00  1.07129E+01  1.00316E+01
   7.17182E+00  5.34728E+00  7.80772E+00  7.56409E+00  7.82499E+00  1.01402E+01  1.04327E+01  4.13448E+00  3.64788E+00  8.82212E+00
   8.85917E+00  7.68252E+00  3.20579E+00  4.00256E+00  7.59834E+00  2.79667E+00  6.67979E+00  4.18081E+00  6.25485E+00  4.83402E+00
   6.18147E+00  6.22569E+00  6.64560E+00  1.03741E+01  8.09711E+00  1.10034E+01  1.21275E+01  9.94815E+00  9.23338E+00  1.08159E+01
   9.44367E+00  9.99552E+00  1.33241E+01  1.49055E+01  9.24234E+00  1.38872E+01  1.04908E+01  1.21055E+01  1.31505E+01  1.38731E+01
   1.31053E+01  1.16928E+01  1.35317E+01  9.44752E+00  9.27242E+00  7.47333E+00  1.10478E+01  9.93938E+00  8.94617E+00  1.08117E+01
   4.71124E+00  8.66782E+00  9.14034E+00  7.14083E+00  6.28601E+00  6.10617E+00  7.02707E+00  7.73127E+00  2.99429E+00  7.44632E+00
   3.22225E+00  4.12461E+00  7.56584E+00  5.49195E+00  5.33787E+00  3.90426E+00  3.70897E+00  3.61531E+00  1.48021E+00  5.37927E+00
   1.04402E+01  6.15199E+00  6.85781E+00  8.66907E+00  7.42745E+00  3.43102E+00  3.41509E+00  4.22939E+00  6.13116E+00  7.26559E+00
   5.29732E+00  9.62515E+00  3.37078E+00  5.52610E+00  8.12596E+00  7.01458E+00  4.94844E+00  8.12920E+00  2.26678E+00  7.04558E+00
   2.36882E+00  5.63983E+00  6.16973E+00  3.68728E+00  5.26540E+00  1.89790E+00  5.62660E+00  5.46548E+00  4.99282E+00  3.55483E+00
   7.89328E+00  5.08649E+00  4.49647E+00  4.38700E+00  7.29377E+00  4.78003E+00  7.57916E+00  1.01588E+01  7.38317E+00  4.04490E+00
   5.03495E+00  7.73324E+00  8.34922E+00  8.73725E+00  6.50799E+00  5.12493E+00  9.89933E+00  7.28900E+00  8.24089E+00  1.04610E+00
   1.20558E+01  5.86390E+00  8.24479E+00  5.55341E+00  4.22030E+00  4.10642E+00  4.16275E+00  5.88985E+00
 NY points of the fit to the data follow
  -5.57282E+01 -5.51870E+01 -5.44333E+01 -5.30067E+01 -5.03118E+01 -4.68873E+01 -4.25577E+01 -3.72434E+01 -3.17016E+01 -2.76497E+01
  -2.66592E+01 -2.87994E+01 -3.26688E+01 -3.65476E+01 -3.94048E+01 -4.12979E+01 -4.28837E+01 -4.42677E+01 -4.48938E+01 -4.50609E+01
  -4.49859E+01 -4.48333E+01 -4.46609E+01 -4.42213E+01 -4.34727E+01 -4.25022E+01 -4.09959E+01 -3.89217E+01 -3.67080E+01 -3.49092E+01
  -3.38744E+01 -3.35268E+01 -3.36482E+01 -3.41823E+01 -3.52185E+01 -3.66483E+01 -3.81793E+01 -3.91877E+01 -3.94793E+01 -3.92117E+01
  -3.82645E+01 -3.67711E+01 -3.51250E+01 -3.34834E+01 -3.17582E+01 -3.00439E+01 -2.88185E+01 -2.86000E+01 -2.94251E+01 -3.07919E+01
  -3.20968E+01 -3.29876E+01 -3.34971E+01 -3.37380E+01 -3.37048E+01 -3.33211E+01 -3.26816E+01 -3.19461E+01 -3.12227E+01 -3.07037E+01
  -3.05399E+01 -3.07209E+01 -3.10904E+01 -3.13474E+01 -3.13370E+01 -3.10511E+01 -3.05810E+01 -3.00417E+01 -2.95161E+01 -2.89549E+01
  -2.83441E+01 -2.77858E+01 -2.73263E+01 -2.69568E+01 -2.66825E+01 -2.65460E+01 -2.65972E+01 -2.67700E+01 -2.69521E+01 -2.69259E+01
  -2.64189E+01 -2.55132E+01 -2.45178E+01 -2.33963E+01 -2.21852E+01 -2.12783E+01 -2.10945E+01 -2.16829E+01 -2.26302E+01 -2.33912E+01
  -2.36822E+01 -2.36524E+01 -2.35633E+01 -2.34846E+01 -2.31913E+01 -2.23382E+01 -2.00094E+01 -1.47355E+01 -7.54752E+00  1.61876E+00
   1.32557E+01  2.52512E+01  3.29730E+01  3.26572E+01  2.48040E+01  1.35934E+01  3.33022E+00 -4.00680E+00 -9.06607E+00 -1.34011E+01
  -1.71013E+01 -1.87704E+01 -1.92289E+01 -1.93553E+01 -1.93603E+01 -1.93090E+01 -1.92073E+01 -1.90572E+01 -1.88202E+01 -1.84084E+01
  -1.74557E+01 -1.44992E+01 -9.31096E+00 -2.83083E+00  5.67638E+00  1.58656E+01  2.47420E+01  2.82764E+01  2.47698E+01  1.65131E+01
   7.52242E+00  3.78575E-01 -4.69159E+00 -8.94318E+00 -1.31992E+01 -1.60897E+01 -1.68719E+01 -1.66703E+01 -1.60208E+01 -1.53053E+01
  -1.47800E+01 -1.45182E+01 -1.45225E+01 -1.46998E+01 -1.49161E+01 -1.51137E+01 -1.52882E+01 -1.54426E+01 -1.56191E+01 -1.57729E+01
  -1.58982E+01 -1.60024E+01 -1.60641E+01 -1.60422E+01 -1.59331E+01 -1.58323E+01 -1.58025E+01 -1.58722E+01 -1.61315E+01 -1.65252E+01
  -1.68960E+01 -1.70215E+01 -1.67229E+01 -1.61622E+01 -1.57503E+01 -1.57986E+01 -1.62772E+01 -1.68692E+01 -1.72780E+01 -1.74916E+01
  -1.76649E+01 -1.79250E+01 -1.82433E+01 -1.85895E+01 -1.89106E+01 -1.90932E+01 -1.89273E+01 -1.83805E+01 -1.78261E+01 -1.76046E+01
  -1.76793E+01 -1.77936E+01 -1.76463E+01 -1.71347E+01 -1.65291E+01 -1.59323E+01 -1.50237E+01 -1.36026E+01 -1.18382E+01 -1.02622E+01
  -9.44693E+00 -9.46076E+00 -1.00612E+01 -1.08784E+01 -1.15361E+01 -1.18485E+01 -1.17358E+01 -1.11295E+01 -1.00590E+01 -8.67470E+00
  -7.19042E+00 -5.80317E+00 -4.76956E+00 -4.34763E+00 -4.92794E+00 -6.44586E+00 -8.64821E+00 -1.12680E+01 -1.36121E+01 -1.48178E+01
  -1.45066E+01 -1.27947E+01 -1.02833E+01 -7.24194E+00 -4.00682E+00 -1.32495E+00 -2.17978E-01 -1.26546E+00 -4.05649E+00 -7.35919E+00
  -1.03031E+01 -1.24625E+01 -1.33035E+01 -1.24310E+01 -1.00779E+01 -7.03170E+00 -4.42805E+00 -2.75743E+00 -1.94945E+00 -1.69439E+00
  -1.69191E+00 -1.69615E+00 -1.60815E+00 -1.30663E+00 -7.82027E-01 -1.54549E-01  3.94129E-01  6.69954E-01  6.28374E-01  2.65800E-01
  -4.21281E-01 -1.19281E+00 -1.57931E+00 -1.26378E+00 -3.45139E-01  8.51761E-01  1.89648E+00  2.64333E+00  3.25791E+00  4.07379E+00
   5.51678E+00  7.39662E+00  9.87155E+00  1.33767E+01  1.92794E+01  2.84036E+01  3.77674E+01  4.84409E+01  6.21424E+01  7.60295E+01
   8.32508E+01  7.88733E+01  6.46265E+01  4.72193E+01  3.27422E+01  2.29599E+01  1.60936E+01  9.74810E+00  4.51388E+00  2.52930E+00
   1.84458E+00  1.47755E+00  1.31141E+00  1.30803E+00  1.32073E+00  1.25455E+00  1.10877E+00  9.28645E-01  7.60068E-01  6.28330E-01
   5.36940E-01  4.81147E-01  4.72381E-01  5.09385E-01  5.62779E-01  6.11890E-01  6.66660E-01  7.42272E-01  8.50714E-01  9.95233E-01
   1.18104E+00  1.41027E+00  1.66529E+00  1.92059E+00  2.16859E+00  2.40834E+00  2.64029E+00  2.86465E+00  3.08099E+00  3.28943E+00
   3.49077E+00  3.67642E+00  3.83508E+00  3.95780E+00  4.04008E+00  4.08171E+00  4.08365E+00  4.04597E+00  3.97367E+00  3.87210E+00
   3.74588E+00  3.60055E+00  3.44261E+00  3.27850E+00  3.11443E+00  2.95629E+00  2.80980E+00  2.68114E+00  2.57768E+00  2.51032E+00
   2.50159E+00  2.56962E+00  2.64264E+00  2.70371E+00  2.74167E+00  2.66211E+00  2.35436E+00  1.81077E+00  1.17661E+00  7.10026E-01
   5.19715E-01  5.71661E-01  8.46207E-01  1.33190E+00  1.97005E+00  2.62184E+00  3.07399E+00  3.27177E+00  3.31377E+00  3.31862E+00
   3.34914E+00  3.39145E+00  3.40854E+00  3.44788E+00  3.53734E+00  3.65477E+00  3.78922E+00  3.93552E+00  4.09013E+00  4.25026E+00
   4.41351E+00  4.57794E+00  4.74168E+00  4.90279E+00  5.05911E+00  5.20856E+00  5.34928E+00  5.47974E+00  5.59850E+00  5.70417E+00
   5.79540E+00  5.87129E+00  5.93139E+00  5.97576E+00  6.00466E+00  6.01860E+00  6.01835E+00  6.00526E+00  5.98110E+00  5.94800E+00
   5.90812E+00  5.86373E+00  5.81724E+00  5.77136E+00  5.72892E+00  5.69271E+00  5.66528E+00  5.64911E+00  5.64664E+00  5.66048E+00
   5.69312E+00  5.74689E+00  5.82381E+00  5.92589E+00  6.05509E+00  6.21337E+00  6.40233E+00  6.62316E+00  6.87641E+00  7.16223E+00
   7.48011E+00  7.82878E+00  8.20575E+00  8.60732E+00  9.02847E+00  9.46317E+00  9.90417E+00  1.03433E+01  1.07711E+01  1.11777E+01
   1.15530E+01  1.18873E+01  1.21713E+01  1.23972E+01  1.25582E+01  1.26495E+01  1.26685E+01  1.26150E+01  1.24909E+01  1.23005E+01
   1.20495E+01  1.17458E+01  1.13981E+01  1.10162E+01  1.06103E+01  1.01900E+01  9.76460E+00  9.34253E+00  8.93122E+00  8.53695E+00
   8.16450E+00  7.81733E+00  7.49757E+00  7.20647E+00  6.94430E+00  6.71057E+00  6.50401E+00  6.32292E+00  6.16530E+00  6.02918E+00
   5.91251E+00  5.81327E+00  5.72933E+00  5.65882E+00  5.59998E+00  5.55144E+00  5.51189E+00  5.48016E+00  5.45508E+00  5.43576E+00
   5.42143E+00  5.41159E+00  5.40567E+00  5.40317E+00  5.40355E+00  5.40648E+00  5.41169E+00  5.41907E+00  5.42833E+00  5.43922E+00
   5.45148E+00  5.46504E+00  5.47982E+00  5.49582E+00  5.51281E+00  5.53068E+00  5.54927E+00  5.56863E+00  5.58871E+00  5.60952E+00
   5.63086E+00  5.65269E+00  5.67492E+00  5.69766E+00  5.72087E+00  5.74453E+00  5.76847E+00  5.79269E+00  5.81715E+00  5.84198E+00
   5.86712E+00  5.89252E+00  5.91805E+00  5.94376E+00  5.96965E+00  5.99583E+00  6.02220E+00  6.04871E+00  6.07525E+00  6.10193E+00
   6.12875E+00  6.15578E+00  6.18291E+00  6.21011E+00  6.23730E+00  6.26462E+00  6.29207E+00  6.31967E+00  6.34731E+00  6.37497E+00
   6.40264E+00  6.43045E+00  6.45838E+00  6.48644E+00  6.51449E+00  6.54260E+00  6.57076E+00  6.59913E+00
 NY background values follow
    -5.802E+01   -5.760E+01   -5.719E+01   -5.677E+01   -5.636E+01   -5.594E+01   -5.553E+01   -5.512E+01   -5.470E+01   -5.429E+01
    -5.388E+01   -5.347E+01   -5.305E+01   -5.264E+01   -5.223E+01   -5.183E+01   -5.142E+01   -5.101E+01   -5.060E+01   -5.020E+01
    -4.979E+01   -4.939E+01   -4.899E+01   -4.859E+01   -4.819E+01   -4.779E+01   -4.739E+01   -4.699E+01   -4.660E+01   -4.621E+01
    -4.581E+01   -4.542E+01   -4.503E+01   -4.465E+01   -4.426E+01   -4.388E+01   -4.349E+01   -4.311E+01   -4.273E+01   -4.236E+01
    -4.198E+01   -4.161E+01   -4.124E+01   -4.087E+01   -4.050E+01   -4.013E+01   -3.977E+01   -3.941E+01   -3.905E+01   -3.870E+01
    -3.834E+01   -3.799E+01   -3.764E+01   -3.729E+01   -3.695E+01   -3.661E+01   -3.627E+01   -3.593E+01   -3.559E+01   -3.526E+01
    -3.493E+01   -3.460E+01   -3.428E+01   -3.396E+01   -3.364E+01   -3.332E+01   -3.301E+01   -3.270E+01   -3.239E+01   -3.208E+01
    -3.178E+01   -3.148E+01   -3.118E+01   -3.089E+01   -3.060E+01   -3.031E+01   -3.002E+01   -2.974E+01   -2.946E+01   -2.919E+01
    -2.891E+01   -2.865E+01   -2.838E+01   -2.812E+01   -2.786E+01   -2.760E+01   -2.735E+01   -2.710E+01   -2.685E+01   -2.661E+01
    -2.637E+01   -2.613E+01   -2.590E+01   -2.567E+01   -2.544E+01   -2.522E+01   -2.500E+01   -2.478E+01   -2.457E+01   -2.436E+01
    -2.415E+01   -2.395E+01   -2.374E+01   -2.355E+01   -2.335E+01   -2.316E+01   -2.297E+01   -2.278E+01   -2.260E+01   -2.242E+01
    -2.224E+01   -2.207E+01   -2.189E+01   -2.172E+01   -2.156E+01   -2.139E+01   -2.123E+01   -2.107E+01   -2.091E+01   -2.076E+01
    -2.061E+01   -2.046E+01   -2.031E+01   -2.016E+01   -2.002E+01   -1.988E+01   -1.974E+01   -1.960E+01   -1.947E+01   -1.933E+01
    -1.920E+01   -1.907E+01   -1.895E+01   -1.882E+01   -1.870E+01   -1.858E+01   -1.846E+01   -1.834E+01   -1.822E+01   -1.811E+01
    -1.799E+01   -1.788E+01   -1.777E+01   -1.766E+01   -1.755E+01   -1.745E+01   -1.734E+01   -1.724E+01   -1.713E+01   -1.703E+01
    -1.693E+01   -1.683E+01   -1.673E+01   -1.663E+01   -1.653E+01   -1.643E+01   -1.633E+01   -1.623E+01   -1.613E+01   -1.604E+01
    -1.594E+01   -1.584E+01   -1.574E+01   -1.565E+01   -1.555E+01   -1.545E+01   -1.535E+01   -1.526E+01   -1.516E+01   -1.506E+01
    -1.496E+01   -1.486E+01   -1.476E+01   -1.466E+01   -1.455E+01   -1.445E+01   -1.434E+01   -1.424E+01   -1.413E+01   -1.403E+01
    -1.392E+01   -1.381E+01   -1.369E+01   -1.358E+01   -1.347E+01   -1.335E+01   -1.324E+01   -1.312E+01   -1.300E+01   -1.288E+01
    -1.276E+01   -1.264E+01   -1.252E+01   -1.239E+01   -1.227E+01   -1.215E+01   -1.202E+01   -1.190E+01   -1.177E+01   -1.164E+01
    -1.151E+01   -1.139E+01   -1.126E+01   -1.113E+01   -1.100E+01   -1.087E+01   -1.074E+01   -1.061E+01   -1.048E+01   -1.035E+01
    -1.022E+01   -1.010E+01   -9.966E+00   -9.836E+00   -9.707E+00   -9.578E+00   -9.449E+00   -9.321E+00   -9.192E+00   -9.065E+00
    -8.937E+00   -8.810E+00   -8.684E+00   -8.558E+00   -8.433E+00   -8.309E+00   -8.185E+00   -8.062E+00   -7.940E+00   -7.819E+00
    -7.698E+00   -7.578E+00   -7.459E+00   -7.341E+00   -7.223E+00   -7.107E+00   -6.991E+00   -6.875E+00   -6.761E+00   -6.648E+00
    -6.535E+00   -6.423E+00   -6.312E+00   -6.201E+00   -6.092E+00   -5.983E+00   -5.875E+00   -5.768E+00   -5.662E+00   -5.556E+00
    -5.452E+00   -5.348E+00   -5.245E+00   -5.143E+00   -5.041E+00   -4.941E+00   -4.841E+00   -4.743E+00   -4.645E+00   -4.548E+00
    -4.451E+00   -4.356E+00   -4.262E+00   -4.168E+00   -4.075E+00   -3.983E+00   -3.892E+00   -3.802E+00   -3.713E+00   -3.624E+00
    -3.537E+00   -3.450E+00   -3.364E+00   -3.279E+00   -3.195E+00   -3.112E+00   -3.030E+00   -2.948E+00   -2.867E+00   -2.787E+00
    -2.708E+00   -2.630E+00   -2.552E+00   -2.475E+00   -2.399E+00   -2.323E+00   -2.249E+00   -2.174E+00   -2.101E+00   -2.028E+00
    -1.956E+00   -1.884E+00   -1.813E+00   -1.743E+00   -1.673E+00   -1.604E+00   -1.535E+00   -1.467E+00   -1.399E+00   -1.332E+00
    -1.265E+00   -1.199E+00   -1.134E+00   -1.068E+00   -1.004E+00   -9.392E-01   -8.752E-01   -8.116E-01   -7.484E-01   -6.856E-01
    -6.231E-01   -5.609E-01   -4.991E-01   -4.376E-01   -3.764E-01   -3.155E-01   -2.548E-01   -1.944E-01   -1.343E-01   -7.441E-02
    -1.480E-02    4.455E-02    1.036E-01    1.624E-01    2.209E-01    2.792E-01    3.371E-01    3.947E-01    4.520E-01    5.090E-01
     5.658E-01    6.221E-01    6.782E-01    7.339E-01    7.893E-01    8.444E-01    8.991E-01    9.535E-01    1.008E+00    1.061E+00
     1.115E+00    1.167E+00    1.220E+00    1.272E+00    1.324E+00    1.375E+00    1.426E+00    1.477E+00    1.527E+00    1.577E+00
     1.627E+00    1.676E+00    1.724E+00    1.772E+00    1.820E+00    1.867E+00    1.914E+00    1.961E+00    2.007E+00    2.052E+00
     2.097E+00    2.142E+00    2.186E+00    2.230E+00    2.273E+00    2.316E+00    2.358E+00    2.400E+00    2.441E+00    2.483E+00
     2.523E+00    2.564E+00    2.603E+00    2.643E+00    2.682E+00    2.721E+00    2.759E+00    2.797E+00    2.835E+00    2.873E+00
     2.910E+00    2.947E+00    2.983E+00    3.019E+00    3.055E+00    3.091E+00    3.126E+00    3.161E+00    3.196E+00    3.231E+00
     3.266E+00    3.300E+00    3.334E+00    3.368E+00    3.401E+00    3.435E+00    3.468E+00    3.501E+00    3.534E+00    3.567E+00
     3.600E+00    3.632E+00    3.665E+00    3.697E+00    3.729E+00    3.761E+00    3.793E+00    3.825E+00    3.857E+00    3.889E+00
     3.921E+00    3.952E+00    3.984E+00    4.016E+00    4.047E+00    4.079E+00    4.110E+00    4.141E+00    4.173E+00    4.204E+00
     4.235E+00    4.266E+00    4.297E+00    4.328E+00    4.359E+00    4.390E+00    4.421E+00    4.452E+00    4.483E+00    4.514E+00
     4.545E+00    4.576E+00    4.606E+00    4.637E+00    4.668E+00    4.699E+00    4.729E+00    4.760E+00    4.791E+00    4.821E+00
     4.852E+00    4.883E+00    4.913E+00    4.944E+00    4.975E+00    5.005E+00    5.036E+00    5.066E+00    5.097E+00    5.128E+00
     5.158E+00    5.189E+00    5.220E+00    5.251E+00    5.281E+00    5.312E+00    5.343E+00    5.374E+00    5.404E+00    5.435E+00
     5.466E+00    5.497E+00    5.527E+00    5.558E+00    5.589E+00    5.620E+00    5.650E+00    5.681E+00    5.712E+00    5.743E+00
     5.773E+00    5.804E+00    5.834E+00    5.865E+00    5.895E+00    5.926E+00    5.956E+00    5.987E+00    6.017E+00    6.047E+00
     6.078E+00    6.108E+00    6.138E+00    6.168E+00    6.198E+00    6.228E+00    6.258E+00    6.288E+00    6.318E+00    6.348E+00
     6.377E+00    6.407E+00    6.436E+00    6.466E+00    6.495E+00    6.525E+00    6.554E+00    6.583E+00
 Ala      Conc. = 9.69E+01
