 LCModel (Version 6.3-1L) Copyright: S.W. Provencher.          Ref.: Magn. Reson. Med. 30:672-679 (1993).                
 Slice#3 Row#6 Col#1  PD_05_press_1_raw_act
 36 lines in following concentration table = NCONC+1
    Conc.  %SD /Cr+PCr  Metabolite                                         
   33.962  74%   0.764 Ala                                                 
    5.164 107%   0.116 Asp                                                 
    0.000 999%   0.000 Cr                                                  
   44.446  27%   1.000 PCr                                                 
    3.081 107% 6.9E-02 GABA                                                
    2.759 120% 6.2E-02 Glc                                                 
   52.359  97%   1.178 Gln                                                 
  162.989  36%   3.667 Glu                                                 
    9.260  50%   0.208 GPC                                                 
    0.000 999%   0.000 PCh                                                 
    0.000 999%   0.000 GSH                                                 
    0.000 999%   0.000 Ins                                                 
    0.000 999%   0.000 Lac                                                 
   37.978  37%   0.854 NAA                                                 
    0.000 999%   0.000 NAAG                                                
    1.220  90% 2.7E-02 Scyllo                                              
    3.767 146% 8.5E-02 Tau                                                 
    0.000 999%   0.000 -CrCH2                                              
    9.260  50%   0.208 GPC+PCh                                             
   37.978  37%   0.854 NAA+NAAG                                            
   44.446  27%   1.000 Cr+PCr                                              
  215.348  36%   4.845 Glu+Gln                                             
  327.636  40%   7.372 Lip13a                                              
   93.893  51%   2.113 Lip13b                                              
   55.410  79%   1.247 Lip09                                               
    0.000 999%   0.000 MM09                                                
   55.749  65%   1.254 Lip20                                               
    0.000 999%   0.000 MM20                                                
 4.12E-05 999% 9.3E-07 MM12                                                
 2.60E-03 999% 5.8E-05 MM14                                                
 6.89E-04 999% 1.6E-05 MM17                                                
  421.529  23%   9.484 Lip13a+Lip13b                                       
  421.531  23%   9.484 MM14+Lip13a+Lip13b+MM12                             
   55.410  79%   1.247 MM09+Lip09                                          
   55.749  65%   1.254 MM20+Lip20                                          
   6 lines in following misc. output table
  FWHM = 0.046 ppm    S/N =   1                                            
  Data shift =-0.008 ppm                                                   
  Ph: 151 deg     -12.8 deg/ppm                                            
  alphaB,S = 8.4E-01,   4.4E+01                                            
   14 spline knots.   Ns = 5(1)                                            
  ( 7) 2 infls.   ( 6) 1 extrs.                                            
  498 points on ppm-axis = NY
      4.000000     3.992357     3.984714     3.977070     3.969427     3.961784     3.954141     3.946497     3.938854     3.931211
      3.923568     3.915925     3.908281     3.900638     3.892995     3.885352     3.877708     3.870065     3.862422     3.854779
      3.847136     3.839492     3.831849     3.824206     3.816563     3.808919     3.801276     3.793633     3.785990     3.778347
      3.770703     3.763060     3.755417     3.747774     3.740130     3.732487     3.724844     3.717201     3.709558     3.701914
      3.694271     3.686628     3.678985     3.671341     3.663698     3.656055     3.648412     3.640769     3.633125     3.625482
      3.617839     3.610196     3.602552     3.594909     3.587266     3.579623     3.571980     3.564336     3.556693     3.549050
      3.541407     3.533763     3.526120     3.518477     3.510834     3.503191     3.495547     3.487904     3.480261     3.472618
      3.464974     3.457331     3.449688     3.442045     3.434402     3.426758     3.419115     3.411472     3.403829     3.396185
      3.388542     3.380899     3.373256     3.365613     3.357969     3.350326     3.342683     3.335040     3.327396     3.319753
      3.312110     3.304467     3.296824     3.289180     3.281537     3.273894     3.266251     3.258607     3.250964     3.243321
      3.235678     3.228034     3.220391     3.212748     3.205105     3.197462     3.189818     3.182175     3.174532     3.166889
      3.159245     3.151602     3.143959     3.136316     3.128673     3.121029     3.113386     3.105743     3.098100     3.090456
      3.082813     3.075170     3.067527     3.059884     3.052240     3.044597     3.036954     3.029311     3.021667     3.014024
      3.006381     2.998738     2.991095     2.983451     2.975808     2.968165     2.960522     2.952878     2.945235     2.937592
      2.929949     2.922306     2.914662     2.907019     2.899376     2.891733     2.884089     2.876446     2.868803     2.861160
      2.853517     2.845873     2.838230     2.830587     2.822944     2.815300     2.807657     2.800014     2.792371     2.784728
      2.777084     2.769441     2.761798     2.754155     2.746511     2.738868     2.731225     2.723582     2.715939     2.708295
      2.700652     2.693009     2.685366     2.677722     2.670079     2.662436     2.654793     2.647150     2.639506     2.631863
      2.624220     2.616577     2.608933     2.601290     2.593647     2.586004     2.578361     2.570717     2.563074     2.555431
      2.547788     2.540144     2.532501     2.524858     2.517215     2.509572     2.501928     2.494285     2.486642     2.478999
      2.471355     2.463712     2.456069     2.448426     2.440783     2.433139     2.425496     2.417853     2.410210     2.402566
      2.394923     2.387280     2.379637     2.371994     2.364350     2.356707     2.349064     2.341421     2.333777     2.326134
      2.318491     2.310848     2.303205     2.295561     2.287918     2.280275     2.272632     2.264988     2.257345     2.249702
      2.242059     2.234416     2.226772     2.219129     2.211486     2.203843     2.196199     2.188556     2.180913     2.173270
      2.165627     2.157983     2.150340     2.142697     2.135054     2.127410     2.119767     2.112124     2.104481     2.096838
      2.089194     2.081551     2.073908     2.066265     2.058621     2.050978     2.043335     2.035692     2.028049     2.020405
      2.012762     2.005119     1.997476     1.989833     1.982190     1.974546     1.966903     1.959260     1.951617     1.943974
      1.936331     1.928688     1.921045     1.913402     1.905759     1.898115     1.890472     1.882829     1.875186     1.867543
      1.859900     1.852257     1.844614     1.836971     1.829327     1.821684     1.814041     1.806398     1.798755     1.791112
      1.783469     1.775826     1.768183     1.760540     1.752896     1.745253     1.737610     1.729967     1.722324     1.714681
      1.707038     1.699395     1.691752     1.684108     1.676465     1.668822     1.661179     1.653536     1.645893     1.638250
      1.630607     1.622964     1.615321     1.607677     1.600034     1.592391     1.584748     1.577105     1.569462     1.561819
      1.554176     1.546533     1.538890     1.531246     1.523603     1.515960     1.508317     1.500674     1.493031     1.485388
      1.477745     1.470102     1.462458     1.454815     1.447172     1.439529     1.431886     1.424243     1.416600     1.408957
      1.401314     1.393671     1.386027     1.378384     1.370741     1.363098     1.355455     1.347812     1.340169     1.332526
      1.324883     1.317240     1.309596     1.301953     1.294310     1.286667     1.279024     1.271381     1.263738     1.256095
      1.248452     1.240808     1.233165     1.225522     1.217879     1.210236     1.202593     1.194950     1.187307     1.179664
      1.172021     1.164377     1.156734     1.149091     1.141448     1.133805     1.126162     1.118519     1.110876     1.103233
      1.095590     1.087946     1.080303     1.072660     1.065017     1.057374     1.049731     1.042088     1.034445     1.026802
      1.019158     1.011515     1.003872     0.996229     0.988586     0.980943     0.973300     0.965657     0.958014     0.950371
      0.942727     0.935084     0.927441     0.919798     0.912155     0.904512     0.896869     0.889226     0.881583     0.873940
      0.866296     0.858653     0.851010     0.843367     0.835724     0.828081     0.820438     0.812795     0.805152     0.797508
      0.789865     0.782222     0.774579     0.766936     0.759293     0.751650     0.744007     0.736364     0.728721     0.721077
      0.713434     0.705791     0.698148     0.690505     0.682862     0.675219     0.667576     0.659933     0.652290     0.644646
      0.637003     0.629360     0.621717     0.614074     0.606431     0.598788     0.591145     0.583502     0.575858     0.568215
      0.560572     0.552929     0.545286     0.537643     0.530000     0.522357     0.514714     0.507071     0.499427     0.491784
      0.484141     0.476498     0.468855     0.461212     0.453569     0.445925     0.438282     0.430639     0.422996     0.415353
      0.407710     0.400067     0.392424     0.384780     0.377137     0.369494     0.361851     0.354208     0.346565     0.338922
      0.331278     0.323635     0.315992     0.308349     0.300706     0.293063     0.285420     0.277777     0.270133     0.262490
      0.254847     0.247204     0.239561     0.231918     0.224275     0.216631     0.208988     0.201345
 NY phased data points follow
   3.12342E+01  3.03602E+01  2.96471E+01  3.07062E+01  2.98067E+01  2.81196E+01  2.96946E+01  2.86053E+01  2.98389E+01  3.06530E+01
   2.99482E+01  2.80152E+01  2.93809E+01  2.75898E+01  2.79753E+01  2.74330E+01  2.59179E+01  2.65418E+01  2.63026E+01  2.57068E+01
   2.65262E+01  2.67205E+01  2.57402E+01  2.53565E+01  2.58779E+01  2.45553E+01  2.50267E+01  2.50105E+01  2.27902E+01  2.37152E+01
   2.22079E+01  2.34866E+01  2.37944E+01  2.34668E+01  2.37683E+01  2.33112E+01  2.25021E+01  2.39675E+01  2.17891E+01  2.15597E+01
   2.21628E+01  2.03962E+01  2.25378E+01  2.21977E+01  2.18286E+01  2.13069E+01  2.20116E+01  1.98360E+01  2.01563E+01  1.93635E+01
   1.97625E+01  2.03021E+01  2.01074E+01  1.79944E+01  1.84628E+01  1.91400E+01  1.93517E+01  1.76087E+01  1.80030E+01  1.85324E+01
   1.89120E+01  1.82390E+01  1.82300E+01  1.64498E+01  1.64589E+01  1.66877E+01  1.66846E+01  1.62936E+01  1.78625E+01  1.76103E+01
   1.61067E+01  1.62245E+01  1.64093E+01  1.53561E+01  1.54832E+01  1.49470E+01  1.53743E+01  1.51462E+01  1.44925E+01  1.53976E+01
   1.61899E+01  1.39030E+01  1.46150E+01  1.55182E+01  1.51366E+01  1.71395E+01  1.36393E+01  1.70118E+01  1.55648E+01  1.32292E+01
   1.48250E+01  1.49329E+01  1.17485E+01  1.13315E+01  1.41697E+01  1.28748E+01  1.41302E+01  1.32431E+01  1.51512E+01  1.28581E+01
   1.45065E+01  1.22524E+01  1.46239E+01  1.38908E+01  1.42013E+01  1.39100E+01  1.24741E+01  1.25066E+01  1.17803E+01  1.29254E+01
   1.12202E+01  1.15924E+01  1.16679E+01  1.22441E+01  1.23732E+01  1.08832E+01  1.09394E+01  1.07075E+01  1.17563E+01  1.35517E+01
   1.10606E+01  1.15084E+01  1.27314E+01  1.09163E+01  1.09509E+01  1.20481E+01  1.11965E+01  1.14876E+01  1.03548E+01  1.21278E+01
   9.74791E+00  9.88434E+00  9.50823E+00  1.10652E+01  9.71090E+00  1.08922E+01  1.12041E+01  1.01898E+01  1.05781E+01  8.62503E+00
   9.47406E+00  8.45304E+00  9.97903E+00  7.41314E+00  1.04252E+01  8.10237E+00  1.02114E+01  8.23767E+00  9.23149E+00  9.09363E+00
   1.04173E+01  8.94059E+00  9.81830E+00  9.89953E+00  8.38321E+00  7.43914E+00  6.90484E+00  8.44971E+00  8.40256E+00  7.67289E+00
   9.27501E+00  9.65729E+00  9.22037E+00  8.17161E+00  6.78887E+00  8.84806E+00  7.19480E+00  9.89944E+00  7.44654E+00  8.24928E+00
   8.87639E+00  8.25659E+00  7.10243E+00  7.88317E+00  8.01934E+00  7.12475E+00  8.26869E+00  7.94490E+00  7.64855E+00  6.25775E+00
   6.61770E+00  6.52135E+00  6.17899E+00  6.99254E+00  5.95026E+00  7.56380E+00  5.11542E+00  4.71712E+00  6.72332E+00  5.65283E+00
   5.70275E+00  7.79393E+00  5.06929E+00  6.05271E+00  5.59174E+00  6.76185E+00  7.50584E+00  5.68680E+00  6.70816E+00  4.98001E+00
   5.24690E+00  6.23274E+00  5.72011E+00  4.87925E+00  6.26654E+00  6.35053E+00  4.30656E+00  5.22137E+00  3.90133E+00  4.93174E+00
   4.12610E+00  6.60752E+00  6.48253E+00  3.31829E+00  6.53221E+00  7.04126E+00  5.87441E+00  6.00483E+00  5.05382E+00  2.80309E+00
   5.09870E+00  3.14507E+00  4.47787E+00  4.35769E+00  5.45343E+00  5.66331E+00  5.22688E+00  4.44921E+00  5.16686E+00  5.56853E+00
   4.30245E+00  3.11196E+00  6.07619E+00  3.34432E+00  4.05092E+00  5.56646E+00  2.78260E+00  4.29814E+00  2.54255E+00  4.55414E+00
   4.21906E+00  4.34342E+00  3.32323E+00  3.88838E+00  3.88183E+00  5.29053E+00  2.99791E+00  3.57689E+00  2.76129E+00  4.28555E+00
   3.13290E+00  3.88055E+00  3.20888E+00  4.47683E+00  4.30335E+00  4.32092E+00  5.83555E+00  4.42549E+00  2.93955E+00  4.87924E+00
   7.26493E+00  6.28273E+00  5.96074E+00  5.37992E+00  4.59586E+00  3.82915E+00  2.89885E+00  2.87577E+00  3.65769E+00  4.57053E+00
   4.75505E+00  5.06232E+00  5.53428E+00  5.08702E+00  3.82009E+00  5.02070E+00  3.96830E+00  4.67274E+00  4.96395E+00  5.59424E+00
   3.39225E+00  4.23993E+00  5.27930E+00  1.90710E+00  5.56974E+00  4.69153E+00  2.90467E+00  3.67720E+00  4.22728E+00  4.23458E+00
   4.70521E+00  5.65238E+00  4.91239E+00  3.70021E+00  4.25711E+00  4.04248E+00  2.98316E+00  3.02046E+00  5.28924E+00  2.83421E+00
   3.09870E+00  3.33240E+00  2.50158E+00  2.42800E+00  3.09689E+00  4.27947E+00  3.31060E+00  1.44653E+00  4.52076E+00  4.30822E+00
   2.65597E+00  3.26732E+00  4.53487E+00  5.59190E+00  3.14828E+00  3.07506E+00  3.41477E+00  3.22282E+00  3.73706E+00  3.86049E+00
   2.22343E+00  1.52800E+00  3.03329E+00  3.29592E+00  3.71575E+00  2.53815E+00  5.41447E+00  3.30271E+00  4.06823E+00  5.14017E+00
   3.76835E+00  2.23302E+00  2.86721E+00  3.29499E+00  2.80057E+00  3.09013E+00  4.14887E+00  5.08242E+00  4.69805E+00  2.60569E+00
   3.91234E+00  4.17886E+00  3.80156E+00  2.38495E+00  2.69027E+00  3.88250E+00  4.39630E+00  5.31931E+00  4.89826E+00  4.82815E+00
   6.25263E+00  5.86686E+00  6.88846E+00  6.85625E+00  4.94715E+00  5.79449E+00  6.14681E+00  3.34123E+00  4.01280E+00  4.92857E+00
   3.91704E+00  2.88814E+00  3.77048E+00  6.06177E+00  3.22164E+00  5.84679E+00  3.97083E+00  5.67247E+00  2.89699E+00  4.42974E+00
   3.82104E+00  5.06875E+00  3.92911E+00  3.78011E+00  1.87769E+00  1.64286E+00  2.97263E+00  2.93312E+00  3.33494E+00  3.36711E+00
   3.36308E+00  2.79748E+00  2.26580E+00  3.67464E+00  4.03183E+00  4.30680E+00  2.19014E+00  1.63988E+00  3.74330E+00  1.30338E+00
   7.83225E-01  2.57149E+00  1.44116E+00  2.72703E+00 -5.35410E-01  1.30692E+00  3.15917E+00  1.54660E+00  2.21481E+00  1.64539E+00
   2.08681E+00  2.56536E+00  2.75407E+00  1.29070E+00  2.87414E+00  1.17952E+00  1.70805E+00  2.57131E+00  2.12338E+00  2.40325E-01
   2.52672E+00  3.72799E+00  3.91545E+00  2.39577E+00  3.18924E+00  1.55774E+00  1.58299E+00  2.35282E+00  1.33601E+00  2.05121E+00
   2.12967E+00  3.15716E+00  4.87023E+00  1.73605E+00  3.15546E+00  3.16378E+00  2.36526E+00 -1.77490E-01  2.20585E+00  1.79288E+00
   2.62741E+00  2.43044E+00  3.64045E+00  2.70670E+00  1.35763E+00  1.48663E+00  2.68685E+00  2.23541E+00  1.68620E+00  1.02860E+00
   1.40451E+00  2.11272E+00  1.87239E+00  1.01036E+00  1.35301E+00  5.65952E-01  1.72389E+00  2.05386E+00  5.73223E-01  1.35264E+00
   2.43916E+00  3.53752E+00  1.94465E+00  1.93955E+00  2.24060E+00  2.50551E+00  1.78199E-01  2.03045E+00  1.61326E+00  2.31061E+00
   2.78577E+00  2.50666E+00  2.64354E-01  5.09885E-01  1.00678E+00  1.19609E+00  1.42675E+00  1.37045E+00  1.24405E+00  1.22292E+00
   1.97545E+00  1.83021E+00 -1.54397E-01  2.13962E+00  1.17171E+00  1.24078E+00  1.39864E+00  1.99995E+00  1.70954E+00  9.13174E-01
   1.47135E+00  5.68154E-01  1.30754E+00  3.56417E-02  9.95473E-01  9.88228E-01  1.92447E+00  9.79670E-01 -1.11689E+00 -7.10538E-01
   1.31909E+00  5.05406E-01  1.70181E+00  2.39457E+00  9.66627E-02  1.40799E+00  4.29784E-01  1.35987E+00
 NY points of the fit to the data follow
   2.90120E+01  2.88461E+01  2.86900E+01  2.85680E+01  2.85382E+01  2.85785E+01  2.86387E+01  2.86869E+01  2.86796E+01  2.85628E+01
   2.83098E+01  2.79417E+01  2.75150E+01  2.70954E+01  2.67349E+01  2.64534E+01  2.62362E+01  2.60502E+01  2.58815E+01  2.57335E+01
   2.56142E+01  2.55141E+01  2.53878E+01  2.51997E+01  2.49439E+01  2.46231E+01  2.42637E+01  2.39394E+01  2.37205E+01  2.36429E+01
   2.36797E+01  2.37648E+01  2.38059E+01  2.37109E+01  2.34585E+01  2.31005E+01  2.27061E+01  2.23552E+01  2.21103E+01  2.19782E+01
   2.19134E+01  2.18581E+01  2.17669E+01  2.16236E+01  2.14393E+01  2.12387E+01  2.10416E+01  2.08538E+01  2.06729E+01  2.04981E+01
   2.03279E+01  2.01591E+01  1.99898E+01  1.98192E+01  1.96478E+01  1.94770E+01  1.93085E+01  1.91426E+01  1.89793E+01  1.88183E+01
   1.86598E+01  1.85039E+01  1.83503E+01  1.81979E+01  1.80465E+01  1.78954E+01  1.77442E+01  1.75930E+01  1.74421E+01  1.72920E+01
   1.71449E+01  1.70026E+01  1.68639E+01  1.67274E+01  1.65912E+01  1.64531E+01  1.63117E+01  1.61673E+01  1.60217E+01  1.58777E+01
   1.57386E+01  1.56105E+01  1.54935E+01  1.53817E+01  1.52705E+01  1.51560E+01  1.50343E+01  1.49031E+01  1.47627E+01  1.46164E+01
   1.44693E+01  1.43263E+01  1.41901E+01  1.40617E+01  1.39411E+01  1.38274E+01  1.37238E+01  1.36538E+01  1.36724E+01  1.37585E+01
   1.38658E+01  1.39642E+01  1.40144E+01  1.39664E+01  1.37927E+01  1.35093E+01  1.31681E+01  1.28340E+01  1.25575E+01  1.23556E+01
   1.22130E+01  1.20955E+01  1.19855E+01  1.18795E+01  1.17761E+01  1.16746E+01  1.15748E+01  1.14770E+01  1.13816E+01  1.12905E+01
   1.12121E+01  1.11937E+01  1.13222E+01  1.15536E+01  1.18192E+01  1.20708E+01  1.22390E+01  1.22404E+01  1.20356E+01  1.16575E+01
   1.11937E+01  1.07496E+01  1.04017E+01  1.01721E+01  1.00321E+01  9.92844E+00  9.83700E+00  9.75151E+00  9.66932E+00  9.58924E+00
   9.51062E+00  9.43364E+00  9.35830E+00  9.28434E+00  9.21156E+00  9.13955E+00  9.06750E+00  8.99469E+00  8.92112E+00  8.84747E+00
   8.77473E+00  8.70355E+00  8.63390E+00  8.56536E+00  8.49716E+00  8.42798E+00  8.35528E+00  8.27890E+00  8.20083E+00  8.12324E+00
   8.04984E+00  7.98193E+00  7.91953E+00  7.86185E+00  7.80580E+00  7.74702E+00  7.68242E+00  7.61188E+00  7.53782E+00  7.46368E+00
   7.39145E+00  7.31982E+00  7.24764E+00  7.17750E+00  7.11057E+00  7.04699E+00  6.98574E+00  6.92703E+00  6.87132E+00  6.81711E+00
   6.76302E+00  6.70792E+00  6.65123E+00  6.59588E+00  6.54531E+00  6.49881E+00  6.45470E+00  6.41286E+00  6.37257E+00  6.33042E+00
   6.28376E+00  6.22893E+00  6.16459E+00  6.09409E+00  6.02259E+00  5.95670E+00  5.90607E+00  5.88032E+00  5.88230E+00  5.90887E+00
   5.95793E+00  6.01714E+00  6.05426E+00  6.05067E+00  5.97942E+00  5.80874E+00  5.55622E+00  5.27660E+00  5.02197E+00  4.85341E+00
   4.84352E+00  5.03838E+00  5.36627E+00  5.72913E+00  6.02833E+00  6.16722E+00  6.06472E+00  5.69731E+00  5.15365E+00  4.59133E+00
   4.13878E+00  3.87777E+00  3.85445E+00  4.04851E+00  4.37760E+00  4.74042E+00  5.03708E+00  5.20604E+00  5.24004E+00  5.17539E+00
   5.06536E+00  4.94396E+00  4.83272E+00  4.74904E+00  4.69666E+00  4.66469E+00  4.65371E+00  4.65433E+00  4.64171E+00  4.61773E+00
   4.58517E+00  4.53447E+00  4.47023E+00  4.41498E+00  4.37655E+00  4.34337E+00  4.30665E+00  4.26751E+00  4.23230E+00  4.20649E+00
   4.20199E+00  4.22826E+00  4.27404E+00  4.31338E+00  4.34233E+00  4.41909E+00  4.59778E+00  4.83622E+00  5.11221E+00  5.40217E+00
   5.62681E+00  5.70019E+00  5.58737E+00  5.31548E+00  4.96164E+00  4.62069E+00  4.35961E+00  4.19454E+00  4.09941E+00  4.03894E+00
   4.00095E+00  3.98134E+00  3.97681E+00  3.98339E+00  3.99268E+00  3.99421E+00  3.98209E+00  3.95658E+00  3.92178E+00  3.88374E+00
   3.84825E+00  3.81846E+00  3.79478E+00  3.77608E+00  3.76066E+00  3.74669E+00  3.73247E+00  3.71719E+00  3.70122E+00  3.68503E+00
   3.66888E+00  3.65300E+00  3.63756E+00  3.62259E+00  3.60803E+00  3.59387E+00  3.58012E+00  3.56677E+00  3.55382E+00  3.54127E+00
   3.52906E+00  3.51719E+00  3.50563E+00  3.49430E+00  3.48314E+00  3.47211E+00  3.46124E+00  3.45058E+00  3.44025E+00  3.43034E+00
   3.42095E+00  3.41213E+00  3.40399E+00  3.39665E+00  3.39030E+00  3.38519E+00  3.38170E+00  3.38038E+00  3.38211E+00  3.38841E+00
   3.40224E+00  3.43085E+00  3.49105E+00  3.57206E+00  3.62912E+00  3.64317E+00  3.60193E+00  3.49132E+00  3.31123E+00  3.08454E+00
   2.86961E+00  2.74952E+00  2.75036E+00  2.86146E+00  3.05589E+00  3.28839E+00  3.50711E+00  3.67444E+00  3.77091E+00  3.80135E+00
   3.79294E+00  3.78153E+00  3.79678E+00  3.85066E+00  3.93851E+00  4.05760E+00  4.20715E+00  4.38510E+00  4.58631E+00  4.80172E+00
   5.01838E+00  5.22040E+00  5.39093E+00  5.51465E+00  5.58024E+00  5.58232E+00  5.52232E+00  5.40796E+00  5.25165E+00  5.06819E+00
   4.87228E+00  4.67653E+00  4.49017E+00  4.31872E+00  4.16433E+00  4.02664E+00  3.90377E+00  3.79320E+00  3.69243E+00  3.59937E+00
   3.51250E+00  3.43081E+00  3.35372E+00  3.28094E+00  3.21235E+00  3.14789E+00  3.08753E+00  3.03122E+00  2.97887E+00  2.93036E+00
   2.88555E+00  2.84427E+00  2.80636E+00  2.77163E+00  2.73993E+00  2.71109E+00  2.68496E+00  2.66143E+00  2.64037E+00  2.62167E+00
   2.60523E+00  2.59094E+00  2.57870E+00  2.56839E+00  2.55987E+00  2.55298E+00  2.54753E+00  2.54330E+00  2.54005E+00  2.53750E+00
   2.53534E+00  2.53324E+00  2.53086E+00  2.52785E+00  2.52388E+00  2.51862E+00  2.51178E+00  2.50313E+00  2.49246E+00  2.47964E+00
   2.46460E+00  2.44734E+00  2.42792E+00  2.40646E+00  2.38314E+00  2.35819E+00  2.33186E+00  2.30443E+00  2.27619E+00  2.24742E+00
   2.21840E+00  2.18937E+00  2.16055E+00  2.13215E+00  2.10431E+00  2.07716E+00  2.05079E+00  2.02525E+00  2.00058E+00  1.97679E+00
   1.95385E+00  1.93174E+00  1.91043E+00  1.88986E+00  1.86999E+00  1.85075E+00  1.83209E+00  1.81396E+00  1.79631E+00  1.77908E+00
   1.76223E+00  1.74571E+00  1.72949E+00  1.71354E+00  1.69781E+00  1.68228E+00  1.66692E+00  1.65171E+00  1.63663E+00  1.62165E+00
   1.60676E+00  1.59194E+00  1.57717E+00  1.56245E+00  1.54777E+00  1.53311E+00  1.51848E+00  1.50387E+00  1.48927E+00  1.47468E+00
   1.46011E+00  1.44554E+00  1.43097E+00  1.41641E+00  1.40185E+00  1.38729E+00  1.37273E+00  1.35816E+00  1.34360E+00  1.32903E+00
   1.31447E+00  1.29989E+00  1.28532E+00  1.27075E+00  1.25618E+00  1.24161E+00  1.22704E+00  1.21247E+00  1.19790E+00  1.18333E+00
   1.16877E+00  1.15422E+00  1.13967E+00  1.12513E+00  1.11059E+00  1.09607E+00  1.08155E+00  1.06705E+00  1.05256E+00  1.03809E+00
   1.02363E+00  1.00919E+00  9.94765E-01  9.80360E-01  9.65976E-01  9.51613E-01  9.37273E-01  9.22957E-01
 NY background values follow
     2.897E+01    2.879E+01    2.861E+01    2.843E+01    2.825E+01    2.807E+01    2.789E+01    2.771E+01    2.753E+01    2.735E+01
     2.717E+01    2.699E+01    2.681E+01    2.663E+01    2.645E+01    2.627E+01    2.609E+01    2.591E+01    2.573E+01    2.555E+01
     2.537E+01    2.519E+01    2.502E+01    2.484E+01    2.466E+01    2.448E+01    2.431E+01    2.413E+01    2.395E+01    2.378E+01
     2.360E+01    2.343E+01    2.325E+01    2.308E+01    2.291E+01    2.273E+01    2.256E+01    2.239E+01    2.222E+01    2.205E+01
     2.188E+01    2.171E+01    2.154E+01    2.137E+01    2.120E+01    2.104E+01    2.087E+01    2.071E+01    2.054E+01    2.038E+01
     2.021E+01    2.005E+01    1.989E+01    1.973E+01    1.957E+01    1.941E+01    1.925E+01    1.910E+01    1.894E+01    1.879E+01
     1.863E+01    1.848E+01    1.832E+01    1.817E+01    1.802E+01    1.787E+01    1.772E+01    1.757E+01    1.743E+01    1.728E+01
     1.713E+01    1.699E+01    1.685E+01    1.670E+01    1.656E+01    1.642E+01    1.628E+01    1.614E+01    1.601E+01    1.587E+01
     1.573E+01    1.560E+01    1.547E+01    1.533E+01    1.520E+01    1.507E+01    1.494E+01    1.481E+01    1.469E+01    1.456E+01
     1.444E+01    1.431E+01    1.419E+01    1.407E+01    1.395E+01    1.383E+01    1.371E+01    1.360E+01    1.348E+01    1.337E+01
     1.325E+01    1.314E+01    1.303E+01    1.292E+01    1.281E+01    1.270E+01    1.259E+01    1.248E+01    1.238E+01    1.227E+01
     1.217E+01    1.207E+01    1.197E+01    1.187E+01    1.177E+01    1.167E+01    1.157E+01    1.147E+01    1.138E+01    1.128E+01
     1.119E+01    1.109E+01    1.100E+01    1.091E+01    1.082E+01    1.073E+01    1.064E+01    1.055E+01    1.046E+01    1.037E+01
     1.029E+01    1.020E+01    1.012E+01    1.003E+01    9.949E+00    9.866E+00    9.784E+00    9.703E+00    9.623E+00    9.543E+00
     9.464E+00    9.386E+00    9.308E+00    9.231E+00    9.155E+00    9.079E+00    9.005E+00    8.930E+00    8.857E+00    8.784E+00
     8.711E+00    8.640E+00    8.568E+00    8.498E+00    8.428E+00    8.359E+00    8.290E+00    8.222E+00    8.155E+00    8.088E+00
     8.022E+00    7.956E+00    7.891E+00    7.827E+00    7.763E+00    7.699E+00    7.636E+00    7.574E+00    7.512E+00    7.451E+00
     7.390E+00    7.330E+00    7.270E+00    7.211E+00    7.152E+00    7.094E+00    7.036E+00    6.979E+00    6.922E+00    6.866E+00
     6.810E+00    6.755E+00    6.700E+00    6.646E+00    6.592E+00    6.538E+00    6.485E+00    6.433E+00    6.381E+00    6.329E+00
     6.278E+00    6.227E+00    6.177E+00    6.128E+00    6.078E+00    6.030E+00    5.982E+00    5.934E+00    5.887E+00    5.840E+00
     5.794E+00    5.749E+00    5.704E+00    5.659E+00    5.615E+00    5.571E+00    5.528E+00    5.486E+00    5.444E+00    5.403E+00
     5.362E+00    5.322E+00    5.282E+00    5.243E+00    5.204E+00    5.166E+00    5.128E+00    5.091E+00    5.055E+00    5.019E+00
     4.984E+00    4.949E+00    4.915E+00    4.882E+00    4.849E+00    4.816E+00    4.785E+00    4.753E+00    4.723E+00    4.693E+00
     4.663E+00    4.634E+00    4.606E+00    4.578E+00    4.551E+00    4.524E+00    4.498E+00    4.472E+00    4.447E+00    4.422E+00
     4.397E+00    4.373E+00    4.350E+00    4.327E+00    4.304E+00    4.282E+00    4.260E+00    4.239E+00    4.218E+00    4.197E+00
     4.177E+00    4.157E+00    4.138E+00    4.118E+00    4.099E+00    4.081E+00    4.063E+00    4.045E+00    4.027E+00    4.010E+00
     3.993E+00    3.976E+00    3.960E+00    3.943E+00    3.927E+00    3.911E+00    3.896E+00    3.881E+00    3.865E+00    3.850E+00
     3.836E+00    3.821E+00    3.807E+00    3.792E+00    3.778E+00    3.764E+00    3.750E+00    3.737E+00    3.723E+00    3.709E+00
     3.696E+00    3.683E+00    3.670E+00    3.657E+00    3.644E+00    3.631E+00    3.618E+00    3.606E+00    3.593E+00    3.581E+00
     3.568E+00    3.556E+00    3.544E+00    3.532E+00    3.519E+00    3.507E+00    3.495E+00    3.483E+00    3.471E+00    3.459E+00
     3.447E+00    3.435E+00    3.423E+00    3.411E+00    3.399E+00    3.387E+00    3.375E+00    3.363E+00    3.351E+00    3.339E+00
     3.327E+00    3.315E+00    3.302E+00    3.290E+00    3.278E+00    3.265E+00    3.253E+00    3.240E+00    3.228E+00    3.215E+00
     3.202E+00    3.190E+00    3.177E+00    3.164E+00    3.151E+00    3.138E+00    3.125E+00    3.112E+00    3.098E+00    3.085E+00
     3.072E+00    3.058E+00    3.045E+00    3.031E+00    3.018E+00    3.004E+00    2.991E+00    2.977E+00    2.963E+00    2.949E+00
     2.935E+00    2.922E+00    2.908E+00    2.894E+00    2.880E+00    2.866E+00    2.852E+00    2.838E+00    2.824E+00    2.809E+00
     2.795E+00    2.781E+00    2.767E+00    2.753E+00    2.739E+00    2.724E+00    2.710E+00    2.696E+00    2.681E+00    2.667E+00
     2.653E+00    2.638E+00    2.624E+00    2.610E+00    2.595E+00    2.581E+00    2.567E+00    2.552E+00    2.538E+00    2.523E+00
     2.509E+00    2.495E+00    2.480E+00    2.466E+00    2.452E+00    2.437E+00    2.423E+00    2.409E+00    2.395E+00    2.380E+00
     2.366E+00    2.352E+00    2.338E+00    2.324E+00    2.310E+00    2.296E+00    2.282E+00    2.268E+00    2.254E+00    2.240E+00
     2.227E+00    2.213E+00    2.199E+00    2.186E+00    2.172E+00    2.159E+00    2.145E+00    2.132E+00    2.118E+00    2.105E+00
     2.092E+00    2.079E+00    2.066E+00    2.053E+00    2.040E+00    2.027E+00    2.015E+00    2.002E+00    1.989E+00    1.977E+00
     1.965E+00    1.952E+00    1.940E+00    1.928E+00    1.916E+00    1.904E+00    1.892E+00    1.880E+00    1.868E+00    1.856E+00
     1.844E+00    1.832E+00    1.821E+00    1.809E+00    1.797E+00    1.786E+00    1.774E+00    1.762E+00    1.751E+00    1.739E+00
     1.728E+00    1.716E+00    1.704E+00    1.693E+00    1.681E+00    1.670E+00    1.658E+00    1.646E+00    1.635E+00    1.623E+00
     1.611E+00    1.599E+00    1.588E+00    1.576E+00    1.564E+00    1.552E+00    1.540E+00    1.528E+00    1.516E+00    1.504E+00
     1.491E+00    1.479E+00    1.467E+00    1.454E+00    1.442E+00    1.429E+00    1.417E+00    1.404E+00    1.391E+00    1.378E+00
     1.365E+00    1.352E+00    1.339E+00    1.326E+00    1.313E+00    1.300E+00    1.287E+00    1.273E+00    1.260E+00    1.247E+00
     1.233E+00    1.220E+00    1.206E+00    1.193E+00    1.179E+00    1.166E+00    1.152E+00    1.139E+00    1.125E+00    1.111E+00
     1.098E+00    1.084E+00    1.070E+00    1.057E+00    1.043E+00    1.029E+00    1.016E+00    1.002E+00    9.881E-01    9.743E-01
     9.606E-01    9.469E-01    9.332E-01    9.195E-01    9.059E-01    8.922E-01    8.786E-01    8.650E-01
 Ala      Conc. = 3.40E+01
