 LCModel (Version 6.3-1L) Copyright: S.W. Provencher.          Ref.: Magn. Reson. Med. 30:672-679 (1993).                
 Slice#2 Row#3 Col#14  PD_05_press_1_raw_act
 36 lines in following concentration table = NCONC+1
    Conc.  %SD /Cr+PCr  Metabolite                                         
 9.07E+03  14%   0.000 Ala                                                 
    1.881 103%   0.000 Asp                                                 
    0.000 999%   0.000 Cr                                                  
    0.000 999%   0.000 PCr                                                 
    1.129 103%   0.000 GABA                                                
    1.129 103%   0.000 Glc                                                 
  533.874  63%   0.000 Gln                                                 
 1.63E+03  27%   0.000 Glu                                                 
    0.000 999%   0.000 GPC                                                 
   12.541 103%   0.000 PCh                                                 
    0.000 999%   0.000 GSH                                                 
  298.586  46%   0.000 Ins                                                 
 3.39E+03  32%   0.000 Lac                                                 
    0.000 999%   0.000 NAA                                                 
    0.000 999%   0.000 NAAG                                                
    0.376 103%   0.000 Scyllo                                              
    1.881 103%   0.000 Tau                                                 
    0.000 999%   0.000 -CrCH2                                              
   12.541 103%   0.000 GPC+PCh                                             
    0.000 999%   0.000 NAA+NAAG                                            
    0.000 999%   0.000 Cr+PCr                                              
 2.17E+03  28%   0.000 Glu+Gln                                             
 1.34E+04  14%   0.000 Lip13a                                              
    0.000 999%   0.000 Lip13b                                              
 2.07E+03  19%   0.000 Lip09                                               
 1.17E+03  25%   0.000 MM09                                                
    0.000 999%   0.000 Lip20                                               
    0.000 999%   0.000 MM20                                                
  570.405  72%   0.000 MM12                                                
 9.22E+03  14%   0.000+MM14                                                
 5.24E+03  17%   0.000+MM17                                                
 1.34E+04  14%   0.000 Lip13a+Lip13b                                       
 2.32E+04   8%   0.000 MM14+Lip13a+Lip13b+MM12                             
 3.25E+03  15%   0.000 MM09+Lip09                                          
    0.000 999%   0.000 MM20+Lip20                                          
   6 lines in following misc. output table
  FWHM = 0.153 ppm    S/N =  27                                            
  Data shift = 0.107 ppm                                                   
  Ph:-170 deg     -60.8 deg/ppm                                            
  alphaB,S = 8.5E+01,   2.0E+02                                            
    6 spline knots.   Ns = 9(2)                                            
  (14) 2 infls.   ( 3) 1 extrs.                                            
  498 points on ppm-axis = NY
      4.000000     3.992357     3.984714     3.977070     3.969427     3.961784     3.954141     3.946497     3.938854     3.931211
      3.923568     3.915925     3.908281     3.900638     3.892995     3.885352     3.877708     3.870065     3.862422     3.854779
      3.847136     3.839492     3.831849     3.824206     3.816563     3.808919     3.801276     3.793633     3.785990     3.778347
      3.770703     3.763060     3.755417     3.747774     3.740130     3.732487     3.724844     3.717201     3.709558     3.701914
      3.694271     3.686628     3.678985     3.671341     3.663698     3.656055     3.648412     3.640769     3.633125     3.625482
      3.617839     3.610196     3.602552     3.594909     3.587266     3.579623     3.571980     3.564336     3.556693     3.549050
      3.541407     3.533763     3.526120     3.518477     3.510834     3.503191     3.495547     3.487904     3.480261     3.472618
      3.464974     3.457331     3.449688     3.442045     3.434402     3.426758     3.419115     3.411472     3.403829     3.396185
      3.388542     3.380899     3.373256     3.365613     3.357969     3.350326     3.342683     3.335040     3.327396     3.319753
      3.312110     3.304467     3.296824     3.289180     3.281537     3.273894     3.266251     3.258607     3.250964     3.243321
      3.235678     3.228034     3.220391     3.212748     3.205105     3.197462     3.189818     3.182175     3.174532     3.166889
      3.159245     3.151602     3.143959     3.136316     3.128673     3.121029     3.113386     3.105743     3.098100     3.090456
      3.082813     3.075170     3.067527     3.059884     3.052240     3.044597     3.036954     3.029311     3.021667     3.014024
      3.006381     2.998738     2.991095     2.983451     2.975808     2.968165     2.960522     2.952878     2.945235     2.937592
      2.929949     2.922306     2.914662     2.907019     2.899376     2.891733     2.884089     2.876446     2.868803     2.861160
      2.853517     2.845873     2.838230     2.830587     2.822944     2.815300     2.807657     2.800014     2.792371     2.784728
      2.777084     2.769441     2.761798     2.754155     2.746511     2.738868     2.731225     2.723582     2.715939     2.708295
      2.700652     2.693009     2.685366     2.677722     2.670079     2.662436     2.654793     2.647150     2.639506     2.631863
      2.624220     2.616577     2.608933     2.601290     2.593647     2.586004     2.578361     2.570717     2.563074     2.555431
      2.547788     2.540144     2.532501     2.524858     2.517215     2.509572     2.501928     2.494285     2.486642     2.478999
      2.471355     2.463712     2.456069     2.448426     2.440783     2.433139     2.425496     2.417853     2.410210     2.402566
      2.394923     2.387280     2.379637     2.371994     2.364350     2.356707     2.349064     2.341421     2.333777     2.326134
      2.318491     2.310848     2.303205     2.295561     2.287918     2.280275     2.272632     2.264988     2.257345     2.249702
      2.242059     2.234416     2.226772     2.219129     2.211486     2.203843     2.196199     2.188556     2.180913     2.173270
      2.165627     2.157983     2.150340     2.142697     2.135054     2.127410     2.119767     2.112124     2.104481     2.096838
      2.089194     2.081551     2.073908     2.066265     2.058621     2.050978     2.043335     2.035692     2.028049     2.020405
      2.012762     2.005119     1.997476     1.989833     1.982190     1.974546     1.966903     1.959260     1.951617     1.943974
      1.936331     1.928688     1.921045     1.913402     1.905759     1.898115     1.890472     1.882829     1.875186     1.867543
      1.859900     1.852257     1.844614     1.836971     1.829327     1.821684     1.814041     1.806398     1.798755     1.791112
      1.783469     1.775826     1.768183     1.760540     1.752896     1.745253     1.737610     1.729967     1.722324     1.714681
      1.707038     1.699395     1.691752     1.684108     1.676465     1.668822     1.661179     1.653536     1.645893     1.638250
      1.630607     1.622964     1.615321     1.607677     1.600034     1.592391     1.584748     1.577105     1.569462     1.561819
      1.554176     1.546533     1.538890     1.531246     1.523603     1.515960     1.508317     1.500674     1.493031     1.485388
      1.477745     1.470102     1.462458     1.454815     1.447172     1.439529     1.431886     1.424243     1.416600     1.408957
      1.401314     1.393671     1.386027     1.378384     1.370741     1.363098     1.355455     1.347812     1.340169     1.332526
      1.324883     1.317240     1.309596     1.301953     1.294310     1.286667     1.279024     1.271381     1.263738     1.256095
      1.248452     1.240808     1.233165     1.225522     1.217879     1.210236     1.202593     1.194950     1.187307     1.179664
      1.172021     1.164377     1.156734     1.149091     1.141448     1.133805     1.126162     1.118519     1.110876     1.103233
      1.095590     1.087946     1.080303     1.072660     1.065017     1.057374     1.049731     1.042088     1.034445     1.026802
      1.019158     1.011515     1.003872     0.996229     0.988586     0.980943     0.973300     0.965657     0.958014     0.950371
      0.942727     0.935084     0.927441     0.919798     0.912155     0.904512     0.896869     0.889226     0.881583     0.873940
      0.866296     0.858653     0.851010     0.843367     0.835724     0.828081     0.820438     0.812795     0.805152     0.797508
      0.789865     0.782222     0.774579     0.766936     0.759293     0.751650     0.744007     0.736364     0.728721     0.721077
      0.713434     0.705791     0.698148     0.690505     0.682862     0.675219     0.667576     0.659933     0.652290     0.644646
      0.637003     0.629360     0.621717     0.614074     0.606431     0.598788     0.591145     0.583502     0.575858     0.568215
      0.560572     0.552929     0.545286     0.537643     0.530000     0.522357     0.514714     0.507071     0.499427     0.491784
      0.484141     0.476498     0.468855     0.461212     0.453569     0.445925     0.438282     0.430639     0.422996     0.415353
      0.407710     0.400067     0.392424     0.384780     0.377137     0.369494     0.361851     0.354208     0.346565     0.338922
      0.331278     0.323635     0.315992     0.308349     0.300706     0.293063     0.285420     0.277777     0.270133     0.262490
      0.254847     0.247204     0.239561     0.231918     0.224275     0.216631     0.208988     0.201345
 NY phased data points follow
   5.59698E+00  6.29824E+00  5.49338E+00  3.13230E+00  5.87854E+00  7.35268E+00  8.10220E+00  8.79930E+00  5.76163E+00  5.70816E+00
   8.50605E+00  7.02589E+00  7.42615E+00  3.83144E+00  5.41023E+00  6.64489E+00  4.98182E+00  7.74609E+00  7.68857E+00  4.58979E+00
   6.00587E+00  4.80912E+00  5.53096E+00  7.86488E+00  8.64945E+00  8.55856E+00  7.27963E+00  7.45541E+00  6.02310E+00  6.35277E+00
   7.34987E+00  8.05490E+00  9.27270E+00  4.69747E+00  7.53976E+00  8.89349E+00  8.13770E+00  6.11822E+00  6.42262E+00  7.12492E+00
   7.63434E+00  6.86009E+00  7.89312E+00  5.15987E+00  8.13523E+00  7.55173E+00  7.30725E+00  7.51394E+00  8.81697E+00  6.86825E+00
   8.57036E+00  7.90761E+00  1.04310E+01  9.78132E+00  7.95220E+00  5.86950E+00  8.25210E+00  1.04115E+01  9.01466E+00  8.48175E+00
   1.01471E+01  9.99657E+00  6.81836E+00  7.57909E+00  9.01989E+00  8.33270E+00  7.66377E+00  8.90549E+00  1.05245E+01  9.30934E+00
   9.42760E+00  1.00194E+01  9.64774E+00  1.27698E+01  1.09498E+01  1.16688E+01  9.06395E+00  1.16091E+01  1.03507E+01  9.93886E+00
   9.32635E+00  1.04662E+01  7.75725E+00  9.92303E+00  9.66729E+00  1.08999E+01  1.13714E+01  1.10504E+01  1.08831E+01  1.05044E+01
   8.76018E+00  1.05021E+01  1.04943E+01  8.36738E+00  1.04641E+01  9.67572E+00  9.90484E+00  8.60209E+00  8.92516E+00  1.09510E+01
   7.94297E+00  1.27113E+01  1.28348E+01  1.13055E+01  9.35619E+00  1.12629E+01  1.20485E+01  1.04820E+01  1.12491E+01  1.02582E+01
   1.09311E+01  1.08899E+01  1.13529E+01  1.12327E+01  1.22586E+01  1.22858E+01  1.09229E+01  1.17390E+01  1.07174E+01  1.23688E+01
   1.10186E+01  1.07600E+01  1.10755E+01  1.11863E+01  1.05617E+01  1.25665E+01  1.13157E+01  1.19949E+01  1.02267E+01  1.11557E+01
   1.15249E+01  1.25909E+01  1.13976E+01  1.18017E+01  1.20515E+01  1.24464E+01  1.22421E+01  1.12080E+01  1.19565E+01  9.82656E+00
   1.35749E+01  1.29292E+01  1.22939E+01  1.09159E+01  1.21309E+01  1.18729E+01  1.28106E+01  1.16540E+01  1.21852E+01  1.17862E+01
   1.24902E+01  1.27354E+01  1.41938E+01  1.04525E+01  1.20968E+01  1.11159E+01  1.22711E+01  1.24785E+01  1.26967E+01  1.37306E+01
   1.46670E+01  1.18230E+01  1.34370E+01  1.32694E+01  1.33627E+01  1.43964E+01  1.53275E+01  1.39325E+01  1.53683E+01  1.47937E+01
   1.56535E+01  1.50756E+01  1.44691E+01  1.39534E+01  1.58096E+01  1.45397E+01  1.52532E+01  1.45700E+01  1.27985E+01  1.56655E+01
   1.52793E+01  1.43240E+01  1.43513E+01  1.62363E+01  1.53721E+01  1.47351E+01  1.49401E+01  1.44246E+01  1.52945E+01  1.66698E+01
   1.69412E+01  1.36916E+01  1.54395E+01  1.54883E+01  1.60208E+01  1.52065E+01  1.68374E+01  1.72435E+01  1.67595E+01  1.77403E+01
   1.52469E+01  1.58192E+01  1.71083E+01  1.69473E+01  1.71789E+01  1.66006E+01  1.66826E+01  1.79129E+01  1.64762E+01  1.56052E+01
   1.66043E+01  1.27194E+01  1.70857E+01  1.71381E+01  1.64804E+01  1.77598E+01  1.69590E+01  1.48663E+01  1.81993E+01  1.71740E+01
   1.91817E+01  1.82322E+01  1.67267E+01  1.78356E+01  1.63903E+01  1.83034E+01  1.85570E+01  1.86098E+01  1.84487E+01  1.65930E+01
   1.92804E+01  1.94609E+01  1.84694E+01  1.97553E+01  1.73966E+01  1.97603E+01  2.01320E+01  1.94890E+01  1.89366E+01  2.18614E+01
   2.04024E+01  2.09413E+01  1.97354E+01  2.17778E+01  2.06063E+01  2.22916E+01  2.16162E+01  2.32284E+01  2.15236E+01  2.25258E+01
   2.03193E+01  2.00650E+01  2.16099E+01  2.23775E+01  2.09290E+01  2.19143E+01  2.14656E+01  2.20337E+01  2.20877E+01  2.40183E+01
   2.28471E+01  2.47265E+01  2.46692E+01  2.56010E+01  2.33240E+01  2.63931E+01  2.62738E+01  2.78033E+01  2.79540E+01  2.57170E+01
   3.02022E+01  2.89946E+01  3.06225E+01  3.09517E+01  3.07400E+01  3.00978E+01  3.03751E+01  3.27420E+01  3.27855E+01  3.16517E+01
   3.34438E+01  3.42002E+01  3.47089E+01  3.64335E+01  3.79971E+01  3.62230E+01  3.76331E+01  3.82670E+01  4.13531E+01  4.14561E+01
   4.36554E+01  4.57517E+01  4.44511E+01  4.71649E+01  5.03234E+01  4.90254E+01  5.03463E+01  5.30563E+01  5.26252E+01  5.43780E+01
   5.55429E+01  6.13130E+01  6.46161E+01  6.47624E+01  6.53069E+01  6.94595E+01  7.16735E+01  7.39355E+01  7.66976E+01  7.88989E+01
   8.14476E+01  8.11431E+01  8.53599E+01  8.93118E+01  9.07946E+01  9.30420E+01  9.43198E+01  9.79462E+01  1.01286E+02  1.00262E+02
   1.00158E+02  1.00650E+02  1.01005E+02  1.02835E+02  1.01886E+02  1.01917E+02  1.05633E+02  1.02367E+02  1.02926E+02  1.03477E+02
   1.04910E+02  9.96832E+01  1.00949E+02  1.01688E+02  1.00373E+02  1.01213E+02  1.00476E+02  9.85648E+01  9.99687E+01  9.73569E+01
   9.76214E+01  9.48161E+01  9.23352E+01  9.34865E+01  9.25792E+01  9.18600E+01  9.16984E+01  9.03910E+01  8.81046E+01  8.66080E+01
   8.28010E+01  8.12667E+01  7.76597E+01  7.60465E+01  7.34596E+01  7.38994E+01  6.97887E+01  6.71446E+01  6.36435E+01  6.53017E+01
   6.29566E+01  6.27309E+01  6.22393E+01  6.08369E+01  5.85970E+01  5.85278E+01  5.77372E+01  5.63715E+01  5.48951E+01  5.39925E+01
   5.17720E+01  5.15941E+01  5.08793E+01  4.96960E+01  4.85991E+01  4.68643E+01  4.50125E+01  4.45966E+01  4.42092E+01  4.09523E+01
   4.38967E+01  4.05534E+01  4.03466E+01  3.89048E+01  3.75360E+01  3.93136E+01  3.41191E+01  3.59177E+01  3.50901E+01  3.48331E+01
   3.41107E+01  3.47231E+01  3.50943E+01  3.25326E+01  3.13533E+01  3.42074E+01  3.04319E+01  2.94894E+01  3.01074E+01  2.64961E+01
   2.96076E+01  2.78873E+01  2.71983E+01  2.68450E+01  2.65995E+01  2.35760E+01  2.57435E+01  2.51467E+01  2.33443E+01  2.39966E+01
   2.38848E+01  2.19809E+01  2.30989E+01  2.23390E+01  2.24199E+01  2.19413E+01  2.15279E+01  2.29815E+01  2.35808E+01  2.16895E+01
   2.05587E+01  2.10005E+01  1.97274E+01  1.92262E+01  1.89545E+01  1.97374E+01  1.85702E+01  1.69447E+01  1.85416E+01  1.79443E+01
   1.79178E+01  1.60842E+01  1.67131E+01  1.56292E+01  1.59742E+01  1.70007E+01  1.73842E+01  1.41235E+01  1.82698E+01  1.47359E+01
   1.56676E+01  1.80369E+01  1.54447E+01  1.51575E+01  1.45781E+01  1.37585E+01  1.52863E+01  1.64403E+01  1.42347E+01  1.45508E+01
   1.59141E+01  1.38702E+01  1.45398E+01  1.46018E+01  1.54251E+01  1.29710E+01  1.29895E+01  1.54849E+01  1.42672E+01  1.31720E+01
   1.27333E+01  1.32910E+01  1.36678E+01  1.24873E+01  1.11325E+01  1.35771E+01  1.25617E+01  1.26594E+01  1.10631E+01  1.31498E+01
   1.11811E+01  1.31487E+01  1.18139E+01  1.27857E+01  1.30150E+01  1.18160E+01  1.25658E+01  1.33884E+01  1.19878E+01  1.26779E+01
   1.05482E+01  1.01647E+01  1.16361E+01  1.23187E+01  1.19196E+01  8.99199E+00  1.22296E+01  1.22837E+01  9.81352E+00  1.28274E+01
   1.24066E+01  9.06089E+00  1.19759E+01  1.31636E+01  1.27599E+01  9.89922E+00  1.18035E+01  1.05296E+01
 NY points of the fit to the data follow
   5.41978E+00  5.44385E+00  5.52622E+00  5.55098E+00  5.55677E+00  5.70629E+00  5.73453E+00  6.12799E+00  6.17466E+00  6.12975E+00
   6.10878E+00  6.09909E+00  6.14347E+00  6.19808E+00  6.28562E+00  6.37538E+00  6.93007E+00  6.71299E+00  7.08502E+00  6.48276E+00
   6.92116E+00  6.22439E+00  7.05145E+00  6.18586E+00  7.43803E+00  6.36795E+00  7.71579E+00  6.18423E+00  7.58429E+00  5.77983E+00
   7.42813E+00  5.55005E+00  7.55973E+00  5.79385E+00  7.99005E+00  6.11703E+00  8.17126E+00  6.24947E+00  8.20481E+00  6.37810E+00
   8.10738E+00  6.53089E+00  8.30924E+00  7.07532E+00  8.64374E+00  7.58043E+00  8.87560E+00  8.29541E+00  9.32733E+00  8.72176E+00
   9.37796E+00  8.85222E+00  9.24493E+00  8.75901E+00  8.77348E+00  8.47746E+00  8.67126E+00  8.59372E+00  8.81591E+00  8.81835E+00
   9.01031E+00  9.10273E+00  9.25301E+00  9.25449E+00  9.36217E+00  9.34745E+00  9.44629E+00  9.42801E+00  9.52190E+00  9.50850E+00
   9.61812E+00  9.61466E+00  9.71496E+00  9.70641E+00  9.78882E+00  9.77238E+00  9.83999E+00  9.81640E+00  9.87141E+00  9.84623E+00
   9.88326E+00  9.85682E+00  9.88774E+00  9.86791E+00  9.89388E+00  9.88910E+00  9.92394E+00  9.90919E+00  9.93099E+00  9.92308E+00
   9.95527E+00  9.96140E+00  1.00154E+01  1.00316E+01  1.01150E+01  1.01321E+01  1.02284E+01  1.02406E+01  1.03474E+01  1.03588E+01
   1.04806E+01  1.04926E+01  1.06305E+01  1.06347E+01  1.07775E+01  1.07682E+01  1.09024E+01  1.08836E+01  1.10090E+01  1.09822E+01
   1.10936E+01  1.10645E+01  1.11673E+01  1.11375E+01  1.12250E+01  1.11992E+01  1.12706E+01  1.12558E+01  1.13161E+01  1.13185E+01
   1.13686E+01  1.13837E+01  1.14261E+01  1.14485E+01  1.14826E+01  1.15246E+01  1.15685E+01  1.16148E+01  1.16615E+01  1.17096E+01
   1.17579E+01  1.18071E+01  1.18567E+01  1.19068E+01  1.19576E+01  1.20086E+01  1.20603E+01  1.21121E+01  1.21644E+01  1.22168E+01
   1.22694E+01  1.23221E+01  1.23748E+01  1.24278E+01  1.24808E+01  1.25342E+01  1.25873E+01  1.26411E+01  1.26944E+01  1.27486E+01
   1.28022E+01  1.28569E+01  1.29109E+01  1.29659E+01  1.30203E+01  1.30760E+01  1.31308E+01  1.31873E+01  1.32427E+01  1.32996E+01
   1.33555E+01  1.34129E+01  1.34695E+01  1.35276E+01  1.35853E+01  1.36443E+01  1.37030E+01  1.37628E+01  1.38220E+01  1.38826E+01
   1.39442E+01  1.40055E+01  1.40689E+01  1.41319E+01  1.41981E+01  1.42605E+01  1.43192E+01  1.43831E+01  1.44306E+01  1.44911E+01
   1.45373E+01  1.46013E+01  1.46359E+01  1.47225E+01  1.47613E+01  1.48602E+01  1.48856E+01  1.50296E+01  1.50698E+01  1.52090E+01
   1.52516E+01  1.53961E+01  1.53451E+01  1.55476E+01  1.55294E+01  1.57457E+01  1.57137E+01  1.59817E+01  1.60431E+01  1.62325E+01
   1.62155E+01  1.64313E+01  1.65168E+01  1.66779E+01  1.67884E+01  1.68381E+01  1.71637E+01  1.70894E+01  1.73637E+01  1.71263E+01
   1.74099E+01  1.70674E+01  1.74370E+01  1.70414E+01  1.75545E+01  1.71277E+01  1.76784E+01  1.71823E+01  1.76176E+01  1.71575E+01
   1.75688E+01  1.72066E+01  1.76219E+01  1.74546E+01  1.78784E+01  1.77922E+01  1.81397E+01  1.82240E+01  1.84271E+01  1.85917E+01
   1.87256E+01  1.89268E+01  1.89771E+01  1.92495E+01  1.93362E+01  1.96667E+01  1.97531E+01  2.01103E+01  2.02752E+01  2.04952E+01
   2.06174E+01  2.07367E+01  2.09231E+01  2.09606E+01  2.10578E+01  2.10533E+01  2.12179E+01  2.12397E+01  2.14184E+01  2.15326E+01
   2.17406E+01  2.19271E+01  2.21670E+01  2.24103E+01  2.26331E+01  2.29471E+01  2.31545E+01  2.35098E+01  2.36703E+01  2.40866E+01
   2.42615E+01  2.47312E+01  2.49203E+01  2.54229E+01  2.56011E+01  2.60674E+01  2.62724E+01  2.67346E+01  2.69770E+01  2.74427E+01
   2.77567E+01  2.82228E+01  2.85853E+01  2.90468E+01  2.94720E+01  2.99788E+01  3.04773E+01  3.10455E+01  3.16266E+01  3.22553E+01
   3.29012E+01  3.36187E+01  3.43815E+01  3.52142E+01  3.60941E+01  3.70552E+01  3.80688E+01  3.91423E+01  4.02883E+01  4.14966E+01
   4.27767E+01  4.41182E+01  4.55271E+01  4.69871E+01  4.85063E+01  5.00783E+01  5.16978E+01  5.33574E+01  5.50518E+01  5.67783E+01
   5.85344E+01  6.03222E+01  6.21442E+01  6.40189E+01  6.59633E+01  6.80185E+01  7.02433E+01  7.27626E+01  7.58249E+01  7.93477E+01
   8.12281E+01  8.35288E+01  8.57307E+01  8.87471E+01  9.06762E+01  9.34432E+01  9.43448E+01  9.80073E+01  9.89605E+01  1.00733E+02
   1.00155E+02  1.01356E+02  1.00710E+02  1.02142E+02  1.01933E+02  1.03524E+02  1.03506E+02  1.03909E+02  1.03812E+02  1.03335E+02
   1.02739E+02  1.01062E+02  1.01349E+02  1.00207E+02  1.01481E+02  1.00094E+02  1.01108E+02  9.93420E+01  9.98804E+01  9.67218E+01
   9.69397E+01  9.40477E+01  9.43106E+01  9.26962E+01  9.29757E+01  9.18637E+01  9.10053E+01  8.93749E+01  8.78386E+01  8.66199E+01
   8.34599E+01  8.19762E+01  7.82110E+01  7.73439E+01  7.34868E+01  7.25770E+01  6.82664E+01  6.82685E+01  6.51222E+01  6.52938E+01
   6.27876E+01  6.29763E+01  6.09386E+01  6.12545E+01  5.94887E+01  5.93376E+01  5.75964E+01  5.67983E+01  5.54338E+01  5.46386E+01
   5.29794E+01  5.16597E+01  5.00606E+01  4.85995E+01  4.71347E+01  4.53835E+01  4.41706E+01  4.32142E+01  4.23942E+01  4.16660E+01
   4.10041E+01  4.03900E+01  3.98088E+01  3.92473E+01  3.86939E+01  3.81385E+01  3.75727E+01  3.69898E+01  3.63855E+01  3.57574E+01
   3.51056E+01  3.44319E+01  3.37401E+01  3.30355E+01  3.23244E+01  3.16138E+01  3.09110E+01  3.02229E+01  2.95557E+01  2.89150E+01
   2.83048E+01  2.77280E+01  2.71862E+01  2.66796E+01  2.62071E+01  2.57667E+01  2.53554E+01  2.49698E+01  2.46060E+01  2.42599E+01
   2.39275E+01  2.36049E+01  2.32886E+01  2.29757E+01  2.26635E+01  2.23500E+01  2.20338E+01  2.17139E+01  2.13900E+01  2.10620E+01
   2.07305E+01  2.03961E+01  2.00598E+01  1.97230E+01  1.93869E+01  1.90530E+01  1.87227E+01  1.83973E+01  1.80782E+01  1.77667E+01
   1.74637E+01  1.71702E+01  1.68870E+01  1.66147E+01  1.63538E+01  1.61045E+01  1.58671E+01  1.56416E+01  1.54279E+01  1.52257E+01
   1.50350E+01  1.48553E+01  1.46863E+01  1.45274E+01  1.43784E+01  1.42386E+01  1.41076E+01  1.39850E+01  1.38702E+01  1.37627E+01
   1.36621E+01  1.35679E+01  1.34798E+01  1.33973E+01  1.33200E+01  1.32476E+01  1.31797E+01  1.31161E+01  1.30563E+01  1.30002E+01
   1.29475E+01  1.28979E+01  1.28512E+01  1.28073E+01  1.27659E+01  1.27268E+01  1.26900E+01  1.26552E+01  1.26223E+01  1.25912E+01
   1.25619E+01  1.25341E+01  1.25077E+01  1.24828E+01  1.24593E+01  1.24370E+01  1.24159E+01  1.23960E+01  1.23772E+01  1.23595E+01
   1.23428E+01  1.23272E+01  1.23126E+01  1.22990E+01  1.22864E+01  1.22748E+01  1.22643E+01  1.22549E+01  1.22466E+01  1.22396E+01
   1.22338E+01  1.22294E+01  1.22265E+01  1.22253E+01  1.22259E+01  1.22288E+01  1.22341E+01  1.22424E+01
 NY background values follow
     1.092E+01    1.096E+01    1.101E+01    1.106E+01    1.110E+01    1.115E+01    1.120E+01    1.124E+01    1.129E+01    1.134E+01
     1.138E+01    1.143E+01    1.148E+01    1.152E+01    1.157E+01    1.162E+01    1.166E+01    1.171E+01    1.176E+01    1.180E+01
     1.185E+01    1.189E+01    1.194E+01    1.199E+01    1.203E+01    1.208E+01    1.212E+01    1.217E+01    1.222E+01    1.226E+01
     1.231E+01    1.235E+01    1.240E+01    1.245E+01    1.249E+01    1.254E+01    1.258E+01    1.263E+01    1.267E+01    1.272E+01
     1.276E+01    1.281E+01    1.285E+01    1.290E+01    1.294E+01    1.299E+01    1.303E+01    1.308E+01    1.312E+01    1.317E+01
     1.321E+01    1.326E+01    1.330E+01    1.335E+01    1.339E+01    1.344E+01    1.348E+01    1.352E+01    1.357E+01    1.361E+01
     1.366E+01    1.370E+01    1.375E+01    1.379E+01    1.383E+01    1.388E+01    1.392E+01    1.396E+01    1.401E+01    1.405E+01
     1.409E+01    1.414E+01    1.418E+01    1.422E+01    1.427E+01    1.431E+01    1.435E+01    1.440E+01    1.444E+01    1.448E+01
     1.452E+01    1.457E+01    1.461E+01    1.465E+01    1.469E+01    1.474E+01    1.478E+01    1.482E+01    1.486E+01    1.490E+01
     1.495E+01    1.499E+01    1.503E+01    1.507E+01    1.511E+01    1.515E+01    1.520E+01    1.524E+01    1.528E+01    1.532E+01
     1.536E+01    1.540E+01    1.544E+01    1.548E+01    1.552E+01    1.556E+01    1.560E+01    1.564E+01    1.568E+01    1.572E+01
     1.576E+01    1.580E+01    1.584E+01    1.588E+01    1.592E+01    1.596E+01    1.600E+01    1.604E+01    1.608E+01    1.612E+01
     1.616E+01    1.620E+01    1.624E+01    1.628E+01    1.631E+01    1.635E+01    1.639E+01    1.643E+01    1.647E+01    1.651E+01
     1.654E+01    1.658E+01    1.662E+01    1.666E+01    1.669E+01    1.673E+01    1.677E+01    1.681E+01    1.684E+01    1.688E+01
     1.692E+01    1.695E+01    1.699E+01    1.703E+01    1.706E+01    1.710E+01    1.714E+01    1.717E+01    1.721E+01    1.724E+01
     1.728E+01    1.732E+01    1.735E+01    1.739E+01    1.742E+01    1.746E+01    1.749E+01    1.753E+01    1.756E+01    1.760E+01
     1.763E+01    1.766E+01    1.770E+01    1.773E+01    1.777E+01    1.780E+01    1.783E+01    1.787E+01    1.790E+01    1.794E+01
     1.797E+01    1.800E+01    1.803E+01    1.807E+01    1.810E+01    1.813E+01    1.817E+01    1.820E+01    1.823E+01    1.826E+01
     1.829E+01    1.833E+01    1.836E+01    1.839E+01    1.842E+01    1.845E+01    1.848E+01    1.851E+01    1.854E+01    1.857E+01
     1.860E+01    1.863E+01    1.867E+01    1.870E+01    1.873E+01    1.875E+01    1.878E+01    1.881E+01    1.884E+01    1.887E+01
     1.890E+01    1.893E+01    1.896E+01    1.899E+01    1.902E+01    1.904E+01    1.907E+01    1.910E+01    1.913E+01    1.916E+01
     1.918E+01    1.921E+01    1.924E+01    1.926E+01    1.929E+01    1.932E+01    1.934E+01    1.937E+01    1.940E+01    1.942E+01
     1.945E+01    1.947E+01    1.950E+01    1.953E+01    1.955E+01    1.958E+01    1.960E+01    1.963E+01    1.965E+01    1.967E+01
     1.970E+01    1.972E+01    1.975E+01    1.977E+01    1.979E+01    1.982E+01    1.984E+01    1.986E+01    1.989E+01    1.991E+01
     1.993E+01    1.995E+01    1.998E+01    2.000E+01    2.002E+01    2.004E+01    2.006E+01    2.008E+01    2.011E+01    2.013E+01
     2.015E+01    2.017E+01    2.019E+01    2.021E+01    2.023E+01    2.025E+01    2.027E+01    2.029E+01    2.031E+01    2.033E+01
     2.034E+01    2.036E+01    2.038E+01    2.040E+01    2.042E+01    2.044E+01    2.045E+01    2.047E+01    2.049E+01    2.051E+01
     2.052E+01    2.054E+01    2.056E+01    2.057E+01    2.059E+01    2.060E+01    2.062E+01    2.064E+01    2.065E+01    2.067E+01
     2.068E+01    2.070E+01    2.071E+01    2.073E+01    2.074E+01    2.075E+01    2.077E+01    2.078E+01    2.080E+01    2.081E+01
     2.082E+01    2.083E+01    2.085E+01    2.086E+01    2.087E+01    2.088E+01    2.090E+01    2.091E+01    2.092E+01    2.093E+01
     2.094E+01    2.095E+01    2.096E+01    2.097E+01    2.098E+01    2.099E+01    2.100E+01    2.101E+01    2.102E+01    2.103E+01
     2.104E+01    2.105E+01    2.106E+01    2.106E+01    2.107E+01    2.108E+01    2.109E+01    2.110E+01    2.110E+01    2.111E+01
     2.112E+01    2.112E+01    2.113E+01    2.114E+01    2.114E+01    2.115E+01    2.115E+01    2.116E+01    2.116E+01    2.117E+01
     2.117E+01    2.118E+01    2.118E+01    2.118E+01    2.119E+01    2.119E+01    2.119E+01    2.120E+01    2.120E+01    2.120E+01
     2.121E+01    2.121E+01    2.121E+01    2.121E+01    2.121E+01    2.121E+01    2.121E+01    2.122E+01    2.122E+01    2.122E+01
     2.122E+01    2.122E+01    2.122E+01    2.121E+01    2.121E+01    2.121E+01    2.121E+01    2.121E+01    2.121E+01    2.121E+01
     2.120E+01    2.120E+01    2.120E+01    2.120E+01    2.119E+01    2.119E+01    2.119E+01    2.118E+01    2.118E+01    2.117E+01
     2.117E+01    2.116E+01    2.116E+01    2.115E+01    2.115E+01    2.114E+01    2.114E+01    2.113E+01    2.113E+01    2.112E+01
     2.111E+01    2.110E+01    2.110E+01    2.109E+01    2.108E+01    2.107E+01    2.107E+01    2.106E+01    2.105E+01    2.104E+01
     2.103E+01    2.102E+01    2.101E+01    2.100E+01    2.099E+01    2.098E+01    2.097E+01    2.096E+01    2.095E+01    2.094E+01
     2.093E+01    2.091E+01    2.090E+01    2.089E+01    2.088E+01    2.086E+01    2.085E+01    2.084E+01    2.083E+01    2.081E+01
     2.080E+01    2.078E+01    2.077E+01    2.075E+01    2.074E+01    2.072E+01    2.071E+01    2.069E+01    2.068E+01    2.066E+01
     2.065E+01    2.063E+01    2.061E+01    2.060E+01    2.058E+01    2.056E+01    2.054E+01    2.052E+01    2.051E+01    2.049E+01
     2.047E+01    2.045E+01    2.043E+01    2.041E+01    2.039E+01    2.037E+01    2.035E+01    2.033E+01    2.031E+01    2.029E+01
     2.027E+01    2.025E+01    2.023E+01    2.020E+01    2.018E+01    2.016E+01    2.014E+01    2.012E+01    2.009E+01    2.007E+01
     2.005E+01    2.002E+01    2.000E+01    1.997E+01    1.995E+01    1.992E+01    1.990E+01    1.987E+01    1.985E+01    1.982E+01
     1.980E+01    1.977E+01    1.975E+01    1.972E+01    1.969E+01    1.967E+01    1.964E+01    1.961E+01    1.958E+01    1.955E+01
     1.953E+01    1.950E+01    1.947E+01    1.944E+01    1.941E+01    1.938E+01    1.935E+01    1.932E+01    1.929E+01    1.926E+01
     1.923E+01    1.920E+01    1.917E+01    1.914E+01    1.911E+01    1.907E+01    1.904E+01    1.901E+01    1.898E+01    1.895E+01
     1.891E+01    1.888E+01    1.885E+01    1.881E+01    1.878E+01    1.874E+01    1.871E+01    1.867E+01
 Ala      Conc. = 9.07E+03
