 LCModel (Version 6.3-1L) Copyright: S.W. Provencher.          Ref.: Magn. Reson. Med. 30:672-679 (1993).                
 Slice#3 Row#5 Col#4  PD_05_press_1_raw_act
 36 lines in following concentration table = NCONC+1
    Conc.  %SD /Cr+PCr  Metabolite                                         
   27.946 279% 2.4E-02 Ala                                                 
    0.000 999%   0.000 Asp                                                 
  800.394  20%   0.686 Cr                                                  
  366.918  44%   0.314 PCr                                                 
   35.677 310% 3.1E-02 GABA                                                
    0.000 999%   0.000 Glc                                                 
  403.069  42%   0.345 Gln                                                 
 1.02E+03  20%   0.873 Glu                                                 
  318.000   4%   0.272 GPC                                                 
    0.000 999%   0.000 PCh                                                 
  380.030  13%   0.326 GSH                                                 
  343.331  47%   0.294 Ins                                                 
   10.169 840% 8.7E-03 Lac                                                 
 1.65E+03   6%   1.412 NAA                                                 
  174.749  57%   0.150 NAAG                                                
    0.000 999%   0.000 Scyllo                                              
    0.000 999%   0.000 Tau                                                 
    0.000 999%   0.000 -CrCH2                                              
  318.000   4%   0.272 GPC+PCh                                             
 1.82E+03   3%   1.562 NAA+NAAG                                            
 1.17E+03   3%   1.000 Cr+PCr                                              
 1.42E+03  21%   1.218 Glu+Gln                                             
    0.000 999%   0.000 Lip13a                                              
    0.000 999%   0.000 Lip13b                                              
    0.000 999%   0.000 Lip09                                               
  873.484  14%   0.748 MM09                                                
   10.645 421% 9.1E-03 Lip20                                               
 2.14E+03  10%   1.830 MM20                                                
  332.100  21%   0.284 MM12                                                
    0.000 999%   0.000 MM14                                                
  584.693  22%   0.501 MM17                                                
    0.000 999%   0.000 Lip13a+Lip13b                                       
  332.100  21%   0.284 MM14+Lip13a+Lip13b+MM12                             
  873.484  14%   0.748 MM09+Lip09                                          
 2.15E+03  10%   1.839 MM20+Lip20                                          
   6 lines in following misc. output table
  FWHM = 0.061 ppm    S/N =  14                                            
  Data shift = 0.000 ppm                                                   
  Ph:  12 deg       1.3 deg/ppm                                            
  alphaB,S = 6.2E-01,   1.0E+02                                            
   14 spline knots.   Ns = 8(1)                                            
  (16) 5 infls.   (15) 1 extrs.                                            
  498 points on ppm-axis = NY
      4.000000     3.992357     3.984714     3.977070     3.969427     3.961784     3.954141     3.946497     3.938854     3.931211
      3.923568     3.915925     3.908281     3.900638     3.892995     3.885352     3.877708     3.870065     3.862422     3.854779
      3.847136     3.839492     3.831849     3.824206     3.816563     3.808919     3.801276     3.793633     3.785990     3.778347
      3.770703     3.763060     3.755417     3.747774     3.740130     3.732487     3.724844     3.717201     3.709558     3.701914
      3.694271     3.686628     3.678985     3.671341     3.663698     3.656055     3.648412     3.640769     3.633125     3.625482
      3.617839     3.610196     3.602552     3.594909     3.587266     3.579623     3.571980     3.564336     3.556693     3.549050
      3.541407     3.533763     3.526120     3.518477     3.510834     3.503191     3.495547     3.487904     3.480261     3.472618
      3.464974     3.457331     3.449688     3.442045     3.434402     3.426758     3.419115     3.411472     3.403829     3.396185
      3.388542     3.380899     3.373256     3.365613     3.357969     3.350326     3.342683     3.335040     3.327396     3.319753
      3.312110     3.304467     3.296824     3.289180     3.281537     3.273894     3.266251     3.258607     3.250964     3.243321
      3.235678     3.228034     3.220391     3.212748     3.205105     3.197462     3.189818     3.182175     3.174532     3.166889
      3.159245     3.151602     3.143959     3.136316     3.128673     3.121029     3.113386     3.105743     3.098100     3.090456
      3.082813     3.075170     3.067527     3.059884     3.052240     3.044597     3.036954     3.029311     3.021667     3.014024
      3.006381     2.998738     2.991095     2.983451     2.975808     2.968165     2.960522     2.952878     2.945235     2.937592
      2.929949     2.922306     2.914662     2.907019     2.899376     2.891733     2.884089     2.876446     2.868803     2.861160
      2.853517     2.845873     2.838230     2.830587     2.822944     2.815300     2.807657     2.800014     2.792371     2.784728
      2.777084     2.769441     2.761798     2.754155     2.746511     2.738868     2.731225     2.723582     2.715939     2.708295
      2.700652     2.693009     2.685366     2.677722     2.670079     2.662436     2.654793     2.647150     2.639506     2.631863
      2.624220     2.616577     2.608933     2.601290     2.593647     2.586004     2.578361     2.570717     2.563074     2.555431
      2.547788     2.540144     2.532501     2.524858     2.517215     2.509572     2.501928     2.494285     2.486642     2.478999
      2.471355     2.463712     2.456069     2.448426     2.440783     2.433139     2.425496     2.417853     2.410210     2.402566
      2.394923     2.387280     2.379637     2.371994     2.364350     2.356707     2.349064     2.341421     2.333777     2.326134
      2.318491     2.310848     2.303205     2.295561     2.287918     2.280275     2.272632     2.264988     2.257345     2.249702
      2.242059     2.234416     2.226772     2.219129     2.211486     2.203843     2.196199     2.188556     2.180913     2.173270
      2.165627     2.157983     2.150340     2.142697     2.135054     2.127410     2.119767     2.112124     2.104481     2.096838
      2.089194     2.081551     2.073908     2.066265     2.058621     2.050978     2.043335     2.035692     2.028049     2.020405
      2.012762     2.005119     1.997476     1.989833     1.982190     1.974546     1.966903     1.959260     1.951617     1.943974
      1.936331     1.928688     1.921045     1.913402     1.905759     1.898115     1.890472     1.882829     1.875186     1.867543
      1.859900     1.852257     1.844614     1.836971     1.829327     1.821684     1.814041     1.806398     1.798755     1.791112
      1.783469     1.775826     1.768183     1.760540     1.752896     1.745253     1.737610     1.729967     1.722324     1.714681
      1.707038     1.699395     1.691752     1.684108     1.676465     1.668822     1.661179     1.653536     1.645893     1.638250
      1.630607     1.622964     1.615321     1.607677     1.600034     1.592391     1.584748     1.577105     1.569462     1.561819
      1.554176     1.546533     1.538890     1.531246     1.523603     1.515960     1.508317     1.500674     1.493031     1.485388
      1.477745     1.470102     1.462458     1.454815     1.447172     1.439529     1.431886     1.424243     1.416600     1.408957
      1.401314     1.393671     1.386027     1.378384     1.370741     1.363098     1.355455     1.347812     1.340169     1.332526
      1.324883     1.317240     1.309596     1.301953     1.294310     1.286667     1.279024     1.271381     1.263738     1.256095
      1.248452     1.240808     1.233165     1.225522     1.217879     1.210236     1.202593     1.194950     1.187307     1.179664
      1.172021     1.164377     1.156734     1.149091     1.141448     1.133805     1.126162     1.118519     1.110876     1.103233
      1.095590     1.087946     1.080303     1.072660     1.065017     1.057374     1.049731     1.042088     1.034445     1.026802
      1.019158     1.011515     1.003872     0.996229     0.988586     0.980943     0.973300     0.965657     0.958014     0.950371
      0.942727     0.935084     0.927441     0.919798     0.912155     0.904512     0.896869     0.889226     0.881583     0.873940
      0.866296     0.858653     0.851010     0.843367     0.835724     0.828081     0.820438     0.812795     0.805152     0.797508
      0.789865     0.782222     0.774579     0.766936     0.759293     0.751650     0.744007     0.736364     0.728721     0.721077
      0.713434     0.705791     0.698148     0.690505     0.682862     0.675219     0.667576     0.659933     0.652290     0.644646
      0.637003     0.629360     0.621717     0.614074     0.606431     0.598788     0.591145     0.583502     0.575858     0.568215
      0.560572     0.552929     0.545286     0.537643     0.530000     0.522357     0.514714     0.507071     0.499427     0.491784
      0.484141     0.476498     0.468855     0.461212     0.453569     0.445925     0.438282     0.430639     0.422996     0.415353
      0.407710     0.400067     0.392424     0.384780     0.377137     0.369494     0.361851     0.354208     0.346565     0.338922
      0.331278     0.323635     0.315992     0.308349     0.300706     0.293063     0.285420     0.277777     0.270133     0.262490
      0.254847     0.247204     0.239561     0.231918     0.224275     0.216631     0.208988     0.201345
 NY phased data points follow
   1.89607E+01  1.90114E+01  2.05536E+01  2.12224E+01  2.48282E+01  2.76300E+01  3.07410E+01  3.20083E+01  3.61843E+01  3.89926E+01
   4.20653E+01  4.06005E+01  4.08509E+01  3.91291E+01  3.60402E+01  3.17454E+01  2.96847E+01  2.44995E+01  2.54630E+01  2.32957E+01
   2.34660E+01  2.11198E+01  2.05529E+01  2.07976E+01  2.11482E+01  2.05153E+01  2.20797E+01  2.37514E+01  2.28501E+01  2.20313E+01
   2.28860E+01  2.41561E+01  2.12256E+01  2.26311E+01  2.10821E+01  1.83107E+01  1.81951E+01  1.92175E+01  1.49053E+01  1.72697E+01
   1.78041E+01  1.61975E+01  1.79057E+01  1.92418E+01  1.67740E+01  1.94023E+01  1.90946E+01  2.10411E+01  2.02879E+01  1.94667E+01
   1.77999E+01  1.85481E+01  1.67468E+01  1.32109E+01  1.31462E+01  1.70989E+01  1.31377E+01  1.32959E+01  1.30045E+01  1.47117E+01
   1.27309E+01  1.21314E+01  9.58513E+00  8.48586E+00  7.08234E+00  6.46385E+00  5.05698E+00  6.37384E+00  7.68580E+00  3.90318E+00
   6.76943E+00  5.00860E+00  6.16636E+00  8.66702E+00  7.29918E+00  8.29149E+00  6.18534E+00  8.65378E+00  7.79981E+00  5.71676E+00
   7.04821E+00  8.25479E+00  3.98032E+00  8.26275E+00  8.20492E+00  7.34772E+00  2.97281E+00  4.95902E+00  7.16314E+00  7.31270E+00
   6.42648E+00  9.20640E+00  1.00235E+01  1.14795E+01  7.58880E+00  9.60226E+00  9.00550E+00  1.13516E+01  1.49390E+01  1.82621E+01
   2.09652E+01  2.44263E+01  2.77912E+01  3.32939E+01  3.16403E+01  2.88946E+01  2.54849E+01  1.96550E+01  1.80002E+01  1.51505E+01
   1.08410E+01  1.31286E+01  1.03688E+01  7.06654E+00  1.06167E+01  9.24916E+00  7.42231E+00  7.93783E+00  1.07543E+01  1.10402E+01
   1.17604E+01  1.38171E+01  1.87412E+01  2.03562E+01  2.57164E+01  2.89888E+01  3.33716E+01  3.74588E+01  3.76030E+01  3.78139E+01
   3.28495E+01  2.72136E+01  2.16239E+01  1.47949E+01  1.33896E+01  1.19404E+01  9.07336E+00  7.41080E+00  7.83060E+00  6.78188E+00
   6.24379E+00  5.98635E+00  4.33138E+00  6.16981E+00  3.74906E+00  5.61283E+00  6.31357E+00  3.76490E+00  3.47742E+00  3.49607E+00
   6.66709E+00  2.35192E+00  4.00591E+00  2.84773E+00  3.03380E+00  2.47646E+00  1.84334E+00  8.83185E-01  6.49038E-01  2.58279E+00
   2.27151E+00  7.83782E-02  2.14354E+00 -8.03771E-01  1.95218E-01 -7.35107E-01 -1.98713E-01 -1.23696E-01  1.74525E+00  3.91331E-01
  -7.92665E-01 -1.42328E+00 -3.51262E+00 -2.67758E+00 -4.43801E+00 -4.34784E+00 -4.07794E+00 -3.56433E+00 -4.91011E+00 -6.90534E+00
  -2.96089E+00 -1.73563E+00 -4.60133E+00 -3.48516E+00 -6.61661E+00 -3.98022E+00 -1.24007E+00 -1.54414E+00 -1.96819E+00  6.72319E-01
   5.66550E+00  3.54351E+00  6.00313E+00  5.75621E+00  5.09468E+00  6.31956E+00  5.64342E+00  3.67868E+00  4.62808E-01  1.60795E+00
   4.21488E+00  4.80292E+00  3.45232E+00  5.46883E+00  3.26557E+00  3.79876E+00  3.48014E+00  2.19635E+00  3.50519E+00  1.78244E+00
   3.22119E+00  1.75508E+00  3.34710E+00  5.60719E+00  7.92831E+00  8.15482E+00  7.58878E+00  7.29274E+00  8.02288E+00  3.98984E+00
   4.64145E+00  3.16036E+00  1.48305E+00  3.46724E+00  3.18617E+00  3.39475E+00  5.43090E+00  7.83749E+00  5.09868E+00  4.82858E+00
   6.29807E+00  6.14693E+00  5.95694E+00  7.05766E+00  6.93870E+00  5.73266E+00  8.41846E+00  8.01993E+00  6.18027E+00  7.60397E+00
   9.11224E+00  6.53215E+00  8.17029E+00  8.56441E+00  7.81741E+00  8.04592E+00  1.01715E+01  1.03512E+01  1.11239E+01  1.45072E+01
   1.46977E+01  1.61027E+01  1.85905E+01  2.06676E+01  2.26266E+01  2.71886E+01  3.29716E+01  4.43343E+01  4.57869E+01  5.26728E+01
   5.66469E+01  5.65452E+01  5.32346E+01  4.94819E+01  3.79232E+01  2.94922E+01  1.98058E+01  1.66980E+01  1.31513E+01  1.16998E+01
   1.10601E+01  8.60458E+00  9.27635E+00  8.58442E+00  6.15952E+00  3.31617E+00  6.35866E+00  6.36628E+00  5.16767E+00  3.63691E+00
   2.94365E+00  4.16486E+00  3.38413E+00  3.66691E+00  2.26927E+00  1.03602E+00  3.73729E+00  3.69094E+00  2.60183E+00  2.64411E+00
   2.84313E+00  1.04006E+00  3.44076E-01  2.40662E+00  4.03928E+00  4.70665E+00  2.44314E+00  3.47646E+00  4.00453E+00  4.06903E+00
   6.83698E-01  2.76382E+00  2.94820E+00  3.52558E+00  4.09437E+00  4.67994E+00  3.62735E+00  2.18467E+00  2.37189E+00  4.49012E+00
   3.65974E+00  3.04637E+00  4.58548E+00  3.94148E+00  2.21805E+00  3.27774E+00  2.22653E+00  1.49877E-01  1.64409E+00 -8.95411E-01
   2.19017E+00  2.42293E+00  1.92397E+00 -2.74101E-01 -1.02040E+00  2.71905E-02 -7.65831E-01 -6.03633E-01 -2.55813E+00 -6.37429E-01
  -1.76965E+00 -2.22130E+00 -1.92736E+00 -5.24040E+00 -3.14107E+00 -1.90898E+00 -3.37380E+00 -2.94252E+00 -1.73322E+00 -1.80804E+00
  -3.63530E+00 -3.93086E+00 -6.43104E-01 -5.36576E+00 -3.13257E+00 -3.02513E+00 -3.37290E+00 -4.71729E+00 -3.82097E+00 -7.63825E-01
  -4.14534E+00 -4.38303E+00 -2.86217E+00 -2.61170E+00 -2.35965E+00 -2.03813E+00 -5.63063E-01  1.51357E+00 -4.17206E-01 -1.00347E+00
  -6.39868E-01  8.12075E-01 -1.34833E+00  5.36159E-01 -3.05316E-01 -7.55628E-01 -1.45599E+00  4.49290E-01 -2.78915E-01  1.51185E+00
   1.35062E+00 -1.82107E-01  2.92828E-02 -5.77456E-03 -1.45011E-01  1.16221E+00  4.16120E-01  1.68113E+00  1.60357E+00 -1.08692E+00
  -9.21121E-01 -1.75205E+00 -2.83875E+00 -9.21330E-01 -4.80711E+00 -2.27389E+00 -2.39031E+00  6.79974E-01 -1.54022E+00 -7.24698E-01
  -1.05893E+00 -1.51334E+00 -1.64342E+00  4.88729E-02  8.10944E-02  5.06492E-01  3.08553E-03 -2.41306E-01 -7.02646E-01 -7.11652E-02
  -2.17664E+00  7.53448E-02 -1.18914E+00 -1.50774E+00  6.62116E-01 -2.97953E-01  1.13499E+00  1.90297E+00  1.57602E+00  1.93468E-01
   1.05850E+00  5.24848E-01 -4.85972E-01  2.99844E+00  2.83633E-01  3.70744E-01 -1.48406E+00  1.29305E+00  4.12743E-01  1.01097E-01
   1.70884E+00 -1.63386E+00  8.65815E-01 -1.26036E+00 -3.34552E+00 -2.30642E+00 -3.30339E+00 -2.13273E+00 -1.93188E+00 -1.29122E+00
  -2.24151E-01 -1.72624E+00 -3.68360E+00 -3.12985E+00 -2.20091E+00 -1.23568E+00 -1.82086E-01 -3.79554E+00 -8.28916E-01 -2.53808E+00
  -4.46435E+00 -1.36815E+00 -1.60066E+00 -3.03150E+00 -2.61031E+00 -4.99538E+00 -1.60564E+00 -2.98621E+00 -1.67899E+00 -2.76361E+00
  -2.29909E+00 -7.22761E-01 -1.36335E+00 -8.72324E-01 -4.56882E+00 -2.51565E-01 -8.68043E-01 -7.90506E-01 -5.96678E-01 -3.18122E+00
  -2.25513E+00 -1.33302E+00 -2.51078E+00 -1.71473E+00 -4.81486E+00 -5.08914E+00 -1.67665E+00 -3.68845E-01 -9.90596E-02 -2.25040E+00
  -2.42423E+00 -1.72831E+00 -3.28365E+00 -1.51007E+00 -1.41799E+00 -2.42494E+00 -9.39238E-01 -2.71451E+00 -3.02931E+00 -3.18491E+00
  -2.58714E+00 -2.98480E+00 -2.47110E+00 -1.56310E+00 -4.00377E-01 -1.15973E+00 -3.04195E+00 -1.58825E+00 -3.75537E+00 -1.89116E+00
  -1.82942E+00 -3.91506E+00 -4.62666E-01 -3.03275E-02 -3.73685E+00 -4.41057E+00 -1.33522E+00 -8.56111E-01
 NY points of the fit to the data follow
   2.07367E+01  2.09761E+01  2.15749E+01  2.27366E+01  2.46148E+01  2.67614E+01  2.92382E+01  3.21315E+01  3.51790E+01  3.78989E+01
   3.99425E+01  4.09515E+01  4.05292E+01  3.86210E+01  3.55832E+01  3.20579E+01  2.87606E+01  2.61347E+01  2.41952E+01  2.27618E+01
   2.12725E+01  1.99594E+01  1.96086E+01  1.95613E+01  1.96557E+01  2.00510E+01  2.07446E+01  2.16018E+01  2.25430E+01  2.35283E+01
   2.42836E+01  2.45289E+01  2.41623E+01  2.31274E+01  2.15557E+01  1.98808E+01  1.85135E+01  1.75413E+01  1.67177E+01  1.61127E+01
   1.60573E+01  1.62356E+01  1.64793E+01  1.67197E+01  1.68949E+01  1.70196E+01  1.70494E+01  1.69800E+01  1.67399E+01  1.62653E+01
   1.56562E+01  1.49904E+01  1.43310E+01  1.38209E+01  1.34971E+01  1.31966E+01  1.28652E+01  1.26146E+01  1.24553E+01  1.22899E+01
   1.20782E+01  1.18318E+01  1.15421E+01  1.12222E+01  1.08986E+01  1.06107E+01  1.04077E+01  1.02848E+01  1.01991E+01  1.01249E+01
   1.00458E+01  9.95233E+00  9.84024E+00  9.69929E+00  9.53164E+00  9.34057E+00  9.13430E+00  8.93350E+00  8.74323E+00  8.55326E+00
   8.34386E+00  8.11179E+00  7.87476E+00  7.62639E+00  7.36756E+00  7.10756E+00  6.86238E+00  6.64758E+00  6.49183E+00  6.40952E+00
   6.40287E+00  6.46728E+00  6.58487E+00  6.74649E+00  7.11009E+00  8.37389E+00  1.03740E+01  1.23676E+01  1.48499E+01  1.81438E+01
   2.18234E+01  2.54016E+01  2.86717E+01  3.10558E+01  3.17298E+01  3.02680E+01  2.67927E+01  2.20552E+01  1.73248E+01  1.38037E+01
   1.18197E+01  1.03916E+01  8.45958E+00  6.85854E+00  6.33802E+00  6.17560E+00  6.13783E+00  6.22833E+00  6.67233E+00  8.32811E+00
   1.09001E+01  1.35402E+01  1.68733E+01  2.12476E+01  2.60841E+01  3.07969E+01  3.50795E+01  3.81224E+01  3.89719E+01  3.71646E+01
   3.28037E+01  2.68530E+01  2.08949E+01  1.63644E+01  1.35848E+01  1.13270E+01  8.44211E+00  6.16346E+00  5.41793E+00  5.34578E+00
   5.56252E+00  5.80982E+00  5.87905E+00  5.77772E+00  5.58032E+00  5.28332E+00  4.94792E+00  4.63064E+00  4.32907E+00  4.04124E+00
   3.74378E+00  3.46643E+00  3.24029E+00  3.00210E+00  2.77474E+00  2.59943E+00  2.44964E+00  2.31553E+00  2.15571E+00  1.95287E+00
   1.73542E+00  1.52850E+00  1.35630E+00  1.26184E+00  1.24528E+00  1.22103E+00  1.09733E+00  8.02604E-01  3.37213E-01 -1.47137E-01
  -4.57071E-01 -6.67546E-01 -8.83803E-01 -1.15892E+00 -1.46216E+00 -1.66672E+00 -1.76849E+00 -1.81624E+00 -1.78284E+00 -1.70641E+00
  -1.63014E+00 -1.55776E+00 -1.50159E+00 -1.38710E+00 -1.07192E+00 -5.31757E-01  9.54198E-02  7.21132E-01  1.39648E+00  2.12813E+00
   2.82136E+00  3.32773E+00  3.48087E+00  3.29016E+00  2.90804E+00  2.55626E+00  2.44953E+00  2.55849E+00  2.84351E+00  3.32221E+00
   3.90136E+00  4.46482E+00  4.84635E+00  5.03018E+00  4.89721E+00  4.36133E+00  3.56668E+00  2.73699E+00  2.00111E+00  1.46804E+00
   1.27233E+00  1.63120E+00  2.47323E+00  3.51587E+00  4.48911E+00  5.19572E+00  5.53710E+00  5.40443E+00  4.70319E+00  3.57229E+00
   2.22615E+00  1.15698E+00  7.27898E-01  9.19709E-01  1.57388E+00  2.54107E+00  3.74884E+00  4.94157E+00  5.74387E+00  6.17275E+00
   6.37563E+00  6.57403E+00  6.87273E+00  7.17371E+00  7.45371E+00  7.75922E+00  8.05836E+00  8.25527E+00  8.24559E+00  8.04588E+00
   7.82432E+00  7.62088E+00  7.46479E+00  7.54139E+00  7.96732E+00  8.64753E+00  9.37722E+00  1.01659E+01  1.10679E+01  1.18345E+01
   1.24970E+01  1.35622E+01  1.62267E+01  2.05558E+01  2.47961E+01  2.95681E+01  3.55376E+01  4.18935E+01  4.75828E+01  5.24234E+01
   5.58487E+01  5.66114E+01  5.39424E+01  4.78183E+01  3.90556E+01  2.97087E+01  2.23351E+01  1.79529E+01  1.50475E+01  1.14088E+01
   7.86090E+00  6.38800E+00  5.75564E+00  5.33072E+00  5.02412E+00  4.79017E+00  4.53764E+00  4.26017E+00  3.96766E+00  3.67326E+00
   3.39817E+00  3.16448E+00  2.96295E+00  2.78095E+00  2.62944E+00  2.51463E+00  2.42817E+00  2.35954E+00  2.30862E+00  2.28388E+00
   2.29002E+00  2.31857E+00  2.36934E+00  2.44377E+00  2.53706E+00  2.64166E+00  2.75565E+00  2.87682E+00  3.00283E+00  3.13146E+00
   3.25736E+00  3.37226E+00  3.47201E+00  3.55127E+00  3.60262E+00  3.61975E+00  3.59910E+00  3.54039E+00  3.44423E+00  3.31012E+00
   3.14104E+00  2.94126E+00  2.71501E+00  2.46764E+00  2.20532E+00  1.93422E+00  1.66060E+00  1.39086E+00  1.13260E+00  8.94234E-01
   6.65814E-01  4.43437E-01  2.38183E-01  4.68474E-02 -1.42553E-01 -3.36033E-01 -5.35898E-01 -7.36731E-01 -9.33860E-01 -1.13134E+00
  -1.31192E+00 -1.44882E+00 -1.52800E+00 -1.55298E+00 -1.53855E+00 -1.50997E+00 -1.48388E+00 -1.45477E+00 -1.43732E+00 -1.45036E+00
  -1.48965E+00 -1.53740E+00 -1.56975E+00 -1.58779E+00 -1.61547E+00 -1.65256E+00 -1.68041E+00 -1.69886E+00 -1.71233E+00 -1.72188E+00
  -1.72000E+00 -1.69749E+00 -1.65004E+00 -1.57828E+00 -1.48784E+00 -1.39037E+00 -1.29458E+00 -1.19986E+00 -1.11195E+00 -1.03941E+00
  -9.80080E-01 -9.28040E-01 -8.79823E-01 -8.40185E-01 -8.17274E-01 -8.07486E-01 -8.07536E-01 -8.19458E-01 -8.43835E-01 -8.80179E-01
  -9.27299E-01 -9.83463E-01 -1.04656E+00 -1.11424E+00 -1.18397E+00 -1.25312E+00 -1.31904E+00 -1.37916E+00 -1.43112E+00 -1.47281E+00
  -1.50236E+00 -1.51814E+00 -1.51878E+00 -1.50319E+00 -1.47058E+00 -1.42045E+00 -1.35254E+00 -1.26680E+00 -1.16342E+00 -1.04292E+00
  -9.06127E-01 -7.54201E-01 -5.88619E-01 -4.11195E-01 -2.24131E-01 -3.00533E-02  1.68021E-01  3.66744E-01  5.62523E-01  7.51581E-01
   9.30009E-01  1.09388E+00  1.23941E+00  1.36310E+00  1.46191E+00  1.53333E+00  1.57549E+00  1.58717E+00  1.56797E+00  1.51827E+00
   1.43927E+00  1.33283E+00  1.20144E+00  1.04807E+00  8.76112E-01  6.89221E-01  4.91173E-01  2.85688E-01  7.63084E-02 -1.33673E-01
  -3.41265E-01 -5.43846E-01 -7.39222E-01 -9.25663E-01 -1.10188E+00 -1.26695E+00 -1.42031E+00 -1.56170E+00 -1.69113E+00 -1.80887E+00
  -1.91537E+00 -2.01116E+00 -2.09685E+00 -2.17309E+00 -2.24060E+00 -2.30009E+00 -2.35227E+00 -2.39779E+00 -2.43722E+00 -2.47114E+00
  -2.50009E+00 -2.52458E+00 -2.54505E+00 -2.56188E+00 -2.57541E+00 -2.58597E+00 -2.59386E+00 -2.59937E+00 -2.60272E+00 -2.60410E+00
  -2.60369E+00 -2.60166E+00 -2.59821E+00 -2.59346E+00 -2.58751E+00 -2.58044E+00 -2.57235E+00 -2.56332E+00 -2.55346E+00 -2.54282E+00
  -2.53145E+00 -2.51939E+00 -2.50669E+00 -2.49342E+00 -2.47963E+00 -2.46535E+00 -2.45059E+00 -2.43538E+00 -2.41976E+00 -2.40379E+00
  -2.38748E+00 -2.37084E+00 -2.35387E+00 -2.33659E+00 -2.31906E+00 -2.30129E+00 -2.28329E+00 -2.26505E+00 -2.24658E+00 -2.22792E+00
  -2.20908E+00 -2.19009E+00 -2.17093E+00 -2.15160E+00 -2.13210E+00 -2.11248E+00 -2.09274E+00 -2.07288E+00 -2.05290E+00 -2.03278E+00
  -2.01255E+00 -1.99222E+00 -1.97180E+00 -1.95129E+00 -1.93066E+00 -1.90990E+00 -1.88905E+00 -1.86810E+00
 NY background values follow
     1.929E+01    1.914E+01    1.899E+01    1.884E+01    1.868E+01    1.853E+01    1.838E+01    1.823E+01    1.808E+01    1.792E+01
     1.777E+01    1.762E+01    1.747E+01    1.731E+01    1.716E+01    1.701E+01    1.685E+01    1.670E+01    1.655E+01    1.640E+01
     1.624E+01    1.609E+01    1.594E+01    1.579E+01    1.563E+01    1.548E+01    1.533E+01    1.518E+01    1.503E+01    1.488E+01
     1.472E+01    1.457E+01    1.442E+01    1.427E+01    1.412E+01    1.397E+01    1.382E+01    1.367E+01    1.352E+01    1.338E+01
     1.323E+01    1.308E+01    1.293E+01    1.279E+01    1.264E+01    1.249E+01    1.235E+01    1.220E+01    1.206E+01    1.191E+01
     1.177E+01    1.163E+01    1.149E+01    1.135E+01    1.120E+01    1.106E+01    1.092E+01    1.079E+01    1.065E+01    1.051E+01
     1.037E+01    1.024E+01    1.010E+01    9.967E+00    9.833E+00    9.700E+00    9.568E+00    9.437E+00    9.306E+00    9.177E+00
     9.048E+00    8.920E+00    8.794E+00    8.668E+00    8.543E+00    8.419E+00    8.297E+00    8.175E+00    8.054E+00    7.935E+00
     7.816E+00    7.699E+00    7.582E+00    7.467E+00    7.353E+00    7.240E+00    7.128E+00    7.018E+00    6.909E+00    6.801E+00
     6.694E+00    6.588E+00    6.484E+00    6.381E+00    6.279E+00    6.179E+00    6.080E+00    5.982E+00    5.885E+00    5.789E+00
     5.695E+00    5.602E+00    5.510E+00    5.419E+00    5.329E+00    5.241E+00    5.153E+00    5.067E+00    4.982E+00    4.897E+00
     4.814E+00    4.732E+00    4.652E+00    4.572E+00    4.493E+00    4.415E+00    4.339E+00    4.263E+00    4.188E+00    4.115E+00
     4.042E+00    3.970E+00    3.900E+00    3.830E+00    3.761E+00    3.693E+00    3.626E+00    3.560E+00    3.495E+00    3.431E+00
     3.368E+00    3.305E+00    3.244E+00    3.183E+00    3.123E+00    3.064E+00    3.006E+00    2.949E+00    2.892E+00    2.836E+00
     2.781E+00    2.728E+00    2.674E+00    2.622E+00    2.571E+00    2.521E+00    2.471E+00    2.423E+00    2.375E+00    2.329E+00
     2.283E+00    2.238E+00    2.195E+00    2.152E+00    2.110E+00    2.070E+00    2.030E+00    1.992E+00    1.954E+00    1.918E+00
     1.882E+00    1.848E+00    1.815E+00    1.783E+00    1.752E+00    1.722E+00    1.694E+00    1.666E+00    1.640E+00    1.615E+00
     1.591E+00    1.568E+00    1.546E+00    1.526E+00    1.507E+00    1.489E+00    1.472E+00    1.457E+00    1.443E+00    1.430E+00
     1.419E+00    1.408E+00    1.399E+00    1.392E+00    1.385E+00    1.380E+00    1.376E+00    1.373E+00    1.371E+00    1.370E+00
     1.369E+00    1.370E+00    1.371E+00    1.374E+00    1.377E+00    1.380E+00    1.385E+00    1.390E+00    1.395E+00    1.401E+00
     1.407E+00    1.414E+00    1.421E+00    1.428E+00    1.436E+00    1.444E+00    1.452E+00    1.460E+00    1.468E+00    1.476E+00
     1.484E+00    1.492E+00    1.500E+00    1.508E+00    1.515E+00    1.523E+00    1.529E+00    1.536E+00    1.542E+00    1.548E+00
     1.553E+00    1.557E+00    1.561E+00    1.565E+00    1.567E+00    1.569E+00    1.570E+00    1.570E+00    1.569E+00    1.568E+00
     1.566E+00    1.562E+00    1.558E+00    1.553E+00    1.548E+00    1.541E+00    1.534E+00    1.525E+00    1.516E+00    1.506E+00
     1.495E+00    1.484E+00    1.471E+00    1.458E+00    1.444E+00    1.428E+00    1.413E+00    1.396E+00    1.378E+00    1.360E+00
     1.340E+00    1.320E+00    1.299E+00    1.277E+00    1.255E+00    1.231E+00    1.207E+00    1.182E+00    1.156E+00    1.129E+00
     1.101E+00    1.072E+00    1.043E+00    1.013E+00    9.816E-01    9.496E-01    9.168E-01    8.831E-01    8.486E-01    8.132E-01
     7.770E-01    7.400E-01    7.021E-01    6.633E-01    6.238E-01    5.835E-01    5.425E-01    5.007E-01    4.583E-01    4.151E-01
     3.714E-01    3.269E-01    2.819E-01    2.363E-01    1.902E-01    1.435E-01    9.638E-02    4.874E-02    6.422E-04   -4.788E-02
    -9.680E-02   -1.461E-01   -1.958E-01   -2.457E-01   -2.960E-01   -3.466E-01   -3.974E-01   -4.485E-01   -4.997E-01   -5.511E-01
    -6.027E-01   -6.545E-01   -7.063E-01   -7.582E-01   -8.101E-01   -8.621E-01   -9.141E-01   -9.661E-01   -1.018E+00   -1.070E+00
    -1.122E+00   -1.173E+00   -1.225E+00   -1.276E+00   -1.327E+00   -1.378E+00   -1.429E+00   -1.479E+00   -1.530E+00   -1.579E+00
    -1.629E+00   -1.678E+00   -1.727E+00   -1.776E+00   -1.824E+00   -1.872E+00   -1.920E+00   -1.967E+00   -2.014E+00   -2.060E+00
    -2.106E+00   -2.152E+00   -2.197E+00   -2.242E+00   -2.286E+00   -2.330E+00   -2.374E+00   -2.417E+00   -2.459E+00   -2.502E+00
    -2.543E+00   -2.584E+00   -2.625E+00   -2.665E+00   -2.704E+00   -2.743E+00   -2.782E+00   -2.820E+00   -2.857E+00   -2.894E+00
    -2.930E+00   -2.966E+00   -3.001E+00   -3.035E+00   -3.069E+00   -3.102E+00   -3.134E+00   -3.166E+00   -3.197E+00   -3.228E+00
    -3.258E+00   -3.287E+00   -3.315E+00   -3.343E+00   -3.370E+00   -3.396E+00   -3.422E+00   -3.447E+00   -3.471E+00   -3.495E+00
    -3.517E+00   -3.539E+00   -3.561E+00   -3.581E+00   -3.601E+00   -3.620E+00   -3.639E+00   -3.656E+00   -3.673E+00   -3.689E+00
    -3.705E+00   -3.720E+00   -3.734E+00   -3.747E+00   -3.759E+00   -3.771E+00   -3.782E+00   -3.792E+00   -3.802E+00   -3.811E+00
    -3.819E+00   -3.826E+00   -3.832E+00   -3.838E+00   -3.843E+00   -3.847E+00   -3.851E+00   -3.853E+00   -3.855E+00   -3.856E+00
    -3.857E+00   -3.856E+00   -3.855E+00   -3.853E+00   -3.850E+00   -3.847E+00   -3.843E+00   -3.837E+00   -3.832E+00   -3.825E+00
    -3.818E+00   -3.809E+00   -3.801E+00   -3.791E+00   -3.781E+00   -3.770E+00   -3.758E+00   -3.746E+00   -3.733E+00   -3.720E+00
    -3.706E+00   -3.692E+00   -3.676E+00   -3.661E+00   -3.645E+00   -3.628E+00   -3.611E+00   -3.594E+00   -3.576E+00   -3.557E+00
    -3.538E+00   -3.519E+00   -3.500E+00   -3.480E+00   -3.459E+00   -3.439E+00   -3.418E+00   -3.397E+00   -3.375E+00   -3.353E+00
    -3.331E+00   -3.309E+00   -3.287E+00   -3.264E+00   -3.241E+00   -3.218E+00   -3.195E+00   -3.172E+00   -3.149E+00   -3.125E+00
    -3.102E+00   -3.078E+00   -3.055E+00   -3.031E+00   -3.007E+00   -2.984E+00   -2.960E+00   -2.936E+00   -2.913E+00   -2.889E+00
    -2.865E+00   -2.841E+00   -2.818E+00   -2.794E+00   -2.770E+00   -2.746E+00   -2.723E+00   -2.699E+00   -2.675E+00   -2.651E+00
    -2.627E+00   -2.604E+00   -2.580E+00   -2.556E+00   -2.532E+00   -2.508E+00   -2.485E+00   -2.461E+00   -2.437E+00   -2.413E+00
    -2.390E+00   -2.366E+00   -2.342E+00   -2.319E+00   -2.295E+00   -2.271E+00   -2.248E+00   -2.224E+00   -2.201E+00   -2.177E+00
    -2.154E+00   -2.130E+00   -2.107E+00   -2.084E+00   -2.060E+00   -2.037E+00   -2.014E+00   -1.991E+00
 Ala      Conc. = 2.79E+01
