 LCModel (Version 6.3-1L) Copyright: S.W. Provencher.          Ref.: Magn. Reson. Med. 30:672-679 (1993).                
 Slice#1 Row#5 Col#9  PD_05_press_1_raw_act
 36 lines in following concentration table = NCONC+1
    Conc.  %SD /Cr+PCr  Metabolite                                         
   68.033 128%   0.110 Ala                                                 
    0.000 999%   0.000 Asp                                                 
  320.472  48%   0.520 Cr                                                  
  295.569  54%   0.480 PCr                                                 
  114.775  72%   0.186 GABA                                                
   95.537  85%   0.155 Glc                                                 
  411.438  47%   0.668 Gln                                                 
 1.10E+03  20%   1.778 Glu                                                 
  320.133   5%   0.520 GPC                                                 
    0.000 999%   0.000 PCh                                                 
  280.109  21%   0.455 GSH                                                 
 1.20E+03  16%   1.940 Ins                                                 
    0.000 999%   0.000 Lac                                                 
 1.04E+03   9%   1.690 NAA                                                 
  152.664  67%   0.248 NAAG                                                
   18.950  95% 3.1E-02 Scyllo                                              
   11.139 999% 1.8E-02 Tau                                                 
  142.375  52%   0.231 -CrCH2                                              
  320.133   5%   0.520 GPC+PCh                                             
 1.19E+03   5%   1.938 NAA+NAAG                                            
  616.041   7%   1.000 Cr+PCr                                              
 1.51E+03  21%   2.446 Glu+Gln                                             
    0.000 999%   0.000 Lip13a                                              
    0.000 999%   0.000 Lip13b                                              
 4.70E-03 999% 7.6E-06 Lip09                                               
  697.665  15%   1.132 MM09                                                
    0.000 999%   0.000 Lip20                                               
 1.05E+03  21%   1.707 MM20                                                
   76.926 110%   0.125 MM12                                                
    0.000 999%   0.000 MM14                                                
  230.633  55%   0.374 MM17                                                
    0.000 999%   0.000 Lip13a+Lip13b                                       
   76.926 110%   0.125 MM14+Lip13a+Lip13b+MM12                             
  697.670  15%   1.133 MM09+Lip09                                          
 1.05E+03  21%   1.707 MM20+Lip20                                          
   6 lines in following misc. output table
  FWHM = 0.061 ppm    S/N =   7                                            
  Data shift = 0.000 ppm                                                   
  Ph:  17 deg       7.7 deg/ppm                                            
  alphaB,S = 3.8E+00,   9.2E+01                                            
   14 spline knots.   Ns = 7(1)                                            
  (11) 4 infls.   ( 9) 1 extrs.                                            
  498 points on ppm-axis = NY
      4.000000     3.992357     3.984714     3.977070     3.969427     3.961784     3.954141     3.946497     3.938854     3.931211
      3.923568     3.915925     3.908281     3.900638     3.892995     3.885352     3.877708     3.870065     3.862422     3.854779
      3.847136     3.839492     3.831849     3.824206     3.816563     3.808919     3.801276     3.793633     3.785990     3.778347
      3.770703     3.763060     3.755417     3.747774     3.740130     3.732487     3.724844     3.717201     3.709558     3.701914
      3.694271     3.686628     3.678985     3.671341     3.663698     3.656055     3.648412     3.640769     3.633125     3.625482
      3.617839     3.610196     3.602552     3.594909     3.587266     3.579623     3.571980     3.564336     3.556693     3.549050
      3.541407     3.533763     3.526120     3.518477     3.510834     3.503191     3.495547     3.487904     3.480261     3.472618
      3.464974     3.457331     3.449688     3.442045     3.434402     3.426758     3.419115     3.411472     3.403829     3.396185
      3.388542     3.380899     3.373256     3.365613     3.357969     3.350326     3.342683     3.335040     3.327396     3.319753
      3.312110     3.304467     3.296824     3.289180     3.281537     3.273894     3.266251     3.258607     3.250964     3.243321
      3.235678     3.228034     3.220391     3.212748     3.205105     3.197462     3.189818     3.182175     3.174532     3.166889
      3.159245     3.151602     3.143959     3.136316     3.128673     3.121029     3.113386     3.105743     3.098100     3.090456
      3.082813     3.075170     3.067527     3.059884     3.052240     3.044597     3.036954     3.029311     3.021667     3.014024
      3.006381     2.998738     2.991095     2.983451     2.975808     2.968165     2.960522     2.952878     2.945235     2.937592
      2.929949     2.922306     2.914662     2.907019     2.899376     2.891733     2.884089     2.876446     2.868803     2.861160
      2.853517     2.845873     2.838230     2.830587     2.822944     2.815300     2.807657     2.800014     2.792371     2.784728
      2.777084     2.769441     2.761798     2.754155     2.746511     2.738868     2.731225     2.723582     2.715939     2.708295
      2.700652     2.693009     2.685366     2.677722     2.670079     2.662436     2.654793     2.647150     2.639506     2.631863
      2.624220     2.616577     2.608933     2.601290     2.593647     2.586004     2.578361     2.570717     2.563074     2.555431
      2.547788     2.540144     2.532501     2.524858     2.517215     2.509572     2.501928     2.494285     2.486642     2.478999
      2.471355     2.463712     2.456069     2.448426     2.440783     2.433139     2.425496     2.417853     2.410210     2.402566
      2.394923     2.387280     2.379637     2.371994     2.364350     2.356707     2.349064     2.341421     2.333777     2.326134
      2.318491     2.310848     2.303205     2.295561     2.287918     2.280275     2.272632     2.264988     2.257345     2.249702
      2.242059     2.234416     2.226772     2.219129     2.211486     2.203843     2.196199     2.188556     2.180913     2.173270
      2.165627     2.157983     2.150340     2.142697     2.135054     2.127410     2.119767     2.112124     2.104481     2.096838
      2.089194     2.081551     2.073908     2.066265     2.058621     2.050978     2.043335     2.035692     2.028049     2.020405
      2.012762     2.005119     1.997476     1.989833     1.982190     1.974546     1.966903     1.959260     1.951617     1.943974
      1.936331     1.928688     1.921045     1.913402     1.905759     1.898115     1.890472     1.882829     1.875186     1.867543
      1.859900     1.852257     1.844614     1.836971     1.829327     1.821684     1.814041     1.806398     1.798755     1.791112
      1.783469     1.775826     1.768183     1.760540     1.752896     1.745253     1.737610     1.729967     1.722324     1.714681
      1.707038     1.699395     1.691752     1.684108     1.676465     1.668822     1.661179     1.653536     1.645893     1.638250
      1.630607     1.622964     1.615321     1.607677     1.600034     1.592391     1.584748     1.577105     1.569462     1.561819
      1.554176     1.546533     1.538890     1.531246     1.523603     1.515960     1.508317     1.500674     1.493031     1.485388
      1.477745     1.470102     1.462458     1.454815     1.447172     1.439529     1.431886     1.424243     1.416600     1.408957
      1.401314     1.393671     1.386027     1.378384     1.370741     1.363098     1.355455     1.347812     1.340169     1.332526
      1.324883     1.317240     1.309596     1.301953     1.294310     1.286667     1.279024     1.271381     1.263738     1.256095
      1.248452     1.240808     1.233165     1.225522     1.217879     1.210236     1.202593     1.194950     1.187307     1.179664
      1.172021     1.164377     1.156734     1.149091     1.141448     1.133805     1.126162     1.118519     1.110876     1.103233
      1.095590     1.087946     1.080303     1.072660     1.065017     1.057374     1.049731     1.042088     1.034445     1.026802
      1.019158     1.011515     1.003872     0.996229     0.988586     0.980943     0.973300     0.965657     0.958014     0.950371
      0.942727     0.935084     0.927441     0.919798     0.912155     0.904512     0.896869     0.889226     0.881583     0.873940
      0.866296     0.858653     0.851010     0.843367     0.835724     0.828081     0.820438     0.812795     0.805152     0.797508
      0.789865     0.782222     0.774579     0.766936     0.759293     0.751650     0.744007     0.736364     0.728721     0.721077
      0.713434     0.705791     0.698148     0.690505     0.682862     0.675219     0.667576     0.659933     0.652290     0.644646
      0.637003     0.629360     0.621717     0.614074     0.606431     0.598788     0.591145     0.583502     0.575858     0.568215
      0.560572     0.552929     0.545286     0.537643     0.530000     0.522357     0.514714     0.507071     0.499427     0.491784
      0.484141     0.476498     0.468855     0.461212     0.453569     0.445925     0.438282     0.430639     0.422996     0.415353
      0.407710     0.400067     0.392424     0.384780     0.377137     0.369494     0.361851     0.354208     0.346565     0.338922
      0.331278     0.323635     0.315992     0.308349     0.300706     0.293063     0.285420     0.277777     0.270133     0.262490
      0.254847     0.247204     0.239561     0.231918     0.224275     0.216631     0.208988     0.201345
 NY phased data points follow
   1.97941E+00  6.00080E+00  5.92634E+00  7.66585E+00  1.10379E+01  1.10336E+01  1.31065E+01  1.21613E+01  1.11074E+01  1.15290E+01
   1.75822E+01  1.45362E+01  1.43616E+01  1.03360E+01  1.35708E+01  1.05068E+01  9.14246E+00  4.06295E+00  7.79120E+00  9.22952E+00
   8.28893E+00  1.13468E+01  1.02462E+01  7.25748E+00  8.79539E+00  1.04151E+01  1.30307E+01  1.03713E+01  6.92571E+00  8.28834E+00
   8.67075E+00  7.48738E+00  1.40630E+01  9.84677E+00  8.45302E+00  8.22110E+00  8.53599E+00  4.81641E+00  7.43718E+00  1.21862E+01
   1.30415E+01  1.09100E+01  9.98946E+00  9.74455E+00  9.60220E+00  1.21819E+01  1.13025E+01  1.38202E+01  1.19806E+01  1.11100E+01
   7.65529E+00  8.41954E+00  9.26281E+00  1.05948E+01  4.75438E+00  1.17299E+01  7.52744E+00  3.08804E+00  3.37975E+00  4.76262E+00
   4.72878E+00  3.19669E+00  1.99286E+00  3.40433E+00  1.08229E+00  5.83901E+00  2.81683E+00  3.40915E+00  1.68587E+00  4.14725E+00
   5.53250E+00  3.17564E+00  5.05560E+00  4.96296E+00  3.40841E+00  2.71944E+00  1.59553E+00  1.32173E+00  6.08577E+00  2.74089E+00
   3.31158E+00  5.28310E+00  3.68251E+00 -2.59688E-01 -1.02125E+00  2.92620E+00  1.78592E+00  2.59491E+00  8.83513E-01 -3.40195E+00
  -7.06009E-02  2.07352E+00  5.97423E+00 -1.26469E-01  4.32863E+00  2.41474E+00  1.03908E+01  1.02280E+01  1.42063E+01  1.80776E+01
   1.83527E+01  2.49240E+01  2.63661E+01  2.75435E+01  2.94093E+01  2.11094E+01  2.02054E+01  1.18183E+01  9.65895E+00  2.54268E+00
   1.88449E+00 -1.52660E-01  5.49812E+00  2.58393E+00  3.32142E+00  2.58369E+00  3.64718E+00  8.41976E+00  5.08996E+00  5.11883E+00
   5.05578E+00  9.27534E+00  8.45071E+00  1.09536E+01  1.46240E+01  1.72417E+01  1.71821E+01  1.96120E+01  2.16443E+01  1.95506E+01
   1.39898E+01  1.25116E+01  6.60900E+00  2.04583E-03  6.67785E-01 -4.95506E-02  7.24582E-01  7.63118E-01  1.83370E+00  3.47267E+00
   4.11858E+00  4.20085E+00  2.33785E+00  3.35436E+00  2.29596E+00 -8.61434E-01  7.74621E-01  1.63243E+00  1.65085E+00 -2.57348E+00
   1.85217E+00  3.26347E+00  1.63622E+00 -2.32515E+00  3.25079E+00  1.02345E+00  1.23363E+00  1.54549E-01 -4.79292E-01  5.99907E+00
  -3.74724E+00 -2.88899E+00 -1.62032E+00  2.61810E-01 -2.99135E+00  3.84379E-02 -6.08121E+00  1.56405E+00  3.87989E-01 -3.07005E+00
  -3.23771E+00 -3.62566E+00 -3.44590E+00 -7.16132E+00 -6.48550E+00 -3.23104E+00 -3.57411E+00 -4.84895E+00 -4.09098E+00 -6.79993E+00
  -7.18707E+00 -2.57316E+00 -3.96883E+00 -5.32690E+00 -8.21369E+00 -4.74831E+00 -2.45362E+00 -2.90218E+00 -3.94302E+00 -3.48825E+00
  -8.18635E-01 -5.77616E-01  3.99638E-01 -8.04822E-01 -5.91410E+00 -5.97305E+00 -3.87045E+00 -1.99003E+00 -5.52791E-01 -7.11170E+00
  -6.85025E+00 -3.62049E+00  2.16462E+00  9.08915E-01 -4.73313E-01  8.02188E-01 -1.14225E-01 -1.61011E+00 -2.85849E+00 -4.35718E+00
  -3.48946E+00  8.99775E-01 -4.51718E+00  3.58594E+00  6.76541E+00  4.93781E+00  7.35160E-01  1.63595E+00  2.13253E+00 -1.61342E-01
  -1.67961E+00 -8.62131E+00 -3.45717E+00 -3.01997E+00  2.91067E+00 -7.35842E+00 -5.07124E-01  5.13249E+00  3.25458E+00  3.54650E+00
   4.63679E+00  1.82864E+00 -3.79063E+00 -5.66751E-01  1.98895E-01  4.12276E+00  4.75924E+00 -8.44069E-01  1.12766E+00  2.93443E+00
   4.91779E-02 -3.68067E+00  1.31592E+00  3.35490E-01  3.51722E+00  5.28432E+00 -3.89735E-02  3.43439E+00  6.42452E+00  5.06625E+00
   7.62716E+00  8.49829E+00  8.92053E+00  1.14396E+01  1.49252E+01  1.69302E+01  2.78794E+01  2.90945E+01  3.70067E+01  3.42032E+01
   3.60457E+01  3.65116E+01  3.36106E+01  2.70124E+01  1.16819E+01  7.14460E+00  2.36035E+00  9.00171E-01  7.17808E-01  1.59641E+00
  -2.13812E+00 -5.69052E-01  1.00132E-01  9.31125E-01  1.67284E+00  3.18758E+00  1.78968E+00  4.25844E+00  3.18520E+00  1.71283E+00
  -3.28331E+00 -3.45878E+00 -1.72116E+00 -2.90698E+00 -9.40672E-01 -4.33491E+00 -2.08813E+00  1.82347E+00 -6.65080E-01 -1.12356E+00
  -1.42135E+00  3.05372E+00  6.25122E-01  3.19730E+00  2.18994E+00 -2.75041E+00 -2.02996E+00 -1.60185E+00 -3.60303E+00  6.53593E-01
   3.52582E+00  4.82421E-01  2.29689E-01 -5.86329E-01  3.06579E+00  1.65762E+00 -9.75980E-01  1.37745E+00 -5.23501E+00 -7.58975E-01
   6.33114E-01 -3.97180E+00  2.45725E+00 -2.44215E-02 -6.27021E-01 -1.47822E+00  2.79210E-01 -1.93148E+00  4.35102E-01  4.96339E-01
  -3.79597E+00 -4.24657E-01 -2.33446E-01 -8.78106E-02 -4.78316E+00  1.12870E+00  7.02129E-01 -1.84289E+00  8.89733E-02 -4.17743E+00
  -6.32302E+00  1.07816E+00 -3.10344E+00 -1.29186E+00  5.92376E-01  1.83520E+00 -2.65562E+00 -4.54838E-01 -2.33812E+00 -2.20171E+00
  -2.57733E+00  5.34862E-01 -4.46913E+00  1.73174E+00  6.72494E-01  1.50289E+00 -2.91559E+00  1.62699E-01 -3.09132E+00 -4.27306E+00
   3.84369E-01 -1.15322E-02 -3.42072E-01 -9.57147E+00 -2.99613E+00 -9.48232E-01 -4.28787E+00 -5.73881E+00 -4.03148E+00 -5.96869E+00
  -6.64514E+00 -3.44495E+00 -6.13663E+00 -3.94622E+00 -1.14780E+00  3.68590E+00  1.47025E+00 -2.02990E+00  1.27508E+00 -3.78713E+00
  -2.16136E+00 -4.91879E+00 -5.46543E-01 -4.48401E+00 -4.91861E+00 -1.87208E+00 -2.43300E+00  5.77378E-01 -3.73298E+00 -1.49968E+00
  -1.21430E+00 -7.29721E+00 -3.22031E+00  2.30982E+00 -5.06864E-01  7.54445E-01  2.11016E+00 -5.38499E+00  1.98996E-01 -5.39358E-01
   1.16141E+00  5.32978E+00  2.30016E+00 -2.27817E+00  2.12905E+00  2.47225E+00  3.48797E+00  2.37542E+00  3.10205E+00  4.37487E+00
   5.04297E+00  5.03024E+00  7.38434E+00  1.94924E+00  2.19086E+00  2.66340E+00  1.94337E+00  2.94402E+00  3.62121E+00  2.38940E+00
   2.58992E+00  3.54174E+00  5.92480E+00  3.93631E+00  2.01555E+00  2.05165E+00  2.56117E+00  2.23828E+00  3.62513E-01 -8.40998E-04
  -2.48648E+00  4.04273E-01  3.32375E+00  2.55880E+00  4.05906E-01 -3.60728E+00 -2.48124E+00  1.65606E+00 -3.75480E+00 -2.93519E+00
  -4.61535E-01  6.84479E-02  2.30723E-01  4.10312E+00  9.60719E-02 -4.03504E+00 -2.61736E+00 -2.54602E+00  5.25027E-01 -6.12909E-01
  -1.56267E-01 -4.56153E+00 -2.35439E-01 -3.43736E+00 -6.65613E+00 -1.97169E+00 -1.54408E+00  9.24780E-02  2.67082E+00 -4.20544E+00
  -1.10169E+00 -3.61597E+00 -1.10290E+00 -3.72634E+00  2.53096E-01 -1.75686E+00 -3.59525E+00 -1.74032E+00  5.91010E-01 -5.69029E-01
  -4.03618E+00 -3.35094E+00 -8.59407E-01 -4.69939E+00 -2.19452E+00  2.25430E-01 -1.96410E+00 -4.96681E+00  2.39211E+00 -7.89836E-01
  -7.04945E-01  1.26608E+00  3.57121E+00 -5.43178E-01 -1.59612E+00  2.29051E+00 -2.49366E-02  1.06276E+00 -2.70791E-02 -2.27357E+00
  -8.47097E-01 -1.21869E+00 -1.11351E+00  1.84632E-01 -3.62257E+00 -3.15965E+00 -6.58458E-01  2.36622E+00  7.30275E-01  3.85786E+00
  -2.18923E-01 -5.14131E-01 -3.08667E-01 -8.03873E+00  8.11742E-01 -1.24539E+00 -4.42921E+00 -1.99099E-02
 NY points of the fit to the data follow
   6.12410E+00  6.04081E+00  6.40997E+00  7.13536E+00  8.25453E+00  9.77311E+00  1.12908E+01  1.26228E+01  1.37458E+01  1.45984E+01
   1.50444E+01  1.49256E+01  1.41848E+01  1.28756E+01  1.11743E+01  9.38728E+00  7.86411E+00  6.83812E+00  6.34218E+00  6.18805E+00
   6.11636E+00  5.96024E+00  6.02474E+00  6.50283E+00  7.04184E+00  7.66716E+00  8.49454E+00  9.46336E+00  1.03998E+01  1.11805E+01
   1.17995E+01  1.20528E+01  1.16925E+01  1.07684E+01  9.42900E+00  7.93626E+00  6.57516E+00  5.50558E+00  4.80774E+00  4.73520E+00
   5.53719E+00  6.94299E+00  8.42167E+00  9.71377E+00  1.07781E+01  1.15627E+01  1.19719E+01  1.19320E+01  1.13588E+01  1.01490E+01
   8.33206E+00  6.29209E+00  4.68367E+00  3.89815E+00  3.90694E+00  4.39248E+00  4.99225E+00  5.50421E+00  5.84020E+00  5.97586E+00
   5.92763E+00  5.66750E+00  5.19659E+00  4.55663E+00  3.94780E+00  3.59756E+00  3.57436E+00  3.84492E+00  4.29477E+00  4.78188E+00
   5.16810E+00  5.38075E+00  5.42300E+00  5.31644E+00  5.08476E+00  4.76488E+00  4.42234E+00  4.12108E+00  3.89200E+00  3.72077E+00
   3.49595E+00  3.14130E+00  2.70155E+00  2.24413E+00  1.79566E+00  1.36889E+00  9.95032E-01  7.13807E-01  5.56468E-01  6.11403E-01
   8.95179E-01  1.36700E+00  1.94330E+00  2.52157E+00  3.08469E+00  4.06632E+00  6.79451E+00  1.06383E+01  1.43003E+01  1.77406E+01
   2.11586E+01  2.43883E+01  2.69361E+01  2.82692E+01  2.77067E+01  2.46293E+01  1.91899E+01  1.27022E+01  7.03017E+00  3.33960E+00
   1.64185E+00  1.18312E+00  1.13757E+00  1.14488E+00  1.16447E+00  1.19559E+00  1.23270E+00  1.30799E+00  1.50551E+00  2.15143E+00
   4.05255E+00  6.83753E+00  9.61421E+00  1.22776E+01  1.49048E+01  1.73566E+01  1.93366E+01  2.04446E+01  2.01616E+01  1.81182E+01
   1.44172E+01  9.88953E+00  5.80713E+00  2.95786E+00  1.40325E+00  6.74622E-01  2.86413E-01  1.15725E-01  2.16161E-01  5.65327E-01
   1.03586E+00  1.46410E+00  1.70737E+00  1.70182E+00  1.48641E+00  1.15873E+00  8.27119E-01  5.47913E-01  3.31320E-01  1.76185E-01
   5.62397E-02 -4.44575E-02 -1.24942E-01 -2.15063E-01 -3.62180E-01 -5.12863E-01 -6.24797E-01 -6.82533E-01 -6.91962E-01 -7.47472E-01
  -8.66542E-01 -1.00971E+00 -1.12968E+00 -1.19587E+00 -1.20430E+00 -1.20361E+00 -1.28356E+00 -1.49709E+00 -1.82985E+00 -2.21743E+00
  -2.51352E+00 -2.64800E+00 -2.69107E+00 -2.73664E+00 -2.85035E+00 -2.97114E+00 -3.03831E+00 -3.02611E+00 -2.95088E+00 -2.85932E+00
  -2.83449E+00 -2.83510E+00 -2.78363E+00 -2.60423E+00 -2.24630E+00 -1.73194E+00 -1.16336E+00 -6.21922E-01 -1.01147E-01  3.80818E-01
   7.12193E-01  7.71151E-01  5.67070E-01  1.46587E-01 -3.66741E-01 -7.86224E-01 -9.29854E-01 -7.32879E-01 -2.26836E-01  5.12078E-01
   1.30870E+00  1.99569E+00  2.40069E+00  2.25660E+00  1.64270E+00  7.34897E-01 -4.09272E-01 -1.56699E+00 -2.45003E+00 -2.67351E+00
  -2.30359E+00 -1.51317E+00 -3.22910E-01  1.11539E+00  2.41328E+00  3.03613E+00  2.76536E+00  1.77720E+00  2.84633E-01 -1.54683E+00
  -3.28087E+00 -4.39770E+00 -4.61617E+00 -3.97276E+00 -2.72427E+00 -1.12397E+00  5.36613E-01  1.83549E+00  2.47392E+00  2.46174E+00
   2.16432E+00  1.88674E+00  1.75505E+00  1.82085E+00  2.08920E+00  2.43909E+00  2.56556E+00  2.46733E+00  2.26829E+00  1.99987E+00
   1.66322E+00  1.36750E+00  1.21401E+00  1.21913E+00  1.39819E+00  1.77075E+00  2.31185E+00  2.89921E+00  3.47165E+00  4.19614E+00
   4.99498E+00  5.80937E+00  7.23352E+00  1.10279E+01  1.64095E+01  2.15437E+01  2.61270E+01  3.02282E+01  3.35524E+01  3.56375E+01
   3.62826E+01  3.50769E+01  3.13587E+01  2.50562E+01  1.73995E+01  1.04184E+01  5.54189E+00  2.94240E+00  1.84914E+00  1.34916E+00
   1.04774E+00  8.77926E-01  8.07800E-01  8.08963E-01  8.43098E-01  8.67931E-01  8.36493E-01  7.17444E-01  5.16897E-01  2.77160E-01
   4.32684E-02 -1.53819E-01 -2.97222E-01 -3.83920E-01 -4.23182E-01 -4.28013E-01 -4.13053E-01 -3.93895E-01 -3.78819E-01 -3.68481E-01
  -3.58614E-01 -3.45147E-01 -3.26881E-01 -3.02673E-01 -2.73927E-01 -2.44594E-01 -2.16285E-01 -1.88240E-01 -1.59589E-01 -1.30520E-01
  -1.01905E-01 -7.54998E-02 -5.33633E-02 -3.82302E-02 -3.33420E-02 -4.11973E-02 -6.25831E-02 -9.68144E-02 -1.42067E-01 -1.96465E-01
  -2.58068E-01 -3.25063E-01 -3.95613E-01 -4.67872E-01 -5.39737E-01 -6.08922E-01 -6.72559E-01 -7.26974E-01 -7.66108E-01 -7.76543E-01
  -7.37937E-01 -7.00448E-01 -7.14271E-01 -7.66846E-01 -8.49467E-01 -9.72933E-01 -1.15537E+00 -1.40764E+00 -1.68384E+00 -1.92756E+00
  -2.13053E+00 -2.25136E+00 -2.23936E+00 -2.09070E+00 -1.85085E+00 -1.57730E+00 -1.31730E+00 -1.11375E+00 -1.00886E+00 -1.02115E+00
  -1.11993E+00 -1.24635E+00 -1.35282E+00 -1.42182E+00 -1.46253E+00 -1.48873E+00 -1.50607E+00 -1.51725E+00 -1.52377E+00 -1.52664E+00
  -1.52644E+00 -1.52373E+00 -1.51890E+00 -1.51238E+00 -1.50445E+00 -1.49545E+00 -1.48559E+00 -1.47521E+00 -1.46458E+00 -1.45403E+00
  -1.44376E+00 -1.43400E+00 -1.42486E+00 -1.41655E+00 -1.40910E+00 -1.40260E+00 -1.39689E+00 -1.39185E+00 -1.38719E+00 -1.38269E+00
  -1.37791E+00 -1.37239E+00 -1.36547E+00 -1.35649E+00 -1.34465E+00 -1.32912E+00 -1.30888E+00 -1.28282E+00 -1.24963E+00 -1.20796E+00
  -1.15629E+00 -1.09303E+00 -1.01639E+00 -9.24538E-01 -8.15545E-01 -6.87626E-01 -5.39054E-01 -3.68418E-01 -1.74569E-01  4.30370E-02
   2.84332E-01  5.48289E-01  8.32993E-01  1.13539E+00  1.45139E+00  1.77572E+00  2.10210E+00  2.42328E+00  2.73146E+00  3.01846E+00
   3.27623E+00  3.49707E+00  3.67416E+00  3.80181E+00  3.87596E+00  3.89425E+00  3.85632E+00  3.76359E+00  3.61940E+00  3.42858E+00
   3.19741E+00  2.93307E+00  2.64339E+00  2.33624E+00  2.01939E+00  1.70003E+00  1.38467E+00  1.07880E+00  7.86903E-01  5.12263E-01
   2.57203E-01  2.30072E-02 -1.89782E-01 -3.81425E-01 -5.52670E-01 -7.04768E-01 -8.39140E-01 -9.57423E-01 -1.06121E+00 -1.15218E+00
  -1.23188E+00 -1.30180E+00 -1.36321E+00 -1.41731E+00 -1.46506E+00 -1.50741E+00 -1.54509E+00 -1.57882E+00 -1.60909E+00 -1.63640E+00
  -1.66109E+00 -1.68355E+00 -1.70404E+00 -1.72286E+00 -1.74012E+00 -1.75605E+00 -1.77075E+00 -1.78441E+00 -1.79711E+00 -1.80899E+00
  -1.82005E+00 -1.83042E+00 -1.84011E+00 -1.84926E+00 -1.85787E+00 -1.86601E+00 -1.87367E+00 -1.88092E+00 -1.88776E+00 -1.89430E+00
  -1.90051E+00 -1.90643E+00 -1.91203E+00 -1.91738E+00 -1.92249E+00 -1.92741E+00 -1.93210E+00 -1.93661E+00 -1.94089E+00 -1.94503E+00
  -1.94901E+00 -1.95288E+00 -1.95657E+00 -1.96014E+00 -1.96355E+00 -1.96688E+00 -1.97010E+00 -1.97325E+00 -1.97627E+00 -1.97921E+00
  -1.98205E+00 -1.98485E+00 -1.98758E+00 -1.99026E+00 -1.99285E+00 -1.99539E+00 -1.99788E+00 -2.00036E+00 -2.00279E+00 -2.00520E+00
  -2.00755E+00 -2.00989E+00 -2.01221E+00 -2.01456E+00 -2.01688E+00 -2.01920E+00 -2.02150E+00 -2.02383E+00
 NY background values follow
     2.577E+00    2.558E+00    2.538E+00    2.519E+00    2.500E+00    2.481E+00    2.462E+00    2.443E+00    2.423E+00    2.404E+00
     2.385E+00    2.366E+00    2.347E+00    2.327E+00    2.308E+00    2.289E+00    2.270E+00    2.251E+00    2.231E+00    2.212E+00
     2.193E+00    2.174E+00    2.155E+00    2.135E+00    2.116E+00    2.097E+00    2.078E+00    2.059E+00    2.039E+00    2.020E+00
     2.001E+00    1.982E+00    1.963E+00    1.943E+00    1.924E+00    1.905E+00    1.886E+00    1.866E+00    1.847E+00    1.828E+00
     1.809E+00    1.790E+00    1.770E+00    1.751E+00    1.732E+00    1.713E+00    1.694E+00    1.674E+00    1.655E+00    1.636E+00
     1.617E+00    1.598E+00    1.579E+00    1.559E+00    1.540E+00    1.521E+00    1.502E+00    1.483E+00    1.464E+00    1.444E+00
     1.425E+00    1.406E+00    1.387E+00    1.368E+00    1.349E+00    1.330E+00    1.311E+00    1.292E+00    1.273E+00    1.254E+00
     1.235E+00    1.216E+00    1.197E+00    1.178E+00    1.159E+00    1.140E+00    1.121E+00    1.102E+00    1.083E+00    1.064E+00
     1.045E+00    1.026E+00    1.007E+00    9.886E-01    9.697E-01    9.509E-01    9.322E-01    9.134E-01    8.947E-01    8.759E-01
     8.572E-01    8.386E-01    8.199E-01    8.013E-01    7.826E-01    7.640E-01    7.455E-01    7.269E-01    7.084E-01    6.899E-01
     6.714E-01    6.530E-01    6.345E-01    6.161E-01    5.977E-01    5.794E-01    5.610E-01    5.427E-01    5.245E-01    5.062E-01
     4.880E-01    4.698E-01    4.516E-01    4.335E-01    4.154E-01    3.973E-01    3.792E-01    3.612E-01    3.432E-01    3.252E-01
     3.073E-01    2.894E-01    2.715E-01    2.537E-01    2.359E-01    2.181E-01    2.004E-01    1.827E-01    1.650E-01    1.473E-01
     1.297E-01    1.122E-01    9.462E-02    7.712E-02    5.965E-02    4.222E-02    2.482E-02    7.466E-03   -9.855E-03   -2.714E-02
    -4.438E-02   -6.158E-02   -7.875E-02   -9.587E-02   -1.129E-01   -1.300E-01   -1.470E-01   -1.639E-01   -1.808E-01   -1.977E-01
    -2.145E-01   -2.312E-01   -2.480E-01   -2.646E-01   -2.812E-01   -2.978E-01   -3.143E-01   -3.308E-01   -3.472E-01   -3.635E-01
    -3.798E-01   -3.960E-01   -4.122E-01   -4.284E-01   -4.444E-01   -4.604E-01   -4.764E-01   -4.923E-01   -5.081E-01   -5.239E-01
    -5.396E-01   -5.552E-01   -5.708E-01   -5.863E-01   -6.017E-01   -6.171E-01   -6.324E-01   -6.477E-01   -6.628E-01   -6.779E-01
    -6.930E-01   -7.079E-01   -7.228E-01   -7.376E-01   -7.524E-01   -7.671E-01   -7.817E-01   -7.962E-01   -8.106E-01   -8.250E-01
    -8.393E-01   -8.536E-01   -8.677E-01   -8.818E-01   -8.958E-01   -9.098E-01   -9.237E-01   -9.375E-01   -9.512E-01   -9.648E-01
    -9.784E-01   -9.919E-01   -1.005E+00   -1.019E+00   -1.032E+00   -1.045E+00   -1.058E+00   -1.071E+00   -1.084E+00   -1.097E+00
    -1.110E+00   -1.123E+00   -1.136E+00   -1.148E+00   -1.161E+00   -1.173E+00   -1.186E+00   -1.198E+00   -1.210E+00   -1.222E+00
    -1.234E+00   -1.246E+00   -1.258E+00   -1.270E+00   -1.282E+00   -1.294E+00   -1.305E+00   -1.317E+00   -1.328E+00   -1.340E+00
    -1.351E+00   -1.363E+00   -1.374E+00   -1.385E+00   -1.396E+00   -1.407E+00   -1.418E+00   -1.429E+00   -1.439E+00   -1.450E+00
    -1.461E+00   -1.471E+00   -1.481E+00   -1.492E+00   -1.502E+00   -1.512E+00   -1.522E+00   -1.533E+00   -1.543E+00   -1.552E+00
    -1.562E+00   -1.572E+00   -1.582E+00   -1.591E+00   -1.601E+00   -1.611E+00   -1.620E+00   -1.629E+00   -1.639E+00   -1.648E+00
    -1.657E+00   -1.666E+00   -1.675E+00   -1.684E+00   -1.693E+00   -1.701E+00   -1.710E+00   -1.719E+00   -1.727E+00   -1.736E+00
    -1.744E+00   -1.753E+00   -1.761E+00   -1.769E+00   -1.777E+00   -1.785E+00   -1.793E+00   -1.801E+00   -1.809E+00   -1.817E+00
    -1.824E+00   -1.832E+00   -1.840E+00   -1.847E+00   -1.855E+00   -1.862E+00   -1.869E+00   -1.876E+00   -1.884E+00   -1.891E+00
    -1.898E+00   -1.905E+00   -1.912E+00   -1.918E+00   -1.925E+00   -1.932E+00   -1.938E+00   -1.945E+00   -1.951E+00   -1.958E+00
    -1.964E+00   -1.970E+00   -1.977E+00   -1.983E+00   -1.989E+00   -1.995E+00   -2.001E+00   -2.007E+00   -2.013E+00   -2.018E+00
    -2.024E+00   -2.030E+00   -2.035E+00   -2.041E+00   -2.046E+00   -2.052E+00   -2.057E+00   -2.062E+00   -2.067E+00   -2.073E+00
    -2.078E+00   -2.083E+00   -2.088E+00   -2.092E+00   -2.097E+00   -2.102E+00   -2.107E+00   -2.111E+00   -2.116E+00   -2.120E+00
    -2.125E+00   -2.129E+00   -2.134E+00   -2.138E+00   -2.142E+00   -2.146E+00   -2.150E+00   -2.154E+00   -2.158E+00   -2.162E+00
    -2.166E+00   -2.170E+00   -2.174E+00   -2.177E+00   -2.181E+00   -2.184E+00   -2.188E+00   -2.191E+00   -2.195E+00   -2.198E+00
    -2.201E+00   -2.204E+00   -2.208E+00   -2.211E+00   -2.214E+00   -2.217E+00   -2.220E+00   -2.223E+00   -2.225E+00   -2.228E+00
    -2.231E+00   -2.233E+00   -2.236E+00   -2.239E+00   -2.241E+00   -2.244E+00   -2.246E+00   -2.248E+00   -2.251E+00   -2.253E+00
    -2.255E+00   -2.257E+00   -2.259E+00   -2.261E+00   -2.263E+00   -2.265E+00   -2.267E+00   -2.269E+00   -2.271E+00   -2.272E+00
    -2.274E+00   -2.276E+00   -2.277E+00   -2.279E+00   -2.280E+00   -2.282E+00   -2.283E+00   -2.285E+00   -2.286E+00   -2.287E+00
    -2.288E+00   -2.290E+00   -2.291E+00   -2.292E+00   -2.293E+00   -2.294E+00   -2.295E+00   -2.296E+00   -2.297E+00   -2.298E+00
    -2.299E+00   -2.300E+00   -2.301E+00   -2.301E+00   -2.302E+00   -2.303E+00   -2.304E+00   -2.304E+00   -2.305E+00   -2.305E+00
    -2.306E+00   -2.306E+00   -2.307E+00   -2.307E+00   -2.308E+00   -2.308E+00   -2.309E+00   -2.309E+00   -2.309E+00   -2.310E+00
    -2.310E+00   -2.310E+00   -2.310E+00   -2.311E+00   -2.311E+00   -2.311E+00   -2.311E+00   -2.311E+00   -2.311E+00   -2.311E+00
    -2.311E+00   -2.311E+00   -2.311E+00   -2.311E+00   -2.311E+00   -2.311E+00   -2.311E+00   -2.311E+00   -2.311E+00   -2.311E+00
    -2.311E+00   -2.311E+00   -2.310E+00   -2.310E+00   -2.310E+00   -2.310E+00   -2.310E+00   -2.309E+00   -2.309E+00   -2.309E+00
    -2.308E+00   -2.308E+00   -2.308E+00   -2.308E+00   -2.307E+00   -2.307E+00   -2.307E+00   -2.306E+00   -2.306E+00   -2.305E+00
    -2.305E+00   -2.305E+00   -2.304E+00   -2.304E+00   -2.303E+00   -2.303E+00   -2.303E+00   -2.302E+00   -2.302E+00   -2.301E+00
    -2.301E+00   -2.300E+00   -2.300E+00   -2.299E+00   -2.299E+00   -2.298E+00   -2.298E+00   -2.297E+00   -2.297E+00   -2.296E+00
    -2.296E+00   -2.295E+00   -2.295E+00   -2.294E+00   -2.294E+00   -2.293E+00   -2.293E+00   -2.292E+00   -2.292E+00   -2.291E+00
    -2.291E+00   -2.290E+00   -2.290E+00   -2.289E+00   -2.289E+00   -2.288E+00   -2.288E+00   -2.287E+00
 Ala      Conc. = 6.80E+01
