 LCModel (Version 6.3-1L) Copyright: S.W. Provencher.          Ref.: Magn. Reson. Med. 30:672-679 (1993).                
 Slice#2 Row#7 Col#7  PD_05_press_1_raw_act
 36 lines in following concentration table = NCONC+1
    Conc.  %SD /Cr+PCr  Metabolite                                         
  222.922  44%   0.176 Ala                                                 
  213.934  94%   0.169 Asp                                                 
  187.615 103%   0.148 Cr                                                  
 1.08E+03  18%   0.852 PCr                                                 
    0.000 999%   0.000 GABA                                                
   83.360 164% 6.6E-02 Glc                                                 
  971.362  21%   0.768 Gln                                                 
 1.55E+03  14%   1.228 Glu                                                 
  554.837   4%   0.439 GPC                                                 
    0.000 999%   0.000 PCh                                                 
  539.651  13%   0.427 GSH                                                 
 1.19E+03  19%   0.940 Ins                                                 
    0.000 999%   0.000 Lac                                                 
 2.17E+03   3%   1.713 NAA                                                 
    0.000 999%   0.000 NAAG                                                
   99.920  24% 7.9E-02 Scyllo                                              
   53.227 343% 4.2E-02 Tau                                                 
    0.000 999%   0.000 -CrCH2                                              
  554.837   4%   0.439 GPC+PCh                                             
 2.17E+03   3%   1.713 NAA+NAAG                                            
 1.27E+03   4%   1.000 Cr+PCr                                              
 2.53E+03  12%   1.996 Glu+Gln                                             
  637.187  43%   0.504 Lip13a                                              
    0.000 999%   0.000 Lip13b                                              
    0.000 999%   0.000 Lip09                                               
 1.15E+03  14%   0.911 MM09                                                
  125.346  80% 9.9E-02 Lip20                                               
 2.73E+03  11%   2.162 MM20                                                
  368.592  29%   0.291 MM12                                                
 1.38E+03  20%   1.092 MM14                                                
  917.179  21%   0.725 MM17                                                
  637.187  43%   0.504 Lip13a+Lip13b                                       
 2.39E+03  13%   1.887 MM14+Lip13a+Lip13b+MM12                             
 1.15E+03  14%   0.911 MM09+Lip09                                          
 2.86E+03  11%   2.261 MM20+Lip20                                          
   6 lines in following misc. output table
  FWHM = 0.054 ppm    S/N =  12                                            
  Data shift = 0.000 ppm                                                   
  Ph: -56 deg     -12.4 deg/ppm                                            
  alphaB,S = 2.0E+00,   1.8E+02                                            
   14 spline knots.   Ns = 6(1)                                            
  (13) 4 infls.   ( 5) 1 extrs.                                            
  498 points on ppm-axis = NY
      4.000000     3.992357     3.984714     3.977070     3.969427     3.961784     3.954141     3.946497     3.938854     3.931211
      3.923568     3.915925     3.908281     3.900638     3.892995     3.885352     3.877708     3.870065     3.862422     3.854779
      3.847136     3.839492     3.831849     3.824206     3.816563     3.808919     3.801276     3.793633     3.785990     3.778347
      3.770703     3.763060     3.755417     3.747774     3.740130     3.732487     3.724844     3.717201     3.709558     3.701914
      3.694271     3.686628     3.678985     3.671341     3.663698     3.656055     3.648412     3.640769     3.633125     3.625482
      3.617839     3.610196     3.602552     3.594909     3.587266     3.579623     3.571980     3.564336     3.556693     3.549050
      3.541407     3.533763     3.526120     3.518477     3.510834     3.503191     3.495547     3.487904     3.480261     3.472618
      3.464974     3.457331     3.449688     3.442045     3.434402     3.426758     3.419115     3.411472     3.403829     3.396185
      3.388542     3.380899     3.373256     3.365613     3.357969     3.350326     3.342683     3.335040     3.327396     3.319753
      3.312110     3.304467     3.296824     3.289180     3.281537     3.273894     3.266251     3.258607     3.250964     3.243321
      3.235678     3.228034     3.220391     3.212748     3.205105     3.197462     3.189818     3.182175     3.174532     3.166889
      3.159245     3.151602     3.143959     3.136316     3.128673     3.121029     3.113386     3.105743     3.098100     3.090456
      3.082813     3.075170     3.067527     3.059884     3.052240     3.044597     3.036954     3.029311     3.021667     3.014024
      3.006381     2.998738     2.991095     2.983451     2.975808     2.968165     2.960522     2.952878     2.945235     2.937592
      2.929949     2.922306     2.914662     2.907019     2.899376     2.891733     2.884089     2.876446     2.868803     2.861160
      2.853517     2.845873     2.838230     2.830587     2.822944     2.815300     2.807657     2.800014     2.792371     2.784728
      2.777084     2.769441     2.761798     2.754155     2.746511     2.738868     2.731225     2.723582     2.715939     2.708295
      2.700652     2.693009     2.685366     2.677722     2.670079     2.662436     2.654793     2.647150     2.639506     2.631863
      2.624220     2.616577     2.608933     2.601290     2.593647     2.586004     2.578361     2.570717     2.563074     2.555431
      2.547788     2.540144     2.532501     2.524858     2.517215     2.509572     2.501928     2.494285     2.486642     2.478999
      2.471355     2.463712     2.456069     2.448426     2.440783     2.433139     2.425496     2.417853     2.410210     2.402566
      2.394923     2.387280     2.379637     2.371994     2.364350     2.356707     2.349064     2.341421     2.333777     2.326134
      2.318491     2.310848     2.303205     2.295561     2.287918     2.280275     2.272632     2.264988     2.257345     2.249702
      2.242059     2.234416     2.226772     2.219129     2.211486     2.203843     2.196199     2.188556     2.180913     2.173270
      2.165627     2.157983     2.150340     2.142697     2.135054     2.127410     2.119767     2.112124     2.104481     2.096838
      2.089194     2.081551     2.073908     2.066265     2.058621     2.050978     2.043335     2.035692     2.028049     2.020405
      2.012762     2.005119     1.997476     1.989833     1.982190     1.974546     1.966903     1.959260     1.951617     1.943974
      1.936331     1.928688     1.921045     1.913402     1.905759     1.898115     1.890472     1.882829     1.875186     1.867543
      1.859900     1.852257     1.844614     1.836971     1.829327     1.821684     1.814041     1.806398     1.798755     1.791112
      1.783469     1.775826     1.768183     1.760540     1.752896     1.745253     1.737610     1.729967     1.722324     1.714681
      1.707038     1.699395     1.691752     1.684108     1.676465     1.668822     1.661179     1.653536     1.645893     1.638250
      1.630607     1.622964     1.615321     1.607677     1.600034     1.592391     1.584748     1.577105     1.569462     1.561819
      1.554176     1.546533     1.538890     1.531246     1.523603     1.515960     1.508317     1.500674     1.493031     1.485388
      1.477745     1.470102     1.462458     1.454815     1.447172     1.439529     1.431886     1.424243     1.416600     1.408957
      1.401314     1.393671     1.386027     1.378384     1.370741     1.363098     1.355455     1.347812     1.340169     1.332526
      1.324883     1.317240     1.309596     1.301953     1.294310     1.286667     1.279024     1.271381     1.263738     1.256095
      1.248452     1.240808     1.233165     1.225522     1.217879     1.210236     1.202593     1.194950     1.187307     1.179664
      1.172021     1.164377     1.156734     1.149091     1.141448     1.133805     1.126162     1.118519     1.110876     1.103233
      1.095590     1.087946     1.080303     1.072660     1.065017     1.057374     1.049731     1.042088     1.034445     1.026802
      1.019158     1.011515     1.003872     0.996229     0.988586     0.980943     0.973300     0.965657     0.958014     0.950371
      0.942727     0.935084     0.927441     0.919798     0.912155     0.904512     0.896869     0.889226     0.881583     0.873940
      0.866296     0.858653     0.851010     0.843367     0.835724     0.828081     0.820438     0.812795     0.805152     0.797508
      0.789865     0.782222     0.774579     0.766936     0.759293     0.751650     0.744007     0.736364     0.728721     0.721077
      0.713434     0.705791     0.698148     0.690505     0.682862     0.675219     0.667576     0.659933     0.652290     0.644646
      0.637003     0.629360     0.621717     0.614074     0.606431     0.598788     0.591145     0.583502     0.575858     0.568215
      0.560572     0.552929     0.545286     0.537643     0.530000     0.522357     0.514714     0.507071     0.499427     0.491784
      0.484141     0.476498     0.468855     0.461212     0.453569     0.445925     0.438282     0.430639     0.422996     0.415353
      0.407710     0.400067     0.392424     0.384780     0.377137     0.369494     0.361851     0.354208     0.346565     0.338922
      0.331278     0.323635     0.315992     0.308349     0.300706     0.293063     0.285420     0.277777     0.270133     0.262490
      0.254847     0.247204     0.239561     0.231918     0.224275     0.216631     0.208988     0.201345
 NY phased data points follow
  -1.46288E+01 -1.35110E+01 -1.46408E+01 -1.21295E+01 -3.99282E+00 -1.05374E+00  2.93860E+00  1.42424E+01  1.51757E+01  2.20613E+01
   2.75585E+01  1.95623E+01  1.26520E+01  6.45396E+00  3.06466E+00  3.52292E+00 -4.43008E+00 -6.06809E+00 -8.56427E-02 -8.50754E+00
  -5.49835E+00 -8.40691E+00 -5.43357E+00 -8.36296E+00  2.54937E-02 -2.65795E+00 -7.21412E-01  3.82833E+00  5.30877E+00  3.53020E+00
   5.45556E+00  2.79453E+00  4.73205E+00  8.36352E-01 -1.80949E+00  2.15339E-01  1.16129E+00 -3.94999E+00 -2.01142E+00 -4.71285E+00
  -8.74615E-01 -1.39571E+00  2.15757E-01  1.99222E+00 -9.02548E-01  4.25451E+00  5.34024E+00  5.14946E+00  5.95506E+00  3.78762E+00
   1.43031E-02  9.69530E-01 -4.96365E+00 -4.90841E+00 -5.63430E+00 -4.61680E+00 -5.54407E+00 -3.15018E+00 -2.22636E+00 -5.33555E+00
  -5.21417E+00 -6.96960E+00 -8.14220E+00 -1.01896E+01 -8.85294E+00 -1.11655E+01 -8.60264E+00 -1.20426E+01 -9.85299E+00 -1.10298E+01
  -1.01991E+01 -9.36516E+00 -6.81236E+00 -7.70917E+00 -2.91426E+00 -5.49471E+00 -6.20952E+00 -5.72068E+00 -4.36221E+00 -3.52264E+00
  -5.23238E+00 -3.80435E+00 -1.00662E+01 -6.01903E+00 -7.82665E+00 -2.03207E+00 -4.18895E+00 -4.64700E+00 -5.57207E+00 -2.75580E+00
  -6.85384E-01 -3.85204E+00 -1.13850E+00 -8.78109E+00 -1.79145E+00 -9.34862E-01 -1.85800E+00  3.51569E+00  6.38706E+00  1.19376E+01
   2.69653E+01  4.01528E+01  4.58704E+01  4.59514E+01  3.82556E+01  3.18972E+01  1.81526E+01  1.56727E+01  8.82052E+00  9.02511E+00
   2.96817E+00  4.18380E+00 -2.19615E+00  1.80616E+00 -1.17433E+00 -2.33109E+00 -3.15733E+00 -4.98347E+00 -1.64472E+00 -3.83603E-01
  -1.60688E+00 -5.31596E-01  1.08059E+00  1.16358E+01  2.29157E+01  3.07630E+01  3.98043E+01  3.83358E+01  3.91236E+01  2.97635E+01
   1.88266E+01  1.74237E+01  5.83748E+00  7.89975E+00  1.40344E+00 -2.18335E+00 -4.72638E+00 -1.98147E+00 -5.98380E+00 -2.36664E+00
  -5.33073E+00 -7.86927E+00 -8.80352E+00 -4.91224E+00 -1.79448E+00 -2.20296E+00 -7.65087E+00 -6.10056E+00 -4.34439E+00 -4.70581E+00
  -3.86417E+00 -4.45636E+00 -4.22506E+00 -1.13852E+01 -4.63263E+00 -5.81287E+00 -6.85175E+00 -8.71746E+00 -9.63236E+00 -8.46344E+00
  -7.49602E+00 -8.87422E+00 -8.74097E+00 -6.62611E+00 -7.86464E+00 -2.15770E+00 -2.19597E+00 -2.91060E+00 -6.55378E+00 -3.20130E+00
  -9.90211E+00 -1.03779E+01 -1.30798E+01 -8.97309E+00 -1.35274E+01 -1.78909E+01 -1.33901E+01 -1.31013E+01 -9.54039E+00 -1.12665E+01
  -1.45112E+01 -1.78779E+01 -1.72432E+01 -9.96184E+00 -1.10176E+01 -8.88931E+00 -1.16119E+01 -3.93851E+00 -2.18587E+00 -4.43362E+00
  -6.34096E+00 -5.46281E-01  5.78422E-01 -4.24359E-01 -1.67437E+00 -2.79592E+00 -3.19413E+00 -8.89731E+00 -2.63206E+00 -3.14412E+00
  -7.36753E-01  4.20101E+00 -2.59010E+00  1.61822E+00 -1.97005E+00 -2.90044E+00 -1.97864E+00 -3.66423E+00 -8.17735E+00 -8.96299E+00
  -8.97012E+00 -4.51450E+00 -2.41283E+00  3.94771E+00  1.03727E+01  1.18401E+01  6.96876E+00  9.80148E+00  5.30068E+00  8.38770E-01
  -4.57795E+00 -4.32051E+00 -7.84490E+00  5.13259E+00  1.43609E+00  2.69481E+00  2.86137E+00  5.71775E+00  6.64929E+00  7.97937E+00
   8.12746E+00  9.02772E+00  3.88712E+00  5.67625E+00  3.56482E+00  8.18079E+00  6.86402E+00  5.47181E+00 -1.48694E-02  4.00399E+00
   7.53547E+00  1.84565E+00  4.72455E+00  5.87283E+00  8.32267E+00  5.27276E+00  6.55164E+00  1.24042E+01  7.64717E+00  1.22830E+01
   1.15846E+01  1.13531E+01  1.14688E+01  1.03277E+01  1.42135E+01  2.45730E+01  3.47837E+01  5.01869E+01  5.87779E+01  7.51336E+01
   8.26207E+01  7.85410E+01  6.04123E+01  5.14399E+01  4.05389E+01  3.31298E+01  2.48820E+01  1.94610E+01  1.18165E+01  1.19082E+01
   1.06995E+01  5.72964E+00  6.68899E+00  4.49163E+00  1.12333E+00  3.35523E+00 -6.73187E-01  2.83354E+00  3.52849E+00  9.80554E-01
   2.41769E+00  4.21933E+00  2.16411E+00 -1.34530E+00 -8.35150E-01  6.93455E+00  1.12256E+00  2.95669E+00  2.81975E+00 -7.99401E-01
  -1.10886E-01  5.12156E+00  3.05969E+00  1.28150E-01  1.38448E+00  4.59077E-01  7.73530E-01  3.72414E+00  4.21271E+00  5.84064E+00
   3.19290E+00  3.82228E+00 -1.31897E-01  4.57460E+00  5.89363E+00  7.61052E+00  4.58171E+00  6.89072E+00  3.80380E+00  4.31467E+00
   6.45110E+00  8.34722E+00  9.44742E+00  9.17612E+00  7.02297E+00  9.78204E+00  6.05355E+00  1.26656E+01  6.23761E+00  8.37631E+00
   3.98015E+00  5.67058E+00  6.92531E+00  1.01221E+01  7.80420E+00  6.25921E+00  6.06005E+00  7.47181E-01  6.70648E+00  1.51151E+00
   5.05907E+00  3.97495E+00  2.14412E+00  7.98236E+00  9.28080E+00  8.37143E+00  9.86654E+00  5.52324E+00  9.92310E+00  4.38500E+00
   9.78474E+00  6.00709E+00  6.43567E+00  9.33918E+00  1.05714E+01  6.86587E+00  1.16199E+01  3.55818E+00  8.62227E+00  2.98534E+00
   1.05634E+01  8.26499E+00  6.98983E+00  4.95079E+00  8.39844E+00  6.30443E+00  3.79260E+00  1.39618E-01  1.77369E+00  2.20049E+00
   6.37690E+00  8.92170E+00  1.12800E+00  1.80562E+00  3.97540E+00  3.94296E+00  2.82274E+00  1.81074E+00  4.41283E+00  9.44228E+00
   2.34321E+00  6.24732E+00  6.37059E-01  4.53809E+00  5.08644E+00  5.18993E+00  7.59353E+00  4.07636E+00  1.20809E+00  5.04264E+00
   5.45378E-01  3.41967E+00 -1.69825E-01  2.13774E-01  1.72837E+00  3.71861E+00 -3.59207E+00 -1.33748E+00  2.98989E+00  1.07578E+00
   2.27965E+00 -1.51247E+00  7.53775E-01  3.54386E+00  4.03300E+00  6.17128E+00  5.34766E+00  9.29303E+00  4.90768E+00  6.18514E+00
   2.84814E+00  4.78246E+00  7.82321E+00  3.79341E+00  4.09070E+00  9.20567E+00  4.75929E+00  2.03928E+00  2.58155E+00  8.97058E+00
   7.06507E+00  7.76821E+00  4.71341E+00  1.00446E+01  1.92734E+00  7.67178E-01  1.70208E+00  5.32380E-01  1.08797E+00  3.58845E+00
  -1.30163E+00  7.08847E-02  2.81612E+00  2.06099E+00 -1.03961E+00 -6.01959E-01 -7.35941E-01  1.84298E-01  4.47798E+00  1.16990E+00
  -7.16393E-01 -1.93441E+00  9.59510E-01 -1.34793E+00 -1.69346E+00  6.20870E-01 -1.36685E+00 -2.39660E+00 -7.60904E+00 -2.39160E+00
   1.10519E+00  4.75654E+00 -4.31360E+00  6.33761E-01  3.64399E+00 -9.34016E-01 -5.49332E+00 -2.87844E+00 -6.10108E-01 -2.45382E+00
   8.94964E-01  1.64563E+00 -2.42485E+00 -5.90974E+00 -1.05213E+00 -1.44434E+00 -5.00923E-01  3.55306E+00  1.70494E+00 -4.09413E+00
   3.72433E+00  6.67994E-02 -1.34955E+00 -7.89303E-01 -1.91650E+00 -4.52729E+00 -3.17409E-01  1.20029E+00 -3.16901E+00 -2.40434E+00
   1.21184E+00  1.21314E+00  3.00397E-01  6.42152E-01  6.99678E-02  6.57540E-01 -1.46434E+00  1.94662E+00  2.84306E+00 -2.51361E+00
   2.97374E+00 -2.67243E+00 -1.93278E+00 -6.63379E-01  2.50140E+00 -6.23942E+00  1.85604E+00  1.98300E-04  8.71729E-01 -1.12402E+00
   1.88037E+00  2.85230E+00 -1.05410E+00  3.69169E+00  8.89654E-01  4.35665E-01 -1.61181E-02 -2.20626E+00
 NY points of the fit to the data follow
  -9.69063E+00 -9.78670E+00 -9.53655E+00 -8.27188E+00 -4.98958E+00  3.71569E-02  6.18135E+00  1.24819E+01  1.76047E+01  2.02605E+01
   1.99204E+01  1.71397E+01  1.31530E+01  9.10734E+00  5.51604E+00  2.24780E+00 -9.20355E-01 -3.44240E+00 -4.67324E+00 -5.17899E+00
  -5.36527E+00 -5.51555E+00 -5.77077E+00 -5.67935E+00 -4.90568E+00 -3.54326E+00 -1.57597E+00  8.52722E-01  3.26141E+00  5.10847E+00
   6.00112E+00  5.84441E+00  4.82457E+00  3.17455E+00  1.04653E+00 -1.36659E+00 -3.73679E+00 -5.27292E+00 -5.93255E+00 -6.20916E+00
  -6.01825E+00 -5.13542E+00 -3.56007E+00 -1.55917E+00  5.03937E-01  2.27451E+00  3.29915E+00  3.23594E+00  2.14749E+00  3.96928E-01
  -1.48117E+00 -3.07000E+00 -4.33602E+00 -5.35698E+00 -6.00034E+00 -6.03243E+00 -5.52543E+00 -4.84493E+00 -4.27839E+00 -4.02572E+00
  -4.20360E+00 -4.76210E+00 -5.52404E+00 -6.22517E+00 -6.69396E+00 -6.90568E+00 -6.87756E+00 -6.63138E+00 -6.24271E+00 -5.79048E+00
  -5.34621E+00 -5.01929E+00 -4.86758E+00 -4.89566E+00 -5.05874E+00 -5.28205E+00 -5.53005E+00 -5.77257E+00 -6.01458E+00 -6.20057E+00
  -6.20347E+00 -5.85820E+00 -5.25086E+00 -4.56817E+00 -3.94723E+00 -3.56817E+00 -3.59850E+00 -4.05528E+00 -4.75610E+00 -5.42916E+00
  -5.85410E+00 -6.03287E+00 -6.12758E+00 -6.27480E+00 -6.41265E+00 -6.21193E+00 -5.07646E+00 -1.00512E+00  6.72399E+00  1.69927E+01
   2.82421E+01  3.82261E+01  4.43060E+01  4.47624E+01  3.99873E+01  3.21757E+01  2.38716E+01  1.65513E+01  1.02455E+01  4.32405E+00
  -9.15844E-01 -3.75437E+00 -4.62880E+00 -4.95595E+00 -5.11993E+00 -5.21973E+00 -5.27647E+00 -5.28267E+00 -5.18823E+00 -4.90585E+00
  -4.08761E+00 -1.18067E+00  4.92680E+00  1.32900E+01  2.26786E+01  3.14547E+01  3.75389E+01  3.92983E+01  3.65408E+01  3.07145E+01
   2.39020E+01  1.74355E+01  1.14929E+01  5.66075E+00  1.29377E-01 -3.29611E+00 -4.14222E+00 -3.97167E+00 -3.45813E+00 -2.94331E+00
  -2.55480E+00 -2.29366E+00 -2.21895E+00 -2.32325E+00 -2.54816E+00 -2.89556E+00 -3.34439E+00 -3.82349E+00 -4.28904E+00 -4.64392E+00
  -4.91565E+00 -5.12110E+00 -5.25501E+00 -5.32092E+00 -5.34367E+00 -5.42153E+00 -5.65674E+00 -6.03995E+00 -6.50516E+00 -6.90324E+00
  -7.08620E+00 -7.02014E+00 -6.74872E+00 -6.39315E+00 -6.12429E+00 -6.06884E+00 -6.21753E+00 -6.45801E+00 -6.69225E+00 -6.94287E+00
  -7.31432E+00 -7.84917E+00 -8.44432E+00 -8.92033E+00 -9.19013E+00 -9.29411E+00 -9.27331E+00 -9.14114E+00 -8.99682E+00 -8.93345E+00
  -8.94290E+00 -8.97225E+00 -8.94708E+00 -8.71059E+00 -8.22228E+00 -7.47113E+00 -6.33555E+00 -4.88510E+00 -3.42203E+00 -2.35873E+00
  -2.05715E+00 -2.48378E+00 -3.31547E+00 -4.18785E+00 -4.82784E+00 -5.07606E+00 -4.82221E+00 -3.97273E+00 -2.58605E+00 -8.07541E-01
   1.06811E+00  2.67809E+00  3.70565E+00  3.86692E+00  2.72870E+00  4.70240E-01 -2.29666E+00 -5.05747E+00 -7.22665E+00 -8.13349E+00
  -7.35130E+00 -5.06410E+00 -1.91895E+00  1.44561E+00  4.32868E+00  6.05765E+00  6.08578E+00  4.25079E+00  9.97185E-01 -2.41253E+00
  -5.04570E+00 -6.50603E+00 -6.58919E+00 -5.28405E+00 -2.90475E+00 -2.70750E-01  1.79937E+00  3.15940E+00  3.99642E+00  4.48929E+00
   4.63890E+00  4.61961E+00  4.70376E+00  5.03801E+00  5.52548E+00  6.09490E+00  6.60325E+00  6.76098E+00  6.48888E+00  5.88199E+00
   5.15998E+00  4.61777E+00  4.52303E+00  4.90261E+00  5.60010E+00  6.49777E+00  7.31097E+00  7.95673E+00  8.58704E+00  9.35301E+00
   1.02121E+01  1.10197E+01  1.18838E+01  1.31044E+01  1.61202E+01  2.36689E+01  3.54101E+01  4.95355E+01  6.37398E+01  7.47509E+01
   7.91968E+01  7.57706E+01  6.61370E+01  5.38405E+01  4.20377E+01  3.19946E+01  2.31422E+01  1.47141E+01  7.98850E+00  5.02474E+00
   3.98740E+00  3.47378E+00  3.22894E+00  3.12717E+00  3.02036E+00  2.87464E+00  2.67969E+00  2.44683E+00  2.20049E+00  1.95809E+00
   1.71991E+00  1.50600E+00  1.34487E+00  1.23666E+00  1.16532E+00  1.12122E+00  1.10326E+00  1.11470E+00  1.15382E+00  1.21402E+00
   1.30086E+00  1.41878E+00  1.56863E+00  1.75042E+00  1.96391E+00  2.20830E+00  2.48067E+00  2.77722E+00  3.09559E+00  3.43128E+00
   3.77825E+00  4.13051E+00  4.48075E+00  4.82087E+00  5.14296E+00  5.43996E+00  5.70596E+00  5.93622E+00  6.12725E+00  6.27702E+00
   6.38538E+00  6.45473E+00  6.48955E+00  6.49557E+00  6.48046E+00  6.45364E+00  6.42640E+00  6.41228E+00  6.42860E+00  6.50151E+00
   6.68302E+00  7.03245E+00  7.41896E+00  7.67305E+00  7.68282E+00  7.35489E+00  6.65715E+00  5.67803E+00  4.62180E+00  3.84184E+00
   3.58394E+00  3.84484E+00  4.52301E+00  5.48704E+00  6.59770E+00  7.67374E+00  8.40792E+00  8.71769E+00  8.74295E+00  8.63033E+00
   8.44734E+00  8.16776E+00  7.77219E+00  7.41082E+00  7.15779E+00  6.95479E+00  6.77535E+00  6.60982E+00  6.45385E+00  6.30519E+00
   6.16244E+00  6.02443E+00  5.88996E+00  5.75771E+00  5.62624E+00  5.49414E+00  5.36001E+00  5.22257E+00  5.08067E+00  4.93337E+00
   4.78008E+00  4.62059E+00  4.45505E+00  4.28400E+00  4.10827E+00  3.92905E+00  3.74783E+00  3.56637E+00  3.38664E+00  3.21069E+00
   3.04065E+00  2.87866E+00  2.72690E+00  2.58749E+00  2.46248E+00  2.35376E+00  2.26309E+00  2.19214E+00  2.14247E+00  2.11554E+00
   2.11263E+00  2.13489E+00  2.18332E+00  2.25881E+00  2.36205E+00  2.49349E+00  2.65322E+00  2.84098E+00  3.05599E+00  3.29696E+00
   3.56192E+00  3.84813E+00  4.15202E+00  4.46912E+00  4.79417E+00  5.12110E+00  5.44314E+00  5.75295E+00  6.04287E+00  6.30517E+00
   6.53238E+00  6.71760E+00  6.85477E+00  6.93895E+00  6.96662E+00  6.93583E+00  6.84636E+00  6.69968E+00  6.49891E+00  6.24861E+00
   5.95465E+00  5.62387E+00  5.26381E+00  4.88232E+00  4.48725E+00  4.08613E+00  3.68596E+00  3.29301E+00  2.91263E+00  2.54919E+00
   2.20602E+00  1.88548E+00  1.58904E+00  1.31737E+00  1.07042E+00  8.47575E-01  6.47770E-01  4.69634E-01  3.11612E-01  1.72043E-01
   4.92201E-02 -5.85565E-02 -1.52916E-01 -2.35370E-01 -3.07295E-01 -3.69941E-01 -4.24443E-01 -4.71819E-01 -5.12961E-01 -5.48630E-01
  -5.79483E-01 -6.06092E-01 -6.28975E-01 -6.48583E-01 -6.65299E-01 -6.79438E-01 -6.91272E-01 -7.01047E-01 -7.08993E-01 -7.15306E-01
  -7.20144E-01 -7.23628E-01 -7.25872E-01 -7.26995E-01 -7.27110E-01 -7.26309E-01 -7.24661E-01 -7.22225E-01 -7.19061E-01 -7.15238E-01
  -7.10815E-01 -7.05831E-01 -7.00313E-01 -6.94287E-01 -6.87795E-01 -6.80881E-01 -6.73579E-01 -6.65907E-01 -6.57874E-01 -6.49494E-01
  -6.40795E-01 -6.31804E-01 -6.22536E-01 -6.12990E-01 -6.03168E-01 -5.93085E-01 -5.82764E-01 -5.72225E-01 -5.61469E-01 -5.50487E-01
  -5.39279E-01 -5.27858E-01 -5.16240E-01 -5.04429E-01 -4.92412E-01 -4.80177E-01 -4.67724E-01 -4.55062E-01 -4.42197E-01 -4.29116E-01
  -4.15797E-01 -4.02222E-01 -3.88384E-01 -3.74279E-01 -3.59893E-01 -3.45188E-01 -3.30122E-01 -3.14660E-01
 NY background values follow
    -1.190E+01   -1.186E+01   -1.182E+01   -1.178E+01   -1.174E+01   -1.170E+01   -1.166E+01   -1.162E+01   -1.158E+01   -1.154E+01
    -1.150E+01   -1.146E+01   -1.142E+01   -1.138E+01   -1.134E+01   -1.130E+01   -1.126E+01   -1.122E+01   -1.118E+01   -1.114E+01
    -1.110E+01   -1.106E+01   -1.102E+01   -1.098E+01   -1.094E+01   -1.090E+01   -1.086E+01   -1.082E+01   -1.078E+01   -1.074E+01
    -1.070E+01   -1.067E+01   -1.063E+01   -1.059E+01   -1.055E+01   -1.051E+01   -1.047E+01   -1.043E+01   -1.039E+01   -1.035E+01
    -1.031E+01   -1.027E+01   -1.023E+01   -1.019E+01   -1.016E+01   -1.012E+01   -1.008E+01   -1.004E+01   -1.000E+01   -9.962E+00
    -9.924E+00   -9.885E+00   -9.847E+00   -9.808E+00   -9.770E+00   -9.732E+00   -9.694E+00   -9.655E+00   -9.617E+00   -9.579E+00
    -9.541E+00   -9.503E+00   -9.466E+00   -9.428E+00   -9.390E+00   -9.352E+00   -9.315E+00   -9.277E+00   -9.240E+00   -9.202E+00
    -9.165E+00   -9.128E+00   -9.091E+00   -9.053E+00   -9.016E+00   -8.979E+00   -8.942E+00   -8.905E+00   -8.868E+00   -8.832E+00
    -8.795E+00   -8.758E+00   -8.722E+00   -8.685E+00   -8.649E+00   -8.612E+00   -8.576E+00   -8.540E+00   -8.503E+00   -8.467E+00
    -8.431E+00   -8.395E+00   -8.359E+00   -8.323E+00   -8.288E+00   -8.252E+00   -8.216E+00   -8.180E+00   -8.145E+00   -8.109E+00
    -8.074E+00   -8.038E+00   -8.003E+00   -7.968E+00   -7.932E+00   -7.897E+00   -7.862E+00   -7.826E+00   -7.791E+00   -7.756E+00
    -7.721E+00   -7.686E+00   -7.650E+00   -7.615E+00   -7.580E+00   -7.545E+00   -7.510E+00   -7.475E+00   -7.440E+00   -7.405E+00
    -7.370E+00   -7.335E+00   -7.299E+00   -7.264E+00   -7.229E+00   -7.194E+00   -7.159E+00   -7.124E+00   -7.089E+00   -7.053E+00
    -7.018E+00   -6.983E+00   -6.948E+00   -6.912E+00   -6.877E+00   -6.842E+00   -6.806E+00   -6.771E+00   -6.735E+00   -6.700E+00
    -6.664E+00   -6.629E+00   -6.593E+00   -6.557E+00   -6.521E+00   -6.485E+00   -6.450E+00   -6.414E+00   -6.378E+00   -6.342E+00
    -6.306E+00   -6.269E+00   -6.233E+00   -6.197E+00   -6.160E+00   -6.124E+00   -6.088E+00   -6.051E+00   -6.014E+00   -5.978E+00
    -5.941E+00   -5.904E+00   -5.867E+00   -5.830E+00   -5.793E+00   -5.756E+00   -5.719E+00   -5.681E+00   -5.644E+00   -5.607E+00
    -5.569E+00   -5.531E+00   -5.494E+00   -5.456E+00   -5.418E+00   -5.380E+00   -5.342E+00   -5.304E+00   -5.265E+00   -5.227E+00
    -5.188E+00   -5.150E+00   -5.111E+00   -5.072E+00   -5.033E+00   -4.995E+00   -4.955E+00   -4.916E+00   -4.877E+00   -4.838E+00
    -4.799E+00   -4.760E+00   -4.720E+00   -4.681E+00   -4.642E+00   -4.602E+00   -4.563E+00   -4.524E+00   -4.485E+00   -4.445E+00
    -4.406E+00   -4.367E+00   -4.328E+00   -4.289E+00   -4.250E+00   -4.211E+00   -4.172E+00   -4.134E+00   -4.095E+00   -4.057E+00
    -4.018E+00   -3.980E+00   -3.942E+00   -3.904E+00   -3.866E+00   -3.828E+00   -3.791E+00   -3.753E+00   -3.716E+00   -3.679E+00
    -3.642E+00   -3.606E+00   -3.569E+00   -3.533E+00   -3.497E+00   -3.461E+00   -3.426E+00   -3.391E+00   -3.355E+00   -3.321E+00
    -3.286E+00   -3.252E+00   -3.218E+00   -3.184E+00   -3.150E+00   -3.117E+00   -3.084E+00   -3.051E+00   -3.019E+00   -2.987E+00
    -2.955E+00   -2.923E+00   -2.891E+00   -2.860E+00   -2.829E+00   -2.799E+00   -2.768E+00   -2.738E+00   -2.708E+00   -2.678E+00
    -2.649E+00   -2.620E+00   -2.591E+00   -2.563E+00   -2.535E+00   -2.507E+00   -2.479E+00   -2.451E+00   -2.424E+00   -2.397E+00
    -2.371E+00   -2.345E+00   -2.319E+00   -2.293E+00   -2.268E+00   -2.242E+00   -2.218E+00   -2.193E+00   -2.169E+00   -2.145E+00
    -2.121E+00   -2.098E+00   -2.075E+00   -2.052E+00   -2.030E+00   -2.007E+00   -1.985E+00   -1.964E+00   -1.943E+00   -1.922E+00
    -1.901E+00   -1.880E+00   -1.860E+00   -1.840E+00   -1.821E+00   -1.801E+00   -1.782E+00   -1.763E+00   -1.745E+00   -1.727E+00
    -1.709E+00   -1.691E+00   -1.673E+00   -1.656E+00   -1.639E+00   -1.623E+00   -1.606E+00   -1.590E+00   -1.574E+00   -1.558E+00
    -1.543E+00   -1.528E+00   -1.513E+00   -1.498E+00   -1.483E+00   -1.469E+00   -1.455E+00   -1.441E+00   -1.428E+00   -1.415E+00
    -1.402E+00   -1.389E+00   -1.376E+00   -1.364E+00   -1.351E+00   -1.340E+00   -1.328E+00   -1.316E+00   -1.305E+00   -1.294E+00
    -1.283E+00   -1.272E+00   -1.262E+00   -1.251E+00   -1.241E+00   -1.231E+00   -1.222E+00   -1.212E+00   -1.203E+00   -1.194E+00
    -1.185E+00   -1.176E+00   -1.167E+00   -1.158E+00   -1.150E+00   -1.142E+00   -1.134E+00   -1.126E+00   -1.118E+00   -1.111E+00
    -1.103E+00   -1.096E+00   -1.088E+00   -1.081E+00   -1.074E+00   -1.068E+00   -1.061E+00   -1.054E+00   -1.048E+00   -1.041E+00
    -1.035E+00   -1.029E+00   -1.023E+00   -1.017E+00   -1.011E+00   -1.005E+00   -9.992E-01   -9.935E-01   -9.879E-01   -9.824E-01
    -9.769E-01   -9.715E-01   -9.662E-01   -9.610E-01   -9.558E-01   -9.506E-01   -9.455E-01   -9.404E-01   -9.354E-01   -9.304E-01
    -9.255E-01   -9.206E-01   -9.157E-01   -9.108E-01   -9.059E-01   -9.011E-01   -8.962E-01   -8.914E-01   -8.866E-01   -8.817E-01
    -8.769E-01   -8.721E-01   -8.672E-01   -8.623E-01   -8.574E-01   -8.525E-01   -8.475E-01   -8.425E-01   -8.375E-01   -8.325E-01
    -8.273E-01   -8.222E-01   -8.170E-01   -8.117E-01   -8.064E-01   -8.010E-01   -7.955E-01   -7.900E-01   -7.844E-01   -7.787E-01
    -7.730E-01   -7.671E-01   -7.612E-01   -7.552E-01   -7.490E-01   -7.428E-01   -7.365E-01   -7.300E-01   -7.235E-01   -7.168E-01
    -7.100E-01   -7.032E-01   -6.962E-01   -6.891E-01   -6.819E-01   -6.746E-01   -6.672E-01   -6.597E-01   -6.521E-01   -6.443E-01
    -6.365E-01   -6.286E-01   -6.206E-01   -6.125E-01   -6.043E-01   -5.960E-01   -5.876E-01   -5.792E-01   -5.706E-01   -5.619E-01
    -5.532E-01   -5.443E-01   -5.354E-01   -5.264E-01   -5.173E-01   -5.081E-01   -4.988E-01   -4.895E-01   -4.800E-01   -4.705E-01
    -4.609E-01   -4.513E-01   -4.415E-01   -4.317E-01   -4.218E-01   -4.118E-01   -4.017E-01   -3.916E-01   -3.814E-01   -3.711E-01
    -3.608E-01   -3.504E-01   -3.399E-01   -3.293E-01   -3.187E-01   -3.080E-01   -2.973E-01   -2.865E-01   -2.756E-01   -2.647E-01
    -2.537E-01   -2.427E-01   -2.316E-01   -2.205E-01   -2.094E-01   -1.981E-01   -1.869E-01   -1.756E-01   -1.643E-01   -1.529E-01
    -1.415E-01   -1.300E-01   -1.186E-01   -1.071E-01   -9.554E-02   -8.398E-02   -7.241E-02   -6.080E-02   -4.918E-02   -3.754E-02
    -2.589E-02   -1.422E-02   -2.537E-03    9.156E-03    2.086E-02    3.257E-02    4.428E-02    5.600E-02    6.772E-02    7.943E-02
     9.115E-02    1.029E-01    1.146E-01    1.263E-01    1.379E-01    1.496E-01    1.613E-01    1.729E-01
 Ala      Conc. = 2.23E+02
