 LCModel (Version 6.3-1L) Copyright: S.W. Provencher.          Ref.: Magn. Reson. Med. 30:672-679 (1993).                
 Slice#3 Row#9 Col#13  PD_05_press_1_raw_act
 36 lines in following concentration table = NCONC+1
    Conc.  %SD /Cr+PCr  Metabolite                                         
   74.231  39%   1.552 Ala                                                 
   12.809  96%   0.268 Asp                                                 
   47.819  24%   1.000 Cr                                                  
    0.000 999%   0.000 PCr                                                 
    4.203 176% 8.8E-02 GABA                                                
    6.153 120%   0.129 Glc                                                 
    0.000 999%   0.000 Gln                                                 
  107.696  54%   2.252 Glu                                                 
    0.000 999%   0.000 GPC                                                 
   10.393  44%   0.217 PCh                                                 
   18.624  88%   0.389 GSH                                                 
   92.875  62%   1.942 Ins                                                 
   24.213 119%   0.506 Lac                                                 
   95.371  20%   1.994 NAA                                                 
   21.133  88%   0.442 NAAG                                                
    3.582  66% 7.5E-02 Scyllo                                              
   10.997 111%   0.230 Tau                                                 
    0.000 999%   0.000 -CrCH2                                              
   10.393  44%   0.217 GPC+PCh                                             
  116.504  14%   2.436 NAA+NAAG                                            
   47.819  24%   1.000 Cr+PCr                                              
  107.696  54%   2.252 Glu+Gln                                             
 1.46E+04   6% 304.776 Lip13a                                              
    0.000 999%   0.000 Lip13b                                              
 2.83E+03  18%  59.261 Lip09                                               
    0.000 999%   0.000 MM09                                                
    0.000 999%   0.000 Lip20                                               
    0.000 999%   0.000 MM20                                                
  229.481 192%   4.799 MM12                                                
 2.33E+03  24%  48.670 MM14                                                
 2.23E+03  23%  46.585 MM17                                                
 1.46E+04   6% 304.776 Lip13a+Lip13b                                       
 1.71E+04   4% 358.245 MM14+Lip13a+Lip13b+MM12                             
 2.83E+03  18%  59.261 MM09+Lip09                                          
    0.000 999%   0.000 MM20+Lip20                                          
   6 lines in following misc. output table
  FWHM = 0.061 ppm    S/N =  28                                            
  Data shift =-0.008 ppm                                                   
  Ph: -78 deg     -44.8 deg/ppm                                            
  alphaB,S = 1.0E+00,   1.3E+01                                            
   14 spline knots.   Ns = 5(1)                                            
  ( 9) 4 infls.   ( 9) 3 extrs.                                            
  498 points on ppm-axis = NY
      4.000000     3.992357     3.984714     3.977070     3.969427     3.961784     3.954141     3.946497     3.938854     3.931211
      3.923568     3.915925     3.908281     3.900638     3.892995     3.885352     3.877708     3.870065     3.862422     3.854779
      3.847136     3.839492     3.831849     3.824206     3.816563     3.808919     3.801276     3.793633     3.785990     3.778347
      3.770703     3.763060     3.755417     3.747774     3.740130     3.732487     3.724844     3.717201     3.709558     3.701914
      3.694271     3.686628     3.678985     3.671341     3.663698     3.656055     3.648412     3.640769     3.633125     3.625482
      3.617839     3.610196     3.602552     3.594909     3.587266     3.579623     3.571980     3.564336     3.556693     3.549050
      3.541407     3.533763     3.526120     3.518477     3.510834     3.503191     3.495547     3.487904     3.480261     3.472618
      3.464974     3.457331     3.449688     3.442045     3.434402     3.426758     3.419115     3.411472     3.403829     3.396185
      3.388542     3.380899     3.373256     3.365613     3.357969     3.350326     3.342683     3.335040     3.327396     3.319753
      3.312110     3.304467     3.296824     3.289180     3.281537     3.273894     3.266251     3.258607     3.250964     3.243321
      3.235678     3.228034     3.220391     3.212748     3.205105     3.197462     3.189818     3.182175     3.174532     3.166889
      3.159245     3.151602     3.143959     3.136316     3.128673     3.121029     3.113386     3.105743     3.098100     3.090456
      3.082813     3.075170     3.067527     3.059884     3.052240     3.044597     3.036954     3.029311     3.021667     3.014024
      3.006381     2.998738     2.991095     2.983451     2.975808     2.968165     2.960522     2.952878     2.945235     2.937592
      2.929949     2.922306     2.914662     2.907019     2.899376     2.891733     2.884089     2.876446     2.868803     2.861160
      2.853517     2.845873     2.838230     2.830587     2.822944     2.815300     2.807657     2.800014     2.792371     2.784728
      2.777084     2.769441     2.761798     2.754155     2.746511     2.738868     2.731225     2.723582     2.715939     2.708295
      2.700652     2.693009     2.685366     2.677722     2.670079     2.662436     2.654793     2.647150     2.639506     2.631863
      2.624220     2.616577     2.608933     2.601290     2.593647     2.586004     2.578361     2.570717     2.563074     2.555431
      2.547788     2.540144     2.532501     2.524858     2.517215     2.509572     2.501928     2.494285     2.486642     2.478999
      2.471355     2.463712     2.456069     2.448426     2.440783     2.433139     2.425496     2.417853     2.410210     2.402566
      2.394923     2.387280     2.379637     2.371994     2.364350     2.356707     2.349064     2.341421     2.333777     2.326134
      2.318491     2.310848     2.303205     2.295561     2.287918     2.280275     2.272632     2.264988     2.257345     2.249702
      2.242059     2.234416     2.226772     2.219129     2.211486     2.203843     2.196199     2.188556     2.180913     2.173270
      2.165627     2.157983     2.150340     2.142697     2.135054     2.127410     2.119767     2.112124     2.104481     2.096838
      2.089194     2.081551     2.073908     2.066265     2.058621     2.050978     2.043335     2.035692     2.028049     2.020405
      2.012762     2.005119     1.997476     1.989833     1.982190     1.974546     1.966903     1.959260     1.951617     1.943974
      1.936331     1.928688     1.921045     1.913402     1.905759     1.898115     1.890472     1.882829     1.875186     1.867543
      1.859900     1.852257     1.844614     1.836971     1.829327     1.821684     1.814041     1.806398     1.798755     1.791112
      1.783469     1.775826     1.768183     1.760540     1.752896     1.745253     1.737610     1.729967     1.722324     1.714681
      1.707038     1.699395     1.691752     1.684108     1.676465     1.668822     1.661179     1.653536     1.645893     1.638250
      1.630607     1.622964     1.615321     1.607677     1.600034     1.592391     1.584748     1.577105     1.569462     1.561819
      1.554176     1.546533     1.538890     1.531246     1.523603     1.515960     1.508317     1.500674     1.493031     1.485388
      1.477745     1.470102     1.462458     1.454815     1.447172     1.439529     1.431886     1.424243     1.416600     1.408957
      1.401314     1.393671     1.386027     1.378384     1.370741     1.363098     1.355455     1.347812     1.340169     1.332526
      1.324883     1.317240     1.309596     1.301953     1.294310     1.286667     1.279024     1.271381     1.263738     1.256095
      1.248452     1.240808     1.233165     1.225522     1.217879     1.210236     1.202593     1.194950     1.187307     1.179664
      1.172021     1.164377     1.156734     1.149091     1.141448     1.133805     1.126162     1.118519     1.110876     1.103233
      1.095590     1.087946     1.080303     1.072660     1.065017     1.057374     1.049731     1.042088     1.034445     1.026802
      1.019158     1.011515     1.003872     0.996229     0.988586     0.980943     0.973300     0.965657     0.958014     0.950371
      0.942727     0.935084     0.927441     0.919798     0.912155     0.904512     0.896869     0.889226     0.881583     0.873940
      0.866296     0.858653     0.851010     0.843367     0.835724     0.828081     0.820438     0.812795     0.805152     0.797508
      0.789865     0.782222     0.774579     0.766936     0.759293     0.751650     0.744007     0.736364     0.728721     0.721077
      0.713434     0.705791     0.698148     0.690505     0.682862     0.675219     0.667576     0.659933     0.652290     0.644646
      0.637003     0.629360     0.621717     0.614074     0.606431     0.598788     0.591145     0.583502     0.575858     0.568215
      0.560572     0.552929     0.545286     0.537643     0.530000     0.522357     0.514714     0.507071     0.499427     0.491784
      0.484141     0.476498     0.468855     0.461212     0.453569     0.445925     0.438282     0.430639     0.422996     0.415353
      0.407710     0.400067     0.392424     0.384780     0.377137     0.369494     0.361851     0.354208     0.346565     0.338922
      0.331278     0.323635     0.315992     0.308349     0.300706     0.293063     0.285420     0.277777     0.270133     0.262490
      0.254847     0.247204     0.239561     0.231918     0.224275     0.216631     0.208988     0.201345
 NY phased data points follow
   6.33704E+00  7.84608E+00  6.43129E+00  7.80920E+00  6.55530E+00  6.76888E+00  8.06210E+00  7.07026E+00  7.52112E+00  7.66624E+00
   8.06395E+00  8.63117E+00  6.86773E+00  7.75851E+00  8.27628E+00  8.35579E+00  9.20402E+00  8.84028E+00  6.89535E+00  7.66154E+00
   6.50142E+00  6.37094E+00  7.04532E+00  6.84734E+00  6.36474E+00  6.71294E+00  7.80108E+00  7.36277E+00  7.59897E+00  8.02747E+00
   5.70377E+00  6.74473E+00  8.08063E+00  8.62198E+00  8.66589E+00  6.16372E+00  7.84097E+00  8.88405E+00  6.01068E+00  7.65442E+00
   7.64400E+00  6.60767E+00  6.31959E+00  9.02192E+00  7.02485E+00  6.37414E+00  7.71483E+00  8.82881E+00  8.49960E+00  8.94333E+00
   8.63358E+00  8.57553E+00  7.17282E+00  7.42505E+00  9.09728E+00  8.45083E+00  7.99067E+00  7.53693E+00  8.54536E+00  7.49864E+00
   9.57541E+00  8.08380E+00  7.48901E+00  6.85872E+00  8.29333E+00  8.43346E+00  9.41735E+00  7.11767E+00  7.99255E+00  8.23687E+00
   6.51413E+00  8.37766E+00  7.89788E+00  9.46786E+00  8.23266E+00  8.16933E+00  9.09585E+00  8.37878E+00  8.37567E+00  6.54331E+00
   9.46189E+00  8.78336E+00  8.31524E+00  9.33614E+00  9.08727E+00  8.47324E+00  9.38889E+00  9.06829E+00  8.94312E+00  9.24521E+00
   8.99596E+00  9.16384E+00  8.63375E+00  6.84162E+00  8.64549E+00  7.98466E+00  8.64672E+00  9.18532E+00  8.85125E+00  9.14881E+00
   8.24022E+00  9.65052E+00  8.71350E+00  8.49053E+00  9.19049E+00  9.88080E+00  8.81153E+00  8.91651E+00  1.08310E+01  1.02777E+01
   9.76318E+00  8.75430E+00  9.41938E+00  8.56773E+00  8.78610E+00  9.84314E+00  8.84638E+00  9.63276E+00  8.53897E+00  7.66525E+00
   1.05751E+01  9.90842E+00  9.21710E+00  1.09537E+01  9.44662E+00  1.01806E+01  9.61963E+00  9.34881E+00  1.04038E+01  1.01542E+01
   1.06066E+01  1.09877E+01  1.10595E+01  1.06868E+01  1.07443E+01  9.88534E+00  9.60441E+00  9.32850E+00  1.01932E+01  8.56304E+00
   9.59133E+00  1.00746E+01  8.75878E+00  1.07481E+01  9.44489E+00  9.72617E+00  9.70180E+00  9.85261E+00  7.48799E+00  9.99392E+00
   1.04493E+01  9.65732E+00  8.70328E+00  9.30577E+00  9.19862E+00  9.31273E+00  1.04555E+01  1.03881E+01  9.86116E+00  8.77486E+00
   1.07348E+01  1.09670E+01  1.14056E+01  1.02708E+01  1.07759E+01  1.15017E+01  1.17450E+01  1.15744E+01  1.03341E+01  1.08428E+01
   1.16224E+01  1.16322E+01  1.29168E+01  1.12916E+01  1.03020E+01  1.10740E+01  1.16053E+01  1.01989E+01  1.15773E+01  1.12613E+01
   1.19013E+01  1.10640E+01  9.77679E+00  1.16979E+01  1.05341E+01  1.20155E+01  1.11018E+01  1.21313E+01  1.36120E+01  1.24460E+01
   1.23863E+01  1.47438E+01  1.23158E+01  1.32818E+01  1.29486E+01  1.35768E+01  1.14082E+01  1.28893E+01  1.24509E+01  1.15224E+01
   1.27987E+01  1.32872E+01  1.34359E+01  1.17987E+01  1.45864E+01  1.32324E+01  1.30237E+01  1.36073E+01  1.34360E+01  1.35752E+01
   1.47440E+01  1.37618E+01  1.48210E+01  1.54984E+01  1.42239E+01  1.50917E+01  1.49334E+01  1.48456E+01  1.65325E+01  1.60747E+01
   1.56716E+01  1.55030E+01  1.50971E+01  1.54705E+01  1.46683E+01  1.47369E+01  1.46156E+01  1.57125E+01  1.53167E+01  1.57316E+01
   1.69172E+01  1.56727E+01  1.54821E+01  1.72889E+01  1.65320E+01  1.61323E+01  1.59085E+01  1.54103E+01  1.64009E+01  1.66103E+01
   1.71994E+01  1.66991E+01  1.49038E+01  1.68419E+01  1.60562E+01  1.66598E+01  1.68327E+01  1.77106E+01  1.72870E+01  1.84149E+01
   1.71284E+01  1.73342E+01  1.72958E+01  1.84913E+01  1.85076E+01  1.92194E+01  1.93598E+01  1.76080E+01  1.95656E+01  2.23928E+01
   2.26649E+01  2.19572E+01  2.15223E+01  2.13492E+01  2.30792E+01  2.26364E+01  2.31191E+01  2.20181E+01  2.07990E+01  2.08658E+01
   2.14892E+01  2.11068E+01  2.09260E+01  2.14994E+01  2.08407E+01  2.12317E+01  2.24925E+01  2.32311E+01  2.19676E+01  2.20160E+01
   2.27321E+01  2.30113E+01  2.50088E+01  2.49391E+01  2.36164E+01  2.35379E+01  2.43349E+01  2.45373E+01  2.46459E+01  2.47788E+01
   2.48771E+01  2.55547E+01  2.68211E+01  2.68889E+01  2.71273E+01  2.73101E+01  2.94151E+01  2.88213E+01  2.86038E+01  2.94074E+01
   2.97609E+01  3.02969E+01  2.96331E+01  3.10931E+01  3.12556E+01  3.25716E+01  3.34739E+01  3.19544E+01  3.39053E+01  3.41399E+01
   3.47431E+01  3.55179E+01  3.51094E+01  3.52210E+01  3.65146E+01  3.80054E+01  3.74326E+01  3.86659E+01  3.86442E+01  3.91516E+01
   3.97201E+01  3.93593E+01  4.08029E+01  4.23349E+01  4.19654E+01  4.19256E+01  4.16713E+01  4.37325E+01  4.41892E+01  4.57368E+01
   4.46478E+01  4.44189E+01  4.48260E+01  4.59572E+01  4.78194E+01  4.80965E+01  5.00237E+01  5.11626E+01  5.02347E+01  5.31368E+01
   5.26438E+01  5.37758E+01  5.34479E+01  5.51449E+01  5.43101E+01  5.61460E+01  5.81839E+01  5.92598E+01  5.96307E+01  6.16512E+01
   6.17796E+01  6.43272E+01  6.42243E+01  6.70519E+01  6.74059E+01  6.85666E+01  6.92833E+01  7.11948E+01  7.03526E+01  7.12968E+01
   7.32641E+01  7.32941E+01  7.42328E+01  7.18043E+01  7.22589E+01  7.24731E+01  7.04900E+01  6.95881E+01  6.87977E+01  6.80505E+01
   6.53668E+01  6.47835E+01  6.32895E+01  5.89080E+01  5.92420E+01  5.80115E+01  5.58838E+01  5.47039E+01  5.33370E+01  5.27190E+01
   4.95702E+01  4.78334E+01  4.90832E+01  4.86890E+01  4.76819E+01  4.36453E+01  4.40330E+01  4.30552E+01  4.31345E+01  4.10372E+01
   4.15948E+01  4.04258E+01  3.95864E+01  3.89270E+01  3.79742E+01  3.96649E+01  3.69578E+01  3.85678E+01  3.80377E+01  3.60696E+01
   3.70714E+01  3.64395E+01  3.57582E+01  3.62258E+01  3.56341E+01  3.47724E+01  3.45190E+01  3.46612E+01  3.44559E+01  3.43569E+01
   3.41784E+01  3.44464E+01  3.29977E+01  3.35078E+01  3.43478E+01  3.25938E+01  3.27188E+01  3.07283E+01  3.22120E+01  3.17298E+01
   3.12899E+01  3.21589E+01  3.11981E+01  2.96371E+01  3.14830E+01  3.07169E+01  2.98856E+01  2.69750E+01  2.82495E+01  2.72516E+01
   2.79475E+01  2.65602E+01  2.80750E+01  2.66067E+01  2.63877E+01  2.47191E+01  2.58203E+01  2.50868E+01  2.48764E+01  2.43054E+01
   2.48344E+01  2.33622E+01  2.43919E+01  2.34032E+01  2.25644E+01  2.22577E+01  2.23086E+01  2.23393E+01  2.24387E+01  2.06503E+01
   2.12944E+01  2.15149E+01  1.97627E+01  1.95519E+01  2.04247E+01  1.94577E+01  2.19112E+01  1.89568E+01  1.91482E+01  2.05013E+01
   1.81552E+01  1.94458E+01  2.03626E+01  2.00598E+01  2.01231E+01  1.94850E+01  1.95063E+01  1.87727E+01  1.76439E+01  1.88511E+01
   1.78650E+01  1.77211E+01  1.74977E+01  1.70979E+01  1.78692E+01  1.73670E+01  1.64343E+01  1.76132E+01  1.65845E+01  1.64188E+01
   1.53077E+01  1.63269E+01  1.68196E+01  1.53858E+01  1.63566E+01  1.56186E+01  1.63827E+01  1.63295E+01  1.61858E+01  1.48772E+01
   1.53532E+01  1.49292E+01  1.71027E+01  1.54793E+01  1.53703E+01  1.54650E+01  1.49579E+01  1.36386E+01
 NY points of the fit to the data follow
   7.13781E+00  7.08541E+00  6.99375E+00  6.93093E+00  6.92220E+00  6.92415E+00  6.93556E+00  6.96495E+00  7.06354E+00  7.34885E+00
   7.66221E+00  7.76093E+00  7.69989E+00  7.73106E+00  7.93517E+00  8.15455E+00  8.14544E+00  7.78428E+00  7.36235E+00  7.23297E+00
   7.22686E+00  7.26606E+00  7.33532E+00  7.38725E+00  7.40585E+00  7.40711E+00  7.39318E+00  7.42682E+00  7.48555E+00  7.45542E+00
   7.39935E+00  7.47074E+00  7.63958E+00  7.79267E+00  7.91732E+00  7.95119E+00  7.94670E+00  7.98901E+00  7.91664E+00  7.72546E+00
   7.56698E+00  7.46543E+00  7.41878E+00  7.39590E+00  7.45892E+00  7.68278E+00  7.95985E+00  8.10683E+00  8.10279E+00  8.07137E+00
   8.13891E+00  8.28839E+00  8.35696E+00  8.19296E+00  7.88549E+00  7.67961E+00  7.64829E+00  7.72845E+00  7.84803E+00  7.96144E+00
   8.04125E+00  8.08107E+00  8.10460E+00  8.14704E+00  8.20581E+00  8.21939E+00  8.17296E+00  8.11884E+00  8.07314E+00  8.07710E+00
   8.14167E+00  8.22979E+00  8.30106E+00  8.35289E+00  8.39742E+00  8.43181E+00  8.45784E+00  8.46954E+00  8.44903E+00  8.43942E+00
   8.44874E+00  8.44643E+00  8.43452E+00  8.46212E+00  8.52676E+00  8.56132E+00  8.53307E+00  8.49118E+00  8.49239E+00  8.53623E+00
   8.55831E+00  8.49704E+00  8.38321E+00  8.35172E+00  8.42515E+00  8.51878E+00  8.58025E+00  8.60545E+00  8.61904E+00  8.65383E+00
   8.71696E+00  8.92505E+00  9.21194E+00  9.35024E+00  9.31965E+00  9.31819E+00  9.48881E+00  9.73941E+00  9.84136E+00  9.61125E+00
   9.18842E+00  8.99106E+00  8.95061E+00  8.94496E+00  8.94621E+00  8.95693E+00  8.97205E+00  8.98475E+00  8.99419E+00  9.00633E+00
   9.02352E+00  9.04795E+00  9.10275E+00  9.18060E+00  9.38117E+00  9.84603E+00  1.02989E+01  1.04294E+01  1.03865E+01  1.05068E+01
   1.08600E+01  1.12021E+01  1.11331E+01  1.05114E+01  9.89210E+00  9.70519E+00  9.67373E+00  9.67743E+00  9.67380E+00  9.65420E+00
   9.65142E+00  9.69118E+00  9.75724E+00  9.84583E+00  9.93628E+00  9.99160E+00  1.00154E+01  1.00254E+01  1.00445E+01  1.00795E+01
   1.01133E+01  1.01412E+01  1.01631E+01  1.01928E+01  1.02359E+01  1.02837E+01  1.03325E+01  1.03751E+01  1.04061E+01  1.04276E+01
   1.04632E+01  1.05206E+01  1.05851E+01  1.06431E+01  1.06737E+01  1.06867E+01  1.07272E+01  1.08119E+01  1.09095E+01  1.09835E+01
   1.10307E+01  1.10505E+01  1.10715E+01  1.11075E+01  1.11385E+01  1.11873E+01  1.12691E+01  1.13518E+01  1.14000E+01  1.14125E+01
   1.14329E+01  1.15171E+01  1.16569E+01  1.17749E+01  1.18152E+01  1.18263E+01  1.18898E+01  1.20392E+01  1.22158E+01  1.23425E+01
   1.24217E+01  1.24985E+01  1.26112E+01  1.27603E+01  1.28924E+01  1.29571E+01  1.29858E+01  1.30139E+01  1.30649E+01  1.31421E+01
   1.32235E+01  1.33199E+01  1.34464E+01  1.35856E+01  1.37046E+01  1.37718E+01  1.38303E+01  1.39054E+01  1.39700E+01  1.40035E+01
   1.40051E+01  1.40191E+01  1.40782E+01  1.42427E+01  1.44835E+01  1.46622E+01  1.47540E+01  1.48197E+01  1.49509E+01  1.50890E+01
   1.50628E+01  1.48472E+01  1.46305E+01  1.46095E+01  1.46890E+01  1.47324E+01  1.48204E+01  1.50725E+01  1.54798E+01  1.58405E+01
   1.60139E+01  1.60912E+01  1.61830E+01  1.62559E+01  1.63116E+01  1.63744E+01  1.64623E+01  1.65805E+01  1.66806E+01  1.67551E+01
   1.68169E+01  1.68549E+01  1.68877E+01  1.69445E+01  1.70245E+01  1.71187E+01  1.72458E+01  1.74130E+01  1.75916E+01  1.77620E+01
   1.78821E+01  1.79850E+01  1.81005E+01  1.83041E+01  1.85732E+01  1.88162E+01  1.90352E+01  1.93936E+01  2.03626E+01  2.16037E+01
   2.22078E+01  2.20069E+01  2.17668E+01  2.21754E+01  2.29441E+01  2.32028E+01  2.23716E+01  2.10436E+01  2.05149E+01  2.04570E+01
   2.05006E+01  2.06116E+01  2.07689E+01  2.09278E+01  2.10949E+01  2.12753E+01  2.14757E+01  2.16978E+01  2.19312E+01  2.21570E+01
   2.23765E+01  2.26088E+01  2.28619E+01  2.31339E+01  2.34225E+01  2.37296E+01  2.40590E+01  2.44095E+01  2.47738E+01  2.51524E+01
   2.55490E+01  2.59624E+01  2.63884E+01  2.68280E+01  2.72816E+01  2.77478E+01  2.82225E+01  2.87011E+01  2.91797E+01  2.96586E+01
   3.01362E+01  3.06091E+01  3.10748E+01  3.15326E+01  3.19825E+01  3.24243E+01  3.28562E+01  3.32790E+01  3.36948E+01  3.41059E+01
   3.45155E+01  3.49278E+01  3.53465E+01  3.57757E+01  3.62193E+01  3.66811E+01  3.71649E+01  3.76737E+01  3.82106E+01  3.87789E+01
   3.93849E+01  4.00387E+01  4.07291E+01  4.15115E+01  4.23336E+01  4.29330E+01  4.32933E+01  4.36894E+01  4.42544E+01  4.48378E+01
   4.51735E+01  4.52138E+01  4.54172E+01  4.61952E+01  4.71896E+01  4.79572E+01  4.87006E+01  4.96588E+01  5.08456E+01  5.19934E+01
   5.27461E+01  5.32491E+01  5.39527E+01  5.48266E+01  5.58285E+01  5.69398E+01  5.80639E+01  5.91600E+01  6.03004E+01  6.15368E+01
   6.28197E+01  6.40378E+01  6.51517E+01  6.62574E+01  6.74476E+01  6.86382E+01  6.96676E+01  7.05704E+01  7.13907E+01  7.20964E+01
   7.25742E+01  7.27143E+01  7.25952E+01  7.23296E+01  7.18970E+01  7.12877E+01  7.05054E+01  6.95604E+01  6.84672E+01  6.72428E+01
   6.59062E+01  6.44780E+01  6.29789E+01  6.14297E+01  5.98507E+01  5.82608E+01  5.66779E+01  5.51177E+01  5.35943E+01  5.21194E+01
   5.07030E+01  4.93528E+01  4.80746E+01  4.68725E+01  4.57488E+01  4.47044E+01  4.37390E+01  4.28511E+01  4.20384E+01  4.12980E+01
   4.06262E+01  4.00189E+01  3.94718E+01  3.89801E+01  3.85391E+01  3.81440E+01  3.77897E+01  3.74714E+01  3.71840E+01  3.69228E+01
   3.66830E+01  3.64602E+01  3.62498E+01  3.60476E+01  3.58497E+01  3.56525E+01  3.54525E+01  3.52468E+01  3.50326E+01  3.48078E+01
   3.45703E+01  3.43190E+01  3.40526E+01  3.37706E+01  3.34728E+01  3.31594E+01  3.28309E+01  3.24881E+01  3.21321E+01  3.17644E+01
   3.13862E+01  3.09994E+01  3.06057E+01  3.02068E+01  2.98046E+01  2.94006E+01  2.89966E+01  2.85942E+01  2.81947E+01  2.77996E+01
   2.74100E+01  2.70268E+01  2.66510E+01  2.62832E+01  2.59240E+01  2.55739E+01  2.52331E+01  2.49019E+01  2.45803E+01  2.42684E+01
   2.39661E+01  2.36732E+01  2.33896E+01  2.31150E+01  2.28491E+01  2.25917E+01  2.23425E+01  2.21010E+01  2.18670E+01  2.16402E+01
   2.14202E+01  2.12067E+01  2.09994E+01  2.07979E+01  2.06020E+01  2.04113E+01  2.02257E+01  2.00448E+01  1.98684E+01  1.96962E+01
   1.95281E+01  1.93637E+01  1.92031E+01  1.90458E+01  1.88918E+01  1.87408E+01  1.85928E+01  1.84476E+01  1.83050E+01  1.81650E+01
   1.80273E+01  1.78918E+01  1.77586E+01  1.76274E+01  1.74981E+01  1.73708E+01  1.72452E+01  1.71213E+01  1.69991E+01  1.68785E+01
   1.67594E+01  1.66417E+01  1.65254E+01  1.64104E+01  1.62967E+01  1.61843E+01  1.60731E+01  1.59630E+01  1.58540E+01  1.57461E+01
   1.56393E+01  1.55335E+01  1.54287E+01  1.53248E+01  1.52219E+01  1.51199E+01  1.50188E+01  1.49186E+01
 NY background values follow
     7.463E+00    7.475E+00    7.487E+00    7.499E+00    7.511E+00    7.523E+00    7.536E+00    7.548E+00    7.560E+00    7.573E+00
     7.585E+00    7.598E+00    7.611E+00    7.623E+00    7.636E+00    7.649E+00    7.662E+00    7.675E+00    7.688E+00    7.701E+00
     7.714E+00    7.728E+00    7.741E+00    7.755E+00    7.769E+00    7.783E+00    7.797E+00    7.811E+00    7.825E+00    7.839E+00
     7.854E+00    7.869E+00    7.884E+00    7.899E+00    7.914E+00    7.929E+00    7.945E+00    7.960E+00    7.976E+00    7.992E+00
     8.008E+00    8.025E+00    8.041E+00    8.058E+00    8.075E+00    8.092E+00    8.110E+00    8.127E+00    8.145E+00    8.163E+00
     8.182E+00    8.200E+00    8.218E+00    8.237E+00    8.256E+00    8.275E+00    8.294E+00    8.313E+00    8.333E+00    8.352E+00
     8.372E+00    8.392E+00    8.411E+00    8.431E+00    8.451E+00    8.471E+00    8.491E+00    8.511E+00    8.531E+00    8.552E+00
     8.572E+00    8.592E+00    8.612E+00    8.633E+00    8.653E+00    8.673E+00    8.693E+00    8.713E+00    8.733E+00    8.754E+00
     8.774E+00    8.794E+00    8.813E+00    8.833E+00    8.853E+00    8.873E+00    8.892E+00    8.912E+00    8.931E+00    8.950E+00
     8.969E+00    8.988E+00    9.007E+00    9.026E+00    9.044E+00    9.063E+00    9.081E+00    9.100E+00    9.118E+00    9.136E+00
     9.155E+00    9.173E+00    9.192E+00    9.210E+00    9.229E+00    9.248E+00    9.267E+00    9.286E+00    9.305E+00    9.324E+00
     9.344E+00    9.364E+00    9.384E+00    9.404E+00    9.425E+00    9.445E+00    9.467E+00    9.488E+00    9.510E+00    9.532E+00
     9.555E+00    9.578E+00    9.601E+00    9.625E+00    9.649E+00    9.674E+00    9.699E+00    9.725E+00    9.751E+00    9.778E+00
     9.806E+00    9.834E+00    9.862E+00    9.892E+00    9.922E+00    9.952E+00    9.983E+00    1.002E+01    1.005E+01    1.008E+01
     1.012E+01    1.015E+01    1.019E+01    1.022E+01    1.026E+01    1.030E+01    1.033E+01    1.037E+01    1.041E+01    1.045E+01
     1.049E+01    1.053E+01    1.058E+01    1.062E+01    1.066E+01    1.071E+01    1.075E+01    1.080E+01    1.084E+01    1.089E+01
     1.094E+01    1.099E+01    1.103E+01    1.108E+01    1.113E+01    1.119E+01    1.124E+01    1.129E+01    1.134E+01    1.140E+01
     1.145E+01    1.150E+01    1.156E+01    1.162E+01    1.167E+01    1.173E+01    1.179E+01    1.185E+01    1.191E+01    1.197E+01
     1.203E+01    1.209E+01    1.215E+01    1.221E+01    1.228E+01    1.234E+01    1.240E+01    1.247E+01    1.253E+01    1.260E+01
     1.267E+01    1.273E+01    1.280E+01    1.287E+01    1.294E+01    1.301E+01    1.308E+01    1.315E+01    1.322E+01    1.329E+01
     1.336E+01    1.343E+01    1.350E+01    1.357E+01    1.365E+01    1.372E+01    1.379E+01    1.386E+01    1.394E+01    1.401E+01
     1.409E+01    1.416E+01    1.424E+01    1.431E+01    1.438E+01    1.446E+01    1.454E+01    1.461E+01    1.469E+01    1.476E+01
     1.484E+01    1.491E+01    1.499E+01    1.506E+01    1.514E+01    1.522E+01    1.529E+01    1.537E+01    1.544E+01    1.552E+01
     1.560E+01    1.567E+01    1.575E+01    1.582E+01    1.590E+01    1.597E+01    1.605E+01    1.612E+01    1.620E+01    1.627E+01
     1.635E+01    1.642E+01    1.650E+01    1.657E+01    1.664E+01    1.671E+01    1.679E+01    1.686E+01    1.693E+01    1.700E+01
     1.707E+01    1.714E+01    1.721E+01    1.728E+01    1.735E+01    1.742E+01    1.749E+01    1.756E+01    1.762E+01    1.769E+01
     1.776E+01    1.782E+01    1.789E+01    1.795E+01    1.801E+01    1.808E+01    1.814E+01    1.820E+01    1.826E+01    1.832E+01
     1.838E+01    1.844E+01    1.849E+01    1.855E+01    1.861E+01    1.866E+01    1.872E+01    1.877E+01    1.882E+01    1.888E+01
     1.893E+01    1.898E+01    1.903E+01    1.907E+01    1.912E+01    1.917E+01    1.922E+01    1.926E+01    1.931E+01    1.935E+01
     1.939E+01    1.944E+01    1.948E+01    1.952E+01    1.956E+01    1.960E+01    1.963E+01    1.967E+01    1.971E+01    1.974E+01
     1.978E+01    1.981E+01    1.985E+01    1.988E+01    1.991E+01    1.994E+01    1.997E+01    2.000E+01    2.003E+01    2.006E+01
     2.008E+01    2.011E+01    2.014E+01    2.016E+01    2.018E+01    2.021E+01    2.023E+01    2.025E+01    2.027E+01    2.029E+01
     2.031E+01    2.033E+01    2.034E+01    2.036E+01    2.038E+01    2.039E+01    2.040E+01    2.042E+01    2.043E+01    2.044E+01
     2.045E+01    2.046E+01    2.047E+01    2.048E+01    2.049E+01    2.049E+01    2.050E+01    2.051E+01    2.051E+01    2.052E+01
     2.052E+01    2.052E+01    2.052E+01    2.052E+01    2.052E+01    2.052E+01    2.052E+01    2.052E+01    2.052E+01    2.051E+01
     2.051E+01    2.050E+01    2.050E+01    2.049E+01    2.049E+01    2.048E+01    2.047E+01    2.046E+01    2.045E+01    2.044E+01
     2.043E+01    2.042E+01    2.040E+01    2.039E+01    2.038E+01    2.036E+01    2.035E+01    2.033E+01    2.031E+01    2.030E+01
     2.028E+01    2.026E+01    2.024E+01    2.022E+01    2.020E+01    2.018E+01    2.015E+01    2.013E+01    2.011E+01    2.008E+01
     2.006E+01    2.003E+01    2.001E+01    1.998E+01    1.995E+01    1.993E+01    1.990E+01    1.987E+01    1.984E+01    1.981E+01
     1.978E+01    1.974E+01    1.971E+01    1.968E+01    1.964E+01    1.961E+01    1.957E+01    1.954E+01    1.950E+01    1.947E+01
     1.943E+01    1.939E+01    1.935E+01    1.931E+01    1.927E+01    1.923E+01    1.919E+01    1.915E+01    1.911E+01    1.906E+01
     1.902E+01    1.898E+01    1.893E+01    1.889E+01    1.884E+01    1.879E+01    1.875E+01    1.870E+01    1.865E+01    1.860E+01
     1.855E+01    1.850E+01    1.845E+01    1.840E+01    1.835E+01    1.830E+01    1.825E+01    1.819E+01    1.814E+01    1.809E+01
     1.803E+01    1.798E+01    1.792E+01    1.787E+01    1.781E+01    1.775E+01    1.769E+01    1.764E+01    1.758E+01    1.752E+01
     1.746E+01    1.740E+01    1.734E+01    1.728E+01    1.722E+01    1.716E+01    1.710E+01    1.703E+01    1.697E+01    1.691E+01
     1.684E+01    1.678E+01    1.672E+01    1.665E+01    1.659E+01    1.652E+01    1.645E+01    1.639E+01    1.632E+01    1.625E+01
     1.619E+01    1.612E+01    1.605E+01    1.598E+01    1.591E+01    1.585E+01    1.578E+01    1.571E+01    1.564E+01    1.557E+01
     1.550E+01    1.543E+01    1.536E+01    1.529E+01    1.522E+01    1.514E+01    1.507E+01    1.500E+01    1.493E+01    1.486E+01
     1.479E+01    1.472E+01    1.464E+01    1.457E+01    1.450E+01    1.443E+01    1.436E+01    1.428E+01    1.421E+01    1.414E+01
     1.407E+01    1.400E+01    1.392E+01    1.385E+01    1.378E+01    1.371E+01    1.364E+01    1.356E+01
 Ala      Conc. = 7.42E+01
