 LCModel (Version 6.3-1L) Copyright: S.W. Provencher.          Ref.: Magn. Reson. Med. 30:672-679 (1993).                
 Slice#2 Row#5 Col#7  PD_05_press_1_raw_act
 36 lines in following concentration table = NCONC+1
    Conc.  %SD /Cr+PCr  Metabolite                                         
    0.000 999%   0.000 Ala                                                 
   56.733 383% 3.6E-02 Asp                                                 
  631.211  32%   0.401 Cr                                                  
  944.124  22%   0.599 PCr                                                 
    0.000 999%   0.000 GABA                                                
   55.922 272% 3.5E-02 Glc                                                 
 1.11E+03  19%   0.705 Gln                                                 
 2.03E+03  12%   1.291 Glu                                                 
  674.000   3%   0.428 GPC                                                 
    0.000 999%   0.000 PCh                                                 
  519.900  13%   0.330 GSH                                                 
 1.65E+03  15%   1.048 Ins                                                 
  105.646 104% 6.7E-02 Lac                                                 
 2.43E+03   3%   1.542 NAA                                                 
    0.000 999%   0.000 NAAG                                                
  164.439  16%   0.104 Scyllo                                              
    0.000 999%   0.000 Tau                                                 
   44.072 242% 2.8E-02 -CrCH2                                              
  674.000   3%   0.428 GPC+PCh                                             
 2.43E+03   3%   1.542 NAA+NAAG                                            
 1.58E+03   3%   1.000 Cr+PCr                                              
 3.15E+03  11%   1.997 Glu+Gln                                             
 1.55E+03  24%   0.985 Lip13a                                              
    0.000 999%   0.000 Lip13b                                              
    0.000 999%   0.000 Lip09                                               
 1.39E+03  14%   0.884 MM09                                                
  252.077  52%   0.160 Lip20                                               
 2.88E+03  12%   1.825 MM20                                                
  472.132  26%   0.300 MM12                                                
 2.32E+03  15%   1.473 MM14                                                
  866.286  26%   0.550 MM17                                                
 1.55E+03  24%   0.985 Lip13a+Lip13b                                       
 4.34E+03  10%   2.758 MM14+Lip13a+Lip13b+MM12                             
 1.39E+03  14%   0.884 MM09+Lip09                                          
 3.13E+03  11%   1.985 MM20+Lip20                                          
   6 lines in following misc. output table
  FWHM = 0.054 ppm    S/N =  14                                            
  Data shift =-0.038 ppm                                                   
  Ph: -37 deg     -11.6 deg/ppm                                            
  alphaB,S = 9.4E-01,   1.2E+02                                            
   14 spline knots.   Ns = 7(1)                                            
  ( 8) 4 infls.   ( 3) 1 extrs.                                            
  498 points on ppm-axis = NY
      4.000000     3.992357     3.984714     3.977070     3.969427     3.961784     3.954141     3.946497     3.938854     3.931211
      3.923568     3.915925     3.908281     3.900638     3.892995     3.885352     3.877708     3.870065     3.862422     3.854779
      3.847136     3.839492     3.831849     3.824206     3.816563     3.808919     3.801276     3.793633     3.785990     3.778347
      3.770703     3.763060     3.755417     3.747774     3.740130     3.732487     3.724844     3.717201     3.709558     3.701914
      3.694271     3.686628     3.678985     3.671341     3.663698     3.656055     3.648412     3.640769     3.633125     3.625482
      3.617839     3.610196     3.602552     3.594909     3.587266     3.579623     3.571980     3.564336     3.556693     3.549050
      3.541407     3.533763     3.526120     3.518477     3.510834     3.503191     3.495547     3.487904     3.480261     3.472618
      3.464974     3.457331     3.449688     3.442045     3.434402     3.426758     3.419115     3.411472     3.403829     3.396185
      3.388542     3.380899     3.373256     3.365613     3.357969     3.350326     3.342683     3.335040     3.327396     3.319753
      3.312110     3.304467     3.296824     3.289180     3.281537     3.273894     3.266251     3.258607     3.250964     3.243321
      3.235678     3.228034     3.220391     3.212748     3.205105     3.197462     3.189818     3.182175     3.174532     3.166889
      3.159245     3.151602     3.143959     3.136316     3.128673     3.121029     3.113386     3.105743     3.098100     3.090456
      3.082813     3.075170     3.067527     3.059884     3.052240     3.044597     3.036954     3.029311     3.021667     3.014024
      3.006381     2.998738     2.991095     2.983451     2.975808     2.968165     2.960522     2.952878     2.945235     2.937592
      2.929949     2.922306     2.914662     2.907019     2.899376     2.891733     2.884089     2.876446     2.868803     2.861160
      2.853517     2.845873     2.838230     2.830587     2.822944     2.815300     2.807657     2.800014     2.792371     2.784728
      2.777084     2.769441     2.761798     2.754155     2.746511     2.738868     2.731225     2.723582     2.715939     2.708295
      2.700652     2.693009     2.685366     2.677722     2.670079     2.662436     2.654793     2.647150     2.639506     2.631863
      2.624220     2.616577     2.608933     2.601290     2.593647     2.586004     2.578361     2.570717     2.563074     2.555431
      2.547788     2.540144     2.532501     2.524858     2.517215     2.509572     2.501928     2.494285     2.486642     2.478999
      2.471355     2.463712     2.456069     2.448426     2.440783     2.433139     2.425496     2.417853     2.410210     2.402566
      2.394923     2.387280     2.379637     2.371994     2.364350     2.356707     2.349064     2.341421     2.333777     2.326134
      2.318491     2.310848     2.303205     2.295561     2.287918     2.280275     2.272632     2.264988     2.257345     2.249702
      2.242059     2.234416     2.226772     2.219129     2.211486     2.203843     2.196199     2.188556     2.180913     2.173270
      2.165627     2.157983     2.150340     2.142697     2.135054     2.127410     2.119767     2.112124     2.104481     2.096838
      2.089194     2.081551     2.073908     2.066265     2.058621     2.050978     2.043335     2.035692     2.028049     2.020405
      2.012762     2.005119     1.997476     1.989833     1.982190     1.974546     1.966903     1.959260     1.951617     1.943974
      1.936331     1.928688     1.921045     1.913402     1.905759     1.898115     1.890472     1.882829     1.875186     1.867543
      1.859900     1.852257     1.844614     1.836971     1.829327     1.821684     1.814041     1.806398     1.798755     1.791112
      1.783469     1.775826     1.768183     1.760540     1.752896     1.745253     1.737610     1.729967     1.722324     1.714681
      1.707038     1.699395     1.691752     1.684108     1.676465     1.668822     1.661179     1.653536     1.645893     1.638250
      1.630607     1.622964     1.615321     1.607677     1.600034     1.592391     1.584748     1.577105     1.569462     1.561819
      1.554176     1.546533     1.538890     1.531246     1.523603     1.515960     1.508317     1.500674     1.493031     1.485388
      1.477745     1.470102     1.462458     1.454815     1.447172     1.439529     1.431886     1.424243     1.416600     1.408957
      1.401314     1.393671     1.386027     1.378384     1.370741     1.363098     1.355455     1.347812     1.340169     1.332526
      1.324883     1.317240     1.309596     1.301953     1.294310     1.286667     1.279024     1.271381     1.263738     1.256095
      1.248452     1.240808     1.233165     1.225522     1.217879     1.210236     1.202593     1.194950     1.187307     1.179664
      1.172021     1.164377     1.156734     1.149091     1.141448     1.133805     1.126162     1.118519     1.110876     1.103233
      1.095590     1.087946     1.080303     1.072660     1.065017     1.057374     1.049731     1.042088     1.034445     1.026802
      1.019158     1.011515     1.003872     0.996229     0.988586     0.980943     0.973300     0.965657     0.958014     0.950371
      0.942727     0.935084     0.927441     0.919798     0.912155     0.904512     0.896869     0.889226     0.881583     0.873940
      0.866296     0.858653     0.851010     0.843367     0.835724     0.828081     0.820438     0.812795     0.805152     0.797508
      0.789865     0.782222     0.774579     0.766936     0.759293     0.751650     0.744007     0.736364     0.728721     0.721077
      0.713434     0.705791     0.698148     0.690505     0.682862     0.675219     0.667576     0.659933     0.652290     0.644646
      0.637003     0.629360     0.621717     0.614074     0.606431     0.598788     0.591145     0.583502     0.575858     0.568215
      0.560572     0.552929     0.545286     0.537643     0.530000     0.522357     0.514714     0.507071     0.499427     0.491784
      0.484141     0.476498     0.468855     0.461212     0.453569     0.445925     0.438282     0.430639     0.422996     0.415353
      0.407710     0.400067     0.392424     0.384780     0.377137     0.369494     0.361851     0.354208     0.346565     0.338922
      0.331278     0.323635     0.315992     0.308349     0.300706     0.293063     0.285420     0.277777     0.270133     0.262490
      0.254847     0.247204     0.239561     0.231918     0.224275     0.216631     0.208988     0.201345
 NY phased data points follow
  -1.53620E+01 -1.36878E+01 -1.20056E+01 -1.04195E+01 -1.45580E+01 -4.74867E+00  5.80060E+00  1.17333E+01  1.70615E+01  2.24481E+01
   2.68262E+01  2.21917E+01  2.02058E+01  1.62351E+01  1.56373E+01  7.26172E+00  4.62973E+00 -3.70798E+00 -2.14743E+00 -2.67306E+00
  -5.00879E+00 -7.38240E+00 -4.42877E+00 -8.67657E-01 -3.60120E+00 -3.94805E+00  1.33931E-01  2.94344E-01 -1.20718E+00  5.60128E+00
   6.38146E+00  6.65461E+00  4.84846E+00  2.69854E+00 -6.00733E-01 -9.03954E-01 -2.25077E+00  5.12487E-01  2.14172E+00  1.15531E+00
   2.97239E-01 -3.89005E-01  2.01009E-01  2.64903E+00  3.82454E+00  5.79764E+00  6.58914E+00  8.61103E+00  1.07317E+01  6.87041E+00
   3.23628E+00  6.10794E-01 -3.58534E+00 -3.01008E+00 -2.89229E+00 -7.51009E-01 -2.09653E+00 -1.20115E-01 -4.25426E-01 -4.60079E+00
   4.60379E-01 -9.27674E-01 -8.08743E+00 -9.35265E+00 -9.85421E+00 -6.52505E+00 -1.05402E+01 -6.82356E+00 -1.02936E+01 -1.28693E+01
  -1.24073E+01 -8.26536E+00 -6.32536E+00 -5.42246E+00 -8.61828E+00 -4.46801E+00 -3.80055E+00 -6.61613E+00 -5.00998E+00 -6.37655E+00
  -4.42115E+00 -1.65455E+00 -3.88615E+00 -2.43928E+00 -2.06993E+00 -3.46288E+00  2.96913E-01 -1.83577E+00  9.66274E-01 -2.13026E+00
  -2.59330E+00 -9.63887E-01 -4.99259E+00 -3.47929E+00 -2.35021E+00 -8.13887E-01 -2.80814E+00  8.47949E-01  6.53997E+00  1.00106E+01
   2.73195E+01  3.73132E+01  4.96510E+01  5.37942E+01  4.90558E+01  4.24960E+01  3.53605E+01  2.62772E+01  1.58087E+01  9.90595E+00
   9.64500E+00  4.96182E+00 -2.87307E-01 -4.71134E-01 -5.44157E-01 -3.23168E+00 -4.50956E+00 -3.87985E+00 -2.56115E+00  4.09512E-01
  -2.35641E+00  4.40894E-01  1.59564E+00  1.20771E+01  2.12792E+01  3.52081E+01  4.43256E+01  4.81857E+01  4.59643E+01  3.59936E+01
   3.02838E+01  2.25516E+01  2.02373E+01  1.22064E+01  9.74939E+00  3.11721E+00 -5.68922E-01 -3.44154E+00 -4.78703E+00 -1.01861E+00
  -7.33470E+00 -3.15676E+00 -9.79676E+00 -6.13682E+00 -3.09719E+00 -7.71641E+00 -5.77911E+00 -2.66685E+00 -7.23246E+00 -6.86445E+00
  -5.61392E+00 -7.25269E+00 -7.25121E+00 -5.54584E+00 -3.51698E+00 -5.45048E+00 -5.30502E+00 -3.94941E+00 -3.15217E+00 -4.06415E+00
  -7.56288E+00 -9.11862E+00 -1.04794E+01 -8.46931E+00 -5.84949E+00 -3.58903E+00 -5.38518E+00 -2.06882E+00 -6.37220E+00 -6.14568E+00
  -8.82208E+00 -8.51566E+00 -9.08835E+00 -7.79250E+00 -1.08359E+01 -1.27408E+01 -9.53520E+00 -1.16715E+01 -1.19061E+01 -1.34450E+01
  -9.59718E+00 -1.14299E+01 -1.57759E+01 -9.00382E+00 -1.40513E+01 -1.31823E+01 -1.32846E+01 -5.35691E+00 -8.51596E+00 -1.87529E+00
  -4.55529E+00  2.32375E+00  2.37872E+00  5.01455E+00  9.02526E-01  6.23558E-01 -1.32579E-01 -4.46351E+00 -3.22646E+00 -3.97495E-02
  -7.91425E-01 -5.74013E-02  5.66710E+00  2.69864E+00  4.74896E+00 -6.17580E-01 -8.74462E-01 -1.66948E+00 -5.21365E+00 -6.60567E+00
  -7.36447E+00 -5.01349E+00 -2.85392E+00  4.67349E+00  1.09107E+01  1.07891E+01  1.04326E+01  1.07738E+01  7.88286E+00  3.46155E+00
  -2.09211E+00 -4.77285E+00 -4.58315E+00 -3.40858E+00  1.09486E+00  4.22419E+00  8.02868E+00  5.03930E+00  6.12894E+00  5.38701E+00
   8.69240E+00  8.16583E+00  1.06389E+01  6.13327E+00  1.00630E+01  8.75315E+00  1.10266E+01  7.41296E+00  1.04534E+01  9.04178E+00
   5.91784E+00  3.90466E+00  4.59543E+00  1.00879E+01  6.25955E+00  1.20067E+01  4.94820E+00  9.16167E+00  9.20836E+00  7.59196E+00
   1.25706E+01  1.31116E+01  1.47221E+01  1.76290E+01  1.84573E+01  1.64066E+01  2.83890E+01  4.27908E+01  6.03927E+01  8.47599E+01
   8.86108E+01  8.62606E+01  7.66889E+01  6.51502E+01  5.29756E+01  4.59350E+01  3.65812E+01  3.05662E+01  2.73137E+01  1.82848E+01
   7.61925E+00  1.69190E+01  9.93466E+00  8.15642E+00  7.86685E+00  8.62604E+00  8.69577E+00  6.57151E+00  5.12810E+00  1.99069E+00
   7.57273E+00  1.67669E+00  4.41526E+00  1.62022E-01  3.29988E+00 -2.09058E+00  3.93609E+00  2.10640E+00  9.70691E-01  4.07987E+00
   1.69464E+00  2.98638E+00  5.17959E+00  1.87892E+00  1.42961E+00  4.86752E+00  3.20856E+00  3.13347E+00  2.05787E+00  2.83526E+00
   7.35542E-01  3.34513E+00  8.30144E+00  4.64090E+00  6.82090E+00  7.06250E+00  5.38290E+00  7.55106E+00  7.57581E+00  8.52284E+00
   1.07803E+01  1.09784E+01  9.08101E+00  1.15051E+01  1.36431E+01  1.03513E+01  1.33648E+01  1.43349E+01  1.19552E+01  1.23515E+01
   1.33621E+01  1.05694E+01  1.02631E+01  1.23913E+01  9.35598E+00  1.57889E+01  1.43531E+01  1.61005E+01  1.39449E+01  1.61295E+01
   1.79204E+01  1.54374E+01  1.89004E+01  2.16300E+01  2.06168E+01  1.89797E+01  2.42203E+01  2.09332E+01  2.26525E+01  2.27382E+01
   1.68188E+01  1.66454E+01  1.87292E+01  1.80410E+01  1.87731E+01  1.74721E+01  1.87744E+01  1.73762E+01  1.67062E+01  1.32528E+01
   1.41869E+01  1.46042E+01  1.39422E+01  1.48178E+01  1.46879E+01  1.31801E+01  1.47086E+01  1.21394E+01  1.39085E+01  1.56877E+01
   7.72879E+00  1.28010E+01  1.34407E+01  1.31604E+01  1.27832E+01  9.90048E+00  1.04364E+01  9.34609E+00  1.10687E+01  9.88532E+00
   1.32386E+01  8.21283E+00  9.06650E+00  8.04538E+00  1.05798E+01  8.23106E+00  6.77185E+00  9.32366E+00  4.01368E-01  3.63148E+00
   7.44851E+00  5.66062E+00  2.54458E+00  6.88412E+00  5.38829E+00  3.27999E+00  1.63645E+00  2.99493E+00  5.60108E+00 -2.82135E+00
  -1.20101E+00  5.96497E+00  4.90885E+00  3.43413E+00  7.96304E+00  2.44254E+00  4.60438E+00  7.52158E+00  5.62679E+00  8.59492E+00
   1.03015E+01  7.10059E+00  1.19441E+01  8.22287E+00  1.38705E+01  1.17187E+01  8.04170E+00  1.25743E+01  9.10772E+00  9.14360E+00
   1.15241E+01  1.11380E+01  1.56836E+01  1.23281E+01  1.20741E+01  6.51310E+00  1.12379E+01  1.31542E+01  1.30461E+01  1.03340E+01
   9.28488E+00  7.09870E+00  2.85861E+00  5.37409E+00  6.03442E+00  3.88439E+00  6.90489E+00  3.59004E+00  3.76567E+00  5.89303E+00
   5.01213E+00  6.01780E+00  5.46006E+00  6.87773E+00  5.71841E+00  2.37169E+00  6.43623E+00  8.73040E+00  3.49692E+00  6.13906E+00
   2.45084E+00  3.65754E+00  5.97647E+00  3.93952E+00  1.46315E+00  5.48733E+00  3.36383E+00  6.33122E+00  3.11072E+00  2.15880E+00
   3.20368E+00  3.98269E+00  4.80255E+00  3.43005E+00  3.15502E+00  1.16030E+00  1.07485E+00  2.08057E+00  3.49678E+00  3.61515E+00
   1.41950E+00  2.48714E-01  3.46833E+00  7.18596E+00  6.93614E+00  1.07953E+00  2.99508E+00  6.59043E+00  5.11582E+00  5.82039E+00
   5.38436E+00  5.83558E+00  8.51084E+00  6.00034E+00  3.02096E+00  3.21406E+00  2.43798E+00  3.87903E+00  1.03741E+00  4.57550E+00
   7.61014E-01  4.26579E+00  5.90995E+00  3.88955E+00  2.66688E+00  1.65654E-03  3.29267E+00  5.45969E+00  8.22906E+00  3.04029E+00
   3.21659E+00  6.50680E+00  3.08925E+00  5.61697E+00  4.21356E+00  5.86259E+00  6.89577E+00  3.23326E+00
 NY points of the fit to the data follow
  -8.76506E+00 -9.22277E+00 -8.96624E+00 -7.99635E+00 -6.06470E+00 -2.33751E+00  3.40509E+00  1.06125E+01  1.77254E+01  2.27983E+01
   2.46164E+01  2.32237E+01  1.97203E+01  1.54882E+01  1.15532E+01  8.31401E+00  5.50921E+00  2.46734E+00 -6.29865E-01 -2.83610E+00
  -4.24965E+00 -4.85286E+00 -5.21747E+00 -5.53950E+00 -5.87663E+00 -5.70833E+00 -4.45637E+00 -2.00250E+00  1.18217E+00  4.24391E+00
   6.47918E+00  7.42685E+00  6.90914E+00  5.13529E+00  2.68762E+00  2.21032E-01 -1.76243E+00 -3.48776E+00 -4.80776E+00 -5.10847E+00
  -4.88388E+00 -4.23618E+00 -2.95297E+00 -8.01018E-01  2.12711E+00  4.92827E+00  6.70186E+00  6.84265E+00  5.39302E+00  3.17724E+00
   8.69936E-01 -1.17677E+00 -2.61346E+00 -3.45400E+00 -4.17611E+00 -4.84813E+00 -4.87389E+00 -4.10753E+00 -3.19427E+00 -2.72024E+00
  -2.83668E+00 -3.49265E+00 -4.43824E+00 -5.38260E+00 -6.03016E+00 -6.21193E+00 -6.08341E+00 -5.84768E+00 -5.49153E+00 -5.03686E+00
  -4.58627E+00 -4.23670E+00 -4.09063E+00 -4.12320E+00 -4.28321E+00 -4.52115E+00 -4.75337E+00 -4.95271E+00 -5.10375E+00 -5.24493E+00
  -5.23981E+00 -4.93219E+00 -4.17656E+00 -2.90776E+00 -1.44967E+00 -3.79097E-01 -1.63289E-01 -8.15512E-01 -1.93863E+00 -3.02676E+00
  -3.77569E+00 -4.12360E+00 -4.19104E+00 -4.24964E+00 -4.62911E+00 -5.13340E+00 -4.45958E+00 -1.94556E+00  3.12135E+00  1.24261E+01
   2.57132E+01  3.97986E+01  5.01079E+01  5.35309E+01  5.01530E+01  4.25446E+01  3.36834E+01  2.55939E+01  1.91384E+01  1.40622E+01
   8.92116E+00  2.56602E+00 -2.56157E+00 -4.33730E+00 -4.85441E+00 -5.04962E+00 -5.12842E+00 -5.12883E+00 -5.02509E+00 -4.67987E+00
  -3.52944E+00 -1.00523E+00  3.58866E+00  1.17225E+01  2.31900E+01  3.52710E+01  4.40680E+01  4.69884E+01  4.42583E+01  3.81075E+01
   3.09866E+01  2.43683E+01  1.87309E+01  1.38069E+01  8.54329E+00  2.18846E+00 -2.66415E+00 -3.87635E+00 -3.67058E+00 -3.11734E+00
  -2.68191E+00 -2.55456E+00 -2.58154E+00 -2.60660E+00 -2.68125E+00 -2.79713E+00 -2.95999E+00 -3.23287E+00 -3.57993E+00 -3.97148E+00
  -4.32244E+00 -4.55890E+00 -4.70979E+00 -4.77948E+00 -4.79441E+00 -4.80790E+00 -4.88482E+00 -5.12270E+00 -5.53034E+00 -6.00846E+00
  -6.36156E+00 -6.37278E+00 -6.04047E+00 -5.59925E+00 -5.34277E+00 -5.40597E+00 -5.74272E+00 -6.20573E+00 -6.62155E+00 -6.87529E+00
  -7.07539E+00 -7.42562E+00 -7.97068E+00 -8.67696E+00 -9.26074E+00 -9.44555E+00 -9.29089E+00 -8.99485E+00 -8.78110E+00 -8.72962E+00
  -8.78210E+00 -8.83740E+00 -8.81996E+00 -8.73752E+00 -8.50220E+00 -7.98308E+00 -7.14088E+00 -5.83793E+00 -4.18127E+00 -2.59630E+00
  -1.55561E+00 -1.35698E+00 -1.80090E+00 -2.53706E+00 -3.22704E+00 -3.55133E+00 -3.43695E+00 -2.93056E+00 -1.89231E+00 -4.05126E-01
   1.35364E+00  3.15884E+00  4.62755E+00  5.23729E+00  4.76756E+00  3.03198E+00  1.93099E-01 -3.01944E+00 -5.64785E+00 -6.92857E+00
  -6.54137E+00 -4.55691E+00 -1.33002E+00  2.49289E+00  6.00708E+00  8.11356E+00  8.22158E+00  6.55512E+00  3.62183E+00 -3.69716E-01
  -4.10380E+00 -6.16733E+00 -6.23107E+00 -4.84035E+00 -2.69872E+00 -7.50223E-02  2.53854E+00  4.35519E+00  5.31415E+00  5.81520E+00
   6.37746E+00  6.89753E+00  7.02836E+00  7.08903E+00  7.57150E+00  8.34766E+00  9.08415E+00  9.54955E+00  9.55008E+00  9.05187E+00
   8.11404E+00  7.08113E+00  6.54103E+00  6.78638E+00  7.54290E+00  8.26136E+00  8.91997E+00  9.50805E+00  9.92277E+00  1.03232E+01
   1.10520E+01  1.21679E+01  1.32342E+01  1.45145E+01  1.71084E+01  2.16642E+01  3.03266E+01  4.47828E+01  6.29291E+01  7.92188E+01
   8.80099E+01  8.72137E+01  7.89080E+01  6.70926E+01  5.52188E+01  4.52218E+01  3.75267E+01  3.08609E+01  2.26978E+01  1.36930E+01
   9.05341E+00  7.63656E+00  6.99983E+00  6.68709E+00  6.51937E+00  6.28442E+00  5.99776E+00  5.67584E+00  5.33505E+00  5.01236E+00
   4.73271E+00  4.46267E+00  4.19432E+00  3.96262E+00  3.77750E+00  3.62138E+00  3.48441E+00  3.36961E+00  3.28795E+00  3.23930E+00
   3.20645E+00  3.19477E+00  3.21187E+00  3.26096E+00  3.34451E+00  3.46569E+00  3.62863E+00  3.83439E+00  4.08181E+00  4.37406E+00
   4.71204E+00  5.09234E+00  5.51059E+00  5.96057E+00  6.43443E+00  6.92355E+00  7.41869E+00  7.90996E+00  8.38732E+00  8.84131E+00
   9.26370E+00  9.64812E+00  9.99178E+00  1.02953E+01  1.05616E+01  1.07970E+01  1.10110E+01  1.12155E+01  1.14240E+01  1.16502E+01
   1.19073E+01  1.22071E+01  1.25590E+01  1.29688E+01  1.34383E+01  1.39647E+01  1.45409E+01  1.51560E+01  1.57953E+01  1.64416E+01
   1.70757E+01  1.76778E+01  1.82291E+01  1.87123E+01  1.91133E+01  1.94214E+01  1.96307E+01  1.97402E+01  1.97554E+01  1.96898E+01
   1.95685E+01  1.94064E+01  1.92231E+01  1.90274E+01  1.87548E+01  1.83063E+01  1.76265E+01  1.67589E+01  1.58385E+01  1.49922E+01
   1.43210E+01  1.39108E+01  1.37825E+01  1.38564E+01  1.39718E+01  1.40121E+01  1.39959E+01  1.39052E+01  1.36861E+01  1.33854E+01
   1.30493E+01  1.26961E+01  1.22859E+01  1.17668E+01  1.12245E+01  1.07211E+01  1.02325E+01  9.75010E+00  9.27388E+00  8.80658E+00
   8.35195E+00  7.91401E+00  7.49667E+00  7.10339E+00  6.73702E+00  6.39982E+00  6.09354E+00  5.81952E+00  5.57871E+00  5.37162E+00
   5.19847E+00  5.05927E+00  4.95406E+00  4.88292E+00  4.84600E+00  4.84348E+00  4.87563E+00  4.94287E+00  5.04582E+00  5.18518E+00
   5.36158E+00  5.57545E+00  5.82691E+00  6.11568E+00  6.44098E+00  6.80118E+00  7.19368E+00  7.61467E+00  8.05919E+00  8.52104E+00
   8.99282E+00  9.46594E+00  9.93080E+00  1.03770E+01  1.07939E+01  1.11709E+01  1.14980E+01  1.17658E+01  1.19667E+01  1.20945E+01
   1.21453E+01  1.21175E+01  1.20118E+01  1.18314E+01  1.15814E+01  1.12688E+01  1.09025E+01  1.04921E+01  1.00481E+01  9.58097E+00
   9.10087E+00  8.61744E+00  8.13940E+00  7.67429E+00  7.22828E+00  6.80617E+00  6.41144E+00  6.04638E+00  5.71220E+00  5.40911E+00
   5.13650E+00  4.89310E+00  4.67730E+00  4.48718E+00  4.32068E+00  4.17562E+00  4.04985E+00  3.94128E+00  3.84799E+00  3.76828E+00
   3.70055E+00  3.64335E+00  3.59535E+00  3.55542E+00  3.52262E+00  3.49612E+00  3.47519E+00  3.45912E+00  3.44734E+00  3.43937E+00
   3.43483E+00  3.43337E+00  3.43466E+00  3.43839E+00  3.44430E+00  3.45221E+00  3.46198E+00  3.47344E+00  3.48642E+00  3.50074E+00
   3.51631E+00  3.53307E+00  3.55095E+00  3.56985E+00  3.58967E+00  3.61031E+00  3.63174E+00  3.65392E+00  3.67684E+00  3.70040E+00
   3.72455E+00  3.74923E+00  3.77445E+00  3.80021E+00  3.82648E+00  3.85317E+00  3.88026E+00  3.90773E+00  3.93559E+00  3.96384E+00
   3.99244E+00  4.02133E+00  4.05051E+00  4.07996E+00  4.10974E+00  4.13980E+00  4.17012E+00  4.20064E+00  4.23140E+00  4.26239E+00
   4.29364E+00  4.32513E+00  4.35682E+00  4.38869E+00  4.42077E+00  4.45310E+00  4.48568E+00  4.51848E+00
 NY background values follow
    -1.364E+01   -1.357E+01   -1.350E+01   -1.343E+01   -1.336E+01   -1.330E+01   -1.323E+01   -1.316E+01   -1.309E+01   -1.302E+01
    -1.296E+01   -1.289E+01   -1.282E+01   -1.275E+01   -1.269E+01   -1.262E+01   -1.255E+01   -1.249E+01   -1.242E+01   -1.236E+01
    -1.229E+01   -1.223E+01   -1.216E+01   -1.210E+01   -1.203E+01   -1.197E+01   -1.190E+01   -1.184E+01   -1.178E+01   -1.171E+01
    -1.165E+01   -1.159E+01   -1.153E+01   -1.147E+01   -1.141E+01   -1.135E+01   -1.129E+01   -1.123E+01   -1.117E+01   -1.111E+01
    -1.105E+01   -1.100E+01   -1.094E+01   -1.088E+01   -1.083E+01   -1.077E+01   -1.072E+01   -1.066E+01   -1.061E+01   -1.055E+01
    -1.050E+01   -1.045E+01   -1.040E+01   -1.035E+01   -1.030E+01   -1.025E+01   -1.020E+01   -1.015E+01   -1.010E+01   -1.005E+01
    -1.000E+01   -9.953E+00   -9.906E+00   -9.859E+00   -9.812E+00   -9.766E+00   -9.721E+00   -9.676E+00   -9.631E+00   -9.586E+00
    -9.542E+00   -9.498E+00   -9.455E+00   -9.412E+00   -9.369E+00   -9.326E+00   -9.284E+00   -9.242E+00   -9.201E+00   -9.159E+00
    -9.118E+00   -9.077E+00   -9.037E+00   -8.997E+00   -8.956E+00   -8.917E+00   -8.877E+00   -8.838E+00   -8.799E+00   -8.760E+00
    -8.721E+00   -8.682E+00   -8.644E+00   -8.606E+00   -8.567E+00   -8.529E+00   -8.492E+00   -8.454E+00   -8.416E+00   -8.379E+00
    -8.341E+00   -8.304E+00   -8.267E+00   -8.229E+00   -8.192E+00   -8.155E+00   -8.117E+00   -8.080E+00   -8.043E+00   -8.006E+00
    -7.968E+00   -7.931E+00   -7.893E+00   -7.856E+00   -7.818E+00   -7.780E+00   -7.742E+00   -7.704E+00   -7.666E+00   -7.628E+00
    -7.590E+00   -7.551E+00   -7.512E+00   -7.473E+00   -7.434E+00   -7.394E+00   -7.354E+00   -7.314E+00   -7.274E+00   -7.234E+00
    -7.193E+00   -7.152E+00   -7.110E+00   -7.069E+00   -7.027E+00   -6.984E+00   -6.941E+00   -6.898E+00   -6.855E+00   -6.811E+00
    -6.766E+00   -6.722E+00   -6.677E+00   -6.631E+00   -6.585E+00   -6.539E+00   -6.493E+00   -6.446E+00   -6.398E+00   -6.351E+00
    -6.302E+00   -6.254E+00   -6.205E+00   -6.155E+00   -6.106E+00   -6.056E+00   -6.005E+00   -5.954E+00   -5.903E+00   -5.851E+00
    -5.798E+00   -5.746E+00   -5.693E+00   -5.639E+00   -5.585E+00   -5.531E+00   -5.476E+00   -5.421E+00   -5.365E+00   -5.309E+00
    -5.252E+00   -5.195E+00   -5.138E+00   -5.080E+00   -5.022E+00   -4.963E+00   -4.904E+00   -4.844E+00   -4.784E+00   -4.723E+00
    -4.662E+00   -4.601E+00   -4.539E+00   -4.476E+00   -4.414E+00   -4.351E+00   -4.287E+00   -4.223E+00   -4.159E+00   -4.095E+00
    -4.030E+00   -3.965E+00   -3.900E+00   -3.835E+00   -3.770E+00   -3.704E+00   -3.639E+00   -3.574E+00   -3.508E+00   -3.443E+00
    -3.377E+00   -3.312E+00   -3.247E+00   -3.182E+00   -3.117E+00   -3.052E+00   -2.987E+00   -2.923E+00   -2.859E+00   -2.795E+00
    -2.732E+00   -2.669E+00   -2.606E+00   -2.544E+00   -2.482E+00   -2.421E+00   -2.360E+00   -2.300E+00   -2.240E+00   -2.181E+00
    -2.122E+00   -2.064E+00   -2.007E+00   -1.951E+00   -1.895E+00   -1.840E+00   -1.785E+00   -1.732E+00   -1.679E+00   -1.627E+00
    -1.576E+00   -1.526E+00   -1.476E+00   -1.427E+00   -1.379E+00   -1.332E+00   -1.285E+00   -1.239E+00   -1.194E+00   -1.150E+00
    -1.106E+00   -1.063E+00   -1.020E+00   -9.786E-01   -9.376E-01   -8.972E-01   -8.575E-01   -8.184E-01   -7.800E-01   -7.423E-01
    -7.051E-01   -6.686E-01   -6.327E-01   -5.974E-01   -5.627E-01   -5.286E-01   -4.951E-01   -4.621E-01   -4.297E-01   -3.979E-01
    -3.667E-01   -3.359E-01   -3.058E-01   -2.761E-01   -2.470E-01   -2.184E-01   -1.903E-01   -1.627E-01   -1.356E-01   -1.090E-01
    -8.285E-02   -5.719E-02   -3.199E-02   -7.253E-03    1.703E-02    4.087E-02    6.427E-02    8.722E-02    1.097E-01    1.318E-01
     1.535E-01    1.748E-01    1.956E-01    2.161E-01    2.361E-01    2.558E-01    2.750E-01    2.939E-01    3.124E-01    3.305E-01
     3.482E-01    3.656E-01    3.826E-01    3.993E-01    4.156E-01    4.316E-01    4.472E-01    4.625E-01    4.775E-01    4.922E-01
     5.065E-01    5.205E-01    5.343E-01    5.477E-01    5.608E-01    5.736E-01    5.862E-01    5.985E-01    6.105E-01    6.222E-01
     6.336E-01    6.448E-01    6.558E-01    6.665E-01    6.769E-01    6.871E-01    6.971E-01    7.069E-01    7.164E-01    7.257E-01
     7.348E-01    7.437E-01    7.524E-01    7.609E-01    7.693E-01    7.774E-01    7.854E-01    7.932E-01    8.008E-01    8.083E-01
     8.156E-01    8.228E-01    8.299E-01    8.368E-01    8.436E-01    8.503E-01    8.568E-01    8.633E-01    8.696E-01    8.759E-01
     8.820E-01    8.881E-01    8.941E-01    9.000E-01    9.059E-01    9.117E-01    9.174E-01    9.231E-01    9.288E-01    9.344E-01
     9.400E-01    9.455E-01    9.511E-01    9.566E-01    9.621E-01    9.677E-01    9.732E-01    9.787E-01    9.843E-01    9.899E-01
     9.955E-01    1.001E+00    1.007E+00    1.013E+00    1.018E+00    1.024E+00    1.030E+00    1.036E+00    1.042E+00    1.049E+00
     1.055E+00    1.062E+00    1.068E+00    1.075E+00    1.082E+00    1.089E+00    1.097E+00    1.104E+00    1.112E+00    1.120E+00
     1.129E+00    1.137E+00    1.146E+00    1.155E+00    1.165E+00    1.174E+00    1.184E+00    1.195E+00    1.205E+00    1.216E+00
     1.228E+00    1.240E+00    1.252E+00    1.264E+00    1.277E+00    1.290E+00    1.304E+00    1.318E+00    1.333E+00    1.348E+00
     1.364E+00    1.380E+00    1.396E+00    1.413E+00    1.431E+00    1.449E+00    1.467E+00    1.487E+00    1.506E+00    1.527E+00
     1.547E+00    1.569E+00    1.590E+00    1.613E+00    1.636E+00    1.659E+00    1.683E+00    1.707E+00    1.732E+00    1.757E+00
     1.782E+00    1.808E+00    1.835E+00    1.861E+00    1.888E+00    1.916E+00    1.944E+00    1.972E+00    2.001E+00    2.030E+00
     2.059E+00    2.089E+00    2.118E+00    2.149E+00    2.179E+00    2.210E+00    2.241E+00    2.272E+00    2.304E+00    2.335E+00
     2.367E+00    2.400E+00    2.432E+00    2.465E+00    2.497E+00    2.530E+00    2.563E+00    2.597E+00    2.630E+00    2.664E+00
     2.697E+00    2.731E+00    2.765E+00    2.799E+00    2.833E+00    2.867E+00    2.901E+00    2.936E+00    2.970E+00    3.005E+00
     3.039E+00    3.074E+00    3.108E+00    3.143E+00    3.178E+00    3.213E+00    3.248E+00    3.283E+00    3.318E+00    3.353E+00
     3.388E+00    3.424E+00    3.459E+00    3.494E+00    3.530E+00    3.565E+00    3.601E+00    3.636E+00    3.672E+00    3.707E+00
     3.743E+00    3.779E+00    3.814E+00    3.850E+00    3.886E+00    3.921E+00    3.957E+00    3.993E+00    4.029E+00    4.065E+00
     4.100E+00    4.136E+00    4.172E+00    4.208E+00    4.244E+00    4.280E+00    4.315E+00    4.351E+00
 Asp      Conc. = 5.67E+01
