 LCModel (Version 6.3-1L) Copyright: S.W. Provencher.          Ref.: Magn. Reson. Med. 30:672-679 (1993).                
 Slice#3 Row#10 Col#1  PD_05_press_1_raw_act
 36 lines in following concentration table = NCONC+1
    Conc.  %SD /Cr+PCr  Metabolite                                         
  122.779 130%   0.000 Ala                                                 
    6.677  76%   0.000 Asp                                                 
    0.000 999%   0.000 Cr                                                  
    0.000 999%   0.000 PCr                                                 
    3.803  81%   0.000 GABA                                                
    4.038  76%   0.000 Glc                                                 
  746.579  36%   0.000 Gln                                                 
 3.76E+03   9%   0.000 Glu                                                 
   13.059  82%   0.000 GPC                                                 
    0.000 999%   0.000 PCh                                                 
    0.000 999%   0.000 GSH                                                 
  528.918  23%   0.000 Ins                                                 
  265.688  54%   0.000 Lac                                                 
    0.000 999%   0.000 NAA                                                 
   86.709  34%   0.000 NAAG                                                
    1.388  74%   0.000 Scyllo                                              
    7.184  71%   0.000 Tau                                                 
    1.018 664%   0.000 -CrCH2                                              
   13.059  82%   0.000 GPC+PCh                                             
   86.709  34%   0.000 NAA+NAAG                                            
    0.000 999%   0.000 Cr+PCr                                              
 4.51E+03  11%   0.000 Glu+Gln                                             
    0.000 999%   0.000 Lip13a                                              
    0.000 999%   0.000 Lip13b                                              
    0.000 999%   0.000 Lip09                                               
    0.139 999%   0.000 MM09                                                
    0.000 999%   0.000 Lip20                                               
    0.000 999%   0.000 MM20                                                
    0.000 999%   0.000 MM12                                                
    0.000 999%   0.000 MM14                                                
    9.630 111%   0.000 MM17                                                
    0.000 999%   0.000 Lip13a+Lip13b                                       
    0.000 999%   0.000 MM14+Lip13a+Lip13b+MM12                             
    0.139 999%   0.000 MM09+Lip09                                          
    0.000 999%   0.000 MM20+Lip20                                          
   6 lines in following misc. output table
  FWHM = 0.183 ppm    S/N =   2                                            
  Data shift =-0.023 ppm                                                   
  Ph: -81 deg      34.5 deg/ppm                                            
  alphaB,S = 1.7E+00,   3.9E+02                                            
    8 spline knots.   Ns = 9(2)                                            
  (11) 2 infls.   (13) 1 extrs.                                            
  498 points on ppm-axis = NY
      4.000000     3.992357     3.984714     3.977070     3.969427     3.961784     3.954141     3.946497     3.938854     3.931211
      3.923568     3.915925     3.908281     3.900638     3.892995     3.885352     3.877708     3.870065     3.862422     3.854779
      3.847136     3.839492     3.831849     3.824206     3.816563     3.808919     3.801276     3.793633     3.785990     3.778347
      3.770703     3.763060     3.755417     3.747774     3.740130     3.732487     3.724844     3.717201     3.709558     3.701914
      3.694271     3.686628     3.678985     3.671341     3.663698     3.656055     3.648412     3.640769     3.633125     3.625482
      3.617839     3.610196     3.602552     3.594909     3.587266     3.579623     3.571980     3.564336     3.556693     3.549050
      3.541407     3.533763     3.526120     3.518477     3.510834     3.503191     3.495547     3.487904     3.480261     3.472618
      3.464974     3.457331     3.449688     3.442045     3.434402     3.426758     3.419115     3.411472     3.403829     3.396185
      3.388542     3.380899     3.373256     3.365613     3.357969     3.350326     3.342683     3.335040     3.327396     3.319753
      3.312110     3.304467     3.296824     3.289180     3.281537     3.273894     3.266251     3.258607     3.250964     3.243321
      3.235678     3.228034     3.220391     3.212748     3.205105     3.197462     3.189818     3.182175     3.174532     3.166889
      3.159245     3.151602     3.143959     3.136316     3.128673     3.121029     3.113386     3.105743     3.098100     3.090456
      3.082813     3.075170     3.067527     3.059884     3.052240     3.044597     3.036954     3.029311     3.021667     3.014024
      3.006381     2.998738     2.991095     2.983451     2.975808     2.968165     2.960522     2.952878     2.945235     2.937592
      2.929949     2.922306     2.914662     2.907019     2.899376     2.891733     2.884089     2.876446     2.868803     2.861160
      2.853517     2.845873     2.838230     2.830587     2.822944     2.815300     2.807657     2.800014     2.792371     2.784728
      2.777084     2.769441     2.761798     2.754155     2.746511     2.738868     2.731225     2.723582     2.715939     2.708295
      2.700652     2.693009     2.685366     2.677722     2.670079     2.662436     2.654793     2.647150     2.639506     2.631863
      2.624220     2.616577     2.608933     2.601290     2.593647     2.586004     2.578361     2.570717     2.563074     2.555431
      2.547788     2.540144     2.532501     2.524858     2.517215     2.509572     2.501928     2.494285     2.486642     2.478999
      2.471355     2.463712     2.456069     2.448426     2.440783     2.433139     2.425496     2.417853     2.410210     2.402566
      2.394923     2.387280     2.379637     2.371994     2.364350     2.356707     2.349064     2.341421     2.333777     2.326134
      2.318491     2.310848     2.303205     2.295561     2.287918     2.280275     2.272632     2.264988     2.257345     2.249702
      2.242059     2.234416     2.226772     2.219129     2.211486     2.203843     2.196199     2.188556     2.180913     2.173270
      2.165627     2.157983     2.150340     2.142697     2.135054     2.127410     2.119767     2.112124     2.104481     2.096838
      2.089194     2.081551     2.073908     2.066265     2.058621     2.050978     2.043335     2.035692     2.028049     2.020405
      2.012762     2.005119     1.997476     1.989833     1.982190     1.974546     1.966903     1.959260     1.951617     1.943974
      1.936331     1.928688     1.921045     1.913402     1.905759     1.898115     1.890472     1.882829     1.875186     1.867543
      1.859900     1.852257     1.844614     1.836971     1.829327     1.821684     1.814041     1.806398     1.798755     1.791112
      1.783469     1.775826     1.768183     1.760540     1.752896     1.745253     1.737610     1.729967     1.722324     1.714681
      1.707038     1.699395     1.691752     1.684108     1.676465     1.668822     1.661179     1.653536     1.645893     1.638250
      1.630607     1.622964     1.615321     1.607677     1.600034     1.592391     1.584748     1.577105     1.569462     1.561819
      1.554176     1.546533     1.538890     1.531246     1.523603     1.515960     1.508317     1.500674     1.493031     1.485388
      1.477745     1.470102     1.462458     1.454815     1.447172     1.439529     1.431886     1.424243     1.416600     1.408957
      1.401314     1.393671     1.386027     1.378384     1.370741     1.363098     1.355455     1.347812     1.340169     1.332526
      1.324883     1.317240     1.309596     1.301953     1.294310     1.286667     1.279024     1.271381     1.263738     1.256095
      1.248452     1.240808     1.233165     1.225522     1.217879     1.210236     1.202593     1.194950     1.187307     1.179664
      1.172021     1.164377     1.156734     1.149091     1.141448     1.133805     1.126162     1.118519     1.110876     1.103233
      1.095590     1.087946     1.080303     1.072660     1.065017     1.057374     1.049731     1.042088     1.034445     1.026802
      1.019158     1.011515     1.003872     0.996229     0.988586     0.980943     0.973300     0.965657     0.958014     0.950371
      0.942727     0.935084     0.927441     0.919798     0.912155     0.904512     0.896869     0.889226     0.881583     0.873940
      0.866296     0.858653     0.851010     0.843367     0.835724     0.828081     0.820438     0.812795     0.805152     0.797508
      0.789865     0.782222     0.774579     0.766936     0.759293     0.751650     0.744007     0.736364     0.728721     0.721077
      0.713434     0.705791     0.698148     0.690505     0.682862     0.675219     0.667576     0.659933     0.652290     0.644646
      0.637003     0.629360     0.621717     0.614074     0.606431     0.598788     0.591145     0.583502     0.575858     0.568215
      0.560572     0.552929     0.545286     0.537643     0.530000     0.522357     0.514714     0.507071     0.499427     0.491784
      0.484141     0.476498     0.468855     0.461212     0.453569     0.445925     0.438282     0.430639     0.422996     0.415353
      0.407710     0.400067     0.392424     0.384780     0.377137     0.369494     0.361851     0.354208     0.346565     0.338922
      0.331278     0.323635     0.315992     0.308349     0.300706     0.293063     0.285420     0.277777     0.270133     0.262490
      0.254847     0.247204     0.239561     0.231918     0.224275     0.216631     0.208988     0.201345
 NY phased data points follow
  -3.57970E+01 -3.72666E+01 -3.55890E+01 -3.46305E+01 -3.38473E+01 -3.26816E+01 -3.31860E+01 -3.29072E+01 -3.19082E+01 -3.21353E+01
  -3.05765E+01 -3.14324E+01 -2.94879E+01 -2.95970E+01 -2.98552E+01 -2.82634E+01 -2.95172E+01 -2.86243E+01 -2.68573E+01 -2.69517E+01
  -2.55473E+01 -2.57525E+01 -2.59622E+01 -2.39633E+01 -2.65202E+01 -2.55691E+01 -2.51446E+01 -2.39236E+01 -2.36833E+01 -2.40606E+01
  -2.32803E+01 -2.22579E+01 -2.24828E+01 -2.11538E+01 -2.12238E+01 -2.15178E+01 -1.98667E+01 -2.09005E+01 -2.04232E+01 -1.99914E+01
  -1.85513E+01 -2.00416E+01 -1.91893E+01 -1.81544E+01 -1.93135E+01 -1.77085E+01 -1.80609E+01 -1.87359E+01 -1.73506E+01 -1.82294E+01
  -1.69912E+01 -1.73678E+01 -1.70264E+01 -1.77737E+01 -1.58718E+01 -1.64066E+01 -1.50139E+01 -1.72382E+01 -1.51166E+01 -1.41856E+01
  -1.66148E+01 -1.53084E+01 -1.36478E+01 -1.53043E+01 -1.42553E+01 -1.39240E+01 -1.46053E+01 -1.37042E+01 -1.34645E+01 -1.26890E+01
  -1.19203E+01 -1.35073E+01 -1.36254E+01 -1.26041E+01 -1.32061E+01 -1.24301E+01 -1.28362E+01 -1.20838E+01 -1.17896E+01 -1.20760E+01
  -1.16453E+01 -1.16797E+01 -1.09939E+01 -1.22918E+01 -1.10528E+01 -1.09658E+01 -1.16377E+01 -1.19791E+01 -1.08962E+01 -1.24052E+01
  -1.19510E+01 -1.02104E+01 -1.04224E+01 -1.03849E+01 -1.12548E+01 -1.09674E+01 -1.09207E+01 -1.12307E+01 -1.01856E+01 -8.78719E+00
  -9.72657E+00 -8.87560E+00 -9.98295E+00 -1.07689E+01 -9.29661E+00 -9.24107E+00 -9.59741E+00 -8.81337E+00 -9.69355E+00 -8.64288E+00
  -1.00463E+01 -9.20782E+00 -9.00596E+00 -8.56302E+00 -9.67423E+00 -9.60007E+00 -8.06704E+00 -9.86579E+00 -8.33975E+00 -8.75456E+00
  -8.65330E+00 -8.09103E+00 -9.06738E+00 -7.67414E+00 -8.05341E+00 -8.17692E+00 -7.21464E+00 -7.14737E+00 -8.40271E+00 -6.69829E+00
  -8.61615E+00 -8.11587E+00 -8.45665E+00 -8.44312E+00 -8.23691E+00 -6.28803E+00 -8.13032E+00 -8.30555E+00 -8.40322E+00 -8.07012E+00
  -7.88065E+00 -8.46280E+00 -7.23500E+00 -8.66703E+00 -7.61594E+00 -6.46196E+00 -8.30681E+00 -7.49612E+00 -8.03479E+00 -8.68646E+00
  -7.78136E+00 -7.61413E+00 -8.50987E+00 -5.94875E+00 -8.80924E+00 -9.24465E+00 -8.85483E+00 -9.31753E+00 -7.57985E+00 -7.90903E+00
  -8.10910E+00 -8.42995E+00 -8.86865E+00 -6.96352E+00 -7.88229E+00 -7.84744E+00 -6.35812E+00 -7.57641E+00 -8.48498E+00 -9.12091E+00
  -7.00501E+00 -7.87403E+00 -6.54002E+00 -7.51461E+00 -6.78330E+00 -7.44479E+00 -7.30651E+00 -5.76325E+00 -7.23514E+00 -6.98128E+00
  -6.74605E+00 -7.25010E+00 -5.29719E+00 -6.63816E+00 -4.69837E+00 -6.00981E+00 -4.73133E+00 -6.47769E+00 -5.04580E+00 -6.21928E+00
  -6.05758E+00 -6.23140E+00 -5.32701E+00 -6.96649E+00 -5.11482E+00 -5.23358E+00 -6.58148E+00 -5.40736E+00 -5.17403E+00 -7.63872E+00
  -5.91575E+00 -7.15149E+00 -5.23446E+00 -7.25134E+00 -7.51059E+00 -5.47912E+00 -6.78167E+00 -4.97352E+00 -5.46863E+00 -5.60798E+00
  -6.93713E+00 -6.73064E+00 -7.11702E+00 -7.91447E+00 -7.90025E+00 -6.47728E+00 -6.83001E+00 -6.91153E+00 -6.66119E+00 -7.44405E+00
  -6.85747E+00 -5.58850E+00 -6.75686E+00 -6.44770E+00 -7.38564E+00 -6.51957E+00 -8.87737E+00 -6.91134E+00 -8.72632E+00 -7.39902E+00
  -8.22190E+00 -8.39176E+00 -7.45034E+00 -5.47820E+00 -7.01051E+00 -7.48723E+00 -6.85774E+00 -6.33597E+00 -7.79614E+00 -6.85421E+00
  -5.19975E+00 -5.76198E+00 -5.98038E+00 -5.09917E+00 -5.12083E+00 -5.60492E+00 -5.11847E+00 -5.39368E+00 -4.42401E+00 -2.47221E+00
  -5.31187E+00 -3.83710E+00 -4.66751E+00 -4.77437E+00 -3.55911E+00 -2.52563E+00 -3.71137E+00 -3.20215E+00 -3.05073E+00 -2.74123E+00
  -3.52082E+00 -3.37440E+00 -2.49281E+00 -3.19265E+00 -3.55727E+00 -1.41391E+00 -3.35520E+00 -2.06005E+00 -5.27817E-01 -7.11713E-01
  -1.06992E+00 -2.41069E+00 -2.21234E+00 -1.49400E+00 -1.48987E+00 -2.04920E+00 -1.66715E+00 -3.34075E+00 -1.23767E+00 -1.28492E+00
  -1.79661E+00 -1.60544E+00  3.56130E-01 -1.17239E+00 -1.15760E+00 -8.78423E-01 -1.74464E+00 -1.23495E+00 -1.58162E+00  1.93425E-01
  -1.49837E+00  2.03655E-01  8.43712E-01 -1.00707E+00  1.83684E-02  1.48786E+00  1.22253E-01  1.14425E+00 -6.11620E-01  1.98021E-01
   1.82492E-01 -1.21679E-01  4.67581E-01 -1.97578E-01  1.44744E+00  1.51431E-01  6.34335E-01 -3.27485E-01  2.58713E+00  1.70276E+00
   6.01830E-01  3.92821E-01  8.32533E-01  1.85981E+00  1.36716E+00  1.25144E+00  9.34260E-01  4.72484E-01  2.51102E+00 -2.10100E-01
  -8.76818E-01  2.09630E+00  1.81815E+00  1.96925E+00  1.31972E+00  1.43811E+00  2.81562E-01  7.37641E-02  2.11805E-01  1.10269E+00
   8.02776E-01  1.28647E+00  2.86210E+00  2.74975E+00  1.45876E+00  2.71905E+00  2.79982E+00  2.99662E+00  1.84899E+00  2.37361E+00
   1.87684E+00  1.88806E+00  1.82878E+00  2.34635E+00  1.74120E+00  1.89764E+00  2.46121E+00  2.95916E+00  1.84989E+00  1.70435E+00
   1.98857E+00  3.67021E+00  1.86447E+00  1.62090E+00  2.32527E+00  2.89511E+00  1.85241E+00  8.04585E-01  1.88741E+00  1.80581E+00
   3.60505E+00  2.68662E+00  3.19484E+00  1.93510E+00  1.50451E+00  1.42770E+00  1.65448E+00  4.06453E+00  4.10397E+00  3.61890E+00
   2.65346E+00  3.94716E+00  2.69120E+00  3.59419E+00  3.09986E+00  2.44052E+00  3.06894E+00  3.22056E+00  3.45508E+00  3.54456E+00
   3.47798E+00  3.09205E+00  3.24586E+00  3.61869E+00  1.88041E+00  4.03548E+00  1.64617E+00  3.36691E+00  3.41187E+00  3.28557E+00
   2.99491E+00  3.62751E+00  3.85734E+00  3.82253E+00  3.24120E+00  4.31548E+00  3.56879E+00  4.29883E+00  2.93643E+00  2.58598E+00
   2.43007E+00  3.44185E+00  2.81903E+00  3.10047E+00  3.20255E+00  3.09918E+00  3.35761E+00  3.10203E+00  2.04669E+00  4.06442E+00
   2.81428E+00  2.96059E+00  2.08788E+00  3.50761E+00  3.29911E+00  3.45780E+00  3.54236E+00  4.18115E+00  3.32974E+00  4.63879E+00
   4.18208E+00  4.51680E+00  3.91151E+00  3.54317E+00  2.44952E+00  4.25567E+00  2.50578E+00  2.64868E+00  2.32608E+00  1.71849E+00
   2.93083E+00  2.32248E+00  2.79795E+00  2.37421E+00  2.74366E+00  2.53580E+00  2.88439E+00  1.82254E+00  3.89157E+00  4.06691E+00
   4.09676E+00  2.57291E+00  2.36996E+00  3.21204E+00  2.56087E+00  3.15242E+00  4.04694E+00  2.52840E+00  3.34477E+00  3.19939E+00
   3.59098E+00  4.05995E+00  2.98862E+00  4.30077E+00  3.05471E+00  2.09552E+00  2.54934E+00  2.90421E+00  2.66418E+00  4.05545E+00
   2.99443E+00  2.03507E+00  2.94682E+00  3.18449E+00  1.93775E+00  4.22808E+00  3.96580E+00  2.84622E+00  1.94613E+00  2.84166E+00
   3.84182E+00  3.09146E+00  3.47587E+00  3.79064E+00  2.95869E+00  3.98752E+00  3.34207E+00  4.85171E+00  3.60330E+00  2.34924E+00
   2.59930E+00  1.57778E+00  3.80916E+00  1.97434E+00  3.14209E+00  4.06938E+00  2.80727E+00  3.28361E+00  4.64750E+00  2.86159E+00
   2.28862E+00  2.57375E+00  3.38106E+00  4.23293E+00  3.57847E+00  3.33558E+00  3.01107E+00  3.17845E+00
 NY points of the fit to the data follow
  -3.42536E+01 -3.38795E+01 -3.36522E+01 -3.33002E+01 -3.30512E+01 -3.26929E+01 -3.24086E+01 -3.20057E+01 -3.16589E+01 -3.12463E+01
  -3.09893E+01 -3.06002E+01 -3.04720E+01 -3.00616E+01 -2.99429E+01 -2.93584E+01 -2.91646E+01 -2.84251E+01 -2.82114E+01 -2.73989E+01
  -2.72835E+01 -2.64624E+01 -2.63927E+01 -2.55699E+01 -2.55409E+01 -2.47435E+01 -2.47562E+01 -2.40053E+01 -2.40493E+01 -2.33126E+01
  -2.33092E+01 -2.25701E+01 -2.24960E+01 -2.17690E+01 -2.16203E+01 -2.09455E+01 -2.07561E+01 -2.01823E+01 -1.99867E+01 -1.95515E+01
  -1.93815E+01 -1.90751E+01 -1.88958E+01 -1.86717E+01 -1.84184E+01 -1.82163E+01 -1.78548E+01 -1.76564E+01 -1.72617E+01 -1.71421E+01
  -1.68889E+01 -1.68699E+01 -1.66799E+01 -1.66743E+01 -1.63906E+01 -1.62942E+01 -1.59448E+01 -1.58410E+01 -1.55620E+01 -1.55096E+01
  -1.53096E+01 -1.52877E+01 -1.50527E+01 -1.50120E+01 -1.47608E+01 -1.47162E+01 -1.44645E+01 -1.44109E+01 -1.41488E+01 -1.40690E+01
  -1.37837E+01 -1.37054E+01 -1.34394E+01 -1.33857E+01 -1.31418E+01 -1.31098E+01 -1.28844E+01 -1.28657E+01 -1.26540E+01 -1.26334E+01
  -1.24410E+01 -1.24085E+01 -1.22252E+01 -1.21826E+01 -1.20100E+01 -1.19485E+01 -1.18001E+01 -1.17262E+01 -1.16035E+01 -1.15137E+01
  -1.14089E+01 -1.13015E+01 -1.12051E+01 -1.10808E+01 -1.09810E+01 -1.08388E+01 -1.07409E+01 -1.05854E+01 -1.04933E+01 -1.03299E+01
  -1.02482E+01 -1.00812E+01 -1.00106E+01 -9.84226E+00 -9.77929E+00 -9.61334E+00 -9.55356E+00 -9.39719E+00 -9.34002E+00 -9.20929E+00
  -9.16162E+00 -9.06108E+00 -9.01657E+00 -8.93755E+00 -8.89003E+00 -8.82360E+00 -8.76850E+00 -8.71010E+00 -8.64948E+00 -8.59776E+00
  -8.54177E+00 -8.50115E+00 -8.45040E+00 -8.41352E+00 -8.36386E+00 -8.31487E+00 -8.26720E+00 -8.21906E+00 -8.17333E+00 -8.12766E+00
  -8.08435E+00 -8.04160E+00 -8.00072E+00 -7.96070E+00 -7.92187E+00 -7.88423E+00 -7.84830E+00 -7.81443E+00 -7.78154E+00 -7.75152E+00
  -7.72111E+00 -7.69395E+00 -7.66645E+00 -7.64253E+00 -7.61780E+00 -7.59691E+00 -7.57508E+00 -7.55721E+00 -7.53831E+00 -7.52323E+00
  -7.50723E+00 -7.49518E+00 -7.48331E+00 -7.47453E+00 -7.46496E+00 -7.45896E+00 -7.45036E+00 -7.44693E+00 -7.43986E+00 -7.43791E+00
  -7.43247E+00 -7.43137E+00 -7.42801E+00 -7.42810E+00 -7.42756E+00 -7.43034E+00 -7.43045E+00 -7.43424E+00 -7.43390E+00 -7.43791E+00
  -7.43447E+00 -7.43724E+00 -7.42877E+00 -7.42858E+00 -7.41200E+00 -7.40738E+00 -7.39435E+00 -7.38832E+00 -7.39360E+00 -7.39871E+00
  -7.42501E+00 -7.44312E+00 -7.48878E+00 -7.50328E+00 -7.52900E+00 -7.51243E+00 -7.49948E+00 -7.40521E+00 -7.30869E+00 -7.15824E+00
  -7.01306E+00 -6.83607E+00 -6.84913E+00 -6.70843E+00 -6.91888E+00 -6.81545E+00 -7.17484E+00 -6.99463E+00 -7.12904E+00 -6.77696E+00
  -6.66206E+00 -6.16843E+00 -5.83031E+00 -5.32594E+00 -5.08404E+00 -4.86292E+00 -4.80836E+00 -4.80568E+00 -4.98822E+00 -5.13297E+00
  -5.49436E+00 -5.66896E+00 -6.07657E+00 -6.18965E+00 -6.52487E+00 -6.50968E+00 -6.69782E+00 -6.56328E+00 -6.68130E+00 -6.49830E+00
  -6.64875E+00 -6.46487E+00 -6.76374E+00 -6.59717E+00 -6.99553E+00 -6.89030E+00 -7.24670E+00 -7.10251E+00 -7.22070E+00 -7.06213E+00
  -6.94996E+00 -6.81472E+00 -6.66803E+00 -6.70185E+00 -6.52951E+00 -6.70449E+00 -6.37913E+00 -6.55412E+00 -5.83623E+00 -5.94423E+00
  -5.12481E+00 -5.31701E+00 -4.52144E+00 -4.90530E+00 -4.30294E+00 -4.93542E+00 -4.36117E+00 -4.94594E+00 -4.38950E+00 -4.82478E+00
  -4.29364E+00 -4.54665E+00 -4.09248E+00 -4.18342E+00 -3.87772E+00 -3.82036E+00 -3.64893E+00 -3.43807E+00 -3.40604E+00 -3.04665E+00
  -3.10052E+00 -2.59820E+00 -2.72622E+00 -2.17848E+00 -2.35064E+00 -1.86076E+00 -2.04925E+00 -1.57269E+00 -1.74322E+00 -1.31378E+00
  -1.46848E+00 -1.10372E+00 -1.28693E+00 -1.02834E+00 -1.21767E+00 -1.01417E+00 -1.13695E+00 -9.62630E-01 -1.00459E+00 -8.55313E-01
  -8.94591E-01 -8.16347E-01 -8.27740E-01 -7.76778E-01 -7.45515E-01 -7.18337E-01 -6.39829E-01 -6.23835E-01 -5.48181E-01 -5.28449E-01
  -4.55295E-01 -4.39350E-01 -3.81574E-01 -3.74897E-01 -3.40866E-01 -3.36308E-01 -3.01256E-01 -2.83838E-01 -2.46440E-01 -2.18474E-01
  -1.80067E-01 -1.44623E-01 -1.08011E-01 -7.39484E-02 -3.83380E-02 -2.85473E-03  3.45929E-02  7.43555E-02  1.22869E-01  1.94134E-01
   2.51122E-01  3.33967E-01  3.91042E-01  4.73667E-01  5.21326E-01  5.85128E-01  6.01066E-01  6.44571E-01  6.55515E-01  6.80804E-01
   6.98601E-01  7.08523E-01  7.44266E-01  7.43602E-01  8.03717E-01  7.97652E-01  8.83766E-01  8.76904E-01  1.00179E+00  1.05230E+00
   1.20720E+00  1.27078E+00  1.43157E+00  1.48154E+00  1.62707E+00  1.62227E+00  1.71120E+00  1.69426E+00  1.76016E+00  1.75363E+00
   1.80603E+00  1.82471E+00  1.87066E+00  1.92155E+00  1.96312E+00  2.04812E+00  2.08425E+00  2.20306E+00  2.23453E+00  2.37799E+00
   2.39007E+00  2.50848E+00  2.48617E+00  2.57124E+00  2.51284E+00  2.57382E+00  2.49442E+00  2.55546E+00  2.50588E+00  2.58189E+00
   2.56476E+00  2.64279E+00  2.65000E+00  2.71399E+00  2.73322E+00  2.77481E+00  2.79990E+00  2.84323E+00  2.88724E+00  2.96630E+00
   3.02003E+00  3.06710E+00  3.11011E+00  3.11761E+00  3.13361E+00  3.10471E+00  3.08291E+00  3.06988E+00  3.06240E+00  3.05885E+00
   3.05806E+00  3.05945E+00  3.06242E+00  3.06672E+00  3.07198E+00  3.07809E+00  3.08478E+00  3.09201E+00  3.09957E+00  3.10746E+00
   3.11552E+00  3.12376E+00  3.13203E+00  3.14038E+00  3.14866E+00  3.15694E+00  3.16508E+00  3.17316E+00  3.18104E+00  3.18879E+00
   3.19631E+00  3.20369E+00  3.21081E+00  3.21776E+00  3.22444E+00  3.23093E+00  3.23714E+00  3.24315E+00  3.24887E+00  3.25439E+00
   3.25960E+00  3.26461E+00  3.26932E+00  3.27383E+00  3.27804E+00  3.28205E+00  3.28577E+00  3.28928E+00  3.29251E+00  3.29554E+00
   3.29830E+00  3.30086E+00  3.30315E+00  3.30526E+00  3.30710E+00  3.30877E+00  3.31017E+00  3.31140E+00  3.31237E+00  3.31318E+00
   3.31374E+00  3.31415E+00  3.31431E+00  3.31432E+00  3.31408E+00  3.31371E+00  3.31310E+00  3.31236E+00  3.31138E+00  3.31028E+00
   3.30894E+00  3.30749E+00  3.30582E+00  3.30403E+00  3.30202E+00  3.29990E+00  3.29756E+00  3.29513E+00  3.29248E+00  3.28973E+00
   3.28678E+00  3.28373E+00  3.28048E+00  3.27713E+00  3.27359E+00  3.26995E+00  3.26612E+00  3.26219E+00  3.25808E+00  3.25387E+00
   3.24947E+00  3.24497E+00  3.24028E+00  3.23550E+00  3.23053E+00  3.22545E+00  3.22018E+00  3.21481E+00  3.20924E+00  3.20355E+00
   3.19766E+00  3.19165E+00  3.18543E+00  3.17907E+00  3.17249E+00  3.16576E+00  3.15879E+00  3.15166E+00  3.14425E+00  3.13666E+00
   3.12878E+00  3.12068E+00  3.11225E+00  3.10356E+00  3.09450E+00  3.08512E+00  3.07532E+00  3.06513E+00  3.05443E+00  3.04325E+00
   3.03144E+00  3.01903E+00  3.00585E+00  2.99186E+00  2.97688E+00  2.96081E+00  2.94340E+00  2.92445E+00
 NY background values follow
    -3.536E+01   -3.503E+01   -3.471E+01   -3.438E+01   -3.405E+01   -3.373E+01   -3.340E+01   -3.308E+01   -3.276E+01   -3.244E+01
    -3.212E+01   -3.180E+01   -3.148E+01   -3.116E+01   -3.084E+01   -3.053E+01   -3.021E+01   -2.990E+01   -2.959E+01   -2.928E+01
    -2.897E+01   -2.866E+01   -2.835E+01   -2.804E+01   -2.774E+01   -2.744E+01   -2.714E+01   -2.684E+01   -2.654E+01   -2.624E+01
    -2.594E+01   -2.565E+01   -2.536E+01   -2.507E+01   -2.478E+01   -2.449E+01   -2.420E+01   -2.392E+01   -2.364E+01   -2.336E+01
    -2.308E+01   -2.280E+01   -2.252E+01   -2.225E+01   -2.198E+01   -2.171E+01   -2.144E+01   -2.118E+01   -2.091E+01   -2.065E+01
    -2.039E+01   -2.013E+01   -1.988E+01   -1.962E+01   -1.937E+01   -1.912E+01   -1.888E+01   -1.863E+01   -1.839E+01   -1.815E+01
    -1.791E+01   -1.767E+01   -1.744E+01   -1.721E+01   -1.698E+01   -1.675E+01   -1.653E+01   -1.631E+01   -1.609E+01   -1.587E+01
    -1.566E+01   -1.545E+01   -1.524E+01   -1.503E+01   -1.483E+01   -1.463E+01   -1.443E+01   -1.424E+01   -1.404E+01   -1.385E+01
    -1.366E+01   -1.348E+01   -1.330E+01   -1.312E+01   -1.294E+01   -1.277E+01   -1.260E+01   -1.243E+01   -1.227E+01   -1.210E+01
    -1.194E+01   -1.179E+01   -1.163E+01   -1.148E+01   -1.134E+01   -1.119E+01   -1.105E+01   -1.091E+01   -1.078E+01   -1.065E+01
    -1.052E+01   -1.039E+01   -1.027E+01   -1.015E+01   -1.003E+01   -9.920E+00   -9.809E+00   -9.701E+00   -9.595E+00   -9.493E+00
    -9.393E+00   -9.296E+00   -9.201E+00   -9.109E+00   -9.019E+00   -8.932E+00   -8.847E+00   -8.765E+00   -8.685E+00   -8.607E+00
    -8.532E+00   -8.458E+00   -8.387E+00   -8.318E+00   -8.251E+00   -8.186E+00   -8.123E+00   -8.061E+00   -8.002E+00   -7.945E+00
    -7.889E+00   -7.835E+00   -7.783E+00   -7.732E+00   -7.683E+00   -7.636E+00   -7.590E+00   -7.546E+00   -7.503E+00   -7.461E+00
    -7.421E+00   -7.383E+00   -7.345E+00   -7.309E+00   -7.274E+00   -7.240E+00   -7.207E+00   -7.176E+00   -7.145E+00   -7.115E+00
    -7.087E+00   -7.059E+00   -7.032E+00   -7.006E+00   -6.981E+00   -6.956E+00   -6.932E+00   -6.909E+00   -6.887E+00   -6.865E+00
    -6.844E+00   -6.823E+00   -6.803E+00   -6.783E+00   -6.763E+00   -6.744E+00   -6.726E+00   -6.707E+00   -6.689E+00   -6.671E+00
    -6.653E+00   -6.636E+00   -6.618E+00   -6.601E+00   -6.584E+00   -6.566E+00   -6.549E+00   -6.531E+00   -6.514E+00   -6.496E+00
    -6.478E+00   -6.460E+00   -6.442E+00   -6.424E+00   -6.405E+00   -6.386E+00   -6.366E+00   -6.346E+00   -6.326E+00   -6.305E+00
    -6.283E+00   -6.262E+00   -6.239E+00   -6.216E+00   -6.192E+00   -6.168E+00   -6.143E+00   -6.117E+00   -6.091E+00   -6.063E+00
    -6.035E+00   -6.006E+00   -5.976E+00   -5.946E+00   -5.915E+00   -5.883E+00   -5.850E+00   -5.816E+00   -5.782E+00   -5.747E+00
    -5.712E+00   -5.675E+00   -5.638E+00   -5.601E+00   -5.563E+00   -5.524E+00   -5.484E+00   -5.444E+00   -5.404E+00   -5.362E+00
    -5.320E+00   -5.278E+00   -5.235E+00   -5.192E+00   -5.148E+00   -5.103E+00   -5.058E+00   -5.013E+00   -4.967E+00   -4.920E+00
    -4.873E+00   -4.826E+00   -4.778E+00   -4.730E+00   -4.681E+00   -4.632E+00   -4.583E+00   -4.533E+00   -4.483E+00   -4.433E+00
    -4.382E+00   -4.331E+00   -4.279E+00   -4.227E+00   -4.175E+00   -4.123E+00   -4.070E+00   -4.017E+00   -3.964E+00   -3.910E+00
    -3.857E+00   -3.803E+00   -3.748E+00   -3.694E+00   -3.640E+00   -3.585E+00   -3.530E+00   -3.475E+00   -3.419E+00   -3.364E+00
    -3.308E+00   -3.253E+00   -3.197E+00   -3.141E+00   -3.085E+00   -3.029E+00   -2.973E+00   -2.916E+00   -2.860E+00   -2.803E+00
    -2.747E+00   -2.691E+00   -2.634E+00   -2.578E+00   -2.521E+00   -2.464E+00   -2.408E+00   -2.351E+00   -2.295E+00   -2.239E+00
    -2.182E+00   -2.126E+00   -2.070E+00   -2.013E+00   -1.957E+00   -1.901E+00   -1.845E+00   -1.789E+00   -1.734E+00   -1.678E+00
    -1.623E+00   -1.567E+00   -1.512E+00   -1.457E+00   -1.402E+00   -1.348E+00   -1.293E+00   -1.239E+00   -1.185E+00   -1.131E+00
    -1.077E+00   -1.023E+00   -9.702E-01   -9.171E-01   -8.643E-01   -8.116E-01   -7.593E-01   -7.071E-01   -6.552E-01   -6.035E-01
    -5.521E-01   -5.010E-01   -4.501E-01   -3.995E-01   -3.491E-01   -2.991E-01   -2.493E-01   -1.998E-01   -1.505E-01   -1.016E-01
    -5.296E-02   -4.615E-03    4.342E-02    9.115E-02    1.386E-01    1.857E-01    2.325E-01    2.789E-01    3.250E-01    3.709E-01
     4.163E-01    4.615E-01    5.063E-01    5.507E-01    5.948E-01    6.385E-01    6.819E-01    7.250E-01    7.677E-01    8.100E-01
     8.519E-01    8.935E-01    9.347E-01    9.755E-01    1.016E+00    1.056E+00    1.096E+00    1.135E+00    1.174E+00    1.212E+00
     1.250E+00    1.288E+00    1.325E+00    1.362E+00    1.399E+00    1.435E+00    1.470E+00    1.506E+00    1.541E+00    1.575E+00
     1.609E+00    1.642E+00    1.676E+00    1.708E+00    1.741E+00    1.772E+00    1.804E+00    1.835E+00    1.865E+00    1.895E+00
     1.925E+00    1.954E+00    1.983E+00    2.011E+00    2.039E+00    2.066E+00    2.093E+00    2.120E+00    2.146E+00    2.171E+00
     2.197E+00    2.221E+00    2.245E+00    2.269E+00    2.292E+00    2.315E+00    2.338E+00    2.359E+00    2.381E+00    2.402E+00
     2.422E+00    2.442E+00    2.462E+00    2.481E+00    2.499E+00    2.517E+00    2.535E+00    2.552E+00    2.569E+00    2.585E+00
     2.601E+00    2.616E+00    2.631E+00    2.645E+00    2.659E+00    2.673E+00    2.686E+00    2.698E+00    2.711E+00    2.723E+00
     2.734E+00    2.745E+00    2.756E+00    2.766E+00    2.776E+00    2.786E+00    2.795E+00    2.804E+00    2.813E+00    2.821E+00
     2.829E+00    2.837E+00    2.845E+00    2.852E+00    2.859E+00    2.865E+00    2.871E+00    2.877E+00    2.883E+00    2.888E+00
     2.894E+00    2.899E+00    2.903E+00    2.908E+00    2.912E+00    2.916E+00    2.920E+00    2.923E+00    2.927E+00    2.930E+00
     2.933E+00    2.936E+00    2.938E+00    2.941E+00    2.943E+00    2.945E+00    2.947E+00    2.949E+00    2.950E+00    2.952E+00
     2.953E+00    2.954E+00    2.955E+00    2.956E+00    2.956E+00    2.957E+00    2.957E+00    2.958E+00    2.958E+00    2.958E+00
     2.958E+00    2.958E+00    2.958E+00    2.957E+00    2.957E+00    2.957E+00    2.956E+00    2.955E+00    2.955E+00    2.954E+00
     2.953E+00    2.952E+00    2.951E+00    2.950E+00    2.949E+00    2.947E+00    2.946E+00    2.945E+00    2.943E+00    2.942E+00
     2.941E+00    2.939E+00    2.937E+00    2.936E+00    2.934E+00    2.933E+00    2.931E+00    2.929E+00    2.927E+00    2.925E+00
     2.924E+00    2.922E+00    2.920E+00    2.918E+00    2.916E+00    2.914E+00    2.912E+00    2.910E+00
 Ala      Conc. = 1.23E+02
