 LCModel (Version 6.3-1L) Copyright: S.W. Provencher.          Ref.: Magn. Reson. Med. 30:672-679 (1993).                
 Slice#2 Row#2 Col#12  PD_05_press_1_raw_act
 36 lines in following concentration table = NCONC+1
    Conc.  %SD /Cr+PCr  Metabolite                                         
 1.52E+04  13%   0.000 Ala                                                 
   44.596  99%   0.000 Asp                                                 
    0.000 999%   0.000 Cr                                                  
    0.000 999%   0.000 PCr                                                 
   10.090 266%   0.000 GABA                                                
   16.375 164%   0.000 Glc                                                 
 2.93E+03  26%   0.000 Gln                                                 
 5.38E+03  19%   0.000 Glu                                                 
   38.578 306%   0.000 GPC                                                 
   16.750 701%   0.000 PCh                                                 
    0.000 999%   0.000 GSH                                                 
  623.979  64%   0.000 Ins                                                 
 8.73E+03  41%   0.000 Lac                                                 
  298.081  38%   0.000 NAA                                                 
    0.000 999%   0.000 NAAG                                                
    8.178 108%   0.000 Scyllo                                              
   34.208 129%   0.000 Tau                                                 
    0.000 999%   0.000 -CrCH2                                              
   55.328  57%   0.000 GPC+PCh                                             
  298.081  38%   0.000 NAA+NAAG                                            
    0.000 999%   0.000 Cr+PCr                                              
 8.31E+03  19%   0.000 Glu+Gln                                             
 1.64E+04  14%   0.000 Lip13a                                              
 1.33E+03 120%   0.000 Lip13b                                              
 4.73E+03  10%   0.000 Lip09                                               
    0.000 999%   0.000 MM09                                                
 2.66E+03  10%   0.000 Lip20                                               
 1.84E+03  26%   0.000 MM20                                                
    0.000 999%   0.000 MM12                                                
 6.03E+04   7%   0.000 MM14                                                
 1.74E+04   9%   0.000 MM17                                                
 1.77E+04  10%   0.000 Lip13a+Lip13b                                       
 7.80E+04   5%   0.000 MM14+Lip13a+Lip13b+MM12                             
 4.73E+03  10%   0.000 MM09+Lip09                                          
 4.50E+03   9%   0.000 MM20+Lip20                                          
   6 lines in following misc. output table
  FWHM = 0.168 ppm    S/N =  57                                            
  Data shift = 0.046 ppm                                                   
  Ph: 155 deg      38.9 deg/ppm                                            
  alphaB,S = 9.2E+00,   1.0E+02                                            
    6 spline knots.   Ns = 9(2)                                            
  ( 9) 2 infls.   ( 1) 1 extrs.                                            
  498 points on ppm-axis = NY
      4.000000     3.992357     3.984714     3.977070     3.969427     3.961784     3.954141     3.946497     3.938854     3.931211
      3.923568     3.915925     3.908281     3.900638     3.892995     3.885352     3.877708     3.870065     3.862422     3.854779
      3.847136     3.839492     3.831849     3.824206     3.816563     3.808919     3.801276     3.793633     3.785990     3.778347
      3.770703     3.763060     3.755417     3.747774     3.740130     3.732487     3.724844     3.717201     3.709558     3.701914
      3.694271     3.686628     3.678985     3.671341     3.663698     3.656055     3.648412     3.640769     3.633125     3.625482
      3.617839     3.610196     3.602552     3.594909     3.587266     3.579623     3.571980     3.564336     3.556693     3.549050
      3.541407     3.533763     3.526120     3.518477     3.510834     3.503191     3.495547     3.487904     3.480261     3.472618
      3.464974     3.457331     3.449688     3.442045     3.434402     3.426758     3.419115     3.411472     3.403829     3.396185
      3.388542     3.380899     3.373256     3.365613     3.357969     3.350326     3.342683     3.335040     3.327396     3.319753
      3.312110     3.304467     3.296824     3.289180     3.281537     3.273894     3.266251     3.258607     3.250964     3.243321
      3.235678     3.228034     3.220391     3.212748     3.205105     3.197462     3.189818     3.182175     3.174532     3.166889
      3.159245     3.151602     3.143959     3.136316     3.128673     3.121029     3.113386     3.105743     3.098100     3.090456
      3.082813     3.075170     3.067527     3.059884     3.052240     3.044597     3.036954     3.029311     3.021667     3.014024
      3.006381     2.998738     2.991095     2.983451     2.975808     2.968165     2.960522     2.952878     2.945235     2.937592
      2.929949     2.922306     2.914662     2.907019     2.899376     2.891733     2.884089     2.876446     2.868803     2.861160
      2.853517     2.845873     2.838230     2.830587     2.822944     2.815300     2.807657     2.800014     2.792371     2.784728
      2.777084     2.769441     2.761798     2.754155     2.746511     2.738868     2.731225     2.723582     2.715939     2.708295
      2.700652     2.693009     2.685366     2.677722     2.670079     2.662436     2.654793     2.647150     2.639506     2.631863
      2.624220     2.616577     2.608933     2.601290     2.593647     2.586004     2.578361     2.570717     2.563074     2.555431
      2.547788     2.540144     2.532501     2.524858     2.517215     2.509572     2.501928     2.494285     2.486642     2.478999
      2.471355     2.463712     2.456069     2.448426     2.440783     2.433139     2.425496     2.417853     2.410210     2.402566
      2.394923     2.387280     2.379637     2.371994     2.364350     2.356707     2.349064     2.341421     2.333777     2.326134
      2.318491     2.310848     2.303205     2.295561     2.287918     2.280275     2.272632     2.264988     2.257345     2.249702
      2.242059     2.234416     2.226772     2.219129     2.211486     2.203843     2.196199     2.188556     2.180913     2.173270
      2.165627     2.157983     2.150340     2.142697     2.135054     2.127410     2.119767     2.112124     2.104481     2.096838
      2.089194     2.081551     2.073908     2.066265     2.058621     2.050978     2.043335     2.035692     2.028049     2.020405
      2.012762     2.005119     1.997476     1.989833     1.982190     1.974546     1.966903     1.959260     1.951617     1.943974
      1.936331     1.928688     1.921045     1.913402     1.905759     1.898115     1.890472     1.882829     1.875186     1.867543
      1.859900     1.852257     1.844614     1.836971     1.829327     1.821684     1.814041     1.806398     1.798755     1.791112
      1.783469     1.775826     1.768183     1.760540     1.752896     1.745253     1.737610     1.729967     1.722324     1.714681
      1.707038     1.699395     1.691752     1.684108     1.676465     1.668822     1.661179     1.653536     1.645893     1.638250
      1.630607     1.622964     1.615321     1.607677     1.600034     1.592391     1.584748     1.577105     1.569462     1.561819
      1.554176     1.546533     1.538890     1.531246     1.523603     1.515960     1.508317     1.500674     1.493031     1.485388
      1.477745     1.470102     1.462458     1.454815     1.447172     1.439529     1.431886     1.424243     1.416600     1.408957
      1.401314     1.393671     1.386027     1.378384     1.370741     1.363098     1.355455     1.347812     1.340169     1.332526
      1.324883     1.317240     1.309596     1.301953     1.294310     1.286667     1.279024     1.271381     1.263738     1.256095
      1.248452     1.240808     1.233165     1.225522     1.217879     1.210236     1.202593     1.194950     1.187307     1.179664
      1.172021     1.164377     1.156734     1.149091     1.141448     1.133805     1.126162     1.118519     1.110876     1.103233
      1.095590     1.087946     1.080303     1.072660     1.065017     1.057374     1.049731     1.042088     1.034445     1.026802
      1.019158     1.011515     1.003872     0.996229     0.988586     0.980943     0.973300     0.965657     0.958014     0.950371
      0.942727     0.935084     0.927441     0.919798     0.912155     0.904512     0.896869     0.889226     0.881583     0.873940
      0.866296     0.858653     0.851010     0.843367     0.835724     0.828081     0.820438     0.812795     0.805152     0.797508
      0.789865     0.782222     0.774579     0.766936     0.759293     0.751650     0.744007     0.736364     0.728721     0.721077
      0.713434     0.705791     0.698148     0.690505     0.682862     0.675219     0.667576     0.659933     0.652290     0.644646
      0.637003     0.629360     0.621717     0.614074     0.606431     0.598788     0.591145     0.583502     0.575858     0.568215
      0.560572     0.552929     0.545286     0.537643     0.530000     0.522357     0.514714     0.507071     0.499427     0.491784
      0.484141     0.476498     0.468855     0.461212     0.453569     0.445925     0.438282     0.430639     0.422996     0.415353
      0.407710     0.400067     0.392424     0.384780     0.377137     0.369494     0.361851     0.354208     0.346565     0.338922
      0.331278     0.323635     0.315992     0.308349     0.300706     0.293063     0.285420     0.277777     0.270133     0.262490
      0.254847     0.247204     0.239561     0.231918     0.224275     0.216631     0.208988     0.201345
 NY phased data points follow
  -1.91357E+01 -2.17167E+01 -2.04924E+01 -2.17057E+01 -2.07107E+01 -2.10913E+01 -2.02533E+01 -1.88335E+01 -1.79608E+01 -1.81843E+01
  -2.09222E+01 -1.91014E+01 -1.88190E+01 -2.09134E+01 -1.87317E+01 -1.91617E+01 -2.19290E+01 -2.11723E+01 -1.97457E+01 -2.17077E+01
  -2.11106E+01 -2.00006E+01 -1.98383E+01 -1.87108E+01 -2.13123E+01 -1.96805E+01 -2.00978E+01 -2.06376E+01 -2.02635E+01 -1.87063E+01
  -1.91578E+01 -1.80489E+01 -1.93998E+01 -1.90789E+01 -1.97949E+01 -1.84502E+01 -1.89463E+01 -1.99532E+01 -2.18891E+01 -2.05351E+01
  -1.95731E+01 -1.86796E+01 -1.98652E+01 -2.08321E+01 -2.02929E+01 -1.99257E+01 -1.85217E+01 -1.91158E+01 -2.03221E+01 -1.93570E+01
  -1.92803E+01 -2.04518E+01 -1.97275E+01 -2.15987E+01 -1.78328E+01 -1.95140E+01 -1.87759E+01 -1.94211E+01 -2.09881E+01 -2.02320E+01
  -2.13128E+01 -1.82696E+01 -2.14764E+01 -1.81012E+01 -1.92113E+01 -2.06734E+01 -2.02694E+01 -1.93042E+01 -1.95178E+01 -1.83087E+01
  -2.11496E+01 -1.90058E+01 -2.04093E+01 -1.86503E+01 -2.16235E+01 -2.00150E+01 -1.92210E+01 -1.96235E+01 -1.85145E+01 -1.85547E+01
  -1.73107E+01 -2.00306E+01 -1.90511E+01 -2.15452E+01 -2.00835E+01 -1.86018E+01 -2.02786E+01 -2.00316E+01 -2.17576E+01 -1.95683E+01
  -2.01910E+01 -1.98642E+01 -2.06601E+01 -1.95689E+01 -1.95967E+01 -1.88647E+01 -1.63418E+01 -1.87331E+01 -1.96210E+01 -1.89754E+01
  -1.99446E+01 -1.84490E+01 -1.84077E+01 -1.73414E+01 -1.77349E+01 -1.90618E+01 -1.81846E+01 -1.87204E+01 -1.87460E+01 -1.98934E+01
  -1.94321E+01 -1.83039E+01 -1.74312E+01 -1.83963E+01 -2.00288E+01 -1.88545E+01 -1.94748E+01 -1.81732E+01 -2.00902E+01 -1.69849E+01
  -1.89820E+01 -1.82941E+01 -1.61244E+01 -1.79929E+01 -1.75871E+01 -1.92291E+01 -1.71077E+01 -1.43445E+01 -1.88139E+01 -1.74729E+01
  -1.88029E+01 -1.99144E+01 -1.70373E+01 -1.92886E+01 -1.57075E+01 -1.75302E+01 -1.66900E+01 -1.84197E+01 -1.76074E+01 -1.62464E+01
  -1.65237E+01 -1.72545E+01 -1.73804E+01 -1.86506E+01 -1.80301E+01 -1.59525E+01 -1.65666E+01 -1.80118E+01 -1.36392E+01 -1.89099E+01
  -1.53255E+01 -1.79415E+01 -1.60159E+01 -1.64400E+01 -1.57387E+01 -1.56486E+01 -1.58264E+01 -1.65304E+01 -1.58364E+01 -1.68159E+01
  -1.76138E+01 -1.53012E+01 -1.54457E+01 -1.66453E+01 -1.50419E+01 -1.51289E+01 -1.48390E+01 -1.54014E+01 -1.58149E+01 -1.60837E+01
  -1.49045E+01 -1.54563E+01 -1.58251E+01 -1.87405E+01 -1.26857E+01 -1.34647E+01 -1.47446E+01 -1.59342E+01 -1.41415E+01 -1.27128E+01
  -1.44112E+01 -1.60786E+01 -1.54283E+01 -1.30182E+01 -1.38650E+01 -1.21501E+01 -1.11849E+01 -1.28135E+01 -1.30523E+01 -1.33112E+01
  -1.32893E+01 -1.44968E+01 -1.01260E+01 -1.39203E+01 -1.39307E+01 -1.20395E+01 -1.10015E+01 -1.18534E+01 -1.23069E+01 -1.08467E+01
  -1.01627E+01 -1.14578E+01 -9.46698E+00 -8.49131E+00 -1.05183E+01 -9.46591E+00 -8.23568E+00 -9.95243E+00 -9.10314E+00 -1.05820E+01
  -6.96040E+00 -5.47167E+00 -7.36644E+00 -7.58181E+00 -1.00735E+01 -8.33356E+00 -5.64732E+00 -4.54164E+00 -5.99258E+00 -3.80532E+00
  -5.07483E+00 -4.38434E+00 -3.24466E+00 -4.92328E+00 -4.26503E+00 -4.72377E+00 -3.18242E+00 -3.99703E+00 -2.84093E+00 -8.74178E-01
  -3.52293E-01 -1.20038E+00  1.26589E+00  4.98223E-01  8.86541E-01  1.79465E+00  2.36135E+00  1.85669E+00  1.30842E+00  5.87426E+00
   3.31200E+00  4.59953E+00  4.07165E+00  4.28877E+00  6.24591E+00  5.78093E+00  7.04272E+00  8.17788E+00  9.63273E+00  1.08049E+01
   9.27296E+00  1.08123E+01  1.02093E+01  1.29725E+01  1.44440E+01  1.60981E+01  1.58638E+01  1.48706E+01  1.54590E+01  1.72176E+01
   1.83470E+01  1.83408E+01  1.82241E+01  2.01837E+01  1.84562E+01  1.93170E+01  2.24616E+01  2.33699E+01  2.51027E+01  2.42401E+01
   2.61447E+01  2.97931E+01  2.97582E+01  2.96045E+01  3.03214E+01  3.25285E+01  3.24987E+01  3.56376E+01  3.61581E+01  3.99898E+01
   4.07496E+01  3.79693E+01  4.16739E+01  4.20561E+01  4.47636E+01  4.61847E+01  4.56464E+01  4.49533E+01  5.18561E+01  5.11276E+01
   5.29051E+01  5.39533E+01  5.68427E+01  5.71436E+01  6.12492E+01  5.99440E+01  6.58981E+01  6.64139E+01  6.80233E+01  7.05504E+01
   7.31750E+01  7.60069E+01  7.63701E+01  7.98566E+01  8.17970E+01  8.61410E+01  8.91637E+01  9.17722E+01  9.42479E+01  9.76701E+01
   1.02098E+02  1.06107E+02  1.11567E+02  1.13620E+02  1.17916E+02  1.21263E+02  1.26176E+02  1.31729E+02  1.39665E+02  1.45832E+02
   1.50690E+02  1.54603E+02  1.60701E+02  1.69230E+02  1.75814E+02  1.82626E+02  1.90985E+02  1.98519E+02  2.04958E+02  2.13449E+02
   2.18360E+02  2.26945E+02  2.35713E+02  2.41276E+02  2.47836E+02  2.56299E+02  2.63104E+02  2.66026E+02  2.70761E+02  2.77942E+02
   2.82998E+02  2.87439E+02  2.90026E+02  2.91128E+02  2.94036E+02  2.95773E+02  2.95251E+02  2.95245E+02  2.94197E+02  2.93078E+02
   2.88808E+02  2.85901E+02  2.81425E+02  2.76719E+02  2.66094E+02  2.59443E+02  2.52208E+02  2.39543E+02  2.32842E+02  2.21792E+02
   2.07643E+02  1.93207E+02  1.80083E+02  1.64518E+02  1.50733E+02  1.36812E+02  1.21071E+02  1.09316E+02  9.65294E+01  8.34319E+01
   7.28851E+01  6.53772E+01  5.63020E+01  4.66864E+01  3.92253E+01  3.27371E+01  2.73967E+01  2.36648E+01  1.92488E+01  1.44996E+01
   1.07774E+01  8.69061E+00  8.75257E+00  3.89143E+00  2.59737E+00  3.47986E+00 -2.37471E-01 -2.28943E-01 -2.13129E+00 -3.31943E+00
  -1.25583E+00  2.16141E-01 -6.92495E+00 -2.36958E+00 -2.84127E+00 -1.56242E+00 -2.41622E+00  7.66517E-01 -2.43209E+00 -3.71511E+00
  -3.62814E+00 -1.36704E+00 -2.85495E+00 -1.60518E+00 -6.90370E-01 -4.75645E-02 -2.31092E+00 -5.03529E-01 -9.32455E-01 -1.34621E+00
  -2.96866E+00 -3.66634E+00 -3.07952E+00 -4.08579E+00 -4.55703E+00 -6.62444E+00 -5.50697E+00 -4.92170E+00 -7.52104E+00 -9.36693E+00
  -1.05785E+01 -1.17567E+01 -1.19948E+01 -1.12402E+01 -1.39375E+01 -1.44167E+01 -1.50728E+01 -1.62964E+01 -1.69912E+01 -1.73010E+01
  -2.23975E+01 -2.25831E+01 -2.09136E+01 -2.32722E+01 -2.15581E+01 -2.39489E+01 -2.70304E+01 -2.39841E+01 -2.80459E+01 -2.81524E+01
  -2.87247E+01 -2.66710E+01 -2.77437E+01 -3.21800E+01 -3.10899E+01 -3.31875E+01 -3.10831E+01 -3.37605E+01 -3.39837E+01 -3.44213E+01
  -3.52725E+01 -3.58760E+01 -3.66774E+01 -3.74736E+01 -3.82076E+01 -3.88447E+01 -3.93102E+01 -3.84449E+01 -4.09181E+01 -4.10147E+01
  -4.10662E+01 -4.18005E+01 -4.31915E+01 -4.38762E+01 -4.33713E+01 -4.49093E+01 -4.30729E+01 -4.38863E+01 -4.53434E+01 -4.51575E+01
  -4.58835E+01 -4.64368E+01 -4.39816E+01 -4.79482E+01 -4.78689E+01 -4.98286E+01 -4.66978E+01 -5.02265E+01 -4.60673E+01 -4.86133E+01
  -4.94337E+01 -4.97292E+01 -4.87091E+01 -4.91749E+01 -5.05062E+01 -4.77032E+01 -4.83697E+01 -4.81157E+01 -4.94124E+01 -4.98502E+01
  -5.12844E+01 -5.03306E+01 -5.05170E+01 -4.83759E+01 -5.08031E+01 -4.79271E+01 -5.02965E+01 -4.91294E+01
 NY points of the fit to the data follow
  -2.27890E+01 -2.09225E+01 -2.29460E+01 -2.12269E+01 -2.27011E+01 -2.09242E+01 -2.18519E+01 -1.97004E+01 -2.10466E+01 -1.94861E+01
  -2.13340E+01 -1.99088E+01 -2.19387E+01 -2.01181E+01 -2.23690E+01 -1.95429E+01 -2.16308E+01 -1.86757E+01 -2.11997E+01 -1.84252E+01
  -2.11736E+01 -1.80362E+01 -2.08423E+01 -1.79076E+01 -2.05675E+01 -1.81158E+01 -2.06673E+01 -1.89529E+01 -2.09100E+01 -1.94919E+01
  -2.05572E+01 -1.96820E+01 -1.98740E+01 -1.96369E+01 -1.90944E+01 -1.96539E+01 -1.84636E+01 -1.94325E+01 -1.76777E+01 -1.91062E+01
  -1.72144E+01 -1.89794E+01 -1.70736E+01 -1.90592E+01 -1.72236E+01 -1.90183E+01 -1.72258E+01 -1.86687E+01 -1.74034E+01 -1.88869E+01
  -1.81412E+01 -1.95116E+01 -1.91714E+01 -2.01969E+01 -1.99106E+01 -2.03096E+01 -1.98794E+01 -2.00985E+01 -1.98109E+01 -1.99596E+01
  -1.98445E+01 -1.99488E+01 -1.99475E+01 -2.00986E+01 -2.00808E+01 -2.02158E+01 -2.01779E+01 -2.02856E+01 -2.02123E+01 -2.03064E+01
  -2.02237E+01 -2.03340E+01 -2.02621E+01 -2.03841E+01 -2.03186E+01 -2.04513E+01 -2.03895E+01 -2.05375E+01 -2.04768E+01 -2.06326E+01
  -2.05777E+01 -2.07249E+01 -2.06644E+01 -2.07996E+01 -2.06997E+01 -2.07381E+01 -2.06351E+01 -2.06437E+01 -2.05493E+01 -2.05117E+01
  -2.04070E+01 -2.02865E+01 -2.01793E+01 -1.99883E+01 -1.98911E+01 -1.96518E+01 -1.95846E+01 -1.93167E+01 -1.92746E+01 -1.89727E+01
  -1.89626E+01 -1.86561E+01 -1.86863E+01 -1.84050E+01 -1.84791E+01 -1.82590E+01 -1.83532E+01 -1.81764E+01 -1.82776E+01 -1.81606E+01
  -1.82612E+01 -1.81950E+01 -1.82780E+01 -1.82505E+01 -1.82966E+01 -1.82728E+01 -1.82722E+01 -1.82358E+01 -1.81912E+01 -1.81390E+01
  -1.80641E+01 -1.80000E+01 -1.78932E+01 -1.77976E+01 -1.76574E+01 -1.75126E+01 -1.73627E+01 -1.72135E+01 -1.70626E+01 -1.69153E+01
  -1.67676E+01 -1.66240E+01 -1.64799E+01 -1.63396E+01 -1.61978E+01 -1.60601E+01 -1.59207E+01 -1.57851E+01 -1.56483E+01 -1.55142E+01
  -1.53795E+01 -1.52470E+01 -1.51165E+01 -1.49913E+01 -1.48639E+01 -1.47424E+01 -1.46179E+01 -1.44990E+01 -1.43859E+01 -1.42781E+01
  -1.41789E+01 -1.40848E+01 -1.40024E+01 -1.39243E+01 -1.38631E+01 -1.38036E+01 -1.37678E+01 -1.37308E+01 -1.37258E+01 -1.37122E+01
  -1.37277E+01 -1.37346E+01 -1.37713E+01 -1.38018E+01 -1.38569E+01 -1.39036E+01 -1.39665E+01 -1.40250E+01 -1.40929E+01 -1.41631E+01
  -1.42208E+01 -1.42927E+01 -1.43361E+01 -1.44045E+01 -1.44292E+01 -1.45044E+01 -1.45553E+01 -1.46252E+01 -1.47395E+01 -1.48094E+01
  -1.49381E+01 -1.49823E+01 -1.51137E+01 -1.50114E+01 -1.50585E+01 -1.48248E+01 -1.48543E+01 -1.44130E+01 -1.44312E+01 -1.39577E+01
  -1.40376E+01 -1.36706E+01 -1.42425E+01 -1.36659E+01 -1.42776E+01 -1.34765E+01 -1.40064E+01 -1.28683E+01 -1.30459E+01 -1.19299E+01
  -1.21420E+01 -1.11044E+01 -1.13123E+01 -1.05316E+01 -1.08708E+01 -1.05054E+01 -1.05760E+01 -1.03680E+01 -1.02601E+01 -1.02115E+01
  -9.98294E+00 -1.00692E+01 -9.40246E+00 -9.69565E+00 -8.77410E+00 -9.15103E+00 -8.03783E+00 -8.56149E+00 -7.72321E+00 -8.13388E+00
  -7.22955E+00 -7.36486E+00 -6.54151E+00 -6.20559E+00 -5.56239E+00 -5.01337E+00 -4.57303E+00 -3.68946E+00 -3.28338E+00 -2.22489E+00
  -1.86233E+00 -9.08211E-01 -7.32887E-01  1.07595E-01  3.61285E-01  1.09899E+00  1.68486E+00  2.31255E+00  3.30141E+00  3.48252E+00
   4.55544E+00  4.35901E+00  5.73046E+00  5.33646E+00  6.78519E+00  6.39041E+00  8.03060E+00  7.74335E+00  9.44710E+00  9.48790E+00
   1.11013E+01  1.14799E+01  1.28991E+01  1.35677E+01  1.45784E+01  1.54675E+01  1.61229E+01  1.72074E+01  1.74643E+01  1.87430E+01
   1.87544E+01  2.01571E+01  1.98597E+01  2.12275E+01  2.07881E+01  2.20288E+01  2.15853E+01  2.27876E+01  2.24539E+01  2.36167E+01
   2.34710E+01  2.46311E+01  2.47653E+01  2.60212E+01  2.65421E+01  2.79783E+01  2.89061E+01  3.05061E+01  3.17768E+01  3.35158E+01
   3.51075E+01  3.70175E+01  3.89635E+01  4.10621E+01  4.31915E+01  4.53734E+01  4.76137E+01  4.98045E+01  5.20462E+01  5.42056E+01
   5.63721E+01  5.84240E+01  6.04401E+01  6.23316E+01  6.41579E+01  6.58756E+01  6.75197E+01  6.90682E+01  7.05534E+01  7.19827E+01
   7.33884E+01  7.48079E+01  7.62813E+01  7.78781E+01  7.96690E+01  8.17642E+01  8.43164E+01  8.76118E+01  9.23076E+01  9.86650E+01
   1.01946E+02  1.07593E+02  1.10070E+02  1.15803E+02  1.18020E+02  1.24174E+02  1.24689E+02  1.33952E+02  1.36017E+02  1.45926E+02
   1.48060E+02  1.57603E+02  1.59957E+02  1.70630E+02  1.73791E+02  1.84646E+02  1.88823E+02  1.98993E+02  2.04676E+02  2.14230E+02
   2.20329E+02  2.28113E+02  2.35276E+02  2.41048E+02  2.49626E+02  2.53427E+02  2.62419E+02  2.65366E+02  2.74533E+02  2.76363E+02
   2.84713E+02  2.84749E+02  2.91335E+02  2.90945E+02  2.95229E+02  2.93837E+02  2.95647E+02  2.94290E+02  2.93816E+02  2.92172E+02
   2.88757E+02  2.86452E+02  2.80608E+02  2.76691E+02  2.67957E+02  2.62147E+02  2.50715E+02  2.42825E+02  2.30056E+02  2.20046E+02
   2.05766E+02  1.93692E+02  1.78493E+02  1.65115E+02  1.49959E+02  1.35938E+02  1.21877E+02  1.08975E+02  9.67312E+01  8.57249E+01
   7.49222E+01  6.49175E+01  5.58336E+01  4.69843E+01  3.95164E+01  3.22965E+01  2.65148E+01  2.17673E+01  1.77873E+01  1.44261E+01
   1.15773E+01  9.15744E+00  7.09874E+00  5.34574E+00  3.85292E+00  2.58327E+00  1.50661E+00  5.98733E-01 -1.59829E-01 -7.84701E-01
  -1.28875E+00 -1.68281E+00 -1.97637E+00 -2.17802E+00 -2.29590E+00 -2.33816E+00 -2.31335E+00 -2.23066E+00 -2.10003E+00 -1.93221E+00
  -1.73874E+00 -1.53198E+00 -1.32506E+00 -1.13159E+00 -9.65415E-01 -8.40196E-01 -7.69143E-01 -7.64686E-01 -8.38089E-01 -9.99083E-01
  -1.25551E+00 -1.61301E+00 -2.07494E+00 -2.64226E+00 -3.31355E+00 -4.08507E+00 -4.95087E+00 -5.90307E+00 -6.93224E+00 -8.02775E+00
  -9.17819E+00 -1.03717E+01 -1.15962E+01 -1.28400E+01 -1.40921E+01 -1.53423E+01 -1.65813E+01 -1.78013E+01 -1.89953E+01 -2.01578E+01
  -2.12846E+01 -2.23724E+01 -2.34193E+01 -2.44240E+01 -2.53863E+01 -2.63063E+01 -2.71851E+01 -2.80240E+01 -2.88246E+01 -2.95889E+01
  -3.03188E+01 -3.10164E+01 -3.16838E+01 -3.23231E+01 -3.29364E+01 -3.35255E+01 -3.40923E+01 -3.46384E+01 -3.51655E+01 -3.56751E+01
  -3.61685E+01 -3.66469E+01 -3.71116E+01 -3.75635E+01 -3.80037E+01 -3.84329E+01 -3.88521E+01 -3.92618E+01 -3.96629E+01 -4.00559E+01
  -4.04413E+01 -4.08196E+01 -4.11914E+01 -4.15570E+01 -4.19168E+01 -4.22711E+01 -4.26204E+01 -4.29648E+01 -4.33047E+01 -4.36403E+01
  -4.39718E+01 -4.42995E+01 -4.46235E+01 -4.49440E+01 -4.52612E+01 -4.55752E+01 -4.58862E+01 -4.61943E+01 -4.64997E+01 -4.68023E+01
  -4.71024E+01 -4.74000E+01 -4.76953E+01 -4.79882E+01 -4.82789E+01 -4.85674E+01 -4.88538E+01 -4.91381E+01 -4.94205E+01 -4.97008E+01
  -4.99791E+01 -5.02555E+01 -5.05300E+01 -5.08025E+01 -5.10730E+01 -5.13414E+01 -5.16078E+01 -5.18718E+01
 NY background values follow
    -2.520E+01   -2.519E+01   -2.517E+01   -2.516E+01   -2.515E+01   -2.514E+01   -2.512E+01   -2.511E+01   -2.509E+01   -2.508E+01
    -2.506E+01   -2.505E+01   -2.503E+01   -2.501E+01   -2.500E+01   -2.498E+01   -2.496E+01   -2.494E+01   -2.492E+01   -2.490E+01
    -2.488E+01   -2.486E+01   -2.483E+01   -2.481E+01   -2.479E+01   -2.477E+01   -2.474E+01   -2.472E+01   -2.469E+01   -2.467E+01
    -2.464E+01   -2.462E+01   -2.459E+01   -2.456E+01   -2.454E+01   -2.451E+01   -2.448E+01   -2.445E+01   -2.442E+01   -2.439E+01
    -2.436E+01   -2.433E+01   -2.430E+01   -2.427E+01   -2.424E+01   -2.421E+01   -2.418E+01   -2.414E+01   -2.411E+01   -2.408E+01
    -2.404E+01   -2.401E+01   -2.398E+01   -2.394E+01   -2.391E+01   -2.387E+01   -2.383E+01   -2.380E+01   -2.376E+01   -2.373E+01
    -2.369E+01   -2.365E+01   -2.362E+01   -2.358E+01   -2.354E+01   -2.350E+01   -2.346E+01   -2.342E+01   -2.338E+01   -2.335E+01
    -2.331E+01   -2.327E+01   -2.323E+01   -2.319E+01   -2.315E+01   -2.310E+01   -2.306E+01   -2.302E+01   -2.298E+01   -2.294E+01
    -2.290E+01   -2.286E+01   -2.281E+01   -2.277E+01   -2.273E+01   -2.269E+01   -2.264E+01   -2.260E+01   -2.256E+01   -2.251E+01
    -2.247E+01   -2.243E+01   -2.238E+01   -2.234E+01   -2.229E+01   -2.225E+01   -2.221E+01   -2.216E+01   -2.212E+01   -2.207E+01
    -2.203E+01   -2.198E+01   -2.194E+01   -2.189E+01   -2.185E+01   -2.180E+01   -2.176E+01   -2.171E+01   -2.166E+01   -2.162E+01
    -2.157E+01   -2.153E+01   -2.148E+01   -2.144E+01   -2.139E+01   -2.134E+01   -2.130E+01   -2.125E+01   -2.121E+01   -2.116E+01
    -2.111E+01   -2.107E+01   -2.102E+01   -2.098E+01   -2.093E+01   -2.088E+01   -2.084E+01   -2.079E+01   -2.075E+01   -2.070E+01
    -2.065E+01   -2.061E+01   -2.056E+01   -2.052E+01   -2.047E+01   -2.043E+01   -2.038E+01   -2.034E+01   -2.029E+01   -2.024E+01
    -2.020E+01   -2.015E+01   -2.011E+01   -2.006E+01   -2.002E+01   -1.998E+01   -1.993E+01   -1.989E+01   -1.984E+01   -1.980E+01
    -1.975E+01   -1.971E+01   -1.967E+01   -1.962E+01   -1.958E+01   -1.954E+01   -1.949E+01   -1.945E+01   -1.941E+01   -1.936E+01
    -1.932E+01   -1.928E+01   -1.924E+01   -1.920E+01   -1.915E+01   -1.911E+01   -1.907E+01   -1.903E+01   -1.899E+01   -1.895E+01
    -1.891E+01   -1.887E+01   -1.883E+01   -1.879E+01   -1.875E+01   -1.871E+01   -1.867E+01   -1.863E+01   -1.860E+01   -1.856E+01
    -1.852E+01   -1.849E+01   -1.845E+01   -1.841E+01   -1.838E+01   -1.834E+01   -1.831E+01   -1.827E+01   -1.824E+01   -1.820E+01
    -1.817E+01   -1.814E+01   -1.810E+01   -1.807E+01   -1.804E+01   -1.801E+01   -1.798E+01   -1.795E+01   -1.792E+01   -1.789E+01
    -1.786E+01   -1.783E+01   -1.780E+01   -1.778E+01   -1.775E+01   -1.772E+01   -1.770E+01   -1.767E+01   -1.765E+01   -1.763E+01
    -1.760E+01   -1.758E+01   -1.756E+01   -1.754E+01   -1.752E+01   -1.750E+01   -1.748E+01   -1.746E+01   -1.744E+01   -1.742E+01
    -1.741E+01   -1.739E+01   -1.738E+01   -1.736E+01   -1.735E+01   -1.733E+01   -1.732E+01   -1.731E+01   -1.730E+01   -1.729E+01
    -1.728E+01   -1.727E+01   -1.726E+01   -1.726E+01   -1.725E+01   -1.725E+01   -1.724E+01   -1.724E+01   -1.724E+01   -1.723E+01
    -1.723E+01   -1.723E+01   -1.723E+01   -1.723E+01   -1.724E+01   -1.724E+01   -1.725E+01   -1.725E+01   -1.726E+01   -1.726E+01
    -1.727E+01   -1.728E+01   -1.729E+01   -1.730E+01   -1.731E+01   -1.733E+01   -1.734E+01   -1.736E+01   -1.737E+01   -1.739E+01
    -1.741E+01   -1.743E+01   -1.745E+01   -1.747E+01   -1.749E+01   -1.752E+01   -1.754E+01   -1.757E+01   -1.759E+01   -1.762E+01
    -1.765E+01   -1.768E+01   -1.771E+01   -1.774E+01   -1.778E+01   -1.781E+01   -1.785E+01   -1.789E+01   -1.793E+01   -1.797E+01
    -1.801E+01   -1.805E+01   -1.809E+01   -1.814E+01   -1.818E+01   -1.823E+01   -1.828E+01   -1.833E+01   -1.838E+01   -1.843E+01
    -1.849E+01   -1.854E+01   -1.860E+01   -1.865E+01   -1.871E+01   -1.877E+01   -1.884E+01   -1.890E+01   -1.896E+01   -1.903E+01
    -1.910E+01   -1.916E+01   -1.923E+01   -1.931E+01   -1.938E+01   -1.945E+01   -1.953E+01   -1.961E+01   -1.969E+01   -1.977E+01
    -1.985E+01   -1.993E+01   -2.002E+01   -2.010E+01   -2.019E+01   -2.028E+01   -2.037E+01   -2.046E+01   -2.056E+01   -2.065E+01
    -2.075E+01   -2.085E+01   -2.095E+01   -2.105E+01   -2.115E+01   -2.126E+01   -2.136E+01   -2.147E+01   -2.158E+01   -2.169E+01
    -2.181E+01   -2.192E+01   -2.204E+01   -2.216E+01   -2.228E+01   -2.240E+01   -2.252E+01   -2.265E+01   -2.277E+01   -2.290E+01
    -2.303E+01   -2.316E+01   -2.330E+01   -2.343E+01   -2.357E+01   -2.370E+01   -2.384E+01   -2.398E+01   -2.413E+01   -2.427E+01
    -2.441E+01   -2.456E+01   -2.471E+01   -2.486E+01   -2.501E+01   -2.516E+01   -2.531E+01   -2.547E+01   -2.563E+01   -2.578E+01
    -2.594E+01   -2.610E+01   -2.626E+01   -2.643E+01   -2.659E+01   -2.676E+01   -2.692E+01   -2.709E+01   -2.726E+01   -2.743E+01
    -2.760E+01   -2.778E+01   -2.795E+01   -2.812E+01   -2.830E+01   -2.848E+01   -2.866E+01   -2.884E+01   -2.902E+01   -2.920E+01
    -2.938E+01   -2.957E+01   -2.975E+01   -2.994E+01   -3.013E+01   -3.031E+01   -3.050E+01   -3.069E+01   -3.088E+01   -3.108E+01
    -3.127E+01   -3.146E+01   -3.166E+01   -3.185E+01   -3.205E+01   -3.225E+01   -3.245E+01   -3.265E+01   -3.285E+01   -3.305E+01
    -3.325E+01   -3.345E+01   -3.366E+01   -3.386E+01   -3.407E+01   -3.427E+01   -3.448E+01   -3.469E+01   -3.490E+01   -3.511E+01
    -3.532E+01   -3.553E+01   -3.574E+01   -3.595E+01   -3.616E+01   -3.638E+01   -3.659E+01   -3.680E+01   -3.702E+01   -3.724E+01
    -3.745E+01   -3.767E+01   -3.789E+01   -3.810E+01   -3.832E+01   -3.854E+01   -3.876E+01   -3.898E+01   -3.920E+01   -3.942E+01
    -3.964E+01   -3.986E+01   -4.009E+01   -4.031E+01   -4.053E+01   -4.076E+01   -4.098E+01   -4.120E+01   -4.143E+01   -4.165E+01
    -4.188E+01   -4.211E+01   -4.233E+01   -4.256E+01   -4.278E+01   -4.301E+01   -4.324E+01   -4.347E+01   -4.369E+01   -4.392E+01
    -4.415E+01   -4.438E+01   -4.460E+01   -4.483E+01   -4.506E+01   -4.529E+01   -4.552E+01   -4.575E+01   -4.598E+01   -4.621E+01
    -4.644E+01   -4.667E+01   -4.690E+01   -4.713E+01   -4.735E+01   -4.758E+01   -4.781E+01   -4.804E+01   -4.827E+01   -4.850E+01
    -4.873E+01   -4.896E+01   -4.919E+01   -4.942E+01   -4.965E+01   -4.988E+01   -5.011E+01   -5.034E+01   -5.057E+01   -5.079E+01
    -5.102E+01   -5.125E+01   -5.148E+01   -5.171E+01   -5.193E+01   -5.216E+01   -5.239E+01   -5.262E+01   -5.284E+01   -5.307E+01
    -5.329E+01   -5.352E+01   -5.375E+01   -5.397E+01   -5.420E+01   -5.442E+01   -5.464E+01   -5.487E+01
 Ala      Conc. = 1.52E+04
