 LCModel (Version 6.3-1L) Copyright: S.W. Provencher.          Ref.: Magn. Reson. Med. 30:672-679 (1993).                
 Slice#1 Row#5 Col#3  PD_05_press_1_raw_act
 36 lines in following concentration table = NCONC+1
    Conc.  %SD /Cr+PCr  Metabolite                                         
  183.813  52%   0.411 Ala                                                 
   61.357 158%   0.137 Asp                                                 
  127.184 115%   0.284 Cr                                                  
  320.279  46%   0.716 PCr                                                 
   41.173 153% 9.2E-02 GABA                                                
   16.584 371% 3.7E-02 Glc                                                 
  443.607  44%   0.991 Gln                                                 
  350.359  62%   0.783 Glu                                                 
  137.328  10%   0.307 GPC                                                 
    0.000 999%   0.000 PCh                                                 
  137.002  39%   0.306 GSH                                                 
  405.226  43%   0.906 Ins                                                 
  264.510  40%   0.591 Lac                                                 
 1.04E+03   4%   2.325 NAA                                                 
    0.000 999%   0.000 NAAG                                                
   44.661  33%   0.100 Scyllo                                              
  222.933  40%   0.498 Tau                                                 
  326.911  21%   0.731 -CrCH2                                              
  137.328  10%   0.307 GPC+PCh                                             
 1.04E+03   4%   2.325 NAA+NAAG                                            
  447.463   8%   1.000 Cr+PCr                                              
  793.966  43%   1.774 Glu+Gln                                             
  112.269 103%   0.251 Lip13a                                              
    0.000 999%   0.000 Lip13b                                              
    0.000 999%   0.000 Lip09                                               
  398.424  20%   0.890 MM09                                                
   29.474 125% 6.6E-02 Lip20                                               
 1.02E+03  16%   2.280 MM20                                                
  109.229  48%   0.244 MM12                                                
  464.809  26%   1.039 MM14                                                
  288.609  27%   0.645 MM17                                                
  112.269 103%   0.251 Lip13a+Lip13b                                       
  686.307  22%   1.534 MM14+Lip13a+Lip13b+MM12                             
  398.424  20%   0.890 MM09+Lip09                                          
 1.05E+03  16%   2.345 MM20+Lip20                                          
   6 lines in following misc. output table
  FWHM = 0.054 ppm    S/N =   7                                            
  Data shift = 0.038 ppm                                                   
  Ph: -47 deg     -11.5 deg/ppm                                            
  alphaB,S = 1.3E+00,   2.4E+01                                            
   14 spline knots.   Ns = 9(1)                                            
  (17) 9 infls.   (17) 5 extrs.                                            
  498 points on ppm-axis = NY
      4.000000     3.992357     3.984714     3.977070     3.969427     3.961784     3.954141     3.946497     3.938854     3.931211
      3.923568     3.915925     3.908281     3.900638     3.892995     3.885352     3.877708     3.870065     3.862422     3.854779
      3.847136     3.839492     3.831849     3.824206     3.816563     3.808919     3.801276     3.793633     3.785990     3.778347
      3.770703     3.763060     3.755417     3.747774     3.740130     3.732487     3.724844     3.717201     3.709558     3.701914
      3.694271     3.686628     3.678985     3.671341     3.663698     3.656055     3.648412     3.640769     3.633125     3.625482
      3.617839     3.610196     3.602552     3.594909     3.587266     3.579623     3.571980     3.564336     3.556693     3.549050
      3.541407     3.533763     3.526120     3.518477     3.510834     3.503191     3.495547     3.487904     3.480261     3.472618
      3.464974     3.457331     3.449688     3.442045     3.434402     3.426758     3.419115     3.411472     3.403829     3.396185
      3.388542     3.380899     3.373256     3.365613     3.357969     3.350326     3.342683     3.335040     3.327396     3.319753
      3.312110     3.304467     3.296824     3.289180     3.281537     3.273894     3.266251     3.258607     3.250964     3.243321
      3.235678     3.228034     3.220391     3.212748     3.205105     3.197462     3.189818     3.182175     3.174532     3.166889
      3.159245     3.151602     3.143959     3.136316     3.128673     3.121029     3.113386     3.105743     3.098100     3.090456
      3.082813     3.075170     3.067527     3.059884     3.052240     3.044597     3.036954     3.029311     3.021667     3.014024
      3.006381     2.998738     2.991095     2.983451     2.975808     2.968165     2.960522     2.952878     2.945235     2.937592
      2.929949     2.922306     2.914662     2.907019     2.899376     2.891733     2.884089     2.876446     2.868803     2.861160
      2.853517     2.845873     2.838230     2.830587     2.822944     2.815300     2.807657     2.800014     2.792371     2.784728
      2.777084     2.769441     2.761798     2.754155     2.746511     2.738868     2.731225     2.723582     2.715939     2.708295
      2.700652     2.693009     2.685366     2.677722     2.670079     2.662436     2.654793     2.647150     2.639506     2.631863
      2.624220     2.616577     2.608933     2.601290     2.593647     2.586004     2.578361     2.570717     2.563074     2.555431
      2.547788     2.540144     2.532501     2.524858     2.517215     2.509572     2.501928     2.494285     2.486642     2.478999
      2.471355     2.463712     2.456069     2.448426     2.440783     2.433139     2.425496     2.417853     2.410210     2.402566
      2.394923     2.387280     2.379637     2.371994     2.364350     2.356707     2.349064     2.341421     2.333777     2.326134
      2.318491     2.310848     2.303205     2.295561     2.287918     2.280275     2.272632     2.264988     2.257345     2.249702
      2.242059     2.234416     2.226772     2.219129     2.211486     2.203843     2.196199     2.188556     2.180913     2.173270
      2.165627     2.157983     2.150340     2.142697     2.135054     2.127410     2.119767     2.112124     2.104481     2.096838
      2.089194     2.081551     2.073908     2.066265     2.058621     2.050978     2.043335     2.035692     2.028049     2.020405
      2.012762     2.005119     1.997476     1.989833     1.982190     1.974546     1.966903     1.959260     1.951617     1.943974
      1.936331     1.928688     1.921045     1.913402     1.905759     1.898115     1.890472     1.882829     1.875186     1.867543
      1.859900     1.852257     1.844614     1.836971     1.829327     1.821684     1.814041     1.806398     1.798755     1.791112
      1.783469     1.775826     1.768183     1.760540     1.752896     1.745253     1.737610     1.729967     1.722324     1.714681
      1.707038     1.699395     1.691752     1.684108     1.676465     1.668822     1.661179     1.653536     1.645893     1.638250
      1.630607     1.622964     1.615321     1.607677     1.600034     1.592391     1.584748     1.577105     1.569462     1.561819
      1.554176     1.546533     1.538890     1.531246     1.523603     1.515960     1.508317     1.500674     1.493031     1.485388
      1.477745     1.470102     1.462458     1.454815     1.447172     1.439529     1.431886     1.424243     1.416600     1.408957
      1.401314     1.393671     1.386027     1.378384     1.370741     1.363098     1.355455     1.347812     1.340169     1.332526
      1.324883     1.317240     1.309596     1.301953     1.294310     1.286667     1.279024     1.271381     1.263738     1.256095
      1.248452     1.240808     1.233165     1.225522     1.217879     1.210236     1.202593     1.194950     1.187307     1.179664
      1.172021     1.164377     1.156734     1.149091     1.141448     1.133805     1.126162     1.118519     1.110876     1.103233
      1.095590     1.087946     1.080303     1.072660     1.065017     1.057374     1.049731     1.042088     1.034445     1.026802
      1.019158     1.011515     1.003872     0.996229     0.988586     0.980943     0.973300     0.965657     0.958014     0.950371
      0.942727     0.935084     0.927441     0.919798     0.912155     0.904512     0.896869     0.889226     0.881583     0.873940
      0.866296     0.858653     0.851010     0.843367     0.835724     0.828081     0.820438     0.812795     0.805152     0.797508
      0.789865     0.782222     0.774579     0.766936     0.759293     0.751650     0.744007     0.736364     0.728721     0.721077
      0.713434     0.705791     0.698148     0.690505     0.682862     0.675219     0.667576     0.659933     0.652290     0.644646
      0.637003     0.629360     0.621717     0.614074     0.606431     0.598788     0.591145     0.583502     0.575858     0.568215
      0.560572     0.552929     0.545286     0.537643     0.530000     0.522357     0.514714     0.507071     0.499427     0.491784
      0.484141     0.476498     0.468855     0.461212     0.453569     0.445925     0.438282     0.430639     0.422996     0.415353
      0.407710     0.400067     0.392424     0.384780     0.377137     0.369494     0.361851     0.354208     0.346565     0.338922
      0.331278     0.323635     0.315992     0.308349     0.300706     0.293063     0.285420     0.277777     0.270133     0.262490
      0.254847     0.247204     0.239561     0.231918     0.224275     0.216631     0.208988     0.201345
 NY phased data points follow
  -2.59088E+01 -2.05273E+01 -2.73730E+01 -2.69197E+01 -2.52067E+01 -2.11597E+01 -2.16901E+01 -1.94697E+01 -1.83139E+01 -1.64123E+01
  -1.37383E+01 -1.65328E+01 -2.00310E+01 -1.76549E+01 -2.04142E+01 -1.96189E+01 -1.93956E+01 -1.73478E+01 -1.87618E+01 -1.94880E+01
  -1.87997E+01 -1.73786E+01 -1.88945E+01 -1.87014E+01 -2.00196E+01 -1.76839E+01 -1.70726E+01 -1.81390E+01 -1.66628E+01 -1.54493E+01
  -1.51827E+01 -1.68990E+01 -1.47174E+01 -1.75395E+01 -1.57958E+01 -1.91136E+01 -1.96586E+01 -1.72102E+01 -1.40277E+01 -1.34007E+01
  -1.29803E+01 -1.32117E+01 -1.30641E+01 -1.38956E+01 -1.39047E+01 -1.38496E+01 -1.11839E+01 -1.30040E+01 -1.28565E+01 -1.02339E+01
  -1.44730E+01 -1.54172E+01 -1.36799E+01 -1.52494E+01 -1.22707E+01 -1.35610E+01 -1.31648E+01 -1.24280E+01 -1.43664E+01 -1.43438E+01
  -1.49861E+01 -1.57702E+01 -1.21904E+01 -1.69765E+01 -1.35634E+01 -1.42841E+01 -1.49461E+01 -1.14673E+01 -1.22067E+01 -1.28930E+01
  -1.43265E+01 -1.52072E+01 -1.27192E+01 -1.19906E+01 -1.42289E+01 -1.28882E+01 -1.32357E+01 -1.21205E+01 -1.24664E+01 -1.05068E+01
  -1.46886E+01 -1.01531E+01 -1.28428E+01 -1.23201E+01 -1.08642E+01 -1.16477E+01 -1.16511E+01 -1.31194E+01 -8.92437E+00 -9.03791E+00
  -1.07151E+01 -9.05274E+00 -1.18622E+01 -1.00838E+01 -9.76208E+00 -9.30281E+00 -9.69605E+00 -8.34485E+00 -6.36416E+00 -7.48713E+00
  -4.97949E+00 -4.70281E-01 -3.91991E+00 -3.35972E+00 -5.08019E+00  1.92210E-01 -4.02716E+00 -2.38464E+00 -5.80512E+00 -9.34032E+00
  -2.84103E+00 -4.42861E+00 -7.09426E+00 -7.14590E+00 -9.40488E+00 -1.19537E+01 -8.43404E+00 -7.41755E+00 -9.15482E+00 -6.50032E+00
  -7.20989E+00 -5.55613E+00 -5.52628E+00 -4.85261E+00  1.16282E+00 -4.60364E-01  2.57710E+00  9.36944E-01  5.23469E+00  8.43058E-03
   6.25108E-01 -1.10700E+00 -4.54614E+00 -4.64846E+00 -5.09518E+00 -3.15771E+00 -1.00819E+01 -4.72660E+00 -6.25527E+00 -7.19240E+00
  -6.05393E+00 -6.52510E+00 -3.91344E+00 -5.17654E+00 -6.95680E+00 -9.13135E+00 -7.43391E+00 -8.67983E+00 -6.26917E+00 -7.93758E+00
  -6.72928E+00 -5.12938E+00 -8.64330E+00 -9.18316E+00 -6.58585E+00 -7.43563E+00 -6.84104E+00 -7.42061E+00 -1.04221E+01 -7.63241E+00
  -8.67570E+00 -1.15449E+01 -4.28278E+00 -8.93411E+00 -9.23302E+00 -1.03469E+01 -8.91394E+00 -9.53376E+00 -6.17221E+00 -3.76989E+00
  -8.61623E+00 -1.06987E+01 -8.92992E+00 -9.22831E+00 -1.26383E+01 -9.75893E+00 -1.10735E+01 -9.48030E+00 -8.72701E+00 -9.80428E+00
  -8.01912E+00 -9.16958E+00 -8.80303E+00 -8.52101E+00 -8.29485E+00 -7.33283E+00 -7.65686E+00 -6.99601E+00 -5.75983E+00 -7.29270E+00
  -8.29008E+00 -7.51548E+00 -4.72055E+00 -7.36523E+00 -7.74913E+00 -6.08746E+00 -8.15346E+00 -7.32542E+00 -8.73990E+00 -2.61940E+00
  -6.37145E+00 -6.34217E+00 -2.07913E+00 -5.46230E+00 -4.49621E+00 -3.53117E+00 -6.16237E+00 -3.73818E+00 -4.45093E+00 -5.73242E+00
  -6.38561E+00 -5.92068E+00 -3.56572E+00 -3.96358E+00  1.19454E+00 -8.68154E-01 -1.85063E+00 -2.76620E+00 -1.49705E+00 -1.56359E+00
  -3.65220E+00 -3.15202E+00 -1.84621E+00 -1.36872E+00 -5.88885E+00 -3.92343E+00 -2.33292E-01  4.27573E-01 -1.50130E+00 -5.66088E+00
  -4.42464E-01 -1.10285E+00 -2.43475E+00  2.77688E-01 -7.50691E-01 -1.28850E+00 -3.49972E+00 -8.54837E-01 -1.55922E+00 -2.43720E+00
  -2.32290E+00 -2.23519E-01 -2.70612E+00 -2.15358E+00 -1.93321E+00  1.86473E+00  2.19246E-01  3.05709E+00  2.05823E+00  1.57971E-01
   1.34449E+00  6.63764E+00  2.68642E+00  4.45165E+00  5.11765E+00  6.15146E+00  9.88587E+00  1.07439E+01  2.12229E+01  2.26826E+01
   2.96026E+01  2.53002E+01  2.45775E+01  2.23273E+01  1.86379E+01  1.16376E+01  1.20294E+01  8.31349E+00  6.72420E+00  7.12391E+00
   4.88612E+00  1.88698E+00  2.85112E+00  2.02511E+00 -1.30655E+00 -7.23002E-01 -2.12301E+00 -7.52685E-01 -1.49732E+00 -2.79621E+00
  -8.72833E-01 -2.94725E+00 -1.73556E+00 -2.66456E+00 -8.96663E-01 -2.95653E+00 -1.54352E+00 -3.04774E+00 -3.60225E-01 -3.60193E+00
  -3.60765E+00 -3.41024E+00 -4.10502E+00 -1.25128E+00 -5.27438E+00 -2.51346E+00 -7.77221E-01 -4.21138E-01 -5.97291E-01 -1.86913E+00
  -3.21385E+00 -4.53230E+00 -9.08156E-01 -3.66283E+00 -2.84538E+00 -5.74916E-01 -3.46152E-01 -9.87900E-01  5.35948E-01  4.14515E+00
  -2.86670E+00  3.26710E-01  2.28726E+00  9.94626E-01  3.38188E+00  1.52466E-01  2.09543E+00  3.51108E+00  3.95591E+00  3.28163E+00
   1.95051E-01 -6.77678E-01 -1.17783E+00 -1.76569E+00 -1.34105E-01  1.62801E-01  2.33487E-01 -1.74460E+00 -2.74479E+00 -8.31308E-01
  -8.98226E-01 -1.59899E-01 -2.31165E+00 -4.95997E-01  2.20869E-01  8.17429E-01 -5.62668E-01  1.48325E+00  6.41845E-01  1.86665E+00
   1.84620E+00  5.36750E+00  4.61797E+00  1.65093E+00  1.90909E+00  2.23947E+00  5.65991E+00  3.52661E+00  3.62339E+00  1.96187E+00
   1.33833E+00  8.13316E-01 -2.69589E+00 -1.92122E+00 -1.66917E-01 -1.11579E+00  1.21316E+00  1.69888E+00 -1.11200E+00 -2.90117E+00
  -2.63976E-01 -4.86319E-01 -2.75203E+00  3.02849E+00 -6.64677E-01  8.73357E-02  1.51616E-01  7.56749E-01  2.74015E+00 -4.02559E-01
  -3.05552E-01 -6.52637E-01 -2.33029E+00 -1.83335E+00 -2.69244E+00 -1.49935E+00  2.04274E-01 -1.30824E+00 -1.52891E+00  4.10233E-01
  -4.13993E+00  1.54096E+00 -1.50408E+00 -1.39215E+00 -2.38081E+00 -3.70354E+00  5.21215E-03 -3.51425E-01 -1.95132E+00 -3.11882E+00
  -1.99821E+00 -1.55431E+00 -2.12605E+00 -2.59680E-01 -7.28384E-01  6.34916E-01  2.18782E+00 -4.34171E-02  1.94704E-01  2.92813E+00
  -1.84530E-01 -1.57332E-01  1.17119E-01 -5.35794E-01  2.04667E-01 -9.93719E-02 -1.19059E+00  2.94701E-01  1.78214E+00 -1.87520E+00
   1.46640E+00  2.45422E+00  7.69626E-01 -2.13588E+00  4.07050E+00  1.52108E+00  1.19982E-01  4.00764E+00  4.41148E-01  1.45327E+00
  -1.14321E+00 -3.03771E+00 -1.48712E-01  5.28673E-01 -8.72381E-01  6.99292E-01 -2.66725E+00 -1.46369E+00 -1.51047E+00 -1.44217E-01
  -4.03103E-02  8.41190E-01 -1.63416E+00 -2.51999E+00 -1.72465E+00 -8.13006E-01 -3.70428E+00 -1.65848E+00 -1.39366E+00 -3.15243E+00
  -1.97205E+00  1.60474E+00 -2.82005E+00  3.07935E-01 -3.03437E-01 -2.15884E+00  2.82987E-01  1.44905E+00 -9.01046E-01 -7.96450E-01
  -8.33852E-02  3.87004E-01 -2.55236E+00 -2.61579E+00 -1.06435E+00  6.56646E-01 -1.60976E+00  2.26212E+00 -8.05290E-01 -4.50123E-01
  -3.37478E+00 -4.99562E-01 -2.52807E+00  3.31447E-01  1.70119E+00  5.25030E-01 -4.79837E-01  1.37233E+00  1.06279E+00  1.24545E+00
   7.96776E-02  6.42095E-01 -3.15933E+00 -1.99529E+00 -3.00796E-01 -1.33427E+00 -2.00727E+00 -1.59907E+00 -2.14683E+00 -1.10611E+00
  -2.13776E+00 -2.89431E+00  1.28928E+00 -1.30025E+00 -2.21988E-01  3.94896E-01  3.36362E+00 -1.38893E+00  1.53677E+00 -2.19102E+00
   1.26211E+00 -2.30238E+00  1.19494E+00 -1.85885E+00 -6.15665E-01 -3.25326E-01  8.44390E-01 -8.22237E-01
 NY points of the fit to the data follow
  -2.08741E+01 -2.06836E+01 -2.06808E+01 -2.06461E+01 -2.04625E+01 -2.05040E+01 -2.04363E+01 -1.98703E+01 -1.89122E+01 -1.81320E+01
  -1.77733E+01 -1.75676E+01 -1.73459E+01 -1.72943E+01 -1.75244E+01 -1.79001E+01 -1.81135E+01 -1.80877E+01 -1.77813E+01 -1.77094E+01
  -1.79170E+01 -1.79703E+01 -1.78950E+01 -1.77824E+01 -1.77676E+01 -1.78770E+01 -1.78785E+01 -1.74211E+01 -1.66656E+01 -1.58814E+01
  -1.52716E+01 -1.47488E+01 -1.44944E+01 -1.46437E+01 -1.51724E+01 -1.57973E+01 -1.61156E+01 -1.60175E+01 -1.57550E+01 -1.56288E+01
  -1.56890E+01 -1.56278E+01 -1.55779E+01 -1.54290E+01 -1.50020E+01 -1.43806E+01 -1.39412E+01 -1.38207E+01 -1.38782E+01 -1.39974E+01
  -1.42236E+01 -1.45353E+01 -1.48045E+01 -1.48753E+01 -1.47565E+01 -1.45778E+01 -1.45079E+01 -1.45249E+01 -1.44604E+01 -1.43421E+01
  -1.42297E+01 -1.41802E+01 -1.41573E+01 -1.40947E+01 -1.40359E+01 -1.39807E+01 -1.37952E+01 -1.35673E+01 -1.34187E+01 -1.33012E+01
  -1.32004E+01 -1.31623E+01 -1.30341E+01 -1.27405E+01 -1.24878E+01 -1.24182E+01 -1.24998E+01 -1.25425E+01 -1.25434E+01 -1.26344E+01
  -1.25607E+01 -1.23757E+01 -1.21606E+01 -1.16967E+01 -1.11216E+01 -1.09175E+01 -1.10603E+01 -1.12321E+01 -1.12906E+01 -1.12661E+01
  -1.13182E+01 -1.15258E+01 -1.16459E+01 -1.13724E+01 -1.05918E+01 -1.02328E+01 -1.00325E+01 -9.43416E+00 -8.64291E+00 -7.38002E+00
  -4.93197E+00 -2.53135E+00 -1.34590E+00 -1.38999E+00 -1.70462E+00 -2.04197E+00 -3.04440E+00 -4.64611E+00 -6.02702E+00 -6.67538E+00
  -6.64514E+00 -6.61074E+00 -7.33622E+00 -8.82226E+00 -9.66519E+00 -9.83289E+00 -9.78766E+00 -9.39680E+00 -8.58758E+00 -8.27539E+00
  -7.83868E+00 -6.96901E+00 -6.05897E+00 -4.38971E+00 -1.38207E+00  1.23285E+00  2.36712E+00  2.21630E+00  1.84132E+00  1.24416E+00
  -1.38841E-01 -1.98481E+00 -3.34990E+00 -3.91537E+00 -4.00546E+00 -4.28481E+00 -5.46508E+00 -7.22589E+00 -7.94372E+00 -7.97337E+00
  -7.86737E+00 -7.75804E+00 -7.71213E+00 -7.74632E+00 -7.82052E+00 -7.85768E+00 -7.86329E+00 -7.82611E+00 -7.77342E+00 -7.76653E+00
  -7.80392E+00 -7.86181E+00 -7.95115E+00 -8.00180E+00 -7.99126E+00 -7.98016E+00 -7.96032E+00 -7.95778E+00 -8.06544E+00 -8.21991E+00
  -8.32316E+00 -8.32322E+00 -8.18880E+00 -8.03446E+00 -7.95646E+00 -7.92356E+00 -7.92776E+00 -7.99117E+00 -8.15437E+00 -8.31708E+00
  -8.43136E+00 -8.43527E+00 -8.40335E+00 -8.49818E+00 -8.68142E+00 -8.82376E+00 -8.80911E+00 -8.66061E+00 -8.62906E+00 -8.66458E+00
  -8.53396E+00 -8.33155E+00 -8.18705E+00 -8.13493E+00 -8.14378E+00 -8.02678E+00 -7.62278E+00 -7.13174E+00 -6.73786E+00 -6.46354E+00
  -6.21065E+00 -5.91481E+00 -5.69281E+00 -5.70548E+00 -5.79849E+00 -5.81296E+00 -5.68468E+00 -5.41175E+00 -4.99796E+00 -4.60596E+00
  -4.35442E+00 -4.16818E+00 -3.80692E+00 -3.59183E+00 -3.76867E+00 -4.16280E+00 -4.69593E+00 -5.39837E+00 -5.91233E+00 -6.01765E+00
  -5.85929E+00 -5.68911E+00 -5.29579E+00 -4.54737E+00 -3.91484E+00 -3.69693E+00 -3.76916E+00 -3.87295E+00 -3.91285E+00 -3.99162E+00
  -4.11872E+00 -4.22438E+00 -4.03214E+00 -3.58992E+00 -3.16466E+00 -2.92108E+00 -2.78840E+00 -2.63429E+00 -2.54940E+00 -2.63270E+00
  -2.67757E+00 -2.47856E+00 -2.18222E+00 -2.09313E+00 -1.98169E+00 -1.61014E+00 -1.19606E+00 -9.55016E-01 -7.73744E-01 -6.65828E-01
  -7.33297E-01 -8.91429E-01 -1.01414E+00 -1.07967E+00 -1.02959E+00 -7.72696E-01 -3.88969E-01 -7.45890E-02  2.12251E-01  4.97247E-01
   8.74477E-01  2.01269E+00  4.12713E+00  4.99936E+00  6.06409E+00  7.91822E+00  9.75993E+00  1.33402E+01  1.97186E+01  2.49117E+01
   2.67104E+01  2.56593E+01  2.41587E+01  2.20670E+01  1.80778E+01  1.32167E+01  9.87362E+00  8.59952E+00  8.54247E+00  7.92081E+00
   5.10027E+00  1.06574E+00 -6.71218E-01 -1.12551E+00 -1.33920E+00 -1.46483E+00 -1.56299E+00 -1.67662E+00 -1.79460E+00 -1.89873E+00
  -1.98313E+00 -2.04906E+00 -2.09866E+00 -2.14032E+00 -2.17615E+00 -2.20346E+00 -2.22607E+00 -2.23886E+00 -2.23923E+00 -2.22997E+00
  -2.21136E+00 -2.18009E+00 -2.13903E+00 -2.08572E+00 -2.01938E+00 -1.94146E+00 -1.85246E+00 -1.74767E+00 -1.62730E+00 -1.49318E+00
  -1.34691E+00 -1.18817E+00 -1.02126E+00 -8.48568E-01 -6.72989E-01 -4.98351E-01 -3.29983E-01 -1.71313E-01 -2.68717E-02  1.01185E-01
   2.09935E-01  2.98900E-01  3.66918E-01  4.15953E-01  4.48764E-01  4.72174E-01  4.95743E-01  5.42301E-01  6.31587E-01  6.21925E-01
   5.72233E-01  6.24785E-01  6.72609E-01  7.47180E-01  9.20450E-01  8.99700E-01  6.06450E-01  1.79912E-01 -2.91213E-01 -6.25787E-01
  -9.55912E-01 -1.28371E+00 -1.17336E+00 -4.90065E-01  3.34874E-01  9.18747E-01  1.17207E+00  1.36376E+00  1.75978E+00  2.15016E+00
   2.12428E+00  2.08364E+00  2.26857E+00  2.52378E+00  2.82635E+00  2.98068E+00  2.60447E+00  1.96828E+00  1.03577E+00  1.92964E-01
  -4.52896E-01 -1.20531E+00 -1.76405E+00 -1.45528E+00 -5.83593E-01  2.27158E-01  5.61466E-01  5.45836E-01  4.82699E-01  5.78651E-01
   5.20999E-01  3.21753E-01  2.20267E-01  3.10648E-01  4.92117E-01  4.77545E-01  9.51193E-02 -2.29170E-01 -4.12465E-01 -5.36998E-01
  -6.32380E-01 -7.08816E-01 -7.72033E-01 -8.24229E-01 -8.67794E-01 -9.03116E-01 -9.31246E-01 -9.51603E-01 -9.64761E-01 -9.70099E-01
  -9.68223E-01 -9.58335E-01 -9.40661E-01 -9.14124E-01 -8.78953E-01 -8.34279E-01 -7.80461E-01 -7.16554E-01 -6.42786E-01 -5.58318E-01
  -4.63789E-01 -3.58922E-01 -2.44828E-01 -1.21609E-01  9.15824E-03  1.46624E-01  2.88271E-01  4.32354E-01  5.75704E-01  7.16120E-01
   8.50028E-01  9.74801E-01  1.08661E+00  1.18297E+00  1.26066E+00  1.31806E+00  1.35293E+00  1.36473E+00  1.35244E+00  1.31697E+00
   1.25892E+00  1.18066E+00  1.08393E+00  9.71970E-01  8.47226E-01  7.13511E-01  5.73618E-01  4.31282E-01  2.88836E-01  1.49345E-01
   1.44725E-02 -1.13387E-01 -2.33324E-01 -3.43841E-01 -4.44968E-01 -5.36005E-01 -6.17530E-01 -6.89241E-01 -7.52090E-01 -8.06175E-01
  -8.52761E-01 -8.92065E-01 -9.25273E-01 -9.52497E-01 -9.74892E-01 -9.92606E-01 -1.00676E+00 -1.01734E+00 -1.02523E+00 -1.03026E+00
  -1.03329E+00 -1.03416E+00 -1.03366E+00 -1.03148E+00 -1.02823E+00 -1.02355E+00 -1.01812E+00 -1.01162E+00 -1.00465E+00 -9.96747E-01
  -9.88429E-01 -9.79280E-01 -9.69898E-01 -9.59890E-01 -9.49755E-01 -9.38993E-01 -9.28089E-01 -9.16630E-01 -9.05171E-01 -8.93275E-01
  -8.81391E-01 -8.69016E-01 -8.56635E-01 -8.43842E-01 -8.31161E-01 -8.18125E-01 -8.05157E-01 -7.91774E-01 -7.78467E-01 -7.64839E-01
  -7.51373E-01 -7.37586E-01 -7.23887E-01 -7.09820E-01 -6.95885E-01 -6.81679E-01 -6.67649E-01 -6.53305E-01 -6.39060E-01 -6.24487E-01
  -6.10081E-01 -5.95427E-01 -5.80938E-01 -5.66129E-01 -5.51423E-01 -5.36420E-01 -5.21596E-01 -5.06521E-01 -4.91583E-01 -4.76310E-01
  -4.61138E-01 -4.45679E-01 -4.30384E-01 -4.14803E-01 -3.99307E-01 -3.83444E-01 -3.67652E-01 -3.51542E-01
 NY background values follow
    -2.189E+01   -2.179E+01   -2.169E+01   -2.159E+01   -2.148E+01   -2.138E+01   -2.128E+01   -2.118E+01   -2.107E+01   -2.097E+01
    -2.087E+01   -2.077E+01   -2.066E+01   -2.056E+01   -2.046E+01   -2.036E+01   -2.026E+01   -2.015E+01   -2.005E+01   -1.995E+01
    -1.985E+01   -1.975E+01   -1.964E+01   -1.954E+01   -1.944E+01   -1.934E+01   -1.924E+01   -1.914E+01   -1.903E+01   -1.893E+01
    -1.883E+01   -1.873E+01   -1.863E+01   -1.853E+01   -1.843E+01   -1.833E+01   -1.823E+01   -1.813E+01   -1.803E+01   -1.793E+01
    -1.783E+01   -1.773E+01   -1.763E+01   -1.753E+01   -1.743E+01   -1.733E+01   -1.723E+01   -1.713E+01   -1.703E+01   -1.694E+01
    -1.684E+01   -1.674E+01   -1.664E+01   -1.654E+01   -1.645E+01   -1.635E+01   -1.625E+01   -1.616E+01   -1.606E+01   -1.597E+01
    -1.587E+01   -1.577E+01   -1.568E+01   -1.558E+01   -1.549E+01   -1.539E+01   -1.530E+01   -1.521E+01   -1.511E+01   -1.502E+01
    -1.493E+01   -1.483E+01   -1.474E+01   -1.465E+01   -1.456E+01   -1.446E+01   -1.437E+01   -1.428E+01   -1.419E+01   -1.410E+01
    -1.401E+01   -1.392E+01   -1.383E+01   -1.374E+01   -1.365E+01   -1.356E+01   -1.347E+01   -1.339E+01   -1.330E+01   -1.321E+01
    -1.312E+01   -1.304E+01   -1.295E+01   -1.287E+01   -1.278E+01   -1.270E+01   -1.261E+01   -1.253E+01   -1.244E+01   -1.236E+01
    -1.228E+01   -1.219E+01   -1.211E+01   -1.203E+01   -1.195E+01   -1.186E+01   -1.178E+01   -1.170E+01   -1.162E+01   -1.154E+01
    -1.146E+01   -1.138E+01   -1.130E+01   -1.123E+01   -1.115E+01   -1.107E+01   -1.099E+01   -1.092E+01   -1.084E+01   -1.076E+01
    -1.069E+01   -1.061E+01   -1.054E+01   -1.046E+01   -1.039E+01   -1.031E+01   -1.024E+01   -1.017E+01   -1.010E+01   -1.002E+01
    -9.951E+00   -9.880E+00   -9.809E+00   -9.738E+00   -9.668E+00   -9.598E+00   -9.529E+00   -9.460E+00   -9.392E+00   -9.323E+00
    -9.256E+00   -9.188E+00   -9.121E+00   -9.055E+00   -8.989E+00   -8.923E+00   -8.858E+00   -8.793E+00   -8.728E+00   -8.664E+00
    -8.600E+00   -8.536E+00   -8.473E+00   -8.411E+00   -8.348E+00   -8.286E+00   -8.225E+00   -8.164E+00   -8.103E+00   -8.042E+00
    -7.982E+00   -7.922E+00   -7.863E+00   -7.804E+00   -7.745E+00   -7.687E+00   -7.629E+00   -7.571E+00   -7.514E+00   -7.457E+00
    -7.400E+00   -7.344E+00   -7.288E+00   -7.233E+00   -7.177E+00   -7.122E+00   -7.068E+00   -7.014E+00   -6.960E+00   -6.906E+00
    -6.853E+00   -6.800E+00   -6.747E+00   -6.695E+00   -6.643E+00   -6.591E+00   -6.540E+00   -6.489E+00   -6.438E+00   -6.387E+00
    -6.337E+00   -6.288E+00   -6.238E+00   -6.189E+00   -6.140E+00   -6.092E+00   -6.044E+00   -5.996E+00   -5.949E+00   -5.902E+00
    -5.855E+00   -5.809E+00   -5.762E+00   -5.717E+00   -5.671E+00   -5.626E+00   -5.582E+00   -5.538E+00   -5.494E+00   -5.450E+00
    -5.407E+00   -5.364E+00   -5.321E+00   -5.279E+00   -5.237E+00   -5.196E+00   -5.155E+00   -5.114E+00   -5.074E+00   -5.034E+00
    -4.994E+00   -4.955E+00   -4.916E+00   -4.877E+00   -4.839E+00   -4.801E+00   -4.764E+00   -4.727E+00   -4.690E+00   -4.654E+00
    -4.618E+00   -4.582E+00   -4.547E+00   -4.512E+00   -4.478E+00   -4.444E+00   -4.410E+00   -4.377E+00   -4.343E+00   -4.311E+00
    -4.278E+00   -4.246E+00   -4.215E+00   -4.183E+00   -4.152E+00   -4.121E+00   -4.091E+00   -4.061E+00   -4.031E+00   -4.002E+00
    -3.972E+00   -3.944E+00   -3.915E+00   -3.887E+00   -3.859E+00   -3.831E+00   -3.804E+00   -3.777E+00   -3.750E+00   -3.724E+00
    -3.698E+00   -3.672E+00   -3.646E+00   -3.621E+00   -3.596E+00   -3.571E+00   -3.547E+00   -3.523E+00   -3.499E+00   -3.475E+00
    -3.452E+00   -3.428E+00   -3.406E+00   -3.383E+00   -3.361E+00   -3.338E+00   -3.317E+00   -3.295E+00   -3.274E+00   -3.252E+00
    -3.231E+00   -3.211E+00   -3.190E+00   -3.170E+00   -3.150E+00   -3.130E+00   -3.111E+00   -3.091E+00   -3.072E+00   -3.053E+00
    -3.034E+00   -3.016E+00   -2.998E+00   -2.979E+00   -2.962E+00   -2.944E+00   -2.926E+00   -2.909E+00   -2.892E+00   -2.875E+00
    -2.858E+00   -2.841E+00   -2.825E+00   -2.808E+00   -2.792E+00   -2.776E+00   -2.760E+00   -2.745E+00   -2.729E+00   -2.714E+00
    -2.699E+00   -2.684E+00   -2.669E+00   -2.654E+00   -2.639E+00   -2.625E+00   -2.610E+00   -2.596E+00   -2.582E+00   -2.568E+00
    -2.554E+00   -2.540E+00   -2.527E+00   -2.513E+00   -2.500E+00   -2.487E+00   -2.473E+00   -2.460E+00   -2.447E+00   -2.434E+00
    -2.422E+00   -2.409E+00   -2.396E+00   -2.384E+00   -2.371E+00   -2.359E+00   -2.347E+00   -2.334E+00   -2.322E+00   -2.310E+00
    -2.298E+00   -2.286E+00   -2.274E+00   -2.263E+00   -2.251E+00   -2.239E+00   -2.228E+00   -2.216E+00   -2.205E+00   -2.193E+00
    -2.182E+00   -2.170E+00   -2.159E+00   -2.147E+00   -2.136E+00   -2.125E+00   -2.114E+00   -2.102E+00   -2.091E+00   -2.080E+00
    -2.069E+00   -2.058E+00   -2.047E+00   -2.036E+00   -2.024E+00   -2.013E+00   -2.002E+00   -1.991E+00   -1.980E+00   -1.969E+00
    -1.958E+00   -1.947E+00   -1.935E+00   -1.924E+00   -1.913E+00   -1.902E+00   -1.891E+00   -1.880E+00   -1.868E+00   -1.857E+00
    -1.846E+00   -1.834E+00   -1.823E+00   -1.812E+00   -1.800E+00   -1.789E+00   -1.777E+00   -1.766E+00   -1.754E+00   -1.743E+00
    -1.731E+00   -1.719E+00   -1.708E+00   -1.696E+00   -1.684E+00   -1.672E+00   -1.660E+00   -1.648E+00   -1.636E+00   -1.624E+00
    -1.612E+00   -1.599E+00   -1.587E+00   -1.575E+00   -1.562E+00   -1.550E+00   -1.537E+00   -1.524E+00   -1.512E+00   -1.499E+00
    -1.486E+00   -1.473E+00   -1.460E+00   -1.446E+00   -1.433E+00   -1.420E+00   -1.406E+00   -1.393E+00   -1.379E+00   -1.366E+00
    -1.352E+00   -1.339E+00   -1.325E+00   -1.311E+00   -1.297E+00   -1.283E+00   -1.269E+00   -1.255E+00   -1.241E+00   -1.227E+00
    -1.213E+00   -1.199E+00   -1.184E+00   -1.170E+00   -1.156E+00   -1.141E+00   -1.127E+00   -1.113E+00   -1.098E+00   -1.084E+00
    -1.069E+00   -1.054E+00   -1.040E+00   -1.025E+00   -1.011E+00   -9.959E-01   -9.812E-01   -9.665E-01   -9.517E-01   -9.370E-01
    -9.222E-01   -9.074E-01   -8.926E-01   -8.778E-01   -8.630E-01   -8.482E-01   -8.334E-01   -8.185E-01   -8.037E-01   -7.888E-01
    -7.739E-01   -7.590E-01   -7.441E-01   -7.292E-01   -7.143E-01   -6.994E-01   -6.845E-01   -6.696E-01   -6.547E-01   -6.397E-01
    -6.248E-01   -6.099E-01   -5.949E-01   -5.800E-01   -5.650E-01   -5.500E-01   -5.351E-01   -5.201E-01   -5.052E-01   -4.902E-01
    -4.752E-01   -4.603E-01   -4.453E-01   -4.303E-01   -4.154E-01   -4.004E-01   -3.854E-01   -3.705E-01   -3.555E-01   -3.405E-01
    -3.256E-01   -3.106E-01   -2.957E-01   -2.807E-01   -2.658E-01   -2.508E-01   -2.359E-01   -2.210E-01
 Ala      Conc. = 1.84E+02
