 LCModel (Version 6.3-1L) Copyright: S.W. Provencher.          Ref.: Magn. Reson. Med. 30:672-679 (1993).                
 Slice#1 Row#2 Col#11  PD_05_press_1_raw_act
 36 lines in following concentration table = NCONC+1
    Conc.  %SD /Cr+PCr  Metabolite                                         
   21.611  85%   0.825 Ala                                                 
    3.234 102%   0.123 Asp                                                 
    0.000 999%   0.000 Cr                                                  
   26.208  59%   1.000 PCr                                                 
    1.962 101% 7.5E-02 GABA                                                
    1.921 103% 7.3E-02 Glc                                                 
    0.000 999%   0.000 Gln                                                 
   48.042  81%   1.833 Glu                                                 
    0.000 999%   0.000 GPC                                                 
    5.858  79%   0.224 PCh                                                 
   17.312  85%   0.661 GSH                                                 
    0.000 999%   0.000 Ins                                                 
   20.504  91%   0.782 Lac                                                 
   21.049  70%   0.803 NAA                                                 
    0.000 999%   0.000 NAAG                                                
    0.632 104% 2.4E-02 Scyllo                                              
    3.243 102%   0.124 Tau                                                 
    2.995 171%   0.114 -CrCH2                                              
    5.858  79%   0.224 GPC+PCh                                             
   21.049  70%   0.803 NAA+NAAG                                            
   26.208  59%   1.000 Cr+PCr                                              
   48.042  81%   1.833 Glu+Gln                                             
 4.82E+03   9% 183.819 Lip13a                                              
    0.000 999%   0.000 Lip13b                                              
 1.18E+03  22%  45.105 Lip09                                               
    0.000 999%   0.000 MM09                                                
  209.485  80%   7.993 Lip20                                               
    0.000 999%   0.000 MM20                                                
    7.642 999%   0.292 MM12                                                
  288.844  69%  11.021 MM14                                                
  200.130  59%   7.636 MM17                                                
 4.82E+03   9% 183.819 Lip13a+Lip13b                                       
 5.11E+03   8% 195.132 MM14+Lip13a+Lip13b+MM12                             
 1.18E+03  22%  45.105 MM09+Lip09                                          
  209.485  80%   7.993 MM20+Lip20                                          
   6 lines in following misc. output table
  FWHM = 0.023 ppm    S/N =   6                                            
  Data shift = 0.023 ppm                                                   
  Ph:-165 deg     -12.9 deg/ppm                                            
  alphaB,S = 8.5E+01,   3.8E+00                                            
   14 spline knots.   Ns = 5(1)                                            
   2 inflections.     2 extrema                                            
  498 points on ppm-axis = NY
      4.000000     3.992357     3.984714     3.977070     3.969427     3.961784     3.954141     3.946497     3.938854     3.931211
      3.923568     3.915925     3.908281     3.900638     3.892995     3.885352     3.877708     3.870065     3.862422     3.854779
      3.847136     3.839492     3.831849     3.824206     3.816563     3.808919     3.801276     3.793633     3.785990     3.778347
      3.770703     3.763060     3.755417     3.747774     3.740130     3.732487     3.724844     3.717201     3.709558     3.701914
      3.694271     3.686628     3.678985     3.671341     3.663698     3.656055     3.648412     3.640769     3.633125     3.625482
      3.617839     3.610196     3.602552     3.594909     3.587266     3.579623     3.571980     3.564336     3.556693     3.549050
      3.541407     3.533763     3.526120     3.518477     3.510834     3.503191     3.495547     3.487904     3.480261     3.472618
      3.464974     3.457331     3.449688     3.442045     3.434402     3.426758     3.419115     3.411472     3.403829     3.396185
      3.388542     3.380899     3.373256     3.365613     3.357969     3.350326     3.342683     3.335040     3.327396     3.319753
      3.312110     3.304467     3.296824     3.289180     3.281537     3.273894     3.266251     3.258607     3.250964     3.243321
      3.235678     3.228034     3.220391     3.212748     3.205105     3.197462     3.189818     3.182175     3.174532     3.166889
      3.159245     3.151602     3.143959     3.136316     3.128673     3.121029     3.113386     3.105743     3.098100     3.090456
      3.082813     3.075170     3.067527     3.059884     3.052240     3.044597     3.036954     3.029311     3.021667     3.014024
      3.006381     2.998738     2.991095     2.983451     2.975808     2.968165     2.960522     2.952878     2.945235     2.937592
      2.929949     2.922306     2.914662     2.907019     2.899376     2.891733     2.884089     2.876446     2.868803     2.861160
      2.853517     2.845873     2.838230     2.830587     2.822944     2.815300     2.807657     2.800014     2.792371     2.784728
      2.777084     2.769441     2.761798     2.754155     2.746511     2.738868     2.731225     2.723582     2.715939     2.708295
      2.700652     2.693009     2.685366     2.677722     2.670079     2.662436     2.654793     2.647150     2.639506     2.631863
      2.624220     2.616577     2.608933     2.601290     2.593647     2.586004     2.578361     2.570717     2.563074     2.555431
      2.547788     2.540144     2.532501     2.524858     2.517215     2.509572     2.501928     2.494285     2.486642     2.478999
      2.471355     2.463712     2.456069     2.448426     2.440783     2.433139     2.425496     2.417853     2.410210     2.402566
      2.394923     2.387280     2.379637     2.371994     2.364350     2.356707     2.349064     2.341421     2.333777     2.326134
      2.318491     2.310848     2.303205     2.295561     2.287918     2.280275     2.272632     2.264988     2.257345     2.249702
      2.242059     2.234416     2.226772     2.219129     2.211486     2.203843     2.196199     2.188556     2.180913     2.173270
      2.165627     2.157983     2.150340     2.142697     2.135054     2.127410     2.119767     2.112124     2.104481     2.096838
      2.089194     2.081551     2.073908     2.066265     2.058621     2.050978     2.043335     2.035692     2.028049     2.020405
      2.012762     2.005119     1.997476     1.989833     1.982190     1.974546     1.966903     1.959260     1.951617     1.943974
      1.936331     1.928688     1.921045     1.913402     1.905759     1.898115     1.890472     1.882829     1.875186     1.867543
      1.859900     1.852257     1.844614     1.836971     1.829327     1.821684     1.814041     1.806398     1.798755     1.791112
      1.783469     1.775826     1.768183     1.760540     1.752896     1.745253     1.737610     1.729967     1.722324     1.714681
      1.707038     1.699395     1.691752     1.684108     1.676465     1.668822     1.661179     1.653536     1.645893     1.638250
      1.630607     1.622964     1.615321     1.607677     1.600034     1.592391     1.584748     1.577105     1.569462     1.561819
      1.554176     1.546533     1.538890     1.531246     1.523603     1.515960     1.508317     1.500674     1.493031     1.485388
      1.477745     1.470102     1.462458     1.454815     1.447172     1.439529     1.431886     1.424243     1.416600     1.408957
      1.401314     1.393671     1.386027     1.378384     1.370741     1.363098     1.355455     1.347812     1.340169     1.332526
      1.324883     1.317240     1.309596     1.301953     1.294310     1.286667     1.279024     1.271381     1.263738     1.256095
      1.248452     1.240808     1.233165     1.225522     1.217879     1.210236     1.202593     1.194950     1.187307     1.179664
      1.172021     1.164377     1.156734     1.149091     1.141448     1.133805     1.126162     1.118519     1.110876     1.103233
      1.095590     1.087946     1.080303     1.072660     1.065017     1.057374     1.049731     1.042088     1.034445     1.026802
      1.019158     1.011515     1.003872     0.996229     0.988586     0.980943     0.973300     0.965657     0.958014     0.950371
      0.942727     0.935084     0.927441     0.919798     0.912155     0.904512     0.896869     0.889226     0.881583     0.873940
      0.866296     0.858653     0.851010     0.843367     0.835724     0.828081     0.820438     0.812795     0.805152     0.797508
      0.789865     0.782222     0.774579     0.766936     0.759293     0.751650     0.744007     0.736364     0.728721     0.721077
      0.713434     0.705791     0.698148     0.690505     0.682862     0.675219     0.667576     0.659933     0.652290     0.644646
      0.637003     0.629360     0.621717     0.614074     0.606431     0.598788     0.591145     0.583502     0.575858     0.568215
      0.560572     0.552929     0.545286     0.537643     0.530000     0.522357     0.514714     0.507071     0.499427     0.491784
      0.484141     0.476498     0.468855     0.461212     0.453569     0.445925     0.438282     0.430639     0.422996     0.415353
      0.407710     0.400067     0.392424     0.384780     0.377137     0.369494     0.361851     0.354208     0.346565     0.338922
      0.331278     0.323635     0.315992     0.308349     0.300706     0.293063     0.285420     0.277777     0.270133     0.262490
      0.254847     0.247204     0.239561     0.231918     0.224275     0.216631     0.208988     0.201345
 NY phased data points follow
   1.03151E+00  1.88632E+00  2.50624E-01  1.11455E+00 -4.00138E-01  1.78889E+00  1.72242E+00  1.35628E+00  2.97186E+00  1.25792E+00
   4.51195E+00  1.51417E+00  3.23911E+00  3.87774E+00 -7.06414E-01  2.86612E-01  3.22051E-01  2.50911E+00  3.84864E+00  3.51907E+00
   1.81862E+00  2.33730E+00  2.25096E+00 -9.45674E-01  1.63999E+00 -7.51960E-01 -4.23466E-02  8.09561E-01  6.69130E-01  2.14439E+00
   1.48688E+00  1.30401E+00  2.69672E+00  2.20742E+00  3.09235E+00 -1.45392E+00  5.40609E+00  2.45922E+00  1.39873E+00  2.94283E+00
  -7.95129E-01  1.70050E+00  2.37710E+00  8.32269E-01  9.67961E-01 -8.15523E-01  3.41262E+00  1.37968E+00  2.51160E+00  2.35354E-01
   8.02505E-01  1.85819E+00 -1.09652E+00  2.24789E+00  5.95993E-01  1.13001E+00  4.28655E+00 -1.01467E+00  2.97013E+00  4.21493E+00
   2.49271E-01  3.00055E+00 -1.06331E+00  1.65278E-03 -3.64279E-01  1.32727E-01  1.69626E+00  2.58103E+00  3.51128E+00  2.83353E+00
   5.60717E-01 -1.63458E-02  2.10412E+00  3.87545E-01  3.48754E-01  3.56009E+00 -8.70933E-02  1.61887E+00  4.39191E-01  1.43644E+00
   3.76678E-01  1.75715E+00 -4.76838E-01  3.30163E+00  4.90729E-01  1.11057E+00  3.23911E-01 -6.84681E-01  2.50888E+00  2.82644E-01
   2.68726E+00  2.39842E+00  1.17933E+00  2.14082E+00  1.52587E+00 -7.08288E-01  7.58391E-01  1.58666E+00  1.96351E+00 -6.37862E-01
  -1.57869E+00 -1.36424E+00  1.00013E+00  1.25567E+00  2.34106E+00  2.82920E+00  2.64097E+00 -1.27414E+00  5.64404E-01  1.60766E+00
   1.34913E+00 -2.73728E+00  1.22298E+00  1.04051E-01  8.67450E-01  1.40332E-01 -6.88645E-01 -1.03654E+00 -3.41899E+00  4.05052E-01
  -1.60377E+00 -7.14898E-01  5.79293E-01  3.30831E+00 -2.62235E+00 -4.73102E-01  2.11859E+00  1.66518E+00  5.94509E+00  3.01354E+00
   1.01855E+00  2.47569E+00  3.49170E+00  2.26728E-01  1.36484E-01 -6.64950E-01  1.71305E+00 -1.87969E-01 -1.77598E+00 -2.01694E+00
   3.77400E-02  1.03096E-01  6.68151E-01  3.48806E-01 -1.69951E+00 -4.41900E+00 -3.03668E-01 -1.59457E+00  9.33048E-01 -4.76875E-01
   7.02929E-01  1.05715E-01  1.90685E+00 -5.57975E-01  2.20208E+00  1.70175E+00 -1.32563E+00  7.05082E-01  1.22390E+00 -2.35115E+00
  -2.24193E+00 -4.33394E-01 -1.91735E-01  2.84005E-01 -1.64970E+00  5.55209E-01  1.01437E+00  4.73291E-01 -7.68358E-01  8.96544E-01
   4.07404E+00  2.90374E+00  7.09696E-01  4.01033E+00 -2.12441E-01  3.75499E-01  2.94282E+00  2.04093E+00 -1.45425E+00  1.95628E+00
   2.89393E+00  2.15287E+00  1.56203E-02  2.83832E-01  2.17450E+00  3.19105E+00  1.83917E+00  5.19985E-01  4.59701E+00  2.24530E+00
   4.31706E-01  1.27632E+00  5.87855E+00  4.32962E+00  3.84510E+00  4.32265E+00  4.34236E+00  3.15026E+00  3.88413E+00  1.19945E+00
  -6.97410E-01  2.01419E+00  1.31610E+00 -1.09694E+00  2.69266E+00  4.10997E+00  3.74292E+00  1.16893E+00  2.06186E+00  8.20188E-01
   1.51810E+00  3.24733E+00 -1.99861E-02  1.79734E+00  3.15685E+00  2.79786E+00  2.72924E+00  3.98645E+00  4.04034E+00  4.16488E+00
   1.84308E+00  6.91644E-02  7.28774E-01 -4.20690E-01  2.35186E+00  2.29399E+00  1.06674E-01  1.50815E+00  2.62094E+00  9.91978E-01
   5.15691E-01  3.56775E-01 -1.53354E+00  7.89417E-01  3.15091E+00 -3.02446E+00  4.18590E-01  4.26742E-01  1.80880E+00  1.01933E+00
   2.30287E+00  1.81583E+00  1.22628E+00 -5.01396E-01  1.08907E+00  1.82045E+00  2.20685E+00  2.60889E+00  2.51525E+00  8.81129E-01
  -9.54207E-01 -1.52646E+00 -5.08578E-02  1.87641E+00 -4.37469E-01 -3.21732E-01 -4.36264E+00 -3.66572E+00 -1.95530E+00 -2.48022E+00
   1.06460E+00  2.09852E+00  2.13089E+00 -1.26678E+00 -6.89676E-01  2.10838E+00 -1.63840E+00  2.56242E+00  1.31505E+00 -1.93612E-01
  -8.53612E-01 -1.74497E+00 -2.30393E+00 -3.19102E+00 -4.18918E+00 -2.67894E+00 -3.25990E+00 -6.60085E+00 -5.64400E+00 -6.24213E-01
  -2.19408E+00 -5.93353E+00 -1.42726E+00 -3.40557E+00 -6.33513E-01  8.38531E-01  1.90082E+00 -1.50154E+00 -2.15937E-01 -2.27572E+00
   2.00170E-01 -3.20026E+00 -3.38080E+00  2.78929E-01  1.00777E+00  1.49143E+00 -3.95676E-01 -7.33429E-01  1.08008E+00  2.17171E+00
  -2.62971E-01 -9.16667E-01 -2.94287E-01 -4.12862E-01  3.13418E+00  1.62119E+00  2.26528E+00  8.12341E-01 -9.35972E-03  4.03953E+00
   1.67273E+00  3.75923E+00  1.60045E+00 -1.10043E+00  1.20173E+00 -6.19351E-02  2.84126E+00  1.40592E+00  2.74209E+00  4.93725E-01
   1.72111E+00  4.70373E+00  3.36552E+00  1.22431E+00 -5.30278E-01  3.82890E+00  5.37274E+00  3.59826E+00  2.90551E+00  2.99852E+00
   5.23035E+00  4.71766E-01  2.38839E+00  9.76479E-01  1.80614E+00  4.20718E+00  4.09220E+00  3.96677E+00  5.64449E+00  1.47886E+00
   3.55316E+00  4.64926E+00  6.74214E+00  7.88068E+00  6.14547E+00  9.27150E+00  7.37782E+00  1.04583E+01  8.37486E+00  9.23129E+00
   1.13578E+01  7.80842E+00  1.25644E+01  1.25915E+01  1.39724E+01  1.81524E+01  1.66691E+01  1.60725E+01  2.01462E+01  2.16491E+01
   2.06510E+01  2.32891E+01  2.77701E+01  2.54939E+01  2.43881E+01  2.47157E+01  2.24238E+01  2.20403E+01  2.14198E+01  2.13114E+01
   1.77156E+01  1.96976E+01  1.70075E+01  1.76756E+01  1.53376E+01  1.58622E+01  1.54339E+01  1.63457E+01  1.56533E+01  1.45124E+01
   1.55659E+01  1.16769E+01  1.39120E+01  1.22671E+01  1.20092E+01  1.35320E+01  1.09236E+01  1.29495E+01  7.77739E+00  9.03670E+00
   9.30210E+00  9.70492E+00  6.12239E+00  7.38596E+00  8.34247E+00  7.70377E+00  1.01775E+01  8.42654E+00  9.67723E+00  4.26964E+00
   7.74467E+00  6.63606E+00  7.85041E+00  5.10795E+00  8.86792E+00  5.53723E+00  2.98727E+00  4.58806E+00  5.11754E+00  6.16907E+00
   5.64942E+00  4.44518E+00  3.51037E+00  1.06011E+00  1.94986E+00 -7.40886E-02 -7.58479E-01  9.15499E-01  8.33015E-01 -1.79466E-01
  -2.46682E+00 -4.99384E+00 -3.70747E+00 -2.65472E+00 -3.76245E+00 -2.23228E+00 -1.04919E+00  5.76519E-01 -4.39837E+00 -1.90661E+00
  -1.61152E+00 -2.79929E+00  1.65159E+00 -3.67015E+00 -4.36518E-01  3.56907E-01 -2.68223E+00 -1.76734E+00  4.38685E-01 -1.81076E-01
  -2.43043E+00 -3.36185E+00 -1.73748E+00 -1.16603E+00 -1.03649E+00 -4.26504E+00 -3.44434E+00 -2.16530E+00 -1.70057E+00 -2.41964E+00
  -2.79386E+00 -1.27600E+00 -4.00337E-01 -2.36260E+00 -1.65872E+00 -3.73660E+00 -2.73871E+00  1.86950E-01 -1.35729E+00 -1.54907E+00
  -4.23024E+00 -2.64175E+00 -4.86354E+00 -1.26343E+00 -4.59986E-01 -2.77445E+00 -1.88522E+00 -1.14339E+00 -2.43302E+00  3.11632E-01
  -6.61325E-01 -1.74988E+00 -3.28972E+00 -1.74962E+00 -1.49929E+00 -1.36297E+00 -1.03697E+00 -2.42938E+00 -1.03152E+00 -2.89280E+00
  -3.09324E+00 -2.14472E+00 -2.80662E+00  1.29564E+00 -3.74609E+00 -1.36770E+00  1.33323E-01 -4.06915E+00  6.31177E-01 -2.43611E+00
   8.02116E-01 -3.00361E+00 -2.73843E+00 -2.45428E+00 -3.00243E+00 -1.32776E+00 -3.95769E+00 -1.30020E+00
 NY points of the fit to the data follow
   1.74571E+00  1.74532E+00  1.73420E+00  1.67462E+00  1.40771E+00  1.02225E+00  9.16590E-01  1.32337E+00  2.09848E+00  2.83388E+00
   3.18339E+00  3.07676E+00  2.71877E+00  2.37049E+00  2.10920E+00  1.89047E+00  1.72876E+00  1.61850E+00  1.53378E+00  1.50611E+00
   1.52539E+00  1.57714E+00  1.67510E+00  1.83658E+00  1.93123E+00  1.69752E+00  1.25414E+00  9.81036E-01  1.09104E+00  1.48396E+00
   1.93747E+00  2.28770E+00  2.48002E+00  2.55214E+00  2.50852E+00  2.26913E+00  1.88629E+00  1.55609E+00  1.37276E+00  1.31729E+00
   1.35195E+00  1.42746E+00  1.48283E+00  1.49654E+00  1.48969E+00  1.47314E+00  1.45301E+00  1.43834E+00  1.42003E+00  1.39694E+00
   1.37378E+00  1.35920E+00  1.35522E+00  1.35767E+00  1.35993E+00  1.35541E+00  1.34289E+00  1.32717E+00  1.31093E+00  1.29611E+00
   1.28384E+00  1.27149E+00  1.25852E+00  1.25019E+00  1.24651E+00  1.24687E+00  1.24834E+00  1.24496E+00  1.23295E+00  1.21403E+00
   1.18679E+00  1.15288E+00  1.12973E+00  1.13337E+00  1.16202E+00  1.19687E+00  1.21637E+00  1.20449E+00  1.16559E+00  1.12086E+00
   1.08505E+00  1.04881E+00  1.01586E+00  1.01101E+00  1.04435E+00  1.10163E+00  1.15076E+00  1.16444E+00  1.14322E+00  1.11202E+00
   1.08955E+00  1.07149E+00  1.04452E+00  1.00408E+00  9.53098E-01  9.09767E-01  8.87523E-01  8.57512E-01  6.61279E-01  2.28847E-01
  -3.72035E-02  2.36294E-01  1.03590E+00  1.94633E+00  2.50594E+00  2.52977E+00  2.17476E+00  1.74272E+00  1.40002E+00  1.13845E+00
   9.62881E-01  8.98166E-01  8.71313E-01  8.52694E-01  8.38908E-01  8.35947E-01  8.39551E-01  8.38154E-01  8.23388E-01  7.89741E-01
   7.23702E-01  5.35312E-01 -2.92055E-02 -6.55775E-01 -6.68775E-01  2.17827E-01  1.61949E+00  2.79500E+00  3.21126E+00  2.87238E+00
   2.26214E+00  1.82122E+00  1.59455E+00  1.43069E+00  1.27846E+00  1.05472E+00  7.58277E-01  4.98265E-01  3.81540E-01  4.28203E-01
   5.90516E-01  7.81247E-01  9.16630E-01  9.72953E-01  9.68198E-01  9.33968E-01  8.99089E-01  8.74342E-01  8.57808E-01  8.50064E-01
   8.42601E-01  8.26828E-01  8.00320E-01  7.70802E-01  7.48849E-01  7.44087E-01  7.62568E-01  7.87910E-01  7.92449E-01  7.62029E-01
   7.03184E-01  6.48338E-01  6.24096E-01  6.31876E-01  6.50822E-01  6.57880E-01  6.46169E-01  6.21456E-01  5.91103E-01  5.62769E-01
   5.42766E-01  5.37080E-01  5.39866E-01  5.21423E-01  4.71128E-01  4.08753E-01  3.70132E-01  3.66070E-01  3.73293E-01  3.61639E-01
   3.34592E-01  3.15260E-01  3.15617E-01  3.10830E-01  2.61242E-01  1.57845E-01  3.42376E-02 -4.48597E-02 -2.31799E-02  1.05775E-01
   2.87841E-01  4.47362E-01  5.39445E-01  5.67632E-01  5.05403E-01  3.46506E-01  1.41274E-01 -2.53989E-02 -9.41265E-02 -7.13608E-02
  -1.88051E-03  7.05294E-02  1.54463E-01  2.56069E-01  3.49923E-01  4.18498E-01  4.48492E-01  4.26380E-01  3.43252E-01  1.87999E-01
  -3.43566E-02 -3.17161E-01 -4.74600E-01 -3.23129E-01  1.24551E-01  6.72705E-01  1.09758E+00  1.30355E+00  1.27343E+00  9.64078E-01
   3.87389E-01 -2.78482E-01 -7.76068E-01 -9.00756E-01 -6.85197E-01 -3.02480E-01  9.88245E-02  4.36367E-01  6.36476E-01  6.37265E-01
   4.61687E-01  2.28662E-01  4.61155E-02 -2.87771E-02  5.63899E-02  2.96960E-01  6.01734E-01  8.27290E-01  8.74595E-01  7.15698E-01
   4.06871E-01  5.78526E-02 -1.94730E-01 -2.74222E-01 -1.68446E-01  8.05604E-02  3.72191E-01  5.91371E-01  6.61123E-01  5.85751E-01
   4.20650E-01  2.60401E-01  1.79524E-01  2.01033E-01  2.25065E-01 -2.43431E-02 -5.98247E-01 -9.48118E-01 -6.05726E-01  3.79396E-01
   1.49571E+00  2.19043E+00  2.23432E+00  1.81810E+00  1.30368E+00  8.73814E-01  5.26467E-01  2.95294E-01  1.88873E-01  9.96598E-02
   6.65713E-03 -6.48961E-02 -1.00373E-01 -1.02147E-01 -8.15252E-02 -5.70281E-02 -4.08061E-02 -3.82863E-02 -5.00495E-02 -7.41886E-02
  -1.02969E-01 -1.27483E-01 -1.43210E-01 -1.48463E-01 -1.44296E-01 -1.33502E-01 -1.17900E-01 -9.87431E-02 -7.68688E-02 -5.10222E-02
  -2.02098E-02  1.58911E-02  5.76543E-02  1.05835E-01  1.60866E-01  2.22537E-01  2.90635E-01  3.64898E-01  4.44354E-01  5.27867E-01
   6.14545E-01  7.03269E-01  7.92623E-01  8.80824E-01  9.65936E-01  1.04619E+00  1.12018E+00  1.18694E+00  1.24574E+00  1.29618E+00
   1.33827E+00  1.37244E+00  1.39945E+00  1.42049E+00  1.43701E+00  1.45065E+00  1.46306E+00  1.47562E+00  1.48903E+00  1.50239E+00
   1.51037E+00  1.49253E+00  1.42156E+00  1.46832E+00  1.82780E+00  2.41942E+00  2.95405E+00  3.17323E+00  3.05138E+00  2.77098E+00
   2.43042E+00  2.01326E+00  1.64762E+00  1.57218E+00  1.96304E+00  2.69777E+00  3.48425E+00  4.10025E+00  4.49519E+00  4.77109E+00
   5.02304E+00  5.25098E+00  5.47397E+00  5.92962E+00  6.77273E+00  7.89172E+00  8.99284E+00  9.83890E+00  1.04260E+01  1.08985E+01
   1.12994E+01  1.17345E+01  1.23893E+01  1.34446E+01  1.49239E+01  1.65823E+01  1.81218E+01  1.93834E+01  2.03820E+01  2.12070E+01
   2.18904E+01  2.24232E+01  2.28382E+01  2.31241E+01  2.32558E+01  2.32234E+01  2.30265E+01  2.26710E+01  2.21685E+01  2.15348E+01
   2.07893E+01  1.99543E+01  1.90536E+01  1.81118E+01  1.71531E+01  1.62005E+01  1.52752E+01  1.43955E+01  1.35769E+01  1.28313E+01
   1.21673E+01  1.15897E+01  1.10999E+01  1.06961E+01  1.03733E+01  1.01243E+01  9.93933E+00  9.80713E+00  9.71511E+00  9.65009E+00
   9.59874E+00  9.54814E+00  9.48621E+00  9.40215E+00  9.28687E+00  9.13330E+00  8.93655E+00  8.69400E+00  8.40522E+00  8.07185E+00
   7.69744E+00  7.28711E+00  6.84717E+00  6.38473E+00  5.90727E+00  5.42230E+00  4.93705E+00  4.45818E+00  3.99156E+00  3.54209E+00
   3.11364E+00  2.70909E+00  2.33034E+00  1.97845E+00  1.65364E+00  1.35550E+00  1.08306E+00  8.35009E-01  6.09788E-01  4.05676E-01
   2.20858E-01  5.35169E-02 -9.81127E-02 -2.35676E-01 -3.60694E-01 -4.74561E-01 -5.78557E-01 -6.73829E-01 -7.61393E-01 -8.42118E-01
  -9.16770E-01 -9.86024E-01 -1.05049E+00 -1.11069E+00 -1.16709E+00 -1.22005E+00 -1.26991E+00 -1.31698E+00 -1.36154E+00 -1.40383E+00
  -1.44405E+00 -1.48236E+00 -1.51893E+00 -1.55390E+00 -1.58742E+00 -1.61960E+00 -1.65054E+00 -1.68032E+00 -1.70903E+00 -1.73675E+00
  -1.76357E+00 -1.78954E+00 -1.81470E+00 -1.83911E+00 -1.86281E+00 -1.88587E+00 -1.90833E+00 -1.93021E+00 -1.95155E+00 -1.97236E+00
  -1.99269E+00 -2.01258E+00 -2.03206E+00 -2.05112E+00 -2.06979E+00 -2.08810E+00 -2.10606E+00 -2.12371E+00 -2.14106E+00 -2.15810E+00
  -2.17486E+00 -2.19134E+00 -2.20759E+00 -2.22360E+00 -2.23938E+00 -2.25493E+00 -2.27026E+00 -2.28540E+00 -2.30035E+00 -2.31513E+00
  -2.32972E+00 -2.34414E+00 -2.35840E+00 -2.37250E+00 -2.38647E+00 -2.40030E+00 -2.41398E+00 -2.42752E+00 -2.44094E+00 -2.45425E+00
  -2.46744E+00 -2.48053E+00 -2.49349E+00 -2.50635E+00 -2.51911E+00 -2.53178E+00 -2.54437E+00 -2.55685E+00
 NY background values follow
     1.776E+00    1.766E+00    1.757E+00    1.748E+00    1.739E+00    1.730E+00    1.721E+00    1.712E+00    1.703E+00    1.693E+00
     1.684E+00    1.675E+00    1.666E+00    1.657E+00    1.648E+00    1.639E+00    1.630E+00    1.621E+00    1.611E+00    1.602E+00
     1.593E+00    1.584E+00    1.575E+00    1.566E+00    1.557E+00    1.548E+00    1.538E+00    1.529E+00    1.520E+00    1.511E+00
     1.502E+00    1.493E+00    1.484E+00    1.475E+00    1.466E+00    1.456E+00    1.447E+00    1.438E+00    1.429E+00    1.420E+00
     1.411E+00    1.402E+00    1.393E+00    1.383E+00    1.374E+00    1.365E+00    1.356E+00    1.347E+00    1.338E+00    1.329E+00
     1.320E+00    1.311E+00    1.301E+00    1.292E+00    1.283E+00    1.274E+00    1.265E+00    1.256E+00    1.247E+00    1.238E+00
     1.229E+00    1.219E+00    1.210E+00    1.201E+00    1.192E+00    1.183E+00    1.174E+00    1.165E+00    1.156E+00    1.146E+00
     1.137E+00    1.128E+00    1.119E+00    1.110E+00    1.101E+00    1.092E+00    1.083E+00    1.074E+00    1.064E+00    1.055E+00
     1.046E+00    1.037E+00    1.028E+00    1.019E+00    1.010E+00    1.001E+00    9.915E-01    9.824E-01    9.732E-01    9.641E-01
     9.550E-01    9.459E-01    9.368E-01    9.277E-01    9.185E-01    9.094E-01    9.003E-01    8.912E-01    8.821E-01    8.730E-01
     8.638E-01    8.547E-01    8.456E-01    8.365E-01    8.274E-01    8.183E-01    8.091E-01    8.000E-01    7.909E-01    7.818E-01
     7.727E-01    7.635E-01    7.544E-01    7.453E-01    7.362E-01    7.271E-01    7.180E-01    7.088E-01    6.997E-01    6.906E-01
     6.815E-01    6.724E-01    6.633E-01    6.541E-01    6.450E-01    6.359E-01    6.268E-01    6.177E-01    6.086E-01    5.994E-01
     5.903E-01    5.812E-01    5.721E-01    5.630E-01    5.539E-01    5.447E-01    5.356E-01    5.265E-01    5.174E-01    5.083E-01
     4.991E-01    4.900E-01    4.809E-01    4.718E-01    4.627E-01    4.536E-01    4.444E-01    4.353E-01    4.262E-01    4.171E-01
     4.080E-01    3.989E-01    3.897E-01    3.806E-01    3.715E-01    3.624E-01    3.533E-01    3.442E-01    3.350E-01    3.259E-01
     3.168E-01    3.077E-01    2.986E-01    2.894E-01    2.803E-01    2.712E-01    2.621E-01    2.530E-01    2.439E-01    2.347E-01
     2.256E-01    2.165E-01    2.074E-01    1.983E-01    1.892E-01    1.800E-01    1.709E-01    1.618E-01    1.527E-01    1.436E-01
     1.344E-01    1.253E-01    1.162E-01    1.071E-01    9.797E-02    8.885E-02    7.973E-02    7.061E-02    6.150E-02    5.238E-02
     4.326E-02    3.414E-02    2.502E-02    1.590E-02    6.784E-03   -2.335E-03   -1.145E-02   -2.057E-02   -2.969E-02   -3.881E-02
    -4.793E-02   -5.705E-02   -6.617E-02   -7.529E-02   -8.440E-02   -9.352E-02   -1.026E-01   -1.118E-01   -1.209E-01   -1.300E-01
    -1.391E-01   -1.482E-01   -1.574E-01   -1.665E-01   -1.756E-01   -1.847E-01   -1.938E-01   -2.030E-01   -2.121E-01   -2.212E-01
    -2.303E-01   -2.394E-01   -2.485E-01   -2.577E-01   -2.668E-01   -2.759E-01   -2.850E-01   -2.941E-01   -3.033E-01   -3.124E-01
    -3.215E-01   -3.306E-01   -3.397E-01   -3.489E-01   -3.580E-01   -3.671E-01   -3.762E-01   -3.853E-01   -3.945E-01   -4.036E-01
    -4.127E-01   -4.218E-01   -4.309E-01   -4.401E-01   -4.492E-01   -4.583E-01   -4.674E-01   -4.765E-01   -4.857E-01   -4.948E-01
    -5.039E-01   -5.130E-01   -5.221E-01   -5.313E-01   -5.404E-01   -5.495E-01   -5.586E-01   -5.677E-01   -5.769E-01   -5.860E-01
    -5.951E-01   -6.042E-01   -6.133E-01   -6.225E-01   -6.316E-01   -6.407E-01   -6.498E-01   -6.589E-01   -6.681E-01   -6.772E-01
    -6.863E-01   -6.954E-01   -7.045E-01   -7.137E-01   -7.228E-01   -7.319E-01   -7.410E-01   -7.501E-01   -7.593E-01   -7.684E-01
    -7.775E-01   -7.866E-01   -7.957E-01   -8.049E-01   -8.140E-01   -8.231E-01   -8.322E-01   -8.413E-01   -8.505E-01   -8.596E-01
    -8.687E-01   -8.778E-01   -8.870E-01   -8.961E-01   -9.052E-01   -9.143E-01   -9.234E-01   -9.326E-01   -9.417E-01   -9.508E-01
    -9.599E-01   -9.690E-01   -9.782E-01   -9.873E-01   -9.964E-01   -1.006E+00   -1.015E+00   -1.024E+00   -1.033E+00   -1.042E+00
    -1.051E+00   -1.060E+00   -1.069E+00   -1.078E+00   -1.088E+00   -1.097E+00   -1.106E+00   -1.115E+00   -1.124E+00   -1.133E+00
    -1.142E+00   -1.151E+00   -1.161E+00   -1.170E+00   -1.179E+00   -1.188E+00   -1.197E+00   -1.206E+00   -1.215E+00   -1.224E+00
    -1.234E+00   -1.243E+00   -1.252E+00   -1.261E+00   -1.270E+00   -1.279E+00   -1.288E+00   -1.297E+00   -1.306E+00   -1.316E+00
    -1.325E+00   -1.334E+00   -1.343E+00   -1.352E+00   -1.361E+00   -1.370E+00   -1.379E+00   -1.389E+00   -1.398E+00   -1.407E+00
    -1.416E+00   -1.425E+00   -1.434E+00   -1.443E+00   -1.452E+00   -1.462E+00   -1.471E+00   -1.480E+00   -1.489E+00   -1.498E+00
    -1.507E+00   -1.516E+00   -1.525E+00   -1.534E+00   -1.544E+00   -1.553E+00   -1.562E+00   -1.571E+00   -1.580E+00   -1.589E+00
    -1.598E+00   -1.607E+00   -1.617E+00   -1.626E+00   -1.635E+00   -1.644E+00   -1.653E+00   -1.662E+00   -1.671E+00   -1.680E+00
    -1.690E+00   -1.699E+00   -1.708E+00   -1.717E+00   -1.726E+00   -1.735E+00   -1.744E+00   -1.753E+00   -1.763E+00   -1.772E+00
    -1.781E+00   -1.790E+00   -1.799E+00   -1.808E+00   -1.817E+00   -1.826E+00   -1.835E+00   -1.845E+00   -1.854E+00   -1.863E+00
    -1.872E+00   -1.881E+00   -1.890E+00   -1.899E+00   -1.908E+00   -1.918E+00   -1.927E+00   -1.936E+00   -1.945E+00   -1.954E+00
    -1.963E+00   -1.972E+00   -1.981E+00   -1.991E+00   -2.000E+00   -2.009E+00   -2.018E+00   -2.027E+00   -2.036E+00   -2.045E+00
    -2.054E+00   -2.063E+00   -2.073E+00   -2.082E+00   -2.091E+00   -2.100E+00   -2.109E+00   -2.118E+00   -2.127E+00   -2.136E+00
    -2.146E+00   -2.155E+00   -2.164E+00   -2.173E+00   -2.182E+00   -2.191E+00   -2.200E+00   -2.209E+00   -2.219E+00   -2.228E+00
    -2.237E+00   -2.246E+00   -2.255E+00   -2.264E+00   -2.273E+00   -2.282E+00   -2.291E+00   -2.301E+00   -2.310E+00   -2.319E+00
    -2.328E+00   -2.337E+00   -2.346E+00   -2.355E+00   -2.364E+00   -2.374E+00   -2.383E+00   -2.392E+00   -2.401E+00   -2.410E+00
    -2.419E+00   -2.428E+00   -2.437E+00   -2.447E+00   -2.456E+00   -2.465E+00   -2.474E+00   -2.483E+00   -2.492E+00   -2.501E+00
    -2.510E+00   -2.519E+00   -2.529E+00   -2.538E+00   -2.547E+00   -2.556E+00   -2.565E+00   -2.574E+00   -2.583E+00   -2.592E+00
    -2.602E+00   -2.611E+00   -2.620E+00   -2.629E+00   -2.638E+00   -2.647E+00   -2.656E+00   -2.665E+00   -2.675E+00   -2.684E+00
    -2.693E+00   -2.702E+00   -2.711E+00   -2.720E+00   -2.729E+00   -2.738E+00   -2.747E+00   -2.757E+00
 Ala      Conc. = 2.16E+01
