 LCModel (Version 6.3-1L) Copyright: S.W. Provencher.          Ref.: Magn. Reson. Med. 30:672-679 (1993).                
 Slice#3 Row#1 Col#1  PD_05_press_1_raw_act
 36 lines in following concentration table = NCONC+1
    Conc.  %SD /Cr+PCr  Metabolite                                         
    6.610 105%   1.109 Ala                                                 
    2.141  99%   0.359 Asp                                                 
    5.960  75%   1.000 Cr                                                  
    0.000 999%   0.000 PCr                                                 
    1.199 106%   0.201 GABA                                                
    1.240 103%   0.208 Glc                                                 
    0.000 999%   0.000 Gln                                                 
   17.087  91%   2.867 Glu                                                 
    2.215  76%   0.372 GPC                                                 
    0.000 999%   0.000 PCh                                                 
    2.550 202%   0.428 GSH                                                 
    0.000 999%   0.000 Ins                                                 
    0.000 999%   0.000 Lac                                                 
   11.531  60%   1.935 NAA                                                 
   16.860  41%   2.829 NAAG                                                
    0.302 139% 5.1E-02 Scyllo                                              
    1.775 119%   0.298 Tau                                                 
    0.803 301%   0.135 -CrCH2                                              
    2.215  76%   0.372 GPC+PCh                                             
   28.392  37%   4.764 NAA+NAAG                                            
    5.960  75%   1.000 Cr+PCr                                              
   17.087  91%   2.867 Glu+Gln                                             
    0.000 999%   0.000 Lip13a                                              
    0.000 999%   0.000 Lip13b                                              
    0.000 999%   0.000 Lip09                                               
  202.636  14%  34.000 MM09                                                
    1.552 709%   0.260 Lip20                                               
  170.098  28%  28.540 MM20                                                
  106.399  20%  17.852 MM12                                                
    0.000 999%   0.000 MM14                                                
   92.338  37%  15.493 MM17                                                
    0.000 999%   0.000 Lip13a+Lip13b                                       
  106.399  20%  17.852 MM14+Lip13a+Lip13b+MM12                             
  202.636  14%  34.000 MM09+Lip09                                          
  171.650  27%  28.801 MM20+Lip20                                          
   6 lines in following misc. output table
  FWHM = 0.038 ppm    S/N =   1                                            
  Data shift = 0.061 ppm                                                   
  Ph:-143 deg      69.6 deg/ppm                                            
  alphaB,S = 8.5E+01,   6.4E+00                                            
   14 spline knots.   Ns = 6(1)                                            
  ( 8) 2 infls.   ( 8) 2 extrs.                                            
  498 points on ppm-axis = NY
      4.000000     3.992357     3.984714     3.977070     3.969427     3.961784     3.954141     3.946497     3.938854     3.931211
      3.923568     3.915925     3.908281     3.900638     3.892995     3.885352     3.877708     3.870065     3.862422     3.854779
      3.847136     3.839492     3.831849     3.824206     3.816563     3.808919     3.801276     3.793633     3.785990     3.778347
      3.770703     3.763060     3.755417     3.747774     3.740130     3.732487     3.724844     3.717201     3.709558     3.701914
      3.694271     3.686628     3.678985     3.671341     3.663698     3.656055     3.648412     3.640769     3.633125     3.625482
      3.617839     3.610196     3.602552     3.594909     3.587266     3.579623     3.571980     3.564336     3.556693     3.549050
      3.541407     3.533763     3.526120     3.518477     3.510834     3.503191     3.495547     3.487904     3.480261     3.472618
      3.464974     3.457331     3.449688     3.442045     3.434402     3.426758     3.419115     3.411472     3.403829     3.396185
      3.388542     3.380899     3.373256     3.365613     3.357969     3.350326     3.342683     3.335040     3.327396     3.319753
      3.312110     3.304467     3.296824     3.289180     3.281537     3.273894     3.266251     3.258607     3.250964     3.243321
      3.235678     3.228034     3.220391     3.212748     3.205105     3.197462     3.189818     3.182175     3.174532     3.166889
      3.159245     3.151602     3.143959     3.136316     3.128673     3.121029     3.113386     3.105743     3.098100     3.090456
      3.082813     3.075170     3.067527     3.059884     3.052240     3.044597     3.036954     3.029311     3.021667     3.014024
      3.006381     2.998738     2.991095     2.983451     2.975808     2.968165     2.960522     2.952878     2.945235     2.937592
      2.929949     2.922306     2.914662     2.907019     2.899376     2.891733     2.884089     2.876446     2.868803     2.861160
      2.853517     2.845873     2.838230     2.830587     2.822944     2.815300     2.807657     2.800014     2.792371     2.784728
      2.777084     2.769441     2.761798     2.754155     2.746511     2.738868     2.731225     2.723582     2.715939     2.708295
      2.700652     2.693009     2.685366     2.677722     2.670079     2.662436     2.654793     2.647150     2.639506     2.631863
      2.624220     2.616577     2.608933     2.601290     2.593647     2.586004     2.578361     2.570717     2.563074     2.555431
      2.547788     2.540144     2.532501     2.524858     2.517215     2.509572     2.501928     2.494285     2.486642     2.478999
      2.471355     2.463712     2.456069     2.448426     2.440783     2.433139     2.425496     2.417853     2.410210     2.402566
      2.394923     2.387280     2.379637     2.371994     2.364350     2.356707     2.349064     2.341421     2.333777     2.326134
      2.318491     2.310848     2.303205     2.295561     2.287918     2.280275     2.272632     2.264988     2.257345     2.249702
      2.242059     2.234416     2.226772     2.219129     2.211486     2.203843     2.196199     2.188556     2.180913     2.173270
      2.165627     2.157983     2.150340     2.142697     2.135054     2.127410     2.119767     2.112124     2.104481     2.096838
      2.089194     2.081551     2.073908     2.066265     2.058621     2.050978     2.043335     2.035692     2.028049     2.020405
      2.012762     2.005119     1.997476     1.989833     1.982190     1.974546     1.966903     1.959260     1.951617     1.943974
      1.936331     1.928688     1.921045     1.913402     1.905759     1.898115     1.890472     1.882829     1.875186     1.867543
      1.859900     1.852257     1.844614     1.836971     1.829327     1.821684     1.814041     1.806398     1.798755     1.791112
      1.783469     1.775826     1.768183     1.760540     1.752896     1.745253     1.737610     1.729967     1.722324     1.714681
      1.707038     1.699395     1.691752     1.684108     1.676465     1.668822     1.661179     1.653536     1.645893     1.638250
      1.630607     1.622964     1.615321     1.607677     1.600034     1.592391     1.584748     1.577105     1.569462     1.561819
      1.554176     1.546533     1.538890     1.531246     1.523603     1.515960     1.508317     1.500674     1.493031     1.485388
      1.477745     1.470102     1.462458     1.454815     1.447172     1.439529     1.431886     1.424243     1.416600     1.408957
      1.401314     1.393671     1.386027     1.378384     1.370741     1.363098     1.355455     1.347812     1.340169     1.332526
      1.324883     1.317240     1.309596     1.301953     1.294310     1.286667     1.279024     1.271381     1.263738     1.256095
      1.248452     1.240808     1.233165     1.225522     1.217879     1.210236     1.202593     1.194950     1.187307     1.179664
      1.172021     1.164377     1.156734     1.149091     1.141448     1.133805     1.126162     1.118519     1.110876     1.103233
      1.095590     1.087946     1.080303     1.072660     1.065017     1.057374     1.049731     1.042088     1.034445     1.026802
      1.019158     1.011515     1.003872     0.996229     0.988586     0.980943     0.973300     0.965657     0.958014     0.950371
      0.942727     0.935084     0.927441     0.919798     0.912155     0.904512     0.896869     0.889226     0.881583     0.873940
      0.866296     0.858653     0.851010     0.843367     0.835724     0.828081     0.820438     0.812795     0.805152     0.797508
      0.789865     0.782222     0.774579     0.766936     0.759293     0.751650     0.744007     0.736364     0.728721     0.721077
      0.713434     0.705791     0.698148     0.690505     0.682862     0.675219     0.667576     0.659933     0.652290     0.644646
      0.637003     0.629360     0.621717     0.614074     0.606431     0.598788     0.591145     0.583502     0.575858     0.568215
      0.560572     0.552929     0.545286     0.537643     0.530000     0.522357     0.514714     0.507071     0.499427     0.491784
      0.484141     0.476498     0.468855     0.461212     0.453569     0.445925     0.438282     0.430639     0.422996     0.415353
      0.407710     0.400067     0.392424     0.384780     0.377137     0.369494     0.361851     0.354208     0.346565     0.338922
      0.331278     0.323635     0.315992     0.308349     0.300706     0.293063     0.285420     0.277777     0.270133     0.262490
      0.254847     0.247204     0.239561     0.231918     0.224275     0.216631     0.208988     0.201345
 NY phased data points follow
   7.19836E-01  5.82184E-01  3.77602E-01  1.07796E+00  3.01225E-01  2.69833E-01  1.69399E+00  4.56695E-01  1.04129E+00  3.80238E-01
   4.46131E-01  1.14375E+00  9.87474E-01  1.48549E+00  1.64811E+00  9.84003E-01  1.34397E+00  9.10449E-02  5.65449E-01  1.35981E+00
   8.96342E-01  1.25022E+00  3.23855E-01 -8.09924E-02  3.98271E-01  9.08246E-01  6.19339E-01  2.53886E-01  8.94591E-01  9.12756E-02
   1.95538E+00 -7.52129E-02  1.35889E+00  1.00387E+00  2.69451E-01  4.74652E-01  1.85173E-01  1.21935E+00  5.58744E-01  6.57522E-01
   9.27723E-01  7.38721E-01  1.65757E+00  3.24190E-02  7.78634E-01  2.38564E-01 -6.30057E-02 -1.23342E-01  3.48302E-01  8.12251E-01
   1.10796E+00  7.93332E-01  1.26643E+00 -8.70485E-01  7.66993E-01  1.31435E+00  1.29535E+00  6.18832E-02  2.38297E-01  7.31644E-01
   7.91133E-01  3.33820E-02  3.47094E-01  2.30900E-01 -5.85947E-02 -3.63887E-01  1.01877E+00  4.26013E-01  5.09917E-01  3.96352E-01
   1.31739E+00  9.46833E-01  2.71333E-01 -3.44934E-01  1.43958E-01  1.26442E+00  1.06559E-01  1.59424E-01  9.01088E-01  1.64228E+00
  -2.66546E-02 -1.26138E-02  3.35393E-01  1.07984E+00  4.26916E-01 -1.63135E-01  8.55785E-02 -2.79124E-02  7.77900E-02  4.58389E-01
  -3.58997E-02  2.32313E-01  3.66790E-01 -1.70632E-01  1.83028E+00 -2.37678E-02 -1.03180E-01 -2.90629E-01  4.17266E-01  1.00634E+00
   4.64722E-01  4.70071E-01  1.19755E+00  1.00545E+00  8.06133E-02  7.96848E-01  5.59145E-01  1.09192E+00  6.50398E-01  4.97686E-01
   4.89990E-02  5.54003E-01 -1.62020E-01  3.73152E-01  5.44204E-01  4.75221E-02 -3.64316E-01  3.12233E-01 -6.65570E-02  4.64517E-01
  -8.84229E-01 -3.93650E-01 -2.52151E-01  4.14940E-01 -5.11401E-01  7.38567E-01  2.33479E-01  1.61371E+00 -1.53818E-01  3.40649E-01
   1.67600E+00  1.21915E-01  4.47543E-01  7.38762E-01 -8.41087E-02 -3.98486E-01  1.84709E-01 -2.23275E-01  8.27087E-01  9.10910E-01
   3.75860E-03  7.19381E-02  8.23553E-01 -3.22675E-01  9.61624E-01 -3.61041E-01 -5.34998E-01 -2.47512E-01  5.71922E-01  4.57947E-01
   1.12077E-01  4.21951E-01 -5.05613E-04  4.90709E-01  4.85581E-01  9.10051E-01  1.07109E+00  8.88302E-01  8.85099E-01  2.94225E-01
   7.95814E-01 -7.03357E-02  1.28384E-01 -3.25762E-01 -9.04162E-02 -4.58182E-01  5.59758E-01  4.37164E-01  8.81029E-01  8.57472E-01
   1.70092E-01  2.59053E-01 -2.30637E-01  3.12436E-01 -3.50701E-01  2.11943E-01  3.28013E-01 -4.85176E-01  4.92602E-01 -9.63703E-02
  -7.87155E-02 -6.41442E-01  9.35563E-02  7.48363E-02  2.33359E-01  3.76853E-01  6.94787E-01 -1.93464E-01 -5.84143E-01  6.11132E-01
   2.03763E-01 -6.68886E-01 -5.05347E-01 -8.60884E-02  2.26852E-01  4.89472E-02 -2.63363E-01  4.47429E-01  3.67978E-01 -3.83683E-01
   2.23792E-01  3.13410E-01  2.96222E-01 -1.88038E-01 -1.91239E-01  4.04262E-01  3.35907E-01  2.82215E-01  5.04720E-01  1.22746E+00
   3.61290E-01  3.49772E-01  2.57357E-01  4.47643E-01  1.30873E-03  1.68885E+00  8.86675E-01  5.79360E-01  8.69934E-01  5.52170E-01
  -1.48420E-02  5.39090E-01 -7.60575E-01  5.36998E-01 -3.44151E-01  2.66592E-01  6.65386E-01 -2.38734E-01 -2.19125E-01  6.77812E-03
   5.20394E-01 -5.41757E-01  3.79475E-01 -6.07198E-01 -1.52956E-01  1.14865E-02 -9.38046E-01 -3.15608E-01  3.89939E-01 -1.45759E-01
  -7.61219E-01  9.30129E-01  1.43026E-02  2.38382E-01  1.83387E-01  2.96777E-01  1.97261E-01 -3.82773E-01  3.72374E-01  9.83785E-01
  -2.66568E-01  7.30592E-02 -2.88108E-02 -6.58229E-01  3.46486E-01  9.69935E-01  6.90120E-01  9.81615E-01  1.33123E+00  1.04938E+00
   1.17104E+00  2.34449E+00  6.42932E-01  1.10553E+00  1.05670E+00 -2.83258E-02  3.21450E-01 -5.91485E-01  1.14759E-01 -2.96657E-01
  -2.16155E-02  1.07786E-01  1.25370E-01  6.09857E-02  2.03050E-01  3.43010E-01  1.05660E-01  3.47742E-01 -4.68054E-01 -5.91497E-01
   3.16493E-01 -1.59910E-01  1.20863E-01  4.10372E-01  4.37997E-01  1.81742E-01 -7.44034E-02 -3.91216E-03  6.19190E-01  1.09608E+00
   2.72282E-02 -6.72574E-01  3.24854E-01  6.21603E-01  1.55284E+00 -1.09250E+00 -4.97213E-01  6.05057E-01  2.64659E-01  9.43047E-02
  -5.55302E-01 -1.71113E-01 -1.60217E-01 -6.85373E-01 -3.21268E-01 -4.37561E-01 -3.10892E-01  1.51612E-01  6.09441E-01 -4.92755E-01
  -4.83669E-02  1.46090E-01  3.54404E-01 -2.83778E-01  1.79377E-01 -5.34831E-02 -9.25332E-02  3.46002E-01 -2.23485E-01  5.24361E-01
  -4.82560E-01 -7.45029E-01 -1.43008E-01 -2.41170E-01 -9.07237E-01 -1.29762E+00 -1.70789E-01 -2.10247E-01 -3.18239E-01 -2.33440E-01
  -7.23667E-01 -1.33579E+00 -1.44400E+00 -1.65754E+00 -1.64132E+00 -8.37710E-01 -1.00716E+00 -5.63846E-01 -9.72665E-01 -1.60173E+00
  -1.19226E+00 -1.73309E+00 -1.47623E+00 -6.63512E-01 -4.08323E-01 -8.30986E-01 -1.49506E+00 -1.72318E+00 -2.08043E+00 -2.14746E+00
  -1.29880E+00 -5.65320E-01 -9.63923E-01 -1.11877E+00 -1.19636E+00 -1.37525E+00 -1.43829E+00 -1.07024E+00 -1.63637E+00 -1.24652E+00
  -6.31393E-01 -5.82329E-02 -4.57694E-01 -5.22246E-01 -2.54365E-01 -7.32398E-01  1.12044E-01  1.85437E-01  7.82963E-01 -2.11796E-01
   1.02708E-01 -4.38972E-01  9.65589E-01  5.66303E-01 -5.54362E-01 -3.12232E-01 -1.56727E-02  5.49199E-01  5.29439E-01  6.62917E-01
   2.82732E-01  6.42977E-01  8.44836E-02  7.70216E-01 -2.58419E-01  6.71892E-01  8.70742E-01 -3.60280E-02  1.52988E-01  1.02426E+00
   4.20422E-01  2.23428E-01  1.34844E+00  1.42050E+00  9.38002E-01  1.31802E+00  1.54145E+00  3.99379E-01  5.17678E-01  3.55187E-01
   5.70469E-01  1.09706E+00 -6.70256E-01  8.69289E-01  8.29994E-01 -2.48507E-01  7.57033E-02  4.41840E-01 -1.98795E-01 -2.77310E-01
   2.32664E-01 -5.46880E-02  3.85294E-01  4.49888E-01 -5.79735E-02  2.06444E-01  9.87554E-01  8.56260E-01 -4.24149E-02 -6.97093E-01
   2.96144E-01 -1.63261E-01 -2.53365E-01  9.65738E-02 -5.27072E-01 -3.52855E-01 -4.60719E-01 -3.79403E-01  2.05130E-01  3.15311E-01
  -5.91876E-01  5.22257E-01 -3.16668E-01 -7.99493E-01 -8.25414E-01  2.75624E-01 -5.93077E-01 -1.03741E+00 -4.22569E-01  8.37874E-01
  -5.03547E-01  1.85790E-01  3.04884E-01 -4.26257E-01 -4.16058E-01 -3.73942E-01  3.65079E-01 -1.89068E-01 -6.01055E-01 -1.90802E-01
   5.06959E-02 -9.27519E-01 -4.17286E-01 -8.22057E-01 -1.82011E-01 -4.02334E-01 -6.28943E-01 -8.58468E-01 -1.23202E+00 -6.22578E-01
   2.01231E-01 -2.40816E-01 -7.98558E-02 -1.49461E+00  4.63122E-02 -4.60796E-01 -5.90965E-01 -1.00136E+00  5.94568E-01 -7.66661E-01
  -5.92436E-02 -6.52807E-01 -2.72815E-01 -8.92872E-01 -7.73334E-01  4.04912E-01 -4.83540E-01  1.40463E-01  5.69301E-02 -2.26086E-01
  -1.10543E+00 -5.97015E-02 -2.63502E-01 -4.03152E-02 -5.51990E-02 -1.04904E+00  1.51975E-01  2.33507E-01 -1.99933E-01 -9.54962E-01
  -9.80333E-01  3.03901E-02 -5.12226E-01 -9.72392E-01 -6.31536E-01 -5.40862E-01 -5.26192E-02 -2.80084E-01
 NY points of the fit to the data follow
   6.82788E-01  6.84514E-01  6.89947E-01  6.96045E-01  6.89751E-01  6.57893E-01  6.32004E-01  6.46316E-01  7.06068E-01  8.01556E-01
   8.92520E-01  9.29876E-01  9.03033E-01  8.43747E-01  7.80753E-01  7.16714E-01  6.51570E-01  6.01558E-01  5.88917E-01  6.02092E-01
   6.25036E-01  6.56439E-01  6.88771E-01  7.02888E-01  6.84833E-01  6.48447E-01  6.07525E-01  5.80935E-01  5.88723E-01  6.29985E-01
   6.81413E-01  7.30488E-01  7.72643E-01  7.82280E-01  7.44295E-01  6.77334E-01  6.13677E-01  5.75026E-01  5.59231E-01  5.60079E-01
   5.73157E-01  5.94505E-01  6.12868E-01  6.20599E-01  6.18509E-01  6.10166E-01  6.00797E-01  5.95124E-01  5.93268E-01  5.94700E-01
   5.96321E-01  5.95181E-01  5.92627E-01  5.90286E-01  5.86464E-01  5.80206E-01  5.73485E-01  5.68295E-01  5.64597E-01  5.61860E-01
   5.59126E-01  5.56937E-01  5.56388E-01  5.56643E-01  5.57856E-01  5.58603E-01  5.57166E-01  5.53592E-01  5.48370E-01  5.40674E-01
   5.33190E-01  5.30765E-01  5.34180E-01  5.42537E-01  5.52462E-01  5.57454E-01  5.53642E-01  5.42903E-01  5.30237E-01  5.18495E-01
   5.07400E-01  5.01690E-01  5.05129E-01  5.16193E-01  5.31104E-01  5.43908E-01  5.47856E-01  5.42531E-01  5.33693E-01  5.25066E-01
   5.16063E-01  5.04320E-01  4.88900E-01  4.74192E-01  4.63715E-01  4.53413E-01  4.24895E-01  3.73537E-01  3.65819E-01  4.27796E-01
   5.59315E-01  7.33138E-01  8.75246E-01  9.17555E-01  8.64048E-01  7.72012E-01  6.75276E-01  5.80821E-01  4.92349E-01  4.33380E-01
   4.22664E-01  4.27691E-01  4.33071E-01  4.37672E-01  4.42303E-01  4.46578E-01  4.49480E-01  4.50690E-01  4.48872E-01  4.42186E-01
   4.23018E-01  3.70590E-01  3.24228E-01  3.37222E-01  4.20993E-01  5.67229E-01  7.27293E-01  8.24370E-01  8.24592E-01  7.65602E-01
   6.89391E-01  6.10063E-01  5.26954E-01  4.44531E-01  3.88766E-01  3.56002E-01  3.29331E-01  3.11693E-01  3.04820E-01  3.06193E-01
   3.11450E-01  3.16763E-01  3.18087E-01  3.14975E-01  3.08458E-01  2.98240E-01  2.85488E-01  2.72604E-01  2.63786E-01  2.57763E-01
   2.47780E-01  2.31467E-01  2.08014E-01  1.81729E-01  1.65906E-01  1.67118E-01  1.78988E-01  1.90115E-01  1.90382E-01  1.75345E-01
   1.54070E-01  1.35890E-01  1.25010E-01  1.22178E-01  1.23778E-01  1.20831E-01  1.09916E-01  9.21776E-02  7.15914E-02  6.04562E-02
   6.67127E-02  8.05585E-02  8.68602E-02  7.82231E-02  5.90707E-02  4.31800E-02  3.96640E-02  4.28974E-02  3.83329E-02  2.36725E-02
   5.15351E-03 -6.74598E-03 -8.42617E-03 -4.37794E-03 -1.52618E-04 -2.17615E-04 -1.29332E-03  8.38500E-03  3.18934E-02  6.01292E-02
   8.44048E-02  1.01147E-01  1.06226E-01  9.31398E-02  6.40509E-02  3.13248E-02  2.45660E-03 -1.82242E-02 -2.60664E-02 -1.93028E-02
  -7.68733E-03  6.55074E-03  2.58896E-02  5.17104E-02  7.54237E-02  8.05996E-02  6.51654E-02  3.40777E-02 -1.36377E-02 -7.39855E-02
  -1.39902E-01 -1.76046E-01 -1.62389E-01 -9.55263E-02  1.05145E-02  1.22917E-01  2.05207E-01  2.30736E-01  1.92865E-01  9.78345E-02
  -3.46262E-02 -1.70809E-01 -2.57997E-01 -2.61105E-01 -2.03969E-01 -1.18828E-01 -2.94145E-02  4.77456E-02  9.81880E-02  1.04567E-01
   7.29675E-02  3.64153E-02  2.25075E-02  3.67712E-02  7.78415E-02  1.32251E-01  1.86642E-01  2.29177E-01  2.39326E-01  2.14205E-01
   1.66800E-01  1.17882E-01  9.10641E-02  1.04266E-01  1.54446E-01  2.21617E-01  2.84643E-01  3.25564E-01  3.34567E-01  2.77314E-01
   7.89241E-02 -1.33348E-01 -2.02739E-01 -7.42793E-02  2.13264E-01  5.47216E-01  8.24968E-01  9.75456E-01  1.09057E+00  1.25034E+00
   1.37394E+00  1.32582E+00  1.12222E+00  9.25317E-01  7.60536E-01  5.81469E-01  3.84515E-01  2.22681E-01  1.31276E-01  6.89225E-02
   2.15661E-02 -8.30673E-03 -2.42379E-02 -3.22358E-02 -3.75062E-02 -4.66268E-02 -6.28513E-02 -8.49885E-02 -1.09420E-01 -1.32223E-01
  -1.51428E-01 -1.63393E-01 -1.65591E-01 -1.60073E-01 -1.51312E-01 -1.41024E-01 -1.31144E-01 -1.22899E-01 -1.16074E-01 -1.09202E-01
  -9.91515E-02 -8.35687E-02 -6.38590E-02 -4.17868E-02 -1.98338E-02 -2.08579E-04  1.56534E-02  2.59322E-02  2.98698E-02  2.97591E-02
   2.74727E-02  2.29834E-02  1.57877E-02  5.60546E-03 -7.57093E-03 -2.37674E-02 -4.34688E-02 -6.63609E-02 -9.16236E-02 -1.18665E-01
  -1.46857E-01 -1.75661E-01 -2.04650E-01 -2.33489E-01 -2.61889E-01 -2.89610E-01 -3.16501E-01 -3.42564E-01 -3.68075E-01 -3.94004E-01
  -4.24019E-01 -4.66110E-01 -4.99181E-01 -4.95400E-01 -4.55429E-01 -3.90269E-01 -3.28374E-01 -3.06155E-01 -3.32773E-01 -4.01263E-01
  -5.08714E-01 -6.33985E-01 -7.56118E-01 -8.41345E-01 -8.48998E-01 -7.88486E-01 -7.11898E-01 -6.51412E-01 -6.10621E-01 -5.85926E-01
  -5.78021E-01 -5.92815E-01 -6.20330E-01 -6.40959E-01 -6.54861E-01 -6.64545E-01 -6.71050E-01 -6.74747E-01 -6.75712E-01 -6.73874E-01
  -6.69081E-01 -6.61161E-01 -6.49945E-01 -6.35305E-01 -6.17170E-01 -5.95549E-01 -5.70546E-01 -5.42383E-01 -5.11406E-01 -4.78085E-01
  -4.42999E-01 -4.06823E-01 -3.70294E-01 -3.34192E-01 -2.99288E-01 -2.66307E-01 -2.35872E-01 -2.08466E-01 -1.84393E-01 -1.63756E-01
  -1.46430E-01 -1.32062E-01 -1.20070E-01 -1.09671E-01 -9.99122E-02 -8.97278E-02 -7.79815E-02 -6.35349E-02 -4.53026E-02 -2.23283E-02
   6.16184E-03  4.06967E-02  8.15287E-02  1.28597E-01  1.81522E-01  2.39592E-01  3.01795E-01  3.66845E-01  4.33243E-01  4.99342E-01
   5.63418E-01  6.23748E-01  6.78694E-01  7.26775E-01  7.66739E-01  7.97617E-01  8.18752E-01  8.29821E-01  8.30832E-01  8.22106E-01
   8.04251E-01  7.78102E-01  7.44679E-01  7.05114E-01  6.60602E-01  6.12346E-01  5.61510E-01  5.09175E-01  4.56311E-01  4.03753E-01
   3.52204E-01  3.02220E-01  2.54228E-01  2.08526E-01  1.65305E-01  1.24656E-01  8.65995E-02  5.10947E-02  1.80594E-02 -1.26264E-02
  -4.10994E-02 -6.75119E-02 -9.20131E-02 -1.14755E-01 -1.35879E-01 -1.55525E-01 -1.73822E-01 -1.90889E-01 -2.06831E-01 -2.21745E-01
  -2.35719E-01 -2.48833E-01 -2.61160E-01 -2.72763E-01 -2.83698E-01 -2.94015E-01 -3.03760E-01 -3.12979E-01 -3.21706E-01 -3.29978E-01
  -3.37820E-01 -3.45262E-01 -3.52328E-01 -3.59044E-01 -3.65430E-01 -3.71504E-01 -3.77281E-01 -3.82780E-01 -3.88013E-01 -3.92998E-01
  -3.97745E-01 -4.02265E-01 -4.06566E-01 -4.10661E-01 -4.14559E-01 -4.18270E-01 -4.21798E-01 -4.25152E-01 -4.28337E-01 -4.31362E-01
  -4.34233E-01 -4.36956E-01 -4.39533E-01 -4.41970E-01 -4.44271E-01 -4.46444E-01 -4.48490E-01 -4.50416E-01 -4.52220E-01 -4.53908E-01
  -4.55483E-01 -4.56951E-01 -4.58313E-01 -4.59571E-01 -4.60726E-01 -4.61783E-01 -4.62743E-01 -4.63610E-01 -4.64386E-01 -4.65071E-01
  -4.65666E-01 -4.66175E-01 -4.66600E-01 -4.66944E-01 -4.67207E-01 -4.67389E-01 -4.67491E-01 -4.67518E-01 -4.67470E-01 -4.67350E-01
  -4.67156E-01 -4.66890E-01 -4.66553E-01 -4.66149E-01 -4.65678E-01 -4.65142E-01 -4.64539E-01 -4.63871E-01
 NY background values follow
     5.142E-01    5.136E-01    5.129E-01    5.122E-01    5.115E-01    5.108E-01    5.100E-01    5.091E-01    5.083E-01    5.074E-01
     5.065E-01    5.055E-01    5.046E-01    5.035E-01    5.025E-01    5.014E-01    5.003E-01    4.992E-01    4.980E-01    4.968E-01
     4.956E-01    4.943E-01    4.930E-01    4.917E-01    4.903E-01    4.889E-01    4.875E-01    4.860E-01    4.845E-01    4.830E-01
     4.815E-01    4.799E-01    4.783E-01    4.767E-01    4.750E-01    4.733E-01    4.716E-01    4.698E-01    4.681E-01    4.663E-01
     4.644E-01    4.625E-01    4.607E-01    4.587E-01    4.568E-01    4.548E-01    4.528E-01    4.507E-01    4.487E-01    4.466E-01
     4.445E-01    4.423E-01    4.401E-01    4.379E-01    4.357E-01    4.334E-01    4.312E-01    4.288E-01    4.265E-01    4.241E-01
     4.218E-01    4.193E-01    4.169E-01    4.144E-01    4.119E-01    4.094E-01    4.069E-01    4.043E-01    4.017E-01    3.991E-01
     3.964E-01    3.938E-01    3.911E-01    3.883E-01    3.856E-01    3.828E-01    3.800E-01    3.772E-01    3.744E-01    3.715E-01
     3.686E-01    3.657E-01    3.628E-01    3.598E-01    3.569E-01    3.539E-01    3.508E-01    3.478E-01    3.447E-01    3.416E-01
     3.385E-01    3.354E-01    3.322E-01    3.291E-01    3.259E-01    3.227E-01    3.194E-01    3.162E-01    3.129E-01    3.096E-01
     3.063E-01    3.029E-01    2.996E-01    2.962E-01    2.928E-01    2.894E-01    2.859E-01    2.825E-01    2.790E-01    2.755E-01
     2.720E-01    2.685E-01    2.649E-01    2.614E-01    2.578E-01    2.542E-01    2.506E-01    2.469E-01    2.433E-01    2.396E-01
     2.359E-01    2.322E-01    2.285E-01    2.248E-01    2.210E-01    2.172E-01    2.135E-01    2.097E-01    2.058E-01    2.020E-01
     1.982E-01    1.943E-01    1.904E-01    1.866E-01    1.827E-01    1.787E-01    1.748E-01    1.709E-01    1.669E-01    1.629E-01
     1.590E-01    1.550E-01    1.510E-01    1.469E-01    1.429E-01    1.389E-01    1.348E-01    1.307E-01    1.266E-01    1.226E-01
     1.185E-01    1.143E-01    1.102E-01    1.061E-01    1.019E-01    9.777E-02    9.361E-02    8.943E-02    8.524E-02    8.105E-02
     7.684E-02    7.263E-02    6.840E-02    6.417E-02    5.993E-02    5.568E-02    5.142E-02    4.716E-02    4.288E-02    3.860E-02
     3.431E-02    3.002E-02    2.571E-02    2.140E-02    1.709E-02    1.276E-02    8.434E-03    4.099E-03   -2.430E-04   -4.590E-03
    -8.943E-03   -1.330E-02   -1.766E-02   -2.203E-02   -2.641E-02   -3.078E-02   -3.516E-02   -3.955E-02   -4.394E-02   -4.833E-02
    -5.273E-02   -5.713E-02   -6.154E-02   -6.594E-02   -7.035E-02   -7.477E-02   -7.918E-02   -8.360E-02   -8.802E-02   -9.244E-02
    -9.686E-02   -1.013E-01   -1.057E-01   -1.101E-01   -1.146E-01   -1.190E-01   -1.234E-01   -1.278E-01   -1.323E-01   -1.367E-01
    -1.411E-01   -1.456E-01   -1.500E-01   -1.544E-01   -1.588E-01   -1.633E-01   -1.677E-01   -1.721E-01   -1.765E-01   -1.809E-01
    -1.853E-01   -1.898E-01   -1.942E-01   -1.986E-01   -2.030E-01   -2.074E-01   -2.118E-01   -2.162E-01   -2.205E-01   -2.249E-01
    -2.293E-01   -2.337E-01   -2.381E-01   -2.424E-01   -2.468E-01   -2.511E-01   -2.555E-01   -2.598E-01   -2.642E-01   -2.685E-01
    -2.728E-01   -2.771E-01   -2.815E-01   -2.858E-01   -2.901E-01   -2.944E-01   -2.986E-01   -3.029E-01   -3.072E-01   -3.114E-01
    -3.157E-01   -3.199E-01   -3.242E-01   -3.284E-01   -3.326E-01   -3.368E-01   -3.410E-01   -3.452E-01   -3.494E-01   -3.536E-01
    -3.577E-01   -3.619E-01   -3.660E-01   -3.701E-01   -3.743E-01   -3.784E-01   -3.825E-01   -3.866E-01   -3.906E-01   -3.947E-01
    -3.987E-01   -4.028E-01   -4.068E-01   -4.108E-01   -4.148E-01   -4.188E-01   -4.228E-01   -4.267E-01   -4.307E-01   -4.346E-01
    -4.385E-01   -4.424E-01   -4.463E-01   -4.502E-01   -4.540E-01   -4.579E-01   -4.617E-01   -4.655E-01   -4.693E-01   -4.731E-01
    -4.769E-01   -4.806E-01   -4.844E-01   -4.881E-01   -4.918E-01   -4.955E-01   -4.992E-01   -5.028E-01   -5.065E-01   -5.101E-01
    -5.137E-01   -5.173E-01   -5.208E-01   -5.244E-01   -5.279E-01   -5.314E-01   -5.349E-01   -5.384E-01   -5.418E-01   -5.453E-01
    -5.487E-01   -5.521E-01   -5.555E-01   -5.588E-01   -5.621E-01   -5.655E-01   -5.688E-01   -5.720E-01   -5.753E-01   -5.785E-01
    -5.817E-01   -5.849E-01   -5.881E-01   -5.913E-01   -5.944E-01   -5.975E-01   -6.006E-01   -6.036E-01   -6.067E-01   -6.097E-01
    -6.127E-01   -6.156E-01   -6.186E-01   -6.215E-01   -6.244E-01   -6.273E-01   -6.302E-01   -6.330E-01   -6.358E-01   -6.386E-01
    -6.413E-01   -6.441E-01   -6.468E-01   -6.495E-01   -6.521E-01   -6.547E-01   -6.574E-01   -6.599E-01   -6.625E-01   -6.650E-01
    -6.675E-01   -6.700E-01   -6.725E-01   -6.749E-01   -6.773E-01   -6.797E-01   -6.820E-01   -6.843E-01   -6.866E-01   -6.889E-01
    -6.911E-01   -6.933E-01   -6.955E-01   -6.977E-01   -6.998E-01   -7.019E-01   -7.040E-01   -7.060E-01   -7.080E-01   -7.100E-01
    -7.120E-01   -7.139E-01   -7.158E-01   -7.177E-01   -7.195E-01   -7.213E-01   -7.231E-01   -7.248E-01   -7.266E-01   -7.282E-01
    -7.299E-01   -7.315E-01   -7.331E-01   -7.347E-01   -7.362E-01   -7.377E-01   -7.392E-01   -7.407E-01   -7.421E-01   -7.435E-01
    -7.448E-01   -7.461E-01   -7.474E-01   -7.487E-01   -7.499E-01   -7.511E-01   -7.522E-01   -7.534E-01   -7.545E-01   -7.555E-01
    -7.566E-01   -7.576E-01   -7.585E-01   -7.594E-01   -7.603E-01   -7.612E-01   -7.620E-01   -7.628E-01   -7.636E-01   -7.643E-01
    -7.650E-01   -7.657E-01   -7.663E-01   -7.669E-01   -7.675E-01   -7.680E-01   -7.685E-01   -7.689E-01   -7.694E-01   -7.697E-01
    -7.701E-01   -7.704E-01   -7.707E-01   -7.709E-01   -7.712E-01   -7.713E-01   -7.715E-01   -7.716E-01   -7.716E-01   -7.717E-01
    -7.717E-01   -7.716E-01   -7.716E-01   -7.714E-01   -7.713E-01   -7.711E-01   -7.709E-01   -7.706E-01   -7.703E-01   -7.700E-01
    -7.697E-01   -7.693E-01   -7.688E-01   -7.683E-01   -7.678E-01   -7.673E-01   -7.667E-01   -7.661E-01   -7.654E-01   -7.647E-01
    -7.640E-01   -7.632E-01   -7.624E-01   -7.615E-01   -7.606E-01   -7.597E-01   -7.587E-01   -7.577E-01   -7.567E-01   -7.556E-01
    -7.545E-01   -7.533E-01   -7.522E-01   -7.509E-01   -7.497E-01   -7.483E-01   -7.470E-01   -7.456E-01   -7.442E-01   -7.427E-01
    -7.412E-01   -7.397E-01   -7.381E-01   -7.365E-01   -7.348E-01   -7.331E-01   -7.314E-01   -7.296E-01   -7.278E-01   -7.260E-01
    -7.241E-01   -7.221E-01   -7.202E-01   -7.182E-01   -7.161E-01   -7.140E-01   -7.119E-01   -7.097E-01   -7.075E-01   -7.053E-01
    -7.030E-01   -7.007E-01   -6.983E-01   -6.959E-01   -6.934E-01   -6.910E-01   -6.884E-01   -6.859E-01
 Ala      Conc. = 6.61E+00
