 LCModel (Version 6.3-1L) Copyright: S.W. Provencher.          Ref.: Magn. Reson. Med. 30:672-679 (1993).                
 Slice#3 Row#8 Col#6  PD_05_press_1_raw_act
 36 lines in following concentration table = NCONC+1
    Conc.  %SD /Cr+PCr  Metabolite                                         
   57.651 121% 4.6E-02 Ala                                                 
   64.396 253% 5.1E-02 Asp                                                 
  578.899  23%   0.461 Cr                                                  
  677.843  20%   0.539 PCr                                                 
    0.000 999%   0.000 GABA                                                
    0.000 999%   0.000 Glc                                                 
  521.041  28%   0.415 Gln                                                 
 1.30E+03  13%   1.037 Glu                                                 
  396.398   4%   0.315 GPC                                                 
    0.000 999%   0.000 PCh                                                 
  405.724  12%   0.323 GSH                                                 
  340.482  48%   0.271 Ins                                                 
    0.000 999%   0.000 Lac                                                 
 1.61E+03   4%   1.284 NAA                                                 
  213.315  33%   0.170 NAAG                                                
   17.745 103% 1.4E-02 Scyllo                                              
    0.000 999%   0.000 Tau                                                 
    0.000 999%   0.000 -CrCH2                                              
  396.398   4%   0.315 GPC+PCh                                             
 1.83E+03   3%   1.454 NAA+NAAG                                            
 1.26E+03   3%   1.000 Cr+PCr                                              
 1.82E+03  13%   1.451 Glu+Gln                                             
  542.443  43%   0.432 Lip13a                                              
    0.000 999%   0.000 Lip13b                                              
    0.000 999%   0.000 Lip09                                               
 1.03E+03  15%   0.816 MM09                                                
   75.841 129% 6.0E-02 Lip20                                               
 2.48E+03  12%   1.972 MM20                                                
  381.098  32%   0.303 MM12                                                
  435.894  52%   0.347 MM14                                                
  872.652  22%   0.694 MM17                                                
  542.443  43%   0.432 Lip13a+Lip13b                                       
 1.36E+03  21%   1.082 MM14+Lip13a+Lip13b+MM12                             
 1.03E+03  15%   0.816 MM09+Lip09                                          
 2.55E+03  12%   2.033 MM20+Lip20                                          
   6 lines in following misc. output table
  FWHM = 0.046 ppm    S/N =  14                                            
  Data shift = 0.023 ppm                                                   
  Ph:  -5 deg      -3.3 deg/ppm                                            
  alphaB,S = 1.4E+00,   1.0E+02                                            
   14 spline knots.   Ns = 6(1)                                            
  ( 8) 4 infls.   ( 5) 1 extrs.                                            
  498 points on ppm-axis = NY
      4.000000     3.992357     3.984714     3.977070     3.969427     3.961784     3.954141     3.946497     3.938854     3.931211
      3.923568     3.915925     3.908281     3.900638     3.892995     3.885352     3.877708     3.870065     3.862422     3.854779
      3.847136     3.839492     3.831849     3.824206     3.816563     3.808919     3.801276     3.793633     3.785990     3.778347
      3.770703     3.763060     3.755417     3.747774     3.740130     3.732487     3.724844     3.717201     3.709558     3.701914
      3.694271     3.686628     3.678985     3.671341     3.663698     3.656055     3.648412     3.640769     3.633125     3.625482
      3.617839     3.610196     3.602552     3.594909     3.587266     3.579623     3.571980     3.564336     3.556693     3.549050
      3.541407     3.533763     3.526120     3.518477     3.510834     3.503191     3.495547     3.487904     3.480261     3.472618
      3.464974     3.457331     3.449688     3.442045     3.434402     3.426758     3.419115     3.411472     3.403829     3.396185
      3.388542     3.380899     3.373256     3.365613     3.357969     3.350326     3.342683     3.335040     3.327396     3.319753
      3.312110     3.304467     3.296824     3.289180     3.281537     3.273894     3.266251     3.258607     3.250964     3.243321
      3.235678     3.228034     3.220391     3.212748     3.205105     3.197462     3.189818     3.182175     3.174532     3.166889
      3.159245     3.151602     3.143959     3.136316     3.128673     3.121029     3.113386     3.105743     3.098100     3.090456
      3.082813     3.075170     3.067527     3.059884     3.052240     3.044597     3.036954     3.029311     3.021667     3.014024
      3.006381     2.998738     2.991095     2.983451     2.975808     2.968165     2.960522     2.952878     2.945235     2.937592
      2.929949     2.922306     2.914662     2.907019     2.899376     2.891733     2.884089     2.876446     2.868803     2.861160
      2.853517     2.845873     2.838230     2.830587     2.822944     2.815300     2.807657     2.800014     2.792371     2.784728
      2.777084     2.769441     2.761798     2.754155     2.746511     2.738868     2.731225     2.723582     2.715939     2.708295
      2.700652     2.693009     2.685366     2.677722     2.670079     2.662436     2.654793     2.647150     2.639506     2.631863
      2.624220     2.616577     2.608933     2.601290     2.593647     2.586004     2.578361     2.570717     2.563074     2.555431
      2.547788     2.540144     2.532501     2.524858     2.517215     2.509572     2.501928     2.494285     2.486642     2.478999
      2.471355     2.463712     2.456069     2.448426     2.440783     2.433139     2.425496     2.417853     2.410210     2.402566
      2.394923     2.387280     2.379637     2.371994     2.364350     2.356707     2.349064     2.341421     2.333777     2.326134
      2.318491     2.310848     2.303205     2.295561     2.287918     2.280275     2.272632     2.264988     2.257345     2.249702
      2.242059     2.234416     2.226772     2.219129     2.211486     2.203843     2.196199     2.188556     2.180913     2.173270
      2.165627     2.157983     2.150340     2.142697     2.135054     2.127410     2.119767     2.112124     2.104481     2.096838
      2.089194     2.081551     2.073908     2.066265     2.058621     2.050978     2.043335     2.035692     2.028049     2.020405
      2.012762     2.005119     1.997476     1.989833     1.982190     1.974546     1.966903     1.959260     1.951617     1.943974
      1.936331     1.928688     1.921045     1.913402     1.905759     1.898115     1.890472     1.882829     1.875186     1.867543
      1.859900     1.852257     1.844614     1.836971     1.829327     1.821684     1.814041     1.806398     1.798755     1.791112
      1.783469     1.775826     1.768183     1.760540     1.752896     1.745253     1.737610     1.729967     1.722324     1.714681
      1.707038     1.699395     1.691752     1.684108     1.676465     1.668822     1.661179     1.653536     1.645893     1.638250
      1.630607     1.622964     1.615321     1.607677     1.600034     1.592391     1.584748     1.577105     1.569462     1.561819
      1.554176     1.546533     1.538890     1.531246     1.523603     1.515960     1.508317     1.500674     1.493031     1.485388
      1.477745     1.470102     1.462458     1.454815     1.447172     1.439529     1.431886     1.424243     1.416600     1.408957
      1.401314     1.393671     1.386027     1.378384     1.370741     1.363098     1.355455     1.347812     1.340169     1.332526
      1.324883     1.317240     1.309596     1.301953     1.294310     1.286667     1.279024     1.271381     1.263738     1.256095
      1.248452     1.240808     1.233165     1.225522     1.217879     1.210236     1.202593     1.194950     1.187307     1.179664
      1.172021     1.164377     1.156734     1.149091     1.141448     1.133805     1.126162     1.118519     1.110876     1.103233
      1.095590     1.087946     1.080303     1.072660     1.065017     1.057374     1.049731     1.042088     1.034445     1.026802
      1.019158     1.011515     1.003872     0.996229     0.988586     0.980943     0.973300     0.965657     0.958014     0.950371
      0.942727     0.935084     0.927441     0.919798     0.912155     0.904512     0.896869     0.889226     0.881583     0.873940
      0.866296     0.858653     0.851010     0.843367     0.835724     0.828081     0.820438     0.812795     0.805152     0.797508
      0.789865     0.782222     0.774579     0.766936     0.759293     0.751650     0.744007     0.736364     0.728721     0.721077
      0.713434     0.705791     0.698148     0.690505     0.682862     0.675219     0.667576     0.659933     0.652290     0.644646
      0.637003     0.629360     0.621717     0.614074     0.606431     0.598788     0.591145     0.583502     0.575858     0.568215
      0.560572     0.552929     0.545286     0.537643     0.530000     0.522357     0.514714     0.507071     0.499427     0.491784
      0.484141     0.476498     0.468855     0.461212     0.453569     0.445925     0.438282     0.430639     0.422996     0.415353
      0.407710     0.400067     0.392424     0.384780     0.377137     0.369494     0.361851     0.354208     0.346565     0.338922
      0.331278     0.323635     0.315992     0.308349     0.300706     0.293063     0.285420     0.277777     0.270133     0.262490
      0.254847     0.247204     0.239561     0.231918     0.224275     0.216631     0.208988     0.201345
 NY phased data points follow
   2.69637E+01  2.71010E+01  2.41245E+01  2.95946E+01  2.80404E+01  3.58242E+01  4.14135E+01  4.10134E+01  4.89946E+01  5.66608E+01
   5.56868E+01  5.70231E+01  5.51702E+01  4.83940E+01  4.39626E+01  4.07797E+01  3.56998E+01  3.15371E+01  3.33159E+01  2.77671E+01
   2.49688E+01  2.95925E+01  2.51974E+01  2.89301E+01  2.62102E+01  2.98485E+01  2.86432E+01  2.74099E+01  2.78452E+01  3.14710E+01
   3.39989E+01  3.34128E+01  3.80702E+01  3.34122E+01  2.91795E+01  2.51844E+01  2.67285E+01  2.22004E+01  3.00423E+01  2.47725E+01
   2.49525E+01  2.91040E+01  2.46214E+01  2.43521E+01  2.11283E+01  2.39426E+01  3.14556E+01  2.71712E+01  2.86229E+01  2.39209E+01
   2.50133E+01  2.43895E+01  1.91309E+01  2.29360E+01  1.62520E+01  1.68593E+01  2.16418E+01  1.93706E+01  2.01692E+01  2.03724E+01
   1.80417E+01  1.74221E+01  1.61931E+01  1.40664E+01  1.30223E+01  1.52337E+01  1.73532E+01  1.18200E+01  1.21840E+01  1.08740E+01
   1.14550E+01  1.56084E+01  1.44273E+01  1.54282E+01  1.62614E+01  1.31746E+01  1.19136E+01  1.56799E+01  1.19917E+01  1.14456E+01
   1.26676E+01  1.47468E+01  1.27944E+01  1.13125E+01  1.35150E+01  1.54137E+01  1.43828E+01  1.36827E+01  1.39772E+01  1.52016E+01
   1.19506E+01  1.32449E+01  1.68997E+01  1.52346E+01  1.61593E+01  1.02434E+01  1.54775E+01  1.29583E+01  1.57962E+01  2.25555E+01
   2.83107E+01  4.12263E+01  4.60542E+01  5.51320E+01  5.37683E+01  4.48246E+01  3.70082E+01  3.31943E+01  2.61130E+01  2.41344E+01
   1.90093E+01  1.89617E+01  1.44271E+01  1.47483E+01  1.38957E+01  1.40905E+01  1.01494E+01  1.16085E+01  1.45836E+01  1.49354E+01
   1.27972E+01  1.50976E+01  1.15541E+01  1.69316E+01  3.30629E+01  4.11164E+01  5.25224E+01  5.66786E+01  5.48577E+01  4.81296E+01
   4.03293E+01  3.13340E+01  2.59736E+01  2.30329E+01  1.75683E+01  1.69979E+01  1.28063E+01  1.18347E+01  1.21365E+01  1.31315E+01
   1.33610E+01  1.25595E+01  1.04596E+01  9.57386E+00  4.78456E+00  9.90092E+00  1.00361E+01  7.11459E+00  7.18772E+00  8.77504E+00
   1.25266E+01  6.71669E+00  7.88814E+00  6.79520E+00  8.24041E+00  8.96387E+00  5.64759E+00  3.79444E+00  1.16150E+01  3.85333E+00
   4.63777E+00 -1.64528E+00  1.60643E+00  5.72834E+00  2.46413E+00  5.46714E+00  4.27320E+00  4.80153E+00  6.50986E+00  1.07615E+00
   1.17442E+00  4.54553E+00  4.70170E-01 -1.29327E+00 -3.59425E+00 -1.85290E+00 -4.28875E+00  7.87635E-01  3.28754E-01  1.86772E+00
  -2.41761E-01 -4.58393E+00 -2.85463E+00 -2.34444E+00 -3.71310E+00  6.44518E-01 -2.64195E+00  2.31468E+00  2.38452E+00  6.63161E+00
   7.97865E+00  7.13167E+00  9.80210E+00  1.12449E+01  7.29974E+00  1.05783E+01  5.65286E+00  8.30840E+00  5.68411E+00  3.74020E-01
   3.92423E+00  5.17052E+00  9.41761E+00  1.25277E+01  5.57251E+00  8.40183E+00  5.34129E+00  6.74089E+00  2.56747E+00  1.51809E+00
   1.23875E+00  1.32636E+00  5.27441E+00  9.86574E+00  1.17059E+01  1.40802E+01  1.43354E+01  1.67174E+01  1.51778E+01  7.34756E+00
   5.81534E+00  2.21917E+00  3.01158E-01  3.12660E+00  4.75922E+00  5.70635E+00  1.21312E+01  1.19204E+01  1.35683E+01  1.25959E+01
   1.59913E+01  6.36398E+00  1.09863E+01  1.47247E+01  6.29548E+00  8.44073E+00  1.10865E+01  1.01405E+01  1.16828E+01  8.42525E+00
   1.24016E+01  6.05540E+00  5.24701E+00  7.24707E+00  8.24288E+00  1.23021E+01  1.31605E+01  1.29173E+01  1.63747E+01  1.21094E+01
   1.96872E+01  1.53465E+01  1.96999E+01  2.48978E+01  2.48308E+01  2.59599E+01  3.03432E+01  4.00720E+01  5.91066E+01  7.50372E+01
   8.24026E+01  7.32528E+01  5.60134E+01  4.64774E+01  3.66511E+01  2.85690E+01  2.11397E+01  1.64316E+01  1.42470E+01  1.13608E+01
   1.10849E+01  1.11983E+01  1.28864E+01  9.07316E+00  8.00431E+00  1.02786E+01  7.59199E+00  4.56621E+00  9.83909E+00  8.46495E+00
   6.93850E+00  8.30076E+00  7.14090E+00  6.91778E+00  6.31995E+00  7.36531E+00  4.07576E+00  6.23981E+00  7.80352E+00  8.41298E+00
   5.15319E+00  8.79949E+00  7.59369E+00  5.69031E+00  3.86065E+00  7.52124E+00  6.81955E+00  1.58598E+00  6.02011E+00  6.81420E+00
   8.75927E+00  1.28737E+01  9.26619E-01  8.70029E+00  1.19011E+01  8.99859E+00  9.95947E+00  7.56052E+00  1.12349E+01  1.31231E+01
   1.15501E+01  1.20012E+01  8.14872E+00  9.00043E+00  1.01248E+01  8.29180E+00  1.04829E+01  7.93148E+00  1.04640E+01  8.22511E+00
   3.93329E+00  7.14608E+00  5.05402E+00  8.26698E+00  1.04650E+01  8.83567E+00  9.47489E+00  7.78247E+00  6.79229E+00  8.45043E+00
   4.90098E+00  5.04901E+00  7.23218E+00  5.90415E+00  6.07596E+00  6.74984E+00  6.77388E+00  7.41118E+00  5.97479E+00  7.52767E+00
   5.16463E+00  8.26405E+00  5.35545E+00  1.93840E+00  9.85596E+00  1.79394E+00  9.75942E+00  6.60155E+00  7.79746E+00  1.09586E+01
   6.50366E+00  7.42420E+00  9.00586E+00  7.68597E+00  9.38094E+00  7.38838E+00  6.49904E+00  6.95515E+00  7.56215E+00  5.75584E+00
   8.25126E+00  1.06517E+01  9.52163E+00  1.10044E+01  1.01249E+01  6.58977E+00  1.03128E+01  5.61731E+00  6.83256E+00  8.43827E+00
   9.12924E+00  7.99374E+00  6.00552E+00  4.94607E+00  8.94122E+00  6.79269E+00  1.15559E+01  7.50299E+00  9.01426E+00  2.84171E+00
   7.62614E+00  1.02750E+00  3.51989E+00  2.37811E+00  6.46546E+00  7.50619E+00  6.46736E+00  6.10080E+00  3.52805E+00  7.29335E+00
   7.18130E+00  5.24663E+00  6.70689E+00  8.72747E+00  1.03712E+01  9.94060E+00  8.79723E+00  6.97559E+00  8.46997E+00  8.50719E+00
   1.24051E+01  8.48140E+00  7.93377E+00  1.18343E+01  7.95658E+00  5.37511E+00  1.16264E+01  1.02089E+01  9.48900E+00  1.15116E+01
   1.11674E+01  1.10907E+01  8.75812E+00  7.66003E+00  9.90410E+00  6.53182E+00  7.75998E+00  6.70286E+00  7.63739E+00  4.77411E+00
   5.49165E+00  8.15727E+00  5.20028E+00  4.32821E+00  2.75862E+00  8.04764E+00  5.32057E+00  5.22708E+00  6.95179E+00  6.93783E+00
   4.31197E+00  5.65727E+00  2.81820E+00  2.44605E+00  3.82754E+00  4.30687E+00  4.74118E+00  2.03120E+00  5.22878E+00  4.56407E+00
   4.79700E+00  2.69590E+00  3.40718E+00  6.95181E+00  2.38381E+00  5.84622E+00  4.34071E+00  5.80403E+00  3.76400E+00  4.73245E+00
   5.52719E+00  6.20579E+00  3.86176E+00  4.90888E+00  5.71631E+00  4.65092E+00  2.31565E+00  4.81391E+00  6.07902E+00  3.20814E+00
   2.97777E+00  2.20895E-01  5.66338E+00  3.50633E+00  7.52874E-01  4.90757E+00  4.72641E+00  4.23316E+00  3.18454E+00  6.70849E+00
   9.68430E-01  2.68394E+00  2.84352E+00  6.34420E-01  3.59277E+00  1.71992E+00  2.13835E+00  3.74980E+00  4.04713E+00  2.55069E+00
   1.53516E+00  3.58048E+00  3.41472E+00  1.65211E+00  4.11756E+00  4.51897E+00  2.55449E+00  1.31302E+00  3.53109E+00  1.81921E+00
   4.88964E+00  4.59829E+00  3.09489E+00  4.41551E+00  2.47950E+00  4.68849E+00  2.59097E+00  2.46183E+00
 NY points of the fit to the data follow
   2.73690E+01  2.72826E+01  2.74022E+01  2.79023E+01  2.91749E+01  3.17151E+01  3.60159E+01  4.18181E+01  4.80904E+01  5.32024E+01
   5.56727E+01  5.50275E+01  5.18284E+01  4.72590E+01  4.25872E+01  3.84480E+01  3.48487E+01  3.19868E+01  2.99345E+01  2.83545E+01
   2.75626E+01  2.71819E+01  2.67765E+01  2.61818E+01  2.54541E+01  2.48657E+01  2.49430E+01  2.62520E+01  2.88449E+01  3.20410E+01
   3.46497E+01  3.57342E+01  3.50985E+01  3.31411E+01  3.04575E+01  2.76571E+01  2.51395E+01  2.32299E+01  2.23318E+01  2.23497E+01
   2.26943E+01  2.30904E+01  2.34845E+01  2.39695E+01  2.44945E+01  2.49862E+01  2.52578E+01  2.50848E+01  2.45137E+01  2.37357E+01
   2.28882E+01  2.21061E+01  2.14429E+01  2.08143E+01  2.02234E+01  1.98112E+01  1.96084E+01  1.95076E+01  1.94332E+01  1.93412E+01
   1.91331E+01  1.87660E+01  1.82752E+01  1.77643E+01  1.73412E+01  1.70418E+01  1.68460E+01  1.67320E+01  1.66850E+01  1.66752E+01
   1.66736E+01  1.66307E+01  1.65129E+01  1.63194E+01  1.60807E+01  1.58389E+01  1.56175E+01  1.54185E+01  1.52313E+01  1.50511E+01
   1.49098E+01  1.48247E+01  1.48077E+01  1.48426E+01  1.48511E+01  1.47274E+01  1.44163E+01  1.39778E+01  1.35578E+01  1.32755E+01
   1.31541E+01  1.31438E+01  1.31754E+01  1.32092E+01  1.32630E+01  1.33393E+01  1.34879E+01  1.41315E+01  1.62239E+01  2.09251E+01
   2.91448E+01  3.98096E+01  4.96225E+01  5.47284E+01  5.32751E+01  4.68659E+01  3.89252E+01  3.18910E+01  2.63663E+01  2.17793E+01
   1.74435E+01  1.40580E+01  1.27183E+01  1.22805E+01  1.20745E+01  1.19603E+01  1.18925E+01  1.18497E+01  1.18368E+01  1.19020E+01
   1.21933E+01  1.32391E+01  1.60423E+01  2.18201E+01  3.13531E+01  4.31464E+01  5.34425E+01  5.82266E+01  5.59811E+01  4.89051E+01
   4.07526E+01  3.37985E+01  2.82015E+01  2.29782E+01  1.74373E+01  1.28369E+01  1.05769E+01  9.68410E+00  9.60991E+00  1.00362E+01
   1.05873E+01  1.09945E+01  1.11902E+01  1.11473E+01  1.08966E+01  1.05466E+01  1.01437E+01  9.70168E+00  9.26400E+00  8.82093E+00
   8.41407E+00  8.03684E+00  7.69849E+00  7.44356E+00  7.30764E+00  7.25246E+00  7.16631E+00  6.90918E+00  6.41501E+00  5.80248E+00
   5.32932E+00  5.23397E+00  5.50423E+00  5.85193E+00  5.95495E+00  5.68575E+00  5.16856E+00  4.66845E+00  4.33723E+00  4.09656E+00
   3.84863E+00  3.50422E+00  3.01575E+00  2.48118E+00  2.03191E+00  1.82094E+00  1.92940E+00  2.18592E+00  2.29863E+00  2.17079E+00
   1.96480E+00  1.89188E+00  1.99134E+00  2.09346E+00  2.04582E+00  2.02684E+00  2.47454E+00  3.56726E+00  5.10856E+00  6.58906E+00
   7.57624E+00  7.92958E+00  7.69694E+00  7.06206E+00  6.19533E+00  5.22006E+00  4.39625E+00  4.04875E+00  4.37058E+00  5.37051E+00
   6.83280E+00  8.39391E+00  9.67304E+00  1.03776E+01  1.02501E+01  9.21558E+00  7.28364E+00  4.83055E+00  2.53458E+00  9.90396E-01
   6.11221E-01  1.56326E+00  3.77226E+00  6.88542E+00  1.01537E+01  1.25374E+01  1.31981E+01  1.19650E+01  9.16048E+00  5.63151E+00
   2.27351E+00 -1.88879E-01 -1.08241E+00 -1.79937E-01  2.16620E+00  5.06449E+00  7.50807E+00  9.15432E+00  1.00215E+01  1.02788E+01
   1.00781E+01  9.61733E+00  9.31398E+00  9.50292E+00  1.01312E+01  1.10239E+01  1.19460E+01  1.25420E+01  1.25342E+01  1.18365E+01
   1.06610E+01  9.52620E+00  8.96865E+00  9.20687E+00  1.00463E+01  1.11645E+01  1.22414E+01  1.30217E+01  1.34583E+01  1.37845E+01
   1.43892E+01  1.55213E+01  1.74083E+01  1.99149E+01  2.30248E+01  2.73098E+01  3.42814E+01  4.56623E+01  6.00559E+01  7.25358E+01
   7.74213E+01  7.25482E+01  6.11238E+01  4.86015E+01  3.83238E+01  3.04464E+01  2.36544E+01  1.69303E+01  1.20279E+01  1.02705E+01
   9.47021E+00  8.97471E+00  8.70360E+00  8.57449E+00  8.42982E+00  8.22308E+00  7.95831E+00  7.66094E+00  7.36018E+00  7.08003E+00
   6.82391E+00  6.60173E+00  6.43226E+00  6.30988E+00  6.20682E+00  6.10902E+00  6.02226E+00  5.95952E+00  5.93071E+00  5.93655E+00
   5.98355E+00  6.07458E+00  6.19884E+00  6.34512E+00  6.50944E+00  6.69107E+00  6.89117E+00  7.11087E+00  7.35037E+00  7.61011E+00
   7.88756E+00  8.17310E+00  8.45578E+00  8.72528E+00  8.97242E+00  9.18997E+00  9.37101E+00  9.50931E+00  9.60301E+00  9.65024E+00
   9.64983E+00  9.60292E+00  9.51305E+00  9.38501E+00  9.22483E+00  9.03922E+00  8.83569E+00  8.62265E+00  8.40928E+00  8.20541E+00
   8.02276E+00  7.87785E+00  7.78303E+00  7.73748E+00  7.70662E+00  7.61478E+00  7.39354E+00  7.03445E+00  6.60668E+00  6.21806E+00
   5.94431E+00  5.81529E+00  5.85350E+00  6.05768E+00  6.38671E+00  6.76357E+00  7.06581E+00  7.22464E+00  7.28294E+00  7.30017E+00
   7.31092E+00  7.31664E+00  7.29913E+00  7.27879E+00  7.29512E+00  7.33634E+00  7.39228E+00  7.45841E+00  7.53162E+00  7.60918E+00
   7.68863E+00  7.76772E+00  7.84417E+00  7.91549E+00  7.97898E+00  8.03202E+00  8.07244E+00  8.09848E+00  8.10869E+00  8.10176E+00
   8.07671E+00  8.03316E+00  7.97147E+00  7.89254E+00  7.79762E+00  7.68812E+00  7.56582E+00  7.43300E+00  7.29237E+00  7.14677E+00
   6.99894E+00  6.85150E+00  6.70715E+00  6.56871E+00  6.43898E+00  6.32053E+00  6.21553E+00  6.12595E+00  6.05373E+00  6.00084E+00
   5.96909E+00  5.95996E+00  5.97463E+00  6.01416E+00  6.07962E+00  6.17199E+00  6.29190E+00  6.43946E+00  6.61431E+00  6.81570E+00
   7.04250E+00  7.29289E+00  7.56417E+00  7.85266E+00  8.15384E+00  8.46257E+00  8.77308E+00  9.07891E+00  9.37296E+00  9.64783E+00
   9.89624E+00  1.01114E+01  1.02872E+01  1.04183E+01  1.05003E+01  1.05303E+01  1.05070E+01  1.04307E+01  1.03032E+01  1.01278E+01
   9.90880E+00  9.65165E+00  9.36274E+00  9.04901E+00  8.71748E+00  8.37491E+00  8.02765E+00  7.68165E+00  7.34224E+00  7.01391E+00
   6.70018E+00  6.40355E+00  6.12576E+00  5.86794E+00  5.63063E+00  5.41375E+00  5.21663E+00  5.03820E+00  4.87730E+00  4.73273E+00
   4.60324E+00  4.48745E+00  4.38388E+00  4.29114E+00  4.20808E+00  4.13371E+00  4.06712E+00  4.00733E+00  3.95343E+00  3.90467E+00
   3.86053E+00  3.82059E+00  3.78439E+00  3.75141E+00  3.72118E+00  3.69342E+00  3.66796E+00  3.64465E+00  3.62323E+00  3.60338E+00
   3.58491E+00  3.56772E+00  3.55183E+00  3.53713E+00  3.52345E+00  3.51059E+00  3.49848E+00  3.48716E+00  3.47664E+00  3.46684E+00
   3.45759E+00  3.44879E+00  3.44046E+00  3.43267E+00  3.42543E+00  3.41862E+00  3.41212E+00  3.40587E+00  3.39997E+00  3.39447E+00
   3.38935E+00  3.38447E+00  3.37976E+00  3.37525E+00  3.37102E+00  3.36712E+00  3.36348E+00  3.35996E+00  3.35654E+00  3.35329E+00
   3.35030E+00  3.34756E+00  3.34497E+00  3.34245E+00  3.34001E+00  3.33775E+00  3.33574E+00  3.33392E+00  3.33217E+00  3.33046E+00
   3.32887E+00  3.32747E+00  3.32630E+00  3.32527E+00  3.32427E+00  3.32334E+00  3.32256E+00  3.32203E+00
 NY background values follow
     2.600E+01    2.585E+01    2.570E+01    2.554E+01    2.539E+01    2.523E+01    2.508E+01    2.492E+01    2.477E+01    2.461E+01
     2.446E+01    2.430E+01    2.415E+01    2.399E+01    2.384E+01    2.369E+01    2.353E+01    2.338E+01    2.322E+01    2.307E+01
     2.291E+01    2.276E+01    2.260E+01    2.245E+01    2.230E+01    2.214E+01    2.199E+01    2.184E+01    2.168E+01    2.153E+01
     2.138E+01    2.122E+01    2.107E+01    2.092E+01    2.077E+01    2.061E+01    2.046E+01    2.031E+01    2.016E+01    2.001E+01
     1.986E+01    1.971E+01    1.956E+01    1.941E+01    1.926E+01    1.911E+01    1.896E+01    1.881E+01    1.866E+01    1.852E+01
     1.837E+01    1.822E+01    1.807E+01    1.793E+01    1.778E+01    1.764E+01    1.749E+01    1.735E+01    1.720E+01    1.706E+01
     1.691E+01    1.677E+01    1.663E+01    1.649E+01    1.635E+01    1.621E+01    1.606E+01    1.593E+01    1.579E+01    1.565E+01
     1.551E+01    1.537E+01    1.523E+01    1.510E+01    1.496E+01    1.483E+01    1.469E+01    1.456E+01    1.442E+01    1.429E+01
     1.416E+01    1.403E+01    1.390E+01    1.377E+01    1.364E+01    1.351E+01    1.338E+01    1.325E+01    1.313E+01    1.300E+01
     1.288E+01    1.275E+01    1.263E+01    1.250E+01    1.238E+01    1.226E+01    1.214E+01    1.202E+01    1.190E+01    1.178E+01
     1.167E+01    1.155E+01    1.143E+01    1.132E+01    1.120E+01    1.109E+01    1.098E+01    1.087E+01    1.076E+01    1.065E+01
     1.054E+01    1.043E+01    1.032E+01    1.021E+01    1.011E+01    1.000E+01    9.896E+00    9.792E+00    9.690E+00    9.587E+00
     9.486E+00    9.386E+00    9.286E+00    9.187E+00    9.089E+00    8.992E+00    8.896E+00    8.800E+00    8.706E+00    8.612E+00
     8.519E+00    8.427E+00    8.336E+00    8.246E+00    8.156E+00    8.068E+00    7.980E+00    7.893E+00    7.807E+00    7.722E+00
     7.638E+00    7.555E+00    7.472E+00    7.390E+00    7.310E+00    7.230E+00    7.151E+00    7.073E+00    6.996E+00    6.920E+00
     6.844E+00    6.770E+00    6.696E+00    6.624E+00    6.552E+00    6.481E+00    6.411E+00    6.342E+00    6.274E+00    6.207E+00
     6.141E+00    6.075E+00    6.011E+00    5.947E+00    5.885E+00    5.823E+00    5.763E+00    5.703E+00    5.644E+00    5.586E+00
     5.529E+00    5.473E+00    5.418E+00    5.364E+00    5.311E+00    5.259E+00    5.208E+00    5.158E+00    5.108E+00    5.060E+00
     5.013E+00    4.966E+00    4.921E+00    4.876E+00    4.833E+00    4.790E+00    4.749E+00    4.708E+00    4.668E+00    4.629E+00
     4.591E+00    4.553E+00    4.517E+00    4.481E+00    4.446E+00    4.412E+00    4.378E+00    4.346E+00    4.314E+00    4.282E+00
     4.252E+00    4.222E+00    4.193E+00    4.164E+00    4.136E+00    4.109E+00    4.082E+00    4.056E+00    4.030E+00    4.005E+00
     3.981E+00    3.957E+00    3.933E+00    3.910E+00    3.888E+00    3.866E+00    3.844E+00    3.823E+00    3.803E+00    3.782E+00
     3.762E+00    3.743E+00    3.724E+00    3.705E+00    3.687E+00    3.668E+00    3.651E+00    3.633E+00    3.616E+00    3.599E+00
     3.582E+00    3.566E+00    3.550E+00    3.534E+00    3.518E+00    3.503E+00    3.488E+00    3.473E+00    3.458E+00    3.444E+00
     3.430E+00    3.416E+00    3.402E+00    3.389E+00    3.376E+00    3.363E+00    3.350E+00    3.338E+00    3.326E+00    3.314E+00
     3.302E+00    3.290E+00    3.279E+00    3.268E+00    3.257E+00    3.246E+00    3.236E+00    3.225E+00    3.215E+00    3.205E+00
     3.195E+00    3.186E+00    3.176E+00    3.167E+00    3.158E+00    3.149E+00    3.140E+00    3.132E+00    3.124E+00    3.115E+00
     3.107E+00    3.099E+00    3.092E+00    3.084E+00    3.076E+00    3.069E+00    3.062E+00    3.055E+00    3.048E+00    3.041E+00
     3.035E+00    3.028E+00    3.022E+00    3.016E+00    3.010E+00    3.004E+00    2.998E+00    2.992E+00    2.986E+00    2.981E+00
     2.976E+00    2.970E+00    2.965E+00    2.960E+00    2.955E+00    2.950E+00    2.946E+00    2.941E+00    2.937E+00    2.932E+00
     2.928E+00    2.924E+00    2.920E+00    2.916E+00    2.912E+00    2.908E+00    2.904E+00    2.901E+00    2.897E+00    2.894E+00
     2.890E+00    2.887E+00    2.884E+00    2.881E+00    2.878E+00    2.875E+00    2.872E+00    2.869E+00    2.866E+00    2.863E+00
     2.861E+00    2.858E+00    2.856E+00    2.853E+00    2.851E+00    2.849E+00    2.846E+00    2.844E+00    2.842E+00    2.840E+00
     2.838E+00    2.836E+00    2.834E+00    2.832E+00    2.831E+00    2.829E+00    2.827E+00    2.826E+00    2.824E+00    2.823E+00
     2.822E+00    2.820E+00    2.819E+00    2.818E+00    2.817E+00    2.816E+00    2.815E+00    2.814E+00    2.813E+00    2.812E+00
     2.811E+00    2.811E+00    2.810E+00    2.809E+00    2.809E+00    2.808E+00    2.808E+00    2.808E+00    2.807E+00    2.807E+00
     2.807E+00    2.807E+00    2.807E+00    2.807E+00    2.807E+00    2.807E+00    2.807E+00    2.807E+00    2.807E+00    2.808E+00
     2.808E+00    2.808E+00    2.809E+00    2.809E+00    2.810E+00    2.811E+00    2.811E+00    2.812E+00    2.813E+00    2.814E+00
     2.815E+00    2.816E+00    2.817E+00    2.818E+00    2.819E+00    2.820E+00    2.822E+00    2.823E+00    2.825E+00    2.826E+00
     2.828E+00    2.829E+00    2.831E+00    2.833E+00    2.834E+00    2.836E+00    2.838E+00    2.840E+00    2.842E+00    2.845E+00
     2.847E+00    2.849E+00    2.851E+00    2.854E+00    2.856E+00    2.859E+00    2.862E+00    2.864E+00    2.867E+00    2.870E+00
     2.873E+00    2.876E+00    2.879E+00    2.882E+00    2.885E+00    2.888E+00    2.891E+00    2.895E+00    2.898E+00    2.901E+00
     2.905E+00    2.908E+00    2.911E+00    2.915E+00    2.918E+00    2.922E+00    2.925E+00    2.929E+00    2.933E+00    2.936E+00
     2.940E+00    2.943E+00    2.947E+00    2.950E+00    2.954E+00    2.958E+00    2.961E+00    2.965E+00    2.968E+00    2.972E+00
     2.976E+00    2.979E+00    2.983E+00    2.986E+00    2.989E+00    2.993E+00    2.996E+00    3.000E+00    3.003E+00    3.006E+00
     3.009E+00    3.012E+00    3.016E+00    3.019E+00    3.022E+00    3.025E+00    3.028E+00    3.030E+00    3.033E+00    3.036E+00
     3.039E+00    3.042E+00    3.044E+00    3.047E+00    3.049E+00    3.052E+00    3.055E+00    3.057E+00    3.059E+00    3.062E+00
     3.064E+00    3.067E+00    3.069E+00    3.071E+00    3.074E+00    3.076E+00    3.078E+00    3.081E+00    3.083E+00    3.085E+00
     3.087E+00    3.090E+00    3.092E+00    3.094E+00    3.096E+00    3.099E+00    3.101E+00    3.103E+00    3.105E+00    3.107E+00
     3.110E+00    3.112E+00    3.114E+00    3.116E+00    3.119E+00    3.121E+00    3.123E+00    3.125E+00
 Ala      Conc. = 5.77E+01
