 LCModel (Version 6.3-1L) Copyright: S.W. Provencher.          Ref.: Magn. Reson. Med. 30:672-679 (1993).                
 Slice#1 Row#12 Col#3  PD_05_press_1_raw_act
 36 lines in following concentration table = NCONC+1
    Conc.  %SD /Cr+PCr  Metabolite                                         
   28.353 105%   0.291 Ala                                                 
   16.422  93%   0.169 Asp                                                 
    0.000 999%   0.000 Cr                                                  
   97.298  17%   1.000 PCr                                                 
    8.749 104% 9.0E-02 GABA                                                
    8.285 111% 8.5E-02 Glc                                                 
   74.529  80%   0.766 Gln                                                 
   92.208  71%   0.948 Glu                                                 
    0.000 999%   0.000 GPC                                                 
   15.713  39%   0.161 PCh                                                 
    5.052 427% 5.2E-02 GSH                                                 
   72.812 100%   0.748 Ins                                                 
   65.765  50%   0.676 Lac                                                 
  128.495  17%   1.321 NAA                                                 
   38.378  58%   0.394 NAAG                                                
    1.417 208% 1.5E-02 Scyllo                                              
    8.964 169% 9.2E-02 Tau                                                 
    0.000 999%   0.000 -CrCH2                                              
   15.713  39%   0.161 GPC+PCh                                             
  166.873  14%   1.715 NAA+NAAG                                            
   97.298  17%   1.000 Cr+PCr                                              
  166.737  52%   1.714 Glu+Gln                                             
  673.518  22%   6.922 Lip13a                                              
    0.000 999%   0.000 Lip13b                                              
  156.660  45%   1.610 Lip09                                               
   16.498 320%   0.170 MM09                                                
  136.044  37%   1.398 Lip20                                               
   37.321 234%   0.384 MM20                                                
    5.914 360% 6.1E-02 MM12                                                
    0.000 999%   0.000 MM14                                                
    1.715 999% 1.8E-02 MM17                                                
  673.518  22%   6.922 Lip13a+Lip13b                                       
  679.431  22%   6.983 MM14+Lip13a+Lip13b+MM12                             
  173.157  39%   1.780 MM09+Lip09                                          
  173.365  54%   1.782 MM20+Lip20                                          
   6 lines in following misc. output table
  FWHM = 0.046 ppm    S/N =   2                                            
  Data shift = 0.015 ppm                                                   
  Ph:  95 deg      17.7 deg/ppm                                            
  alphaB,S = 7.2E-01,   2.4E+01                                            
   14 spline knots.   Ns = 5(1)                                            
  ( 4) 2 infls.   ( 4) 1 extrs.                                            
  498 points on ppm-axis = NY
      4.000000     3.992357     3.984714     3.977070     3.969427     3.961784     3.954141     3.946497     3.938854     3.931211
      3.923568     3.915925     3.908281     3.900638     3.892995     3.885352     3.877708     3.870065     3.862422     3.854779
      3.847136     3.839492     3.831849     3.824206     3.816563     3.808919     3.801276     3.793633     3.785990     3.778347
      3.770703     3.763060     3.755417     3.747774     3.740130     3.732487     3.724844     3.717201     3.709558     3.701914
      3.694271     3.686628     3.678985     3.671341     3.663698     3.656055     3.648412     3.640769     3.633125     3.625482
      3.617839     3.610196     3.602552     3.594909     3.587266     3.579623     3.571980     3.564336     3.556693     3.549050
      3.541407     3.533763     3.526120     3.518477     3.510834     3.503191     3.495547     3.487904     3.480261     3.472618
      3.464974     3.457331     3.449688     3.442045     3.434402     3.426758     3.419115     3.411472     3.403829     3.396185
      3.388542     3.380899     3.373256     3.365613     3.357969     3.350326     3.342683     3.335040     3.327396     3.319753
      3.312110     3.304467     3.296824     3.289180     3.281537     3.273894     3.266251     3.258607     3.250964     3.243321
      3.235678     3.228034     3.220391     3.212748     3.205105     3.197462     3.189818     3.182175     3.174532     3.166889
      3.159245     3.151602     3.143959     3.136316     3.128673     3.121029     3.113386     3.105743     3.098100     3.090456
      3.082813     3.075170     3.067527     3.059884     3.052240     3.044597     3.036954     3.029311     3.021667     3.014024
      3.006381     2.998738     2.991095     2.983451     2.975808     2.968165     2.960522     2.952878     2.945235     2.937592
      2.929949     2.922306     2.914662     2.907019     2.899376     2.891733     2.884089     2.876446     2.868803     2.861160
      2.853517     2.845873     2.838230     2.830587     2.822944     2.815300     2.807657     2.800014     2.792371     2.784728
      2.777084     2.769441     2.761798     2.754155     2.746511     2.738868     2.731225     2.723582     2.715939     2.708295
      2.700652     2.693009     2.685366     2.677722     2.670079     2.662436     2.654793     2.647150     2.639506     2.631863
      2.624220     2.616577     2.608933     2.601290     2.593647     2.586004     2.578361     2.570717     2.563074     2.555431
      2.547788     2.540144     2.532501     2.524858     2.517215     2.509572     2.501928     2.494285     2.486642     2.478999
      2.471355     2.463712     2.456069     2.448426     2.440783     2.433139     2.425496     2.417853     2.410210     2.402566
      2.394923     2.387280     2.379637     2.371994     2.364350     2.356707     2.349064     2.341421     2.333777     2.326134
      2.318491     2.310848     2.303205     2.295561     2.287918     2.280275     2.272632     2.264988     2.257345     2.249702
      2.242059     2.234416     2.226772     2.219129     2.211486     2.203843     2.196199     2.188556     2.180913     2.173270
      2.165627     2.157983     2.150340     2.142697     2.135054     2.127410     2.119767     2.112124     2.104481     2.096838
      2.089194     2.081551     2.073908     2.066265     2.058621     2.050978     2.043335     2.035692     2.028049     2.020405
      2.012762     2.005119     1.997476     1.989833     1.982190     1.974546     1.966903     1.959260     1.951617     1.943974
      1.936331     1.928688     1.921045     1.913402     1.905759     1.898115     1.890472     1.882829     1.875186     1.867543
      1.859900     1.852257     1.844614     1.836971     1.829327     1.821684     1.814041     1.806398     1.798755     1.791112
      1.783469     1.775826     1.768183     1.760540     1.752896     1.745253     1.737610     1.729967     1.722324     1.714681
      1.707038     1.699395     1.691752     1.684108     1.676465     1.668822     1.661179     1.653536     1.645893     1.638250
      1.630607     1.622964     1.615321     1.607677     1.600034     1.592391     1.584748     1.577105     1.569462     1.561819
      1.554176     1.546533     1.538890     1.531246     1.523603     1.515960     1.508317     1.500674     1.493031     1.485388
      1.477745     1.470102     1.462458     1.454815     1.447172     1.439529     1.431886     1.424243     1.416600     1.408957
      1.401314     1.393671     1.386027     1.378384     1.370741     1.363098     1.355455     1.347812     1.340169     1.332526
      1.324883     1.317240     1.309596     1.301953     1.294310     1.286667     1.279024     1.271381     1.263738     1.256095
      1.248452     1.240808     1.233165     1.225522     1.217879     1.210236     1.202593     1.194950     1.187307     1.179664
      1.172021     1.164377     1.156734     1.149091     1.141448     1.133805     1.126162     1.118519     1.110876     1.103233
      1.095590     1.087946     1.080303     1.072660     1.065017     1.057374     1.049731     1.042088     1.034445     1.026802
      1.019158     1.011515     1.003872     0.996229     0.988586     0.980943     0.973300     0.965657     0.958014     0.950371
      0.942727     0.935084     0.927441     0.919798     0.912155     0.904512     0.896869     0.889226     0.881583     0.873940
      0.866296     0.858653     0.851010     0.843367     0.835724     0.828081     0.820438     0.812795     0.805152     0.797508
      0.789865     0.782222     0.774579     0.766936     0.759293     0.751650     0.744007     0.736364     0.728721     0.721077
      0.713434     0.705791     0.698148     0.690505     0.682862     0.675219     0.667576     0.659933     0.652290     0.644646
      0.637003     0.629360     0.621717     0.614074     0.606431     0.598788     0.591145     0.583502     0.575858     0.568215
      0.560572     0.552929     0.545286     0.537643     0.530000     0.522357     0.514714     0.507071     0.499427     0.491784
      0.484141     0.476498     0.468855     0.461212     0.453569     0.445925     0.438282     0.430639     0.422996     0.415353
      0.407710     0.400067     0.392424     0.384780     0.377137     0.369494     0.361851     0.354208     0.346565     0.338922
      0.331278     0.323635     0.315992     0.308349     0.300706     0.293063     0.285420     0.277777     0.270133     0.262490
      0.254847     0.247204     0.239561     0.231918     0.224275     0.216631     0.208988     0.201345
 NY phased data points follow
   5.53153E+01  5.80019E+01  5.51684E+01  5.46122E+01  5.58824E+01  5.30860E+01  5.31050E+01  5.18005E+01  5.45769E+01  5.34474E+01
   5.13498E+01  5.26037E+01  4.93988E+01  4.77879E+01  4.88139E+01  4.70795E+01  4.72751E+01  4.51210E+01  4.44655E+01  4.37689E+01
   4.21314E+01  4.24103E+01  4.28252E+01  4.15034E+01  4.31081E+01  4.40751E+01  4.21541E+01  4.32447E+01  4.17927E+01  4.16125E+01
   4.19942E+01  4.24051E+01  4.29662E+01  3.94307E+01  4.03001E+01  4.08087E+01  3.96547E+01  3.87458E+01  3.97638E+01  3.80922E+01
   3.78039E+01  3.79107E+01  3.90487E+01  3.68976E+01  3.73256E+01  3.97442E+01  3.63673E+01  3.94695E+01  3.65881E+01  3.38038E+01
   3.69053E+01  3.44039E+01  3.20923E+01  3.29803E+01  3.25315E+01  3.28034E+01  3.17808E+01  3.20769E+01  3.16468E+01  3.04737E+01
   3.06628E+01  3.10180E+01  3.21465E+01  3.43245E+01  3.13603E+01  2.84673E+01  3.06652E+01  2.95378E+01  2.94910E+01  2.98899E+01
   2.86432E+01  3.13646E+01  2.75312E+01  2.93027E+01  2.98504E+01  2.77592E+01  2.75148E+01  2.78840E+01  2.79169E+01  2.83721E+01
   2.57822E+01  2.76453E+01  2.65423E+01  2.47917E+01  2.52434E+01  2.55058E+01  2.59437E+01  2.56997E+01  2.40449E+01  2.39413E+01
   2.56615E+01  2.51595E+01  2.35717E+01  2.33695E+01  2.17275E+01  2.44508E+01  2.11648E+01  2.60154E+01  2.29357E+01  2.48262E+01
   2.45615E+01  2.26952E+01  2.37347E+01  2.29866E+01  2.64047E+01  2.54423E+01  2.42451E+01  2.20928E+01  2.32958E+01  2.16501E+01
   2.26407E+01  2.13489E+01  1.84909E+01  2.06240E+01  2.10009E+01  2.00385E+01  2.27384E+01  1.86125E+01  2.30561E+01  1.93363E+01
   2.01227E+01  2.09294E+01  1.96035E+01  2.10025E+01  2.15854E+01  2.16510E+01  2.19240E+01  2.03434E+01  2.34321E+01  2.13589E+01
   2.23852E+01  2.09154E+01  1.85027E+01  1.91407E+01  1.97719E+01  1.80798E+01  1.86363E+01  2.00808E+01  1.99441E+01  1.89301E+01
   1.94081E+01  1.65526E+01  1.80626E+01  1.88365E+01  1.89607E+01  1.96755E+01  1.75458E+01  1.72798E+01  1.88968E+01  1.80748E+01
   1.93083E+01  1.83326E+01  1.73975E+01  1.57417E+01  1.64535E+01  1.69644E+01  1.83429E+01  1.76647E+01  1.90280E+01  1.70558E+01
   1.46269E+01  1.76987E+01  1.44550E+01  1.58485E+01  1.84056E+01  1.65183E+01  1.61221E+01  1.68486E+01  1.56813E+01  1.80498E+01
   1.63097E+01  1.69620E+01  1.49351E+01  1.28367E+01  1.56805E+01  1.29233E+01  1.41226E+01  1.54710E+01  1.30329E+01  1.56214E+01
   1.67248E+01  1.27722E+01  1.48461E+01  1.53785E+01  1.49960E+01  1.68601E+01  1.42049E+01  1.38617E+01  1.47265E+01  1.35002E+01
   1.42312E+01  1.46052E+01  1.39312E+01  1.41220E+01  1.32249E+01  1.38193E+01  1.33505E+01  1.36612E+01  1.28601E+01  1.23954E+01
   1.40328E+01  1.53611E+01  1.04389E+01  1.34543E+01  1.18333E+01  1.20180E+01  1.34296E+01  1.12404E+01  1.25346E+01  1.00181E+01
   1.19741E+01  1.27994E+01  1.29772E+01  1.20711E+01  1.32436E+01  1.24408E+01  1.42433E+01  1.38022E+01  1.23734E+01  1.26263E+01
   1.19845E+01  1.00139E+01  1.17081E+01  1.08812E+01  1.14992E+01  1.27332E+01  1.32620E+01  1.18453E+01  1.35667E+01  1.01862E+01
   1.08096E+01  1.06274E+01  1.15302E+01  1.11656E+01  1.08739E+01  9.40211E+00  1.00616E+01  1.07960E+01  1.25454E+01  1.27091E+01
   9.58250E+00  1.09227E+01  9.67992E+00  9.36074E+00  9.76883E+00  1.10204E+01  1.14172E+01  1.04890E+01  1.05352E+01  1.00777E+01
   1.09157E+01  1.20208E+01  9.99363E+00  1.23564E+01  1.31962E+01  9.22441E+00  1.57212E+01  1.32141E+01  1.38879E+01  1.53509E+01
   1.48052E+01  1.64300E+01  1.50530E+01  1.11873E+01  8.95967E+00  8.18481E+00  9.29736E+00  7.77323E+00  8.44820E+00  9.94707E+00
   9.54978E+00  9.71619E+00  9.72787E+00  9.11512E+00  9.34037E+00  1.03178E+01  1.03276E+01  9.88115E+00  9.81016E+00  8.20391E+00
   8.44222E+00  8.53100E+00  6.61987E+00  6.58019E+00  7.31734E+00  9.22493E+00  7.43992E+00  1.08694E+01  9.84128E+00  5.38090E+00
   6.76484E+00  6.18727E+00  5.21248E+00  5.85608E+00  6.39203E+00  5.98415E+00  5.41813E+00  4.64169E+00  6.89153E+00  6.45914E+00
   5.93068E+00  7.29625E+00  6.43565E+00  5.28745E+00  9.62199E+00  6.79863E+00  7.16480E+00  7.76119E+00  7.88508E+00  6.77991E+00
   5.34598E+00  6.82627E+00  5.58800E+00  7.01279E+00  7.97075E+00  5.73654E+00  6.33447E+00  5.99719E+00  6.76183E+00  6.10443E+00
   7.93617E+00  6.90994E+00  7.97788E+00  6.15479E+00  4.66750E+00  5.59980E+00  5.20260E+00  5.35683E+00  2.62752E+00  5.00272E+00
   4.77715E+00  5.83923E+00  5.13879E+00  5.54467E+00  4.47933E+00  4.69087E+00  6.43674E+00  6.83120E+00  5.60496E+00  6.52580E+00
   7.12595E+00  6.18640E+00  9.39162E+00  6.61366E+00  6.38057E+00  8.04347E+00  5.70113E+00  6.66780E+00  6.39218E+00  6.38834E+00
   6.04336E+00  4.69769E+00  4.21469E+00  6.89402E+00  7.37823E+00  5.97244E+00  8.18312E+00  6.61218E+00  7.31091E+00  6.83437E+00
   5.93487E+00  5.84726E+00  8.53636E+00  5.64396E+00  5.70681E+00  6.88112E+00  7.52091E+00  4.11472E+00  6.88493E+00  4.25784E+00
   7.53682E+00  5.62427E+00  5.66298E+00  5.69088E+00  6.30101E+00  5.21522E+00  6.46057E+00  3.19292E+00  5.57033E+00  5.13639E+00
   3.33578E+00  5.16265E+00  9.18193E-01  5.13954E+00  4.61303E+00  5.99966E+00  3.64115E+00  5.08701E+00  4.88885E+00  5.32988E+00
   4.16428E+00  4.33083E+00  3.32073E+00  4.47157E+00  2.82962E+00  4.35248E+00  5.52534E+00  4.98601E+00  3.05892E+00  4.30256E+00
   2.08143E+00  3.69761E+00  2.96778E+00  3.96332E+00  2.05862E+00  5.61530E+00  3.99170E+00  3.34382E+00  4.43591E+00  4.13185E+00
   2.81866E+00  4.24195E+00  3.76255E+00  1.68118E+00  3.99097E+00  1.45061E+00  2.65048E+00  1.63833E+00  2.41755E+00  2.65942E+00
   4.05571E+00  2.57676E+00  2.48162E+00  1.57507E+00  1.38268E+00  9.75446E-02  1.89524E+00  1.96355E+00  2.07348E+00  3.21493E+00
   4.09567E-01  1.55083E+00  3.76164E+00  2.81606E+00  1.73750E+00  2.58106E+00  2.55196E+00  2.00619E+00  1.64943E+00  1.97882E+00
   3.96360E+00 -7.05630E-01  2.46663E+00  1.31401E+00  8.06142E-01  3.72395E+00  2.52566E+00  7.09099E-01  3.12896E+00  7.73162E-01
   1.96927E+00  1.27492E+00  1.39514E+00 -1.16117E+00  3.01200E+00 -3.75086E-01  2.58887E+00  2.18963E+00  1.72061E-01  1.14267E+00
   1.09240E+00  7.24748E-01  8.40150E-02 -8.41043E-01  1.21374E-01  4.11933E-01  1.10369E+00 -6.77088E-02  9.64444E-02  6.87908E-01
   1.01714E+00 -7.01948E-01  1.51933E+00 -5.78298E-01 -3.49049E-01 -5.38243E-01  5.95181E-01  4.35046E-01  1.68569E-01  1.94681E+00
  -3.72692E-01  6.78182E-01  1.54313E+00 -9.01084E-01  2.68182E-02 -2.18270E-01  1.68529E+00  8.76582E-02 -1.98935E+00 -1.28367E+00
   2.33728E+00  2.29597E+00  6.53061E-01  2.95096E+00  8.85401E-01  2.37429E+00  2.53960E+00  2.92096E-02
 NY points of the fit to the data follow
   5.22344E+01  5.18997E+01  5.15896E+01  5.13179E+01  5.12567E+01  5.14167E+01  5.15556E+01  5.16366E+01  5.16752E+01  5.15801E+01
   5.11700E+01  5.03221E+01  4.91737E+01  4.80691E+01  4.72882E+01  4.68372E+01  4.65079E+01  4.61676E+01  4.58348E+01  4.55259E+01
   4.52483E+01  4.49653E+01  4.46503E+01  4.42757E+01  4.38472E+01  4.33919E+01  4.29361E+01  4.25423E+01  4.22495E+01  4.20736E+01
   4.19781E+01  4.18716E+01  4.16623E+01  4.13056E+01  4.08069E+01  4.02325E+01  3.96691E+01  3.91942E+01  3.88352E+01  3.85635E+01
   3.83277E+01  3.80838E+01  3.78452E+01  3.76403E+01  3.74484E+01  3.72436E+01  3.70236E+01  3.67762E+01  3.64608E+01  3.60319E+01
   3.55045E+01  3.49699E+01  3.45286E+01  3.42104E+01  3.39769E+01  3.37716E+01  3.35619E+01  3.33458E+01  3.31194E+01  3.28797E+01
   3.26197E+01  3.23270E+01  3.19987E+01  3.16475E+01  3.13068E+01  3.10054E+01  3.07480E+01  3.05318E+01  3.03323E+01  3.01236E+01
   2.99048E+01  2.96818E+01  2.94526E+01  2.92122E+01  2.89575E+01  2.86910E+01  2.84199E+01  2.81525E+01  2.78908E+01  2.76350E+01
   2.73947E+01  2.71793E+01  2.69682E+01  2.67401E+01  2.64936E+01  2.62372E+01  2.59761E+01  2.57142E+01  2.54608E+01  2.52364E+01
   2.50571E+01  2.49188E+01  2.47929E+01  2.46457E+01  2.44746E+01  2.42884E+01  2.40999E+01  2.39282E+01  2.38540E+01  2.39905E+01
   2.41804E+01  2.43401E+01  2.44929E+01  2.46032E+01  2.45469E+01  2.41819E+01  2.35193E+01  2.27812E+01  2.22218E+01  2.19297E+01
   2.17916E+01  2.16544E+01  2.15078E+01  2.13638E+01  2.12221E+01  2.10796E+01  2.09387E+01  2.08027E+01  2.06713E+01  2.05492E+01
   2.04535E+01  2.04652E+01  2.08611E+01  2.15528E+01  2.21987E+01  2.27774E+01  2.32989E+01  2.35919E+01  2.33553E+01  2.24317E+01
   2.10956E+01  1.98998E+01  1.92199E+01  1.89991E+01  1.89030E+01  1.87744E+01  1.86500E+01  1.85397E+01  1.84423E+01  1.83573E+01
   1.82783E+01  1.81984E+01  1.81117E+01  1.80168E+01  1.79221E+01  1.78326E+01  1.77438E+01  1.76493E+01  1.75476E+01  1.74412E+01
   1.73368E+01  1.72403E+01  1.71503E+01  1.70633E+01  1.69802E+01  1.68940E+01  1.67933E+01  1.66859E+01  1.65768E+01  1.64609E+01
   1.63458E+01  1.62340E+01  1.61435E+01  1.60890E+01  1.60503E+01  1.59868E+01  1.58777E+01  1.57383E+01  1.56000E+01  1.54825E+01
   1.53836E+01  1.52831E+01  1.51758E+01  1.50783E+01  1.49808E+01  1.48760E+01  1.47694E+01  1.46857E+01  1.46358E+01  1.45978E+01
   1.45376E+01  1.44423E+01  1.43368E+01  1.42737E+01  1.42626E+01  1.42578E+01  1.42310E+01  1.41919E+01  1.41603E+01  1.41370E+01
   1.41045E+01  1.40268E+01  1.39052E+01  1.37535E+01  1.36050E+01  1.34933E+01  1.34360E+01  1.34275E+01  1.34477E+01  1.34942E+01
   1.35658E+01  1.36343E+01  1.36491E+01  1.35747E+01  1.33760E+01  1.30414E+01  1.26669E+01  1.23132E+01  1.19957E+01  1.17902E+01
   1.17773E+01  1.19976E+01  1.23424E+01  1.26561E+01  1.28554E+01  1.29128E+01  1.28230E+01  1.25623E+01  1.21474E+01  1.17192E+01
   1.14152E+01  1.12614E+01  1.12448E+01  1.13417E+01  1.15384E+01  1.17689E+01  1.19137E+01  1.19106E+01  1.17961E+01  1.16436E+01
   1.14872E+01  1.13251E+01  1.11976E+01  1.11280E+01  1.11015E+01  1.10965E+01  1.11081E+01  1.11164E+01  1.10988E+01  1.10546E+01
   1.09530E+01  1.07760E+01  1.05588E+01  1.03716E+01  1.02579E+01  1.02270E+01  1.02450E+01  1.02638E+01  1.02666E+01  1.02726E+01
   1.03428E+01  1.05827E+01  1.08999E+01  1.11860E+01  1.15092E+01  1.22198E+01  1.32963E+01  1.41212E+01  1.46000E+01  1.49501E+01
   1.52004E+01  1.50430E+01  1.40919E+01  1.24446E+01  1.07935E+01  9.76923E+00  9.42777E+00  9.34090E+00  9.21521E+00  9.09412E+00
   8.99221E+00  8.90554E+00  8.83298E+00  8.77075E+00  8.70785E+00  8.63369E+00  8.54187E+00  8.43718E+00  8.33140E+00  8.23471E+00
   8.14927E+00  8.07357E+00  8.00487E+00  7.94041E+00  7.87795E+00  7.81400E+00  7.74633E+00  7.67776E+00  7.61100E+00  7.54616E+00
   7.48371E+00  7.42460E+00  7.36885E+00  7.31376E+00  7.25573E+00  7.19441E+00  7.13162E+00  7.06948E+00  7.00951E+00  6.95171E+00
   6.89652E+00  6.84451E+00  6.79486E+00  6.74593E+00  6.69656E+00  6.64673E+00  6.59728E+00  6.54854E+00  6.50071E+00  6.45399E+00
   6.40849E+00  6.36435E+00  6.32168E+00  6.28061E+00  6.24141E+00  6.20447E+00  6.17038E+00  6.13990E+00  6.11417E+00  6.09523E+00
   6.08756E+00  6.10350E+00  6.15719E+00  6.19395E+00  6.18094E+00  6.13501E+00  6.05317E+00  5.91201E+00  5.69550E+00  5.43665E+00
   5.26330E+00  5.25987E+00  5.38345E+00  5.56640E+00  5.76972E+00  5.99297E+00  6.20628E+00  6.34456E+00  6.38222E+00  6.36545E+00
   6.37713E+00  6.48615E+00  6.72086E+00  6.95235E+00  7.06711E+00  7.09575E+00  7.03946E+00  6.83992E+00  6.44236E+00  5.91165E+00
   5.55578E+00  5.55227E+00  5.83248E+00  6.26014E+00  6.71740E+00  7.16256E+00  7.51319E+00  7.62902E+00  7.48233E+00  7.19587E+00
   6.93401E+00  6.76816E+00  6.64212E+00  6.51398E+00  6.38254E+00  6.24799E+00  6.11059E+00  5.97107E+00  5.83041E+00  5.68972E+00
   5.55013E+00  5.41269E+00  5.27840E+00  5.14816E+00  5.02274E+00  4.90280E+00  4.78882E+00  4.68118E+00  4.58016E+00  4.48594E+00
   4.39866E+00  4.31837E+00  4.24508E+00  4.17874E+00  4.11929E+00  4.06665E+00  4.02071E+00  3.98130E+00  3.94823E+00  3.92123E+00
   3.89996E+00  3.88403E+00  3.87293E+00  3.86607E+00  3.86273E+00  3.86208E+00  3.86320E+00  3.86510E+00  3.86673E+00  3.86697E+00
   3.86472E+00  3.85891E+00  3.84856E+00  3.83281E+00  3.81093E+00  3.78238E+00  3.74682E+00  3.70411E+00  3.65435E+00  3.59785E+00
   3.53507E+00  3.46668E+00  3.39342E+00  3.31615E+00  3.23580E+00  3.15329E+00  3.06951E+00  2.98530E+00  2.90143E+00  2.81858E+00
   2.73733E+00  2.65813E+00  2.58134E+00  2.50721E+00  2.43589E+00  2.36746E+00  2.30193E+00  2.23926E+00  2.17935E+00  2.12208E+00
   2.06730E+00  2.01485E+00  1.96460E+00  1.91636E+00  1.86999E+00  1.82534E+00  1.78226E+00  1.74064E+00  1.70037E+00  1.66133E+00
   1.62343E+00  1.58658E+00  1.55071E+00  1.51576E+00  1.48168E+00  1.44840E+00  1.41588E+00  1.38407E+00  1.35296E+00  1.32250E+00
   1.29267E+00  1.26344E+00  1.23478E+00  1.20669E+00  1.17913E+00  1.15210E+00  1.12555E+00  1.09948E+00  1.07386E+00  1.04867E+00
   1.02392E+00  9.99572E-01  9.75621E-01  9.52047E-01  9.28840E-01  9.05992E-01  8.83495E-01  8.61335E-01  8.39497E-01  8.17970E-01
   7.96748E-01  7.75827E-01  7.55199E-01  7.34852E-01  7.14772E-01  6.94953E-01  6.75392E-01  6.56084E-01  6.37020E-01  6.18189E-01
   5.99580E-01  5.81189E-01  5.63015E-01  5.45054E-01  5.27294E-01  5.09724E-01  4.92339E-01  4.75134E-01  4.58109E-01  4.41258E-01
   4.24568E-01  4.08030E-01  3.91640E-01  3.75396E-01  3.59295E-01  3.43329E-01  3.27486E-01  3.11757E-01
 NY background values follow
     5.212E+01    5.176E+01    5.140E+01    5.104E+01    5.068E+01    5.032E+01    4.996E+01    4.961E+01    4.925E+01    4.889E+01
     4.853E+01    4.818E+01    4.782E+01    4.746E+01    4.711E+01    4.675E+01    4.640E+01    4.605E+01    4.569E+01    4.534E+01
     4.499E+01    4.464E+01    4.429E+01    4.395E+01    4.360E+01    4.325E+01    4.291E+01    4.257E+01    4.222E+01    4.188E+01
     4.155E+01    4.121E+01    4.087E+01    4.054E+01    4.020E+01    3.987E+01    3.954E+01    3.922E+01    3.889E+01    3.857E+01
     3.824E+01    3.792E+01    3.761E+01    3.729E+01    3.698E+01    3.666E+01    3.635E+01    3.605E+01    3.574E+01    3.544E+01
     3.514E+01    3.484E+01    3.454E+01    3.425E+01    3.396E+01    3.367E+01    3.338E+01    3.310E+01    3.282E+01    3.254E+01
     3.226E+01    3.199E+01    3.171E+01    3.144E+01    3.118E+01    3.091E+01    3.065E+01    3.039E+01    3.013E+01    2.988E+01
     2.963E+01    2.938E+01    2.913E+01    2.888E+01    2.864E+01    2.840E+01    2.817E+01    2.793E+01    2.770E+01    2.747E+01
     2.725E+01    2.702E+01    2.680E+01    2.659E+01    2.637E+01    2.616E+01    2.595E+01    2.574E+01    2.554E+01    2.534E+01
     2.514E+01    2.494E+01    2.475E+01    2.456E+01    2.438E+01    2.419E+01    2.401E+01    2.383E+01    2.365E+01    2.348E+01
     2.331E+01    2.314E+01    2.297E+01    2.281E+01    2.265E+01    2.249E+01    2.233E+01    2.218E+01    2.203E+01    2.188E+01
     2.173E+01    2.158E+01    2.144E+01    2.130E+01    2.116E+01    2.102E+01    2.088E+01    2.075E+01    2.062E+01    2.049E+01
     2.036E+01    2.023E+01    2.011E+01    1.998E+01    1.986E+01    1.974E+01    1.962E+01    1.950E+01    1.939E+01    1.927E+01
     1.916E+01    1.905E+01    1.894E+01    1.883E+01    1.872E+01    1.861E+01    1.851E+01    1.840E+01    1.830E+01    1.820E+01
     1.810E+01    1.800E+01    1.790E+01    1.780E+01    1.770E+01    1.761E+01    1.751E+01    1.742E+01    1.732E+01    1.723E+01
     1.714E+01    1.705E+01    1.696E+01    1.687E+01    1.678E+01    1.669E+01    1.661E+01    1.652E+01    1.643E+01    1.635E+01
     1.627E+01    1.618E+01    1.610E+01    1.602E+01    1.593E+01    1.585E+01    1.577E+01    1.569E+01    1.561E+01    1.553E+01
     1.545E+01    1.537E+01    1.529E+01    1.521E+01    1.514E+01    1.506E+01    1.498E+01    1.490E+01    1.483E+01    1.475E+01
     1.467E+01    1.460E+01    1.452E+01    1.444E+01    1.437E+01    1.429E+01    1.421E+01    1.414E+01    1.406E+01    1.399E+01
     1.391E+01    1.384E+01    1.376E+01    1.369E+01    1.361E+01    1.354E+01    1.346E+01    1.339E+01    1.332E+01    1.324E+01
     1.317E+01    1.309E+01    1.302E+01    1.295E+01    1.288E+01    1.280E+01    1.273E+01    1.266E+01    1.258E+01    1.251E+01
     1.244E+01    1.237E+01    1.230E+01    1.222E+01    1.215E+01    1.208E+01    1.201E+01    1.194E+01    1.187E+01    1.180E+01
     1.173E+01    1.166E+01    1.159E+01    1.152E+01    1.145E+01    1.138E+01    1.131E+01    1.124E+01    1.117E+01    1.110E+01
     1.104E+01    1.097E+01    1.090E+01    1.083E+01    1.076E+01    1.070E+01    1.063E+01    1.056E+01    1.050E+01    1.043E+01
     1.036E+01    1.030E+01    1.023E+01    1.016E+01    1.010E+01    1.003E+01    9.966E+00    9.901E+00    9.836E+00    9.771E+00
     9.706E+00    9.641E+00    9.576E+00    9.512E+00    9.448E+00    9.384E+00    9.320E+00    9.256E+00    9.193E+00    9.129E+00
     9.066E+00    9.003E+00    8.940E+00    8.877E+00    8.815E+00    8.752E+00    8.690E+00    8.628E+00    8.566E+00    8.504E+00
     8.442E+00    8.380E+00    8.319E+00    8.258E+00    8.196E+00    8.135E+00    8.075E+00    8.014E+00    7.953E+00    7.893E+00
     7.833E+00    7.773E+00    7.713E+00    7.654E+00    7.595E+00    7.535E+00    7.476E+00    7.418E+00    7.359E+00    7.301E+00
     7.243E+00    7.185E+00    7.128E+00    7.071E+00    7.014E+00    6.957E+00    6.900E+00    6.844E+00    6.788E+00    6.733E+00
     6.677E+00    6.622E+00    6.567E+00    6.513E+00    6.459E+00    6.405E+00    6.351E+00    6.298E+00    6.245E+00    6.193E+00
     6.140E+00    6.089E+00    6.037E+00    5.986E+00    5.935E+00    5.885E+00    5.834E+00    5.785E+00    5.735E+00    5.686E+00
     5.638E+00    5.589E+00    5.541E+00    5.494E+00    5.447E+00    5.400E+00    5.353E+00    5.307E+00    5.261E+00    5.215E+00
     5.170E+00    5.125E+00    5.080E+00    5.036E+00    4.992E+00    4.948E+00    4.904E+00    4.861E+00    4.818E+00    4.775E+00
     4.732E+00    4.690E+00    4.648E+00    4.606E+00    4.565E+00    4.523E+00    4.482E+00    4.441E+00    4.401E+00    4.360E+00
     4.320E+00    4.280E+00    4.240E+00    4.200E+00    4.160E+00    4.121E+00    4.082E+00    4.043E+00    4.004E+00    3.965E+00
     3.927E+00    3.888E+00    3.850E+00    3.812E+00    3.774E+00    3.736E+00    3.698E+00    3.661E+00    3.623E+00    3.586E+00
     3.549E+00    3.512E+00    3.475E+00    3.438E+00    3.402E+00    3.365E+00    3.329E+00    3.292E+00    3.256E+00    3.220E+00
     3.185E+00    3.149E+00    3.113E+00    3.078E+00    3.042E+00    3.007E+00    2.972E+00    2.937E+00    2.903E+00    2.868E+00
     2.833E+00    2.799E+00    2.765E+00    2.731E+00    2.697E+00    2.663E+00    2.629E+00    2.595E+00    2.562E+00    2.528E+00
     2.495E+00    2.462E+00    2.429E+00    2.396E+00    2.363E+00    2.331E+00    2.298E+00    2.266E+00    2.234E+00    2.201E+00
     2.169E+00    2.138E+00    2.106E+00    2.074E+00    2.043E+00    2.012E+00    1.981E+00    1.950E+00    1.919E+00    1.888E+00
     1.858E+00    1.827E+00    1.797E+00    1.767E+00    1.738E+00    1.708E+00    1.679E+00    1.650E+00    1.621E+00    1.592E+00
     1.563E+00    1.535E+00    1.507E+00    1.479E+00    1.451E+00    1.424E+00    1.396E+00    1.369E+00    1.343E+00    1.316E+00
     1.290E+00    1.264E+00    1.238E+00    1.212E+00    1.187E+00    1.162E+00    1.137E+00    1.113E+00    1.089E+00    1.065E+00
     1.041E+00    1.018E+00    9.946E-01    9.718E-01    9.493E-01    9.271E-01    9.051E-01    8.834E-01    8.620E-01    8.409E-01
     8.200E-01    7.993E-01    7.789E-01    7.588E-01    7.389E-01    7.192E-01    6.998E-01    6.806E-01    6.617E-01    6.429E-01
     6.244E-01    6.061E-01    5.879E-01    5.700E-01    5.523E-01    5.348E-01    5.175E-01    5.004E-01    4.834E-01    4.667E-01
     4.501E-01    4.337E-01    4.174E-01    4.013E-01    3.854E-01    3.696E-01    3.540E-01    3.385E-01    3.232E-01    3.080E-01
     2.929E-01    2.779E-01    2.631E-01    2.484E-01    2.338E-01    2.194E-01    2.050E-01    1.908E-01
 Ala      Conc. = 2.84E+01
