 LCModel (Version 6.3-1L) Copyright: S.W. Provencher.          Ref.: Magn. Reson. Med. 30:672-679 (1993).                
 Slice#1 Row#1 Col#14  PD_05_press_1_raw_act
 36 lines in following concentration table = NCONC+1
    Conc.  %SD /Cr+PCr  Metabolite                                         
   27.244 153%   1.048 Ala                                                 
    2.202 106% 8.5E-02 Asp                                                 
   13.213 426%   0.508 Cr                                                  
   12.793 447%   0.492 PCr                                                 
    1.334 105% 5.1E-02 GABA                                                
    1.323 106% 5.1E-02 Glc                                                 
    0.000 999%   0.000 Gln                                                 
    0.000 999%   0.000 Glu                                                 
    0.000 999%   0.000 GPC                                                 
    5.446 117%   0.209 PCh                                                 
   10.072 254%   0.387 GSH                                                 
    0.000 999%   0.000 Ins                                                 
  122.993  41%   4.730 Lac                                                 
    2.029 999% 7.8E-02 NAA                                                 
    0.000 999%   0.000 NAAG                                                
    0.466 100% 1.8E-02 Scyllo                                              
    2.268 103% 8.7E-02 Tau                                                 
    4.551 140%   0.175 -CrCH2                                              
    5.446 117%   0.209 GPC+PCh                                             
    2.029 999% 7.8E-02 NAA+NAAG                                            
   26.005  66%   1.000 Cr+PCr                                              
    0.000 999%   0.000 Glu+Gln                                             
 4.28E+03   9% 164.516 Lip13a                                              
    0.000 999%   0.000 Lip13b                                              
  829.884  18%  31.912 Lip09                                               
    0.000 999%   0.000 MM09                                                
  500.914  24%  19.262 Lip20                                               
    0.000 999%   0.000 MM20                                                
   14.183 426%   0.545 MM12                                                
  557.284  29%  21.430 MM14                                                
   15.868 583%   0.610 MM17                                                
 4.28E+03   9% 164.516 Lip13a+Lip13b                                       
 4.85E+03   7% 186.491 MM14+Lip13a+Lip13b+MM12                             
  829.884  18%  31.912 MM09+Lip09                                          
  500.914  24%  19.262 MM20+Lip20                                          
   6 lines in following misc. output table
  FWHM = 0.061 ppm    S/N =   5                                            
  Data shift = 0.153 ppm                                                   
  Ph: -30 deg     -12.9 deg/ppm                                            
  alphaB,S = 8.5E+01,   2.6E+01                                            
   14 spline knots.   Ns = 5(1)                                            
   2 inflections.     1 extrema                                            
  498 points on ppm-axis = NY
      4.000000     3.992357     3.984714     3.977070     3.969427     3.961784     3.954141     3.946497     3.938854     3.931211
      3.923568     3.915925     3.908281     3.900638     3.892995     3.885352     3.877708     3.870065     3.862422     3.854779
      3.847136     3.839492     3.831849     3.824206     3.816563     3.808919     3.801276     3.793633     3.785990     3.778347
      3.770703     3.763060     3.755417     3.747774     3.740130     3.732487     3.724844     3.717201     3.709558     3.701914
      3.694271     3.686628     3.678985     3.671341     3.663698     3.656055     3.648412     3.640769     3.633125     3.625482
      3.617839     3.610196     3.602552     3.594909     3.587266     3.579623     3.571980     3.564336     3.556693     3.549050
      3.541407     3.533763     3.526120     3.518477     3.510834     3.503191     3.495547     3.487904     3.480261     3.472618
      3.464974     3.457331     3.449688     3.442045     3.434402     3.426758     3.419115     3.411472     3.403829     3.396185
      3.388542     3.380899     3.373256     3.365613     3.357969     3.350326     3.342683     3.335040     3.327396     3.319753
      3.312110     3.304467     3.296824     3.289180     3.281537     3.273894     3.266251     3.258607     3.250964     3.243321
      3.235678     3.228034     3.220391     3.212748     3.205105     3.197462     3.189818     3.182175     3.174532     3.166889
      3.159245     3.151602     3.143959     3.136316     3.128673     3.121029     3.113386     3.105743     3.098100     3.090456
      3.082813     3.075170     3.067527     3.059884     3.052240     3.044597     3.036954     3.029311     3.021667     3.014024
      3.006381     2.998738     2.991095     2.983451     2.975808     2.968165     2.960522     2.952878     2.945235     2.937592
      2.929949     2.922306     2.914662     2.907019     2.899376     2.891733     2.884089     2.876446     2.868803     2.861160
      2.853517     2.845873     2.838230     2.830587     2.822944     2.815300     2.807657     2.800014     2.792371     2.784728
      2.777084     2.769441     2.761798     2.754155     2.746511     2.738868     2.731225     2.723582     2.715939     2.708295
      2.700652     2.693009     2.685366     2.677722     2.670079     2.662436     2.654793     2.647150     2.639506     2.631863
      2.624220     2.616577     2.608933     2.601290     2.593647     2.586004     2.578361     2.570717     2.563074     2.555431
      2.547788     2.540144     2.532501     2.524858     2.517215     2.509572     2.501928     2.494285     2.486642     2.478999
      2.471355     2.463712     2.456069     2.448426     2.440783     2.433139     2.425496     2.417853     2.410210     2.402566
      2.394923     2.387280     2.379637     2.371994     2.364350     2.356707     2.349064     2.341421     2.333777     2.326134
      2.318491     2.310848     2.303205     2.295561     2.287918     2.280275     2.272632     2.264988     2.257345     2.249702
      2.242059     2.234416     2.226772     2.219129     2.211486     2.203843     2.196199     2.188556     2.180913     2.173270
      2.165627     2.157983     2.150340     2.142697     2.135054     2.127410     2.119767     2.112124     2.104481     2.096838
      2.089194     2.081551     2.073908     2.066265     2.058621     2.050978     2.043335     2.035692     2.028049     2.020405
      2.012762     2.005119     1.997476     1.989833     1.982190     1.974546     1.966903     1.959260     1.951617     1.943974
      1.936331     1.928688     1.921045     1.913402     1.905759     1.898115     1.890472     1.882829     1.875186     1.867543
      1.859900     1.852257     1.844614     1.836971     1.829327     1.821684     1.814041     1.806398     1.798755     1.791112
      1.783469     1.775826     1.768183     1.760540     1.752896     1.745253     1.737610     1.729967     1.722324     1.714681
      1.707038     1.699395     1.691752     1.684108     1.676465     1.668822     1.661179     1.653536     1.645893     1.638250
      1.630607     1.622964     1.615321     1.607677     1.600034     1.592391     1.584748     1.577105     1.569462     1.561819
      1.554176     1.546533     1.538890     1.531246     1.523603     1.515960     1.508317     1.500674     1.493031     1.485388
      1.477745     1.470102     1.462458     1.454815     1.447172     1.439529     1.431886     1.424243     1.416600     1.408957
      1.401314     1.393671     1.386027     1.378384     1.370741     1.363098     1.355455     1.347812     1.340169     1.332526
      1.324883     1.317240     1.309596     1.301953     1.294310     1.286667     1.279024     1.271381     1.263738     1.256095
      1.248452     1.240808     1.233165     1.225522     1.217879     1.210236     1.202593     1.194950     1.187307     1.179664
      1.172021     1.164377     1.156734     1.149091     1.141448     1.133805     1.126162     1.118519     1.110876     1.103233
      1.095590     1.087946     1.080303     1.072660     1.065017     1.057374     1.049731     1.042088     1.034445     1.026802
      1.019158     1.011515     1.003872     0.996229     0.988586     0.980943     0.973300     0.965657     0.958014     0.950371
      0.942727     0.935084     0.927441     0.919798     0.912155     0.904512     0.896869     0.889226     0.881583     0.873940
      0.866296     0.858653     0.851010     0.843367     0.835724     0.828081     0.820438     0.812795     0.805152     0.797508
      0.789865     0.782222     0.774579     0.766936     0.759293     0.751650     0.744007     0.736364     0.728721     0.721077
      0.713434     0.705791     0.698148     0.690505     0.682862     0.675219     0.667576     0.659933     0.652290     0.644646
      0.637003     0.629360     0.621717     0.614074     0.606431     0.598788     0.591145     0.583502     0.575858     0.568215
      0.560572     0.552929     0.545286     0.537643     0.530000     0.522357     0.514714     0.507071     0.499427     0.491784
      0.484141     0.476498     0.468855     0.461212     0.453569     0.445925     0.438282     0.430639     0.422996     0.415353
      0.407710     0.400067     0.392424     0.384780     0.377137     0.369494     0.361851     0.354208     0.346565     0.338922
      0.331278     0.323635     0.315992     0.308349     0.300706     0.293063     0.285420     0.277777     0.270133     0.262490
      0.254847     0.247204     0.239561     0.231918     0.224275     0.216631     0.208988     0.201345
 NY phased data points follow
   1.73305E-01  3.57709E+00  1.27496E-01  1.57993E-01  1.10414E-01 -7.52921E-01  4.99363E-01  1.06623E+00 -2.37677E-02  6.72151E-01
   1.80058E+00  4.65639E-01  3.01737E+00 -2.07366E+00  6.27664E-01 -1.06533E+00  1.36889E+00  8.28782E-01 -4.30168E-01  3.86352E-01
   1.75676E+00  2.08204E+00 -7.98294E-01 -1.52506E+00 -1.31306E-01  3.25663E-02  2.09648E-01  1.30356E+00  2.94622E-01  2.16628E+00
  -4.11147E-01  2.62246E+00 -8.88711E-01  1.04433E-01  1.49672E+00  6.39576E-01  1.10676E+00  7.18197E-01  1.38602E-01  4.11888E-01
   1.78163E+00 -1.48971E-01 -1.16374E+00  4.54394E-01 -1.53782E-01  1.83981E+00  1.12840E+00 -6.87845E-01  1.41261E+00  3.56251E+00
   2.37962E-01 -7.09610E-01 -1.84548E+00  3.38672E+00 -1.21820E+00  2.86733E+00  4.71060E-01 -2.14212E-02 -1.12053E+00  1.86473E+00
   1.53554E+00  1.66747E+00  3.04150E+00 -5.94304E-01  1.15336E+00  1.69022E+00  6.62014E-01  1.50629E+00  8.43400E-01 -2.88038E+00
   1.88506E+00 -8.82611E-01  1.57161E+00  1.54201E+00  1.18242E+00  3.10732E+00  2.58457E+00 -9.95099E-01 -7.16296E-01 -1.19506E+00
   2.47708E-01  1.10154E+00  4.44429E-01  1.35570E+00  3.38476E+00  3.49957E+00  1.82333E+00  3.48273E-01  1.21708E+00  1.30862E+00
   1.05989E+00  6.04706E-01  1.33786E+00  1.18032E+00 -1.90400E-01  2.62063E-01  1.66198E+00  2.20568E+00  7.78405E-01  2.39348E+00
   3.46331E+00  3.25799E-01  5.22152E-01 -1.62905E-01  4.30065E-01  2.02468E+00  9.02732E-01  4.38065E-01  2.99893E+00  1.04515E+00
  -1.26154E+00 -1.06209E-01  2.15233E+00 -1.49220E+00  9.85479E-01  2.04357E+00  1.05965E+00 -1.53663E-01  2.84722E+00 -5.73399E-01
   3.91853E+00  5.46605E-01  1.52998E+00  6.56370E-01  1.58116E-01  1.18012E+00  1.09527E+00  2.47018E+00  3.70876E+00  1.55954E+00
   1.79567E+00  2.45798E+00  2.63641E+00  1.17437E+00 -3.03314E-01  1.69579E+00 -5.48921E-02  3.74581E-01  2.42933E+00  6.43876E-01
   7.01323E-01  1.19343E+00  2.83406E-01  2.99418E+00  1.19444E+00  2.44152E+00  2.17368E+00 -1.65880E-01  1.67017E+00 -3.52442E-01
   1.27505E-03 -6.25503E-01  1.68283E+00  1.69361E+00  1.43917E+00  2.53416E+00 -4.21489E-01  2.15852E+00  1.88292E+00  1.66551E+00
   1.24825E+00 -7.04288E-01  1.92886E+00  2.35053E+00  2.90482E+00  2.10523E-01  3.11998E+00  3.82351E+00  5.16690E-01  2.64601E+00
   9.94912E-01  7.71346E-01  1.06156E+00  1.13107E+00  2.12570E-01  4.32729E-01 -2.60062E-01  1.14010E+00  1.39030E+00 -8.87602E-01
  -2.00868E-01 -6.96073E-01  1.98827E-01 -1.10990E+00  1.08106E+00  2.08662E+00  3.94475E+00  2.54753E+00 -4.28736E-01  1.99972E+00
   3.29900E+00  1.97009E+00  2.21901E+00  1.75194E+00  2.99862E+00  3.98417E-02  1.74420E+00  1.96261E+00 -2.95784E-01  1.77305E+00
   1.21122E+00  2.80762E-02  7.91490E-01  1.85390E+00  2.09192E+00 -2.42661E-01 -1.17211E+00  1.23747E+00  3.13672E+00  2.46206E+00
  -1.61674E-01  1.57836E+00  1.08409E+00 -7.30947E-01  5.16394E-01  8.86341E-01  2.77269E+00  7.14776E-01  2.83560E+00  1.65735E+00
   2.83991E+00  3.89061E-01  2.74059E+00  1.01403E+00  3.40379E+00  2.75353E+00  1.21067E+00 -2.66420E-01  1.53243E+00  2.44615E+00
   1.01305E+00  1.16408E+00  4.56472E-01  6.54841E-01  2.08195E+00  8.28005E-01  5.76982E-01  1.35167E+00  1.08922E+00  8.91816E-01
   1.47507E+00  3.28369E-01  7.33669E-01  9.00923E-01  1.62002E+00  3.52700E+00  1.01878E+00  2.87397E+00  9.24386E-01 -3.42497E-02
   7.17307E-02  1.98899E+00  6.34734E-01  2.69402E+00  1.44694E+00  1.24664E+00  2.43481E+00  2.45050E-01  1.77979E+00  2.52511E+00
   1.68597E+00  2.16453E+00  2.04368E+00  1.75618E+00  2.63765E+00  1.07959E+00  1.03460E+00 -1.31025E+00  2.59569E+00 -6.87204E-01
   3.56250E+00  3.41351E+00  2.29771E+00 -6.89488E-01 -1.35602E+00  2.20992E+00  1.45063E-01  5.27454E-01  1.77577E+00  5.07586E-01
   2.29152E+00  1.69728E+00  7.76960E-01  1.82226E+00 -2.64065E-01 -5.98449E-01  2.16978E+00  2.29439E-02  4.00618E-02  2.50644E+00
   2.63462E+00  2.18593E+00  1.21703E+00  2.25021E+00  3.79833E-01  2.17242E+00  6.72924E-01 -3.16042E-01  1.78501E+00  1.07627E+00
   1.56057E+00  1.77369E+00  9.18948E-01  3.03836E+00  1.35949E+00  3.62869E+00  1.82909E+00  3.16404E+00  9.10258E-01  7.27517E-01
   1.29144E+00  2.65557E+00  4.05348E+00  2.27662E+00  2.61235E+00  6.68062E-02  2.13776E+00  3.61419E+00  1.34544E+00  2.41110E+00
   3.59305E+00  2.71304E+00  5.25471E+00  5.12454E+00  5.49479E+00  3.07074E+00  3.76603E+00  6.64628E+00  4.15132E+00  6.84253E+00
   7.21216E+00  6.69766E+00  7.11154E+00  7.59925E+00  9.19366E+00  8.77612E+00  8.39423E+00  1.09988E+01  1.04442E+01  9.84597E+00
   1.24877E+01  1.31946E+01  1.35203E+01  1.46562E+01  1.29509E+01  1.53626E+01  1.47969E+01  1.40703E+01  1.26974E+01  1.22671E+01
   1.04167E+01  1.44779E+01  1.26602E+01  1.12336E+01  1.20847E+01  1.27594E+01  1.19732E+01  1.22332E+01  1.39957E+01  1.38498E+01
   1.21511E+01  1.21937E+01  1.10290E+01  1.12287E+01  1.49159E+01  1.02166E+01  1.06088E+01  1.25754E+01  1.20336E+01  9.69989E+00
   1.02253E+01  1.00865E+01  1.26225E+01  1.06570E+01  1.13974E+01  9.01962E+00  8.01003E+00  1.00565E+01  8.54221E+00  6.65384E+00
   1.14421E+01  6.01457E+00  7.39929E+00  7.97051E+00  6.81984E+00  5.42054E+00  6.70676E+00  6.84772E+00  7.38988E+00  7.22861E+00
   6.75299E+00  5.38626E+00  7.48563E+00  5.80474E+00  6.16721E+00  5.42788E+00  3.17449E+00  6.55244E+00  7.53618E+00  4.55137E+00
   4.42418E+00  7.92478E+00  5.12436E+00  2.68163E+00  5.83251E+00  4.86359E+00  4.49083E+00  4.41458E+00  8.11696E+00  4.29354E+00
   3.54248E+00  5.51099E+00  2.89357E+00  5.23917E+00  2.77708E+00  2.52474E+00  2.02548E+00  4.14095E+00  2.21407E+00  2.55491E+00
   1.41307E+00  3.14204E+00  1.35680E-01  3.26709E+00  1.78577E+00  2.92965E+00  2.78294E+00  1.59447E+00  2.05500E+00  2.37699E+00
   2.13269E+00  2.49967E+00  1.07262E+00  3.41923E+00  9.42515E-01  1.81873E+00 -2.36040E-01  1.30794E+00 -9.57478E-01  7.21910E-01
  -2.07383E-01  3.83772E-02  1.85092E+00  4.19124E-01  8.81690E-01 -5.78954E-01  1.07965E-01 -1.46746E+00  4.85360E-01 -2.98267E+00
  -2.83937E+00  1.92667E+00 -3.58381E-01  1.51914E-01 -6.33300E-01 -1.64321E+00 -1.31367E+00  2.41471E+00 -6.21087E-01  1.11752E+00
   1.47949E+00 -1.62106E+00 -6.05561E-01  2.49831E-02 -1.41596E+00 -3.71227E-01  1.36733E+00 -1.80104E+00  7.63816E-01 -3.27764E+00
   9.62485E-01 -6.70520E-01  1.45590E+00 -2.56102E+00  7.64975E-01 -1.87933E+00 -6.33637E-01  3.44365E-01 -1.97963E+00  2.62039E-01
   2.41397E+00 -6.80604E-01  8.80103E-01  1.20633E+00 -1.31381E+00 -4.86893E-01  4.10073E-01 -1.02402E+00 -9.04588E-01 -1.76006E+00
  -1.87089E+00 -1.86184E+00  6.24010E-02 -2.55992E-01  1.00476E+00  5.86124E-02  1.30709E+00 -7.84194E-01
 NY points of the fit to the data follow
   8.66074E-01  8.64482E-01  8.83054E-01  9.24308E-01  9.83968E-01  1.04188E+00  1.10961E+00  1.19365E+00  1.27064E+00  1.32647E+00
   1.35801E+00  1.36403E+00  1.34332E+00  1.29342E+00  1.21773E+00  1.12713E+00  1.03903E+00  9.64710E-01  9.25475E-01  9.21814E-01
   9.31744E-01  9.42030E-01  9.45147E-01  9.42792E-01  9.40239E-01  9.52586E-01  9.75711E-01  9.92002E-01  1.00312E+00  1.01564E+00
   1.02475E+00  1.02956E+00  1.03694E+00  1.03856E+00  1.01988E+00  9.77599E-01  9.29829E-01  9.05597E-01  8.91662E-01  8.69733E-01
   8.47956E-01  8.34067E-01  8.23762E-01  8.13942E-01  8.06668E-01  8.04650E-01  8.06508E-01  8.08336E-01  8.08524E-01  8.08623E-01
   8.08258E-01  8.07745E-01  8.06535E-01  8.04553E-01  8.02501E-01  8.00267E-01  7.97722E-01  7.94704E-01  7.90523E-01  7.86021E-01
   7.82309E-01  7.79383E-01  7.77172E-01  7.75170E-01  7.73270E-01  7.70969E-01  7.68017E-01  7.64824E-01  7.61724E-01  7.58643E-01
   7.56444E-01  7.55772E-01  7.55650E-01  7.55365E-01  7.54563E-01  7.52650E-01  7.49905E-01  7.46546E-01  7.42907E-01  7.39185E-01
   7.35514E-01  7.34031E-01  7.36260E-01  7.40469E-01  7.44413E-01  7.47160E-01  7.48004E-01  7.46522E-01  7.42838E-01  7.37319E-01
   7.29765E-01  7.20100E-01  7.10398E-01  7.05038E-01  7.04871E-01  7.07246E-01  7.12157E-01  7.25985E-01  7.78373E-01  8.82229E-01
   9.94585E-01  1.08866E+00  1.15812E+00  1.19719E+00  1.20249E+00  1.17936E+00  1.13395E+00  1.06030E+00  9.49666E-01  8.23230E-01
   7.39343E-01  7.15158E-01  7.09003E-01  7.07183E-01  7.07282E-01  7.08408E-01  7.10256E-01  7.13235E-01  7.17746E-01  7.25141E-01
   7.39831E-01  7.82113E-01  9.06500E-01  1.09118E+00  1.27041E+00  1.41907E+00  1.52906E+00  1.59046E+00  1.60404E+00  1.57945E+00
   1.51429E+00  1.39022E+00  1.20595E+00  1.02203E+00  9.30462E-01  9.10796E-01  9.11793E-01  9.23479E-01  9.40942E-01  9.63331E-01
   9.94517E-01  1.03451E+00  1.07497E+00  1.11041E+00  1.13891E+00  1.15894E+00  1.17255E+00  1.18351E+00  1.19444E+00  1.20744E+00
   1.21988E+00  1.23109E+00  1.24130E+00  1.25026E+00  1.25714E+00  1.26146E+00  1.26353E+00  1.26310E+00  1.25994E+00  1.25403E+00
   1.24536E+00  1.23353E+00  1.21873E+00  1.20200E+00  1.18398E+00  1.16472E+00  1.14409E+00  1.12190E+00  1.09847E+00  1.07420E+00
   1.04911E+00  1.02293E+00  9.95723E-01  9.67948E-01  9.40389E-01  9.13375E-01  8.86862E-01  8.61000E-01  8.36035E-01  8.12712E-01
   7.90726E-01  7.69693E-01  7.49816E-01  7.31256E-01  7.15159E-01  7.03976E-01  6.99191E-01  6.99881E-01  7.02811E-01  7.05209E-01
   7.06090E-01  7.04569E-01  6.97282E-01  6.82451E-01  6.65281E-01  6.49808E-01  6.37469E-01  6.31036E-01  6.33288E-01  6.43946E-01
   6.59779E-01  6.78599E-01  7.00166E-01  7.22421E-01  7.40525E-01  7.52393E-01  7.63826E-01  7.77998E-01  7.94432E-01  8.12420E-01
   8.31810E-01  8.53000E-01  8.75997E-01  9.00562E-01  9.26681E-01  9.54642E-01  9.84712E-01  1.01676E+00  1.05075E+00  1.08652E+00
   1.12328E+00  1.15971E+00  1.19478E+00  1.22813E+00  1.25921E+00  1.28701E+00  1.30950E+00  1.32576E+00  1.33908E+00  1.35259E+00
   1.36801E+00  1.38712E+00  1.41192E+00  1.44209E+00  1.47161E+00  1.49670E+00  1.51807E+00  1.53536E+00  1.54550E+00  1.54870E+00
   1.55216E+00  1.56164E+00  1.57755E+00  1.60091E+00  1.63548E+00  1.68080E+00  1.72837E+00  1.77220E+00  1.81104E+00  1.84431E+00
   1.87045E+00  1.88854E+00  1.90161E+00  1.91320E+00  1.92339E+00  1.93443E+00  1.94727E+00  1.95643E+00  1.95824E+00  1.95104E+00
   1.93385E+00  1.90645E+00  1.87023E+00  1.82669E+00  1.77584E+00  1.71723E+00  1.65436E+00  1.59543E+00  1.54347E+00  1.49421E+00
   1.44687E+00  1.40200E+00  1.36006E+00  1.32117E+00  1.28547E+00  1.25318E+00  1.22404E+00  1.19782E+00  1.17465E+00  1.15464E+00
   1.13788E+00  1.12453E+00  1.11465E+00  1.10840E+00  1.10583E+00  1.10670E+00  1.11077E+00  1.11791E+00  1.12794E+00  1.14070E+00
   1.15600E+00  1.17371E+00  1.19387E+00  1.21654E+00  1.24168E+00  1.26924E+00  1.29924E+00  1.33166E+00  1.36644E+00  1.40361E+00
   1.44322E+00  1.48533E+00  1.53005E+00  1.57756E+00  1.62810E+00  1.68201E+00  1.73976E+00  1.80187E+00  1.86900E+00  1.94190E+00
   2.02148E+00  2.10882E+00  2.20515E+00  2.31181E+00  2.43034E+00  2.56241E+00  2.70991E+00  2.87497E+00  3.06000E+00  3.26793E+00
   3.50304E+00  3.77379E+00  4.09270E+00  4.43246E+00  4.75717E+00  5.06721E+00  5.36973E+00  5.66647E+00  5.96004E+00  6.25499E+00
   6.58058E+00  6.96509E+00  7.40182E+00  7.90027E+00  8.47024E+00  9.06062E+00  9.62337E+00  1.01555E+01  1.06611E+01  1.11363E+01
   1.15685E+01  1.19779E+01  1.24688E+01  1.29964E+01  1.33516E+01  1.35005E+01  1.34773E+01  1.32943E+01  1.29666E+01  1.25379E+01
   1.21866E+01  1.20154E+01  1.19750E+01  1.21245E+01  1.25648E+01  1.31325E+01  1.35803E+01  1.38932E+01  1.40906E+01  1.41327E+01
   1.39262E+01  1.34771E+01  1.30133E+01  1.26494E+01  1.23221E+01  1.20017E+01  1.16785E+01  1.13493E+01  1.10142E+01  1.06747E+01
   1.03329E+01  9.99157E+00  9.65346E+00  9.32140E+00  8.99816E+00  8.68636E+00  8.38836E+00  8.10620E+00  7.84158E+00  7.59587E+00
   7.37016E+00  7.16515E+00  6.98121E+00  6.81831E+00  6.67610E+00  6.55388E+00  6.45068E+00  6.36522E+00  6.29589E+00  6.24077E+00
   6.19776E+00  6.16453E+00  6.13859E+00  6.11734E+00  6.09810E+00  6.07815E+00  6.05487E+00  6.02580E+00  5.98867E+00  5.94145E+00
   5.88243E+00  5.81026E+00  5.72401E+00  5.62318E+00  5.50769E+00  5.37786E+00  5.23439E+00  5.07831E+00  4.91100E+00  4.73403E+00
   4.54917E+00  4.35825E+00  4.16315E+00  3.96575E+00  3.76783E+00  3.57108E+00  3.37699E+00  3.18689E+00  3.00190E+00  2.82296E+00
   2.65078E+00  2.48592E+00  2.32872E+00  2.17936E+00  2.03790E+00  1.90428E+00  1.77835E+00  1.65987E+00  1.54854E+00  1.44402E+00
   1.34595E+00  1.25396E+00  1.16767E+00  1.08671E+00  1.01069E+00  9.39262E-01  8.72102E-01  8.08896E-01  7.49351E-01  6.93179E-01
   6.40122E-01  5.89945E-01  5.42443E-01  4.97416E-01  4.54681E-01  4.14059E-01  3.75398E-01  3.38561E-01  3.03428E-01  2.69880E-01
   2.37805E-01  2.07094E-01  1.77663E-01  1.49432E-01  1.22332E-01  9.62855E-02  7.12235E-02  4.70810E-02  2.38102E-02  1.36305E-03
  -2.03034E-02 -4.12422E-02 -6.14964E-02 -8.11061E-02 -1.00097E-01 -1.18501E-01 -1.36348E-01 -1.53676E-01 -1.70510E-01 -1.86876E-01
  -2.02787E-01 -2.18267E-01 -2.33339E-01 -2.48028E-01 -2.62351E-01 -2.76323E-01 -2.89951E-01 -3.03255E-01 -3.16253E-01 -3.28962E-01
  -3.41391E-01 -3.53549E-01 -3.65442E-01 -3.77088E-01 -3.88498E-01 -3.99685E-01 -4.10653E-01 -4.21406E-01 -4.31953E-01 -4.42307E-01
  -4.52477E-01 -4.62471E-01 -4.72287E-01 -4.81933E-01 -4.91414E-01 -5.00744E-01 -5.09925E-01 -5.18963E-01
 NY background values follow
     8.942E-01    8.907E-01    8.871E-01    8.836E-01    8.801E-01    8.766E-01    8.731E-01    8.695E-01    8.660E-01    8.625E-01
     8.590E-01    8.554E-01    8.519E-01    8.484E-01    8.449E-01    8.414E-01    8.378E-01    8.343E-01    8.308E-01    8.273E-01
     8.238E-01    8.202E-01    8.167E-01    8.132E-01    8.097E-01    8.062E-01    8.026E-01    7.991E-01    7.956E-01    7.921E-01
     7.886E-01    7.850E-01    7.815E-01    7.780E-01    7.745E-01    7.710E-01    7.674E-01    7.639E-01    7.604E-01    7.569E-01
     7.534E-01    7.498E-01    7.463E-01    7.428E-01    7.393E-01    7.358E-01    7.322E-01    7.287E-01    7.252E-01    7.217E-01
     7.182E-01    7.146E-01    7.111E-01    7.076E-01    7.041E-01    7.005E-01    6.970E-01    6.935E-01    6.900E-01    6.865E-01
     6.829E-01    6.794E-01    6.759E-01    6.724E-01    6.689E-01    6.653E-01    6.618E-01    6.583E-01    6.548E-01    6.513E-01
     6.477E-01    6.442E-01    6.407E-01    6.372E-01    6.337E-01    6.301E-01    6.266E-01    6.231E-01    6.196E-01    6.161E-01
     6.125E-01    6.090E-01    6.055E-01    6.020E-01    5.985E-01    5.949E-01    5.914E-01    5.879E-01    5.844E-01    5.808E-01
     5.773E-01    5.738E-01    5.703E-01    5.668E-01    5.632E-01    5.597E-01    5.562E-01    5.527E-01    5.492E-01    5.456E-01
     5.421E-01    5.386E-01    5.351E-01    5.316E-01    5.280E-01    5.245E-01    5.210E-01    5.175E-01    5.139E-01    5.104E-01
     5.069E-01    5.034E-01    4.999E-01    4.963E-01    4.928E-01    4.893E-01    4.858E-01    4.823E-01    4.787E-01    4.752E-01
     4.717E-01    4.682E-01    4.647E-01    4.611E-01    4.576E-01    4.541E-01    4.506E-01    4.470E-01    4.435E-01    4.400E-01
     4.365E-01    4.330E-01    4.294E-01    4.259E-01    4.224E-01    4.189E-01    4.154E-01    4.118E-01    4.083E-01    4.048E-01
     4.013E-01    3.977E-01    3.942E-01    3.907E-01    3.872E-01    3.837E-01    3.801E-01    3.766E-01    3.731E-01    3.696E-01
     3.661E-01    3.625E-01    3.590E-01    3.555E-01    3.520E-01    3.484E-01    3.449E-01    3.414E-01    3.379E-01    3.344E-01
     3.308E-01    3.273E-01    3.238E-01    3.203E-01    3.167E-01    3.132E-01    3.097E-01    3.062E-01    3.027E-01    2.991E-01
     2.956E-01    2.921E-01    2.886E-01    2.850E-01    2.815E-01    2.780E-01    2.745E-01    2.710E-01    2.674E-01    2.639E-01
     2.604E-01    2.569E-01    2.533E-01    2.498E-01    2.463E-01    2.428E-01    2.393E-01    2.357E-01    2.322E-01    2.287E-01
     2.252E-01    2.216E-01    2.181E-01    2.146E-01    2.111E-01    2.076E-01    2.040E-01    2.005E-01    1.970E-01    1.935E-01
     1.899E-01    1.864E-01    1.829E-01    1.794E-01    1.759E-01    1.723E-01    1.688E-01    1.653E-01    1.618E-01    1.582E-01
     1.547E-01    1.512E-01    1.477E-01    1.441E-01    1.406E-01    1.371E-01    1.336E-01    1.301E-01    1.265E-01    1.230E-01
     1.195E-01    1.160E-01    1.124E-01    1.089E-01    1.054E-01    1.019E-01    9.835E-02    9.483E-02    9.130E-02    8.778E-02
     8.426E-02    8.073E-02    7.721E-02    7.369E-02    7.017E-02    6.664E-02    6.312E-02    5.960E-02    5.607E-02    5.255E-02
     4.903E-02    4.550E-02    4.198E-02    3.846E-02    3.493E-02    3.141E-02    2.789E-02    2.436E-02    2.084E-02    1.732E-02
     1.379E-02    1.027E-02    6.747E-03    3.224E-03   -2.993E-04   -3.823E-03   -7.346E-03   -1.087E-02   -1.439E-02   -1.792E-02
    -2.144E-02   -2.496E-02   -2.849E-02   -3.201E-02   -3.553E-02   -3.906E-02   -4.258E-02   -4.610E-02   -4.963E-02   -5.315E-02
    -5.667E-02   -6.020E-02   -6.372E-02   -6.724E-02   -7.077E-02   -7.429E-02   -7.781E-02   -8.134E-02   -8.486E-02   -8.839E-02
    -9.191E-02   -9.543E-02   -9.896E-02   -1.025E-01   -1.060E-01   -1.095E-01   -1.131E-01   -1.166E-01   -1.201E-01   -1.236E-01
    -1.271E-01   -1.307E-01   -1.342E-01   -1.377E-01   -1.412E-01   -1.448E-01   -1.483E-01   -1.518E-01   -1.553E-01   -1.589E-01
    -1.624E-01   -1.659E-01   -1.694E-01   -1.730E-01   -1.765E-01   -1.800E-01   -1.835E-01   -1.870E-01   -1.906E-01   -1.941E-01
    -1.976E-01   -2.011E-01   -2.047E-01   -2.082E-01   -2.117E-01   -2.152E-01   -2.188E-01   -2.223E-01   -2.258E-01   -2.293E-01
    -2.329E-01   -2.364E-01   -2.399E-01   -2.434E-01   -2.470E-01   -2.505E-01   -2.540E-01   -2.575E-01   -2.610E-01   -2.646E-01
    -2.681E-01   -2.716E-01   -2.751E-01   -2.787E-01   -2.822E-01   -2.857E-01   -2.892E-01   -2.928E-01   -2.963E-01   -2.998E-01
    -3.033E-01   -3.069E-01   -3.104E-01   -3.139E-01   -3.174E-01   -3.210E-01   -3.245E-01   -3.280E-01   -3.315E-01   -3.351E-01
    -3.386E-01   -3.421E-01   -3.456E-01   -3.491E-01   -3.527E-01   -3.562E-01   -3.597E-01   -3.632E-01   -3.668E-01   -3.703E-01
    -3.738E-01   -3.773E-01   -3.809E-01   -3.844E-01   -3.879E-01   -3.914E-01   -3.950E-01   -3.985E-01   -4.020E-01   -4.055E-01
    -4.091E-01   -4.126E-01   -4.161E-01   -4.196E-01   -4.232E-01   -4.267E-01   -4.302E-01   -4.337E-01   -4.373E-01   -4.408E-01
    -4.443E-01   -4.478E-01   -4.513E-01   -4.549E-01   -4.584E-01   -4.619E-01   -4.654E-01   -4.690E-01   -4.725E-01   -4.760E-01
    -4.795E-01   -4.831E-01   -4.866E-01   -4.901E-01   -4.936E-01   -4.972E-01   -5.007E-01   -5.042E-01   -5.077E-01   -5.113E-01
    -5.148E-01   -5.183E-01   -5.218E-01   -5.254E-01   -5.289E-01   -5.324E-01   -5.359E-01   -5.395E-01   -5.430E-01   -5.465E-01
    -5.500E-01   -5.536E-01   -5.571E-01   -5.606E-01   -5.641E-01   -5.676E-01   -5.712E-01   -5.747E-01   -5.782E-01   -5.817E-01
    -5.853E-01   -5.888E-01   -5.923E-01   -5.958E-01   -5.994E-01   -6.029E-01   -6.064E-01   -6.099E-01   -6.135E-01   -6.170E-01
    -6.205E-01   -6.240E-01   -6.276E-01   -6.311E-01   -6.346E-01   -6.381E-01   -6.417E-01   -6.452E-01   -6.487E-01   -6.522E-01
    -6.558E-01   -6.593E-01   -6.628E-01   -6.663E-01   -6.699E-01   -6.734E-01   -6.769E-01   -6.804E-01   -6.840E-01   -6.875E-01
    -6.910E-01   -6.945E-01   -6.980E-01   -7.016E-01   -7.051E-01   -7.086E-01   -7.121E-01   -7.157E-01   -7.192E-01   -7.227E-01
    -7.262E-01   -7.298E-01   -7.333E-01   -7.368E-01   -7.403E-01   -7.439E-01   -7.474E-01   -7.509E-01   -7.544E-01   -7.580E-01
    -7.615E-01   -7.650E-01   -7.685E-01   -7.721E-01   -7.756E-01   -7.791E-01   -7.826E-01   -7.862E-01   -7.897E-01   -7.932E-01
    -7.967E-01   -8.003E-01   -8.038E-01   -8.073E-01   -8.108E-01   -8.144E-01   -8.179E-01   -8.214E-01   -8.249E-01   -8.284E-01
    -8.320E-01   -8.355E-01   -8.390E-01   -8.425E-01   -8.461E-01   -8.496E-01   -8.531E-01   -8.566E-01
 Ala      Conc. = 2.72E+01
