 LCModel (Version 6.3-1L) Copyright: S.W. Provencher.          Ref.: Magn. Reson. Med. 30:672-679 (1993).                
 Slice#1 Row#5 Col#7  PD_05_press_1_raw_act
 36 lines in following concentration table = NCONC+1
    Conc.  %SD /Cr+PCr  Metabolite                                         
    0.000 999%   0.000 Ala                                                 
   51.905 270% 7.6E-02 Asp                                                 
    0.000 999%   0.000 Cr                                                  
  681.932   7%   1.000 PCr                                                 
    9.795 915% 1.4E-02 GABA                                                
   27.420 326% 4.0E-02 Glc                                                 
  565.727  35%   0.830 Gln                                                 
  923.313  25%   1.354 Glu                                                 
  159.518  58%   0.234 GPC                                                 
  146.406  63%   0.215 PCh                                                 
   34.535 181% 5.1E-02 GSH                                                 
  779.111  28%   1.143 Ins                                                 
    0.000 999%   0.000 Lac                                                 
 1.22E+03   8%   1.787 NAA                                                 
   90.986 114%   0.133 NAAG                                                
   71.814  29%   0.105 Scyllo                                              
  231.613  58%   0.340 Tau                                                 
  466.472  18%   0.684 -CrCH2                                              
  305.925   7%   0.449 GPC+PCh                                             
 1.31E+03   5%   1.920 NAA+NAAG                                            
  681.932   7%   1.000 Cr+PCr                                              
 1.49E+03  22%   2.184 Glu+Gln                                             
    0.000 999%   0.000 Lip13a                                              
    6.897 999% 1.0E-02 Lip13b                                              
    0.000 999%   0.000 Lip09                                               
  496.553  21%   0.728 MM09                                                
    4.051 579% 5.9E-03 Lip20                                               
 1.07E+03  20%   1.575 MM20                                                
  124.423  52%   0.182 MM12                                                
    0.000 999%   0.000 MM14                                                
  251.346  51%   0.369 MM17                                                
    6.897 999% 1.0E-02 Lip13a+Lip13b                                       
  131.320  70%   0.193 MM14+Lip13a+Lip13b+MM12                             
  496.553  21%   0.728 MM09+Lip09                                          
 1.08E+03  20%   1.581 MM20+Lip20                                          
   6 lines in following misc. output table
  FWHM = 0.054 ppm    S/N =   7                                            
  Data shift =-0.054 ppm                                                   
  Ph: -33 deg      -8.1 deg/ppm                                            
  alphaB,S = 1.6E+00,   2.3E+01                                            
   14 spline knots.   Ns = 7(1)                                            
  (11) 4 infls.   (11) 1 extrs.                                            
  498 points on ppm-axis = NY
      4.000000     3.992357     3.984714     3.977070     3.969427     3.961784     3.954141     3.946497     3.938854     3.931211
      3.923568     3.915925     3.908281     3.900638     3.892995     3.885352     3.877708     3.870065     3.862422     3.854779
      3.847136     3.839492     3.831849     3.824206     3.816563     3.808919     3.801276     3.793633     3.785990     3.778347
      3.770703     3.763060     3.755417     3.747774     3.740130     3.732487     3.724844     3.717201     3.709558     3.701914
      3.694271     3.686628     3.678985     3.671341     3.663698     3.656055     3.648412     3.640769     3.633125     3.625482
      3.617839     3.610196     3.602552     3.594909     3.587266     3.579623     3.571980     3.564336     3.556693     3.549050
      3.541407     3.533763     3.526120     3.518477     3.510834     3.503191     3.495547     3.487904     3.480261     3.472618
      3.464974     3.457331     3.449688     3.442045     3.434402     3.426758     3.419115     3.411472     3.403829     3.396185
      3.388542     3.380899     3.373256     3.365613     3.357969     3.350326     3.342683     3.335040     3.327396     3.319753
      3.312110     3.304467     3.296824     3.289180     3.281537     3.273894     3.266251     3.258607     3.250964     3.243321
      3.235678     3.228034     3.220391     3.212748     3.205105     3.197462     3.189818     3.182175     3.174532     3.166889
      3.159245     3.151602     3.143959     3.136316     3.128673     3.121029     3.113386     3.105743     3.098100     3.090456
      3.082813     3.075170     3.067527     3.059884     3.052240     3.044597     3.036954     3.029311     3.021667     3.014024
      3.006381     2.998738     2.991095     2.983451     2.975808     2.968165     2.960522     2.952878     2.945235     2.937592
      2.929949     2.922306     2.914662     2.907019     2.899376     2.891733     2.884089     2.876446     2.868803     2.861160
      2.853517     2.845873     2.838230     2.830587     2.822944     2.815300     2.807657     2.800014     2.792371     2.784728
      2.777084     2.769441     2.761798     2.754155     2.746511     2.738868     2.731225     2.723582     2.715939     2.708295
      2.700652     2.693009     2.685366     2.677722     2.670079     2.662436     2.654793     2.647150     2.639506     2.631863
      2.624220     2.616577     2.608933     2.601290     2.593647     2.586004     2.578361     2.570717     2.563074     2.555431
      2.547788     2.540144     2.532501     2.524858     2.517215     2.509572     2.501928     2.494285     2.486642     2.478999
      2.471355     2.463712     2.456069     2.448426     2.440783     2.433139     2.425496     2.417853     2.410210     2.402566
      2.394923     2.387280     2.379637     2.371994     2.364350     2.356707     2.349064     2.341421     2.333777     2.326134
      2.318491     2.310848     2.303205     2.295561     2.287918     2.280275     2.272632     2.264988     2.257345     2.249702
      2.242059     2.234416     2.226772     2.219129     2.211486     2.203843     2.196199     2.188556     2.180913     2.173270
      2.165627     2.157983     2.150340     2.142697     2.135054     2.127410     2.119767     2.112124     2.104481     2.096838
      2.089194     2.081551     2.073908     2.066265     2.058621     2.050978     2.043335     2.035692     2.028049     2.020405
      2.012762     2.005119     1.997476     1.989833     1.982190     1.974546     1.966903     1.959260     1.951617     1.943974
      1.936331     1.928688     1.921045     1.913402     1.905759     1.898115     1.890472     1.882829     1.875186     1.867543
      1.859900     1.852257     1.844614     1.836971     1.829327     1.821684     1.814041     1.806398     1.798755     1.791112
      1.783469     1.775826     1.768183     1.760540     1.752896     1.745253     1.737610     1.729967     1.722324     1.714681
      1.707038     1.699395     1.691752     1.684108     1.676465     1.668822     1.661179     1.653536     1.645893     1.638250
      1.630607     1.622964     1.615321     1.607677     1.600034     1.592391     1.584748     1.577105     1.569462     1.561819
      1.554176     1.546533     1.538890     1.531246     1.523603     1.515960     1.508317     1.500674     1.493031     1.485388
      1.477745     1.470102     1.462458     1.454815     1.447172     1.439529     1.431886     1.424243     1.416600     1.408957
      1.401314     1.393671     1.386027     1.378384     1.370741     1.363098     1.355455     1.347812     1.340169     1.332526
      1.324883     1.317240     1.309596     1.301953     1.294310     1.286667     1.279024     1.271381     1.263738     1.256095
      1.248452     1.240808     1.233165     1.225522     1.217879     1.210236     1.202593     1.194950     1.187307     1.179664
      1.172021     1.164377     1.156734     1.149091     1.141448     1.133805     1.126162     1.118519     1.110876     1.103233
      1.095590     1.087946     1.080303     1.072660     1.065017     1.057374     1.049731     1.042088     1.034445     1.026802
      1.019158     1.011515     1.003872     0.996229     0.988586     0.980943     0.973300     0.965657     0.958014     0.950371
      0.942727     0.935084     0.927441     0.919798     0.912155     0.904512     0.896869     0.889226     0.881583     0.873940
      0.866296     0.858653     0.851010     0.843367     0.835724     0.828081     0.820438     0.812795     0.805152     0.797508
      0.789865     0.782222     0.774579     0.766936     0.759293     0.751650     0.744007     0.736364     0.728721     0.721077
      0.713434     0.705791     0.698148     0.690505     0.682862     0.675219     0.667576     0.659933     0.652290     0.644646
      0.637003     0.629360     0.621717     0.614074     0.606431     0.598788     0.591145     0.583502     0.575858     0.568215
      0.560572     0.552929     0.545286     0.537643     0.530000     0.522357     0.514714     0.507071     0.499427     0.491784
      0.484141     0.476498     0.468855     0.461212     0.453569     0.445925     0.438282     0.430639     0.422996     0.415353
      0.407710     0.400067     0.392424     0.384780     0.377137     0.369494     0.361851     0.354208     0.346565     0.338922
      0.331278     0.323635     0.315992     0.308349     0.300706     0.293063     0.285420     0.277777     0.270133     0.262490
      0.254847     0.247204     0.239561     0.231918     0.224275     0.216631     0.208988     0.201345
 NY phased data points follow
  -2.30502E+01 -2.28873E+01 -2.83773E+01 -2.30394E+01 -2.35891E+01 -2.22996E+01 -2.30449E+01 -1.13128E+01 -9.68817E+00 -4.41682E+00
  -5.95655E+00 -6.25211E+00 -7.74098E+00 -7.65657E+00 -1.80469E+01 -1.44257E+01 -1.52517E+01 -1.38825E+01 -1.63371E+01 -2.09084E+01
  -2.02867E+01 -1.83273E+01 -1.49105E+01 -1.59115E+01 -1.34475E+01 -1.47420E+01 -1.70795E+01 -1.56355E+01 -1.46504E+01 -1.62253E+01
  -1.40565E+01 -1.33748E+01 -1.22054E+01 -8.82543E+00 -1.15754E+01 -1.22683E+01 -1.66941E+01 -1.23252E+01 -1.69064E+01 -8.81569E+00
  -9.71090E+00 -1.23682E+01 -1.69633E+01 -1.12361E+01 -9.25547E+00 -5.87040E+00 -8.92703E+00 -3.67862E+00 -7.38216E+00 -1.12720E+01
  -5.99754E+00 -8.26564E+00 -1.27553E+01 -9.11203E+00 -1.43815E+01 -1.58564E+01 -8.84490E+00 -8.79467E+00 -1.10008E+01 -1.05576E+01
  -1.07295E+01 -1.23607E+01 -9.57664E+00 -1.12073E+01 -1.63358E+01 -1.20049E+01 -1.60454E+01 -8.65272E+00 -1.07554E+01 -1.05078E+01
  -1.51541E+01 -1.26068E+01 -1.27982E+01 -6.04681E+00 -9.43027E+00 -9.85406E+00 -1.41122E+01 -1.26477E+01 -1.07289E+01 -1.00713E+01
  -9.21074E+00 -1.24226E+01 -8.40829E+00 -5.47243E+00 -1.26345E+01 -8.18358E+00 -9.08084E+00 -2.99533E+00 -6.33329E+00 -8.06940E+00
  -7.95910E+00 -9.70609E+00 -1.38211E+01 -4.63143E+00 -1.23370E+01 -7.06627E+00 -3.88818E+00 -5.12419E+00 -5.58585E+00  2.65381E+00
   8.51572E+00  1.34435E+01  1.57994E+01  1.44349E+01  1.54448E+01  1.38825E+01  7.42430E+00  3.05454E+00  4.39286E+00 -6.24732E+00
  -5.57582E+00 -7.80237E+00 -8.18658E+00 -1.01595E+01 -2.14492E+00 -1.18125E+01 -9.98219E+00 -8.29082E+00 -9.37917E+00 -4.49427E+00
  -2.76269E+00 -7.40636E+00 -6.45344E+00 -5.69571E-02 -4.25774E-01  8.66310E+00  5.98043E+00  1.58896E+01  1.24019E+01  1.25283E+01
   3.56805E+00 -2.07557E+00 -6.40039E+00 -4.50999E+00 -6.21295E+00 -7.88696E+00 -9.98256E+00 -7.58686E+00 -1.00167E+01 -7.66864E+00
  -7.09281E+00 -1.11675E+01 -1.12590E+01 -7.34657E+00 -9.79010E+00 -7.14948E+00 -1.04999E+01 -1.53186E+01 -9.72757E+00 -8.19382E+00
  -1.01208E+01 -8.43513E+00 -1.14819E+01 -1.29742E+01 -1.25910E+01 -9.53550E+00 -4.98690E+00 -1.10226E+01 -8.80057E+00 -6.61606E+00
  -6.96323E+00 -9.55085E+00 -6.08551E+00 -8.67221E+00 -1.01588E+01 -9.12982E+00 -1.18861E+01 -1.08696E+01 -7.25875E+00 -9.15793E+00
  -7.25719E+00 -1.27360E+01 -1.36644E+01 -1.26441E+01 -1.06735E+01 -9.94008E+00 -1.16100E+01 -1.29645E+01 -6.76819E+00 -9.06963E+00
  -1.38412E+01 -1.66036E+01 -7.15074E+00 -1.18829E+01 -1.34089E+01 -8.07143E+00 -1.01916E+01 -8.85426E+00 -9.58478E+00 -4.90769E+00
  -4.75324E+00 -4.99980E+00 -6.43171E+00 -5.13306E-01 -5.75371E+00 -5.50512E+00 -8.03502E+00 -5.03061E+00 -4.95420E+00 -1.13491E+01
  -4.47659E+00 -3.84525E+00 -5.36630E+00 -5.14760E+00 -2.45204E+00 -1.07011E+00 -8.64280E-01 -5.49897E+00 -6.39654E+00 -6.42527E+00
  -7.59404E+00 -3.89512E+00 -4.71337E+00  3.97129E-01  2.21308E+00 -1.29001E+00  4.22482E+00  3.43512E+00  2.52328E+00  4.49814E+00
  -4.10453E+00 -3.89264E+00 -9.48405E+00 -6.86595E+00 -2.57204E+00  2.82848E-01 -3.37897E+00  1.49701E+00  5.27670E+00  3.21570E+00
  -2.29100E+00 -7.65106E-01  7.82493E-01 -1.19005E+00  2.81246E+00 -5.46276E+00  1.33955E+00 -3.30708E+00 -4.09391E+00  2.46117E+00
   1.65531E+00 -3.45551E+00 -4.52654E-01 -6.31433E+00 -1.91960E+00 -2.52936E+00  1.61050E+00 -3.26879E-03 -1.14514E+00 -2.19036E+00
   1.66138E-01 -2.38731E+00  7.53475E+00  2.31624E+00  7.77004E+00  1.02243E+01  1.89421E+01  1.82584E+01  2.80184E+01  3.03095E+01
   4.08887E+01  4.50970E+01  3.46388E+01  3.42355E+01  2.57143E+01  1.11183E+01  1.23374E+01  7.10931E+00  4.96208E+00 -1.17914E+00
  -4.94514E-01  1.60784E+00 -4.27606E+00  4.58561E+00  2.71397E+00  5.97978E+00 -1.67615E+00 -1.44123E-01 -2.58606E+00  3.87309E-01
   1.42030E+00 -8.20018E+00  1.47035E+00  3.33538E-01 -3.08389E+00 -6.47793E+00  2.14243E-01  1.51899E+00  3.06243E-01 -2.57251E+00
  -2.70813E+00 -3.24513E+00 -5.31912E+00 -1.26561E+00  5.84154E-01 -1.65549E+00 -3.46162E+00 -1.57619E+00 -6.37964E-02 -3.97733E-01
  -6.78386E+00  1.98907E+00 -5.70407E+00 -1.15850E+00 -3.21627E+00 -3.93200E+00 -1.12985E+00  1.54635E+00 -1.27459E+00  2.59564E-01
  -2.92136E+00 -1.18640E-01 -8.88140E-01  1.27152E+00 -2.57897E-01  7.91318E-01  3.75932E+00  1.05122E+00  2.80516E+00 -9.48321E-01
  -4.33133E+00  3.69446E-01 -1.69388E+00 -5.23788E+00 -1.65154E+00 -1.67505E+00 -4.39191E+00 -7.87505E-02 -1.78080E+00 -2.52127E+00
  -3.21980E+00 -6.64897E-01 -3.69299E-01 -4.00534E+00 -6.91788E-01  3.16107E-01 -8.82347E+00 -3.35622E+00 -5.15959E+00 -1.54916E+00
  -7.75663E+00 -5.65553E+00 -9.00247E+00  7.38492E-01 -3.28820E+00 -2.90811E+00 -2.37614E-01  6.07487E-01  1.88911E+00  6.11921E+00
  -1.65118E+00  9.59913E-01 -1.09330E+00  1.39252E+00 -2.37335E+00 -3.98016E+00 -6.03393E+00 -3.65894E+00  2.19523E+00  9.26575E-01
  -2.16103E+00  2.71461E+00 -8.95856E+00  9.50710E-01 -8.63499E-01 -3.86123E+00 -3.90075E+00 -1.63688E+00 -1.12090E+00 -8.08189E-01
  -1.43012E+00 -1.69290E+00 -1.60343E-01 -1.60033E+00  1.63778E-01 -1.50712E+00 -2.62630E-01 -5.34284E+00 -1.03118E+00  2.37347E+00
  -4.38385E+00  4.53694E-02  1.04093E+00 -1.62797E+00 -2.96320E+00  4.78562E-01 -4.15451E+00 -3.37600E+00 -2.48267E+00 -5.67909E+00
  -3.98440E+00 -3.32989E+00 -4.20784E+00  5.28790E-01  1.03520E+00 -1.59787E+00  7.01631E-01 -1.98538E+00  3.21776E+00  3.21368E+00
   1.54189E+00  5.37912E+00  4.60210E+00  3.84306E+00  5.35697E+00 -1.44497E+00  6.44404E+00  5.88099E+00  3.85353E+00  7.69271E+00
  -1.37242E+00  3.76331E+00  3.23899E+00  4.58123E+00  4.86952E+00 -3.73920E+00 -2.65582E+00 -4.67252E-01  3.17890E+00  2.12617E+00
   1.20293E+00 -1.29159E+00  1.11732E+00  2.32466E+00 -9.85494E-01 -8.20362E-01  1.48154E+00 -1.34370E+00 -3.41617E+00  6.82058E-02
  -1.71044E+00 -1.30927E-01 -1.75910E+00  1.97471E+00  1.61947E+00  9.58822E-01 -2.20258E+00 -8.11705E-01 -4.81615E-01 -2.64626E+00
  -5.25421E+00  4.52782E-01 -1.39278E+00 -1.62073E+00  4.18330E+00 -6.44147E-02  2.69497E-02 -2.70298E+00 -1.48700E-01  3.21616E+00
   2.48794E+00  1.50391E+00  9.65800E-01  5.52711E-03 -7.67253E-01  3.03911E+00 -2.19952E+00  3.12115E-02 -5.90029E-01  2.94689E-01
  -3.13309E+00  2.98805E-02 -1.84720E+00 -2.27907E+00 -2.48849E-01  3.36031E+00  9.92826E-01 -6.12281E-01 -2.66126E+00 -2.45041E-01
   7.46864E-03 -1.63114E+00  9.27858E-01  9.23362E-01  3.20134E+00  2.01392E+00 -4.61158E-01  3.69882E-01  1.89467E+00 -1.80099E+00
  -5.46979E-01 -5.94048E-02  1.32377E+00  1.16404E+00 -6.38215E-01  2.38188E+00  8.76749E-01 -2.27248E+00 -7.99420E-01 -1.43344E+00
   6.54216E+00 -5.13955E-01  3.84975E+00  9.87349E-01 -1.20212E+00 -6.28944E-01  5.99984E-01  3.10847E+00
 NY points of the fit to the data follow
  -1.76151E+01 -1.83312E+01 -1.86974E+01 -1.90606E+01 -1.95438E+01 -1.94000E+01 -1.84359E+01 -1.60311E+01 -1.22523E+01 -8.79754E+00
  -7.20184E+00 -6.97669E+00 -8.13471E+00 -1.09150E+01 -1.31401E+01 -1.34481E+01 -1.36073E+01 -1.45504E+01 -1.53603E+01 -1.54451E+01
  -1.53386E+01 -1.52026E+01 -1.50537E+01 -1.49963E+01 -1.50833E+01 -1.52856E+01 -1.55510E+01 -1.56845E+01 -1.54693E+01 -1.47301E+01
  -1.35540E+01 -1.22394E+01 -1.11043E+01 -1.07262E+01 -1.11274E+01 -1.20151E+01 -1.31192E+01 -1.40333E+01 -1.44825E+01 -1.44246E+01
  -1.39575E+01 -1.32814E+01 -1.24897E+01 -1.16014E+01 -1.05676E+01 -9.47014E+00 -8.47581E+00 -7.89948E+00 -8.12647E+00 -9.12990E+00
  -1.05235E+01 -1.19546E+01 -1.29733E+01 -1.33305E+01 -1.32424E+01 -1.30639E+01 -1.28110E+01 -1.23628E+01 -1.17685E+01 -1.12197E+01
  -1.09476E+01 -1.09603E+01 -1.11772E+01 -1.15852E+01 -1.19239E+01 -1.20228E+01 -1.18959E+01 -1.16683E+01 -1.13678E+01 -1.10338E+01
  -1.07576E+01 -1.04283E+01 -1.01240E+01 -9.96320E+00 -9.84677E+00 -9.83492E+00 -1.00908E+01 -1.04525E+01 -1.06764E+01 -1.07916E+01
  -1.07541E+01 -1.03906E+01 -9.76067E+00 -9.10854E+00 -8.45809E+00 -7.90731E+00 -7.69791E+00 -8.05930E+00 -8.70135E+00 -9.27890E+00
  -9.90942E+00 -1.02803E+01 -1.01392E+01 -9.88669E+00 -9.70197E+00 -9.04747E+00 -7.63099E+00 -5.49283E+00 -2.56857E+00  1.30599E+00
   6.03838E+00  1.13445E+01  1.59647E+01  1.80878E+01  1.70910E+01  1.34343E+01  8.02211E+00  2.33469E+00 -2.06482E+00 -4.70482E+00
  -6.55182E+00 -8.27303E+00 -9.59281E+00 -1.01419E+01 -1.01809E+01 -1.01127E+01 -1.00207E+01 -9.87571E+00 -9.65392E+00 -9.21806E+00
  -8.08235E+00 -6.55753E+00 -4.49493E+00 -1.47912E+00  2.50185E+00  7.00818E+00  1.13284E+01  1.39594E+01  1.30045E+01  9.85946E+00
   5.79156E+00  6.03881E-01 -3.43512E+00 -5.03862E+00 -6.08940E+00 -7.88297E+00 -9.17878E+00 -9.42851E+00 -9.43025E+00 -9.34912E+00
  -9.24751E+00 -9.16224E+00 -9.09474E+00 -9.03905E+00 -8.99434E+00 -8.95951E+00 -8.93229E+00 -8.92123E+00 -8.92034E+00 -8.92028E+00
  -8.91780E+00 -8.89926E+00 -8.86868E+00 -8.84185E+00 -8.83547E+00 -8.82863E+00 -8.82483E+00 -8.86657E+00 -8.94421E+00 -9.08371E+00
  -9.25515E+00 -9.34988E+00 -9.25424E+00 -9.02734E+00 -8.78393E+00 -8.58288E+00 -8.59520E+00 -8.81027E+00 -9.06940E+00 -9.31465E+00
  -9.47359E+00 -9.52446E+00 -9.62020E+00 -9.79363E+00 -9.96064E+00 -1.00327E+01 -9.99887E+00 -9.79620E+00 -9.50140E+00 -9.30203E+00
  -9.16195E+00 -9.05958E+00 -8.97298E+00 -8.82947E+00 -8.57056E+00 -8.22532E+00 -7.90594E+00 -7.59185E+00 -7.11290E+00 -6.53761E+00
  -6.03610E+00 -5.70370E+00 -5.61343E+00 -5.76621E+00 -5.89948E+00 -5.88732E+00 -5.80767E+00 -5.62839E+00 -5.28831E+00 -4.77127E+00
  -4.08138E+00 -3.33671E+00 -2.68097E+00 -2.37551E+00 -2.47282E+00 -3.22165E+00 -4.55323E+00 -6.16400E+00 -7.69960E+00 -8.82482E+00
  -9.13935E+00 -8.28840E+00 -6.74436E+00 -4.83817E+00 -2.63124E+00 -1.01240E+00 -5.33123E-01 -1.06619E+00 -2.24487E+00 -4.10980E+00
  -6.30770E+00 -7.90237E+00 -8.41171E+00 -7.96013E+00 -6.81785E+00 -5.26832E+00 -3.52116E+00 -2.02366E+00 -1.27917E+00 -1.19524E+00
  -1.19119E+00 -1.25018E+00 -1.48907E+00 -1.78837E+00 -1.92880E+00 -1.88618E+00 -1.63237E+00 -1.11606E+00 -6.53713E-01 -2.71053E-01
  -8.55155E-02 -2.87432E-01 -8.63463E-01 -1.35319E+00 -1.44492E+00 -1.43683E+00 -1.27248E+00 -8.31367E-01 -3.80347E-01  1.95349E-02
   5.77219E-01  1.49859E+00  2.62830E+00  4.54476E+00  7.57546E+00  1.08386E+01  1.52010E+01  2.06007E+01  2.74698E+01  3.46408E+01
   4.07532E+01  4.21859E+01  3.82376E+01  3.21108E+01  2.35571E+01  1.44475E+01  9.30871E+00  7.03842E+00  4.15719E+00  7.74127E-01
  -6.32210E-01 -1.05959E+00 -1.26546E+00 -1.31733E+00 -1.28692E+00 -1.29394E+00 -1.33330E+00 -1.41248E+00 -1.53933E+00 -1.67421E+00
  -1.77856E+00 -1.85721E+00 -1.92148E+00 -1.97073E+00 -1.99558E+00 -1.99837E+00 -2.00020E+00 -2.00782E+00 -2.00669E+00 -1.98778E+00
  -1.95957E+00 -1.92253E+00 -1.87306E+00 -1.81513E+00 -1.75372E+00 -1.69016E+00 -1.62570E+00 -1.55994E+00 -1.49169E+00 -1.42139E+00
  -1.35038E+00 -1.28121E+00 -1.21418E+00 -1.15198E+00 -1.09951E+00 -1.05977E+00 -1.03143E+00 -1.01543E+00 -1.01238E+00 -1.02174E+00
  -1.04209E+00 -1.07353E+00 -1.11410E+00 -1.16250E+00 -1.21668E+00 -1.27549E+00 -1.33679E+00 -1.39952E+00 -1.46154E+00 -1.52200E+00
  -1.57928E+00 -1.63307E+00 -1.68218E+00 -1.72670E+00 -1.76573E+00 -1.79969E+00 -1.82809E+00 -1.85174E+00 -1.87037E+00 -1.88478E+00
  -1.89471E+00 -1.90102E+00 -1.90356E+00 -1.90325E+00 -1.89983E+00 -1.89403E+00 -1.88546E+00 -1.87485E+00 -1.86182E+00 -1.84700E+00
  -1.82985E+00 -1.81080E+00 -1.78921E+00 -1.76550E+00 -1.73900E+00 -1.71006E+00 -1.67789E+00 -1.64288E+00 -1.60448E+00 -1.56345E+00
  -1.51971E+00 -1.47442E+00 -1.42789E+00 -1.38168E+00 -1.33639E+00 -1.29362E+00 -1.25369E+00 -1.21764E+00 -1.18511E+00 -1.15654E+00
  -1.13113E+00 -1.10900E+00 -1.08914E+00 -1.07166E+00 -1.05569E+00 -1.04165E+00 -1.02894E+00 -1.01809E+00 -1.00848E+00 -1.00051E+00
  -9.93417E-01 -9.87471E-01 -9.81741E-01 -9.76233E-01 -9.69755E-01 -9.62119E-01 -9.52026E-01 -9.39213E-01 -9.22255E-01 -9.00698E-01
  -8.72922E-01 -8.38324E-01 -7.95175E-01 -7.42730E-01 -6.79063E-01 -6.03223E-01 -5.13160E-01 -4.07949E-01 -2.85711E-01 -1.45815E-01
   1.31835E-02  1.91251E-01  3.88851E-01  6.04657E-01  8.37605E-01  1.08469E+00  1.34308E+00  1.60793E+00  1.87460E+00  2.13660E+00
   2.38805E+00  2.62175E+00  2.83168E+00  3.01113E+00  3.15518E+00  3.25889E+00  3.31972E+00  3.33558E+00  3.30707E+00  3.23527E+00
   3.12377E+00  2.97642E+00  2.79915E+00  2.59757E+00  2.37869E+00  2.14850E+00  1.91373E+00  1.67956E+00  1.45153E+00  1.23325E+00
   1.02849E+00  8.38979E-01  6.66664E-01  5.11669E-01  3.74547E-01  2.54254E-01  1.50387E-01  6.11905E-02 -1.41736E-02 -7.76497E-02
  -1.30102E-01 -1.73413E-01 -2.08332E-01 -2.36556E-01 -2.58575E-01 -2.75790E-01 -2.88417E-01 -2.97646E-01 -3.03516E-01 -3.07035E-01
  -3.08049E-01 -3.07386E-01 -3.04776E-01 -3.00987E-01 -2.95695E-01 -2.89593E-01 -2.82268E-01 -2.74345E-01 -2.65390E-01 -2.56031E-01
  -2.45825E-01 -2.35357E-01 -2.24127E-01 -2.12699E-01 -2.00593E-01 -1.88394E-01 -1.75611E-01 -1.62788E-01 -1.49405E-01 -1.36010E-01
  -1.22111E-01 -1.08272E-01 -9.39759E-02 -7.97465E-02 -6.50542E-02 -5.04496E-02 -3.54366E-02 -2.05622E-02 -5.29872E-03  9.83484E-03
   2.53640E-02  4.07424E-02  5.64712E-02  7.20172E-02  8.79196E-02  1.03659E-01  1.19752E-01  1.35650E-01  1.51861E-01  1.67860E-01
   1.84188E-01  2.00324E-01  2.16778E-01  2.33002E-01  2.49514E-01  2.65800E-01  2.82398E-01  2.98780E-01  3.15448E-01  3.31862E-01
   3.48546E-01  3.64991E-01  3.81728E-01  3.98224E-01  4.14978E-01  4.31457E-01  4.48192E-01  4.64677E-01
 NY background values follow
    -1.936E+01   -1.928E+01   -1.921E+01   -1.913E+01   -1.905E+01   -1.898E+01   -1.890E+01   -1.883E+01   -1.875E+01   -1.867E+01
    -1.860E+01   -1.852E+01   -1.844E+01   -1.837E+01   -1.829E+01   -1.822E+01   -1.814E+01   -1.806E+01   -1.799E+01   -1.791E+01
    -1.784E+01   -1.776E+01   -1.768E+01   -1.761E+01   -1.753E+01   -1.746E+01   -1.738E+01   -1.730E+01   -1.723E+01   -1.715E+01
    -1.708E+01   -1.700E+01   -1.693E+01   -1.685E+01   -1.678E+01   -1.670E+01   -1.662E+01   -1.655E+01   -1.647E+01   -1.640E+01
    -1.632E+01   -1.625E+01   -1.617E+01   -1.610E+01   -1.602E+01   -1.595E+01   -1.588E+01   -1.580E+01   -1.573E+01   -1.565E+01
    -1.558E+01   -1.550E+01   -1.543E+01   -1.536E+01   -1.528E+01   -1.521E+01   -1.514E+01   -1.506E+01   -1.499E+01   -1.491E+01
    -1.484E+01   -1.477E+01   -1.470E+01   -1.462E+01   -1.455E+01   -1.448E+01   -1.441E+01   -1.433E+01   -1.426E+01   -1.419E+01
    -1.412E+01   -1.404E+01   -1.397E+01   -1.390E+01   -1.383E+01   -1.376E+01   -1.369E+01   -1.362E+01   -1.355E+01   -1.348E+01
    -1.341E+01   -1.333E+01   -1.326E+01   -1.319E+01   -1.312E+01   -1.305E+01   -1.299E+01   -1.292E+01   -1.285E+01   -1.278E+01
    -1.271E+01   -1.264E+01   -1.257E+01   -1.250E+01   -1.243E+01   -1.237E+01   -1.230E+01   -1.223E+01   -1.216E+01   -1.210E+01
    -1.203E+01   -1.196E+01   -1.190E+01   -1.183E+01   -1.176E+01   -1.170E+01   -1.163E+01   -1.156E+01   -1.150E+01   -1.143E+01
    -1.137E+01   -1.130E+01   -1.124E+01   -1.117E+01   -1.111E+01   -1.104E+01   -1.098E+01   -1.091E+01   -1.085E+01   -1.079E+01
    -1.072E+01   -1.066E+01   -1.060E+01   -1.053E+01   -1.047E+01   -1.041E+01   -1.034E+01   -1.028E+01   -1.022E+01   -1.016E+01
    -1.010E+01   -1.003E+01   -9.972E+00   -9.911E+00   -9.850E+00   -9.789E+00   -9.728E+00   -9.668E+00   -9.607E+00   -9.547E+00
    -9.487E+00   -9.427E+00   -9.368E+00   -9.308E+00   -9.249E+00   -9.190E+00   -9.131E+00   -9.072E+00   -9.014E+00   -8.955E+00
    -8.897E+00   -8.839E+00   -8.782E+00   -8.724E+00   -8.667E+00   -8.610E+00   -8.553E+00   -8.496E+00   -8.439E+00   -8.383E+00
    -8.327E+00   -8.271E+00   -8.215E+00   -8.160E+00   -8.105E+00   -8.049E+00   -7.995E+00   -7.940E+00   -7.885E+00   -7.831E+00
    -7.777E+00   -7.723E+00   -7.670E+00   -7.616E+00   -7.563E+00   -7.510E+00   -7.457E+00   -7.405E+00   -7.352E+00   -7.300E+00
    -7.248E+00   -7.197E+00   -7.145E+00   -7.094E+00   -7.043E+00   -6.992E+00   -6.941E+00   -6.891E+00   -6.841E+00   -6.791E+00
    -6.741E+00   -6.692E+00   -6.643E+00   -6.594E+00   -6.545E+00   -6.497E+00   -6.449E+00   -6.401E+00   -6.353E+00   -6.306E+00
    -6.259E+00   -6.212E+00   -6.166E+00   -6.119E+00   -6.074E+00   -6.028E+00   -5.982E+00   -5.937E+00   -5.892E+00   -5.848E+00
    -5.804E+00   -5.760E+00   -5.716E+00   -5.673E+00   -5.630E+00   -5.587E+00   -5.544E+00   -5.502E+00   -5.460E+00   -5.419E+00
    -5.378E+00   -5.337E+00   -5.296E+00   -5.256E+00   -5.216E+00   -5.177E+00   -5.138E+00   -5.099E+00   -5.060E+00   -5.022E+00
    -4.984E+00   -4.947E+00   -4.909E+00   -4.873E+00   -4.836E+00   -4.800E+00   -4.764E+00   -4.728E+00   -4.693E+00   -4.658E+00
    -4.623E+00   -4.589E+00   -4.555E+00   -4.521E+00   -4.488E+00   -4.455E+00   -4.422E+00   -4.389E+00   -4.357E+00   -4.325E+00
    -4.293E+00   -4.262E+00   -4.231E+00   -4.200E+00   -4.169E+00   -4.139E+00   -4.109E+00   -4.080E+00   -4.050E+00   -4.021E+00
    -3.992E+00   -3.964E+00   -3.935E+00   -3.907E+00   -3.879E+00   -3.852E+00   -3.825E+00   -3.798E+00   -3.771E+00   -3.744E+00
    -3.718E+00   -3.692E+00   -3.666E+00   -3.641E+00   -3.615E+00   -3.590E+00   -3.565E+00   -3.541E+00   -3.516E+00   -3.492E+00
    -3.468E+00   -3.445E+00   -3.421E+00   -3.398E+00   -3.375E+00   -3.352E+00   -3.330E+00   -3.307E+00   -3.285E+00   -3.263E+00
    -3.241E+00   -3.219E+00   -3.198E+00   -3.177E+00   -3.156E+00   -3.135E+00   -3.114E+00   -3.094E+00   -3.073E+00   -3.053E+00
    -3.033E+00   -3.014E+00   -2.994E+00   -2.974E+00   -2.955E+00   -2.936E+00   -2.917E+00   -2.898E+00   -2.879E+00   -2.861E+00
    -2.842E+00   -2.824E+00   -2.806E+00   -2.788E+00   -2.770E+00   -2.753E+00   -2.735E+00   -2.717E+00   -2.700E+00   -2.683E+00
    -2.666E+00   -2.649E+00   -2.632E+00   -2.615E+00   -2.599E+00   -2.582E+00   -2.565E+00   -2.549E+00   -2.533E+00   -2.517E+00
    -2.501E+00   -2.485E+00   -2.469E+00   -2.453E+00   -2.437E+00   -2.421E+00   -2.406E+00   -2.390E+00   -2.375E+00   -2.359E+00
    -2.344E+00   -2.329E+00   -2.313E+00   -2.298E+00   -2.283E+00   -2.268E+00   -2.253E+00   -2.238E+00   -2.223E+00   -2.208E+00
    -2.193E+00   -2.178E+00   -2.163E+00   -2.148E+00   -2.133E+00   -2.118E+00   -2.104E+00   -2.089E+00   -2.074E+00   -2.059E+00
    -2.044E+00   -2.029E+00   -2.015E+00   -2.000E+00   -1.985E+00   -1.970E+00   -1.955E+00   -1.940E+00   -1.925E+00   -1.911E+00
    -1.896E+00   -1.881E+00   -1.866E+00   -1.851E+00   -1.836E+00   -1.821E+00   -1.806E+00   -1.791E+00   -1.775E+00   -1.760E+00
    -1.745E+00   -1.730E+00   -1.715E+00   -1.700E+00   -1.684E+00   -1.669E+00   -1.654E+00   -1.638E+00   -1.623E+00   -1.608E+00
    -1.592E+00   -1.577E+00   -1.561E+00   -1.546E+00   -1.530E+00   -1.514E+00   -1.499E+00   -1.483E+00   -1.467E+00   -1.451E+00
    -1.435E+00   -1.420E+00   -1.404E+00   -1.388E+00   -1.371E+00   -1.355E+00   -1.339E+00   -1.323E+00   -1.307E+00   -1.290E+00
    -1.274E+00   -1.258E+00   -1.241E+00   -1.225E+00   -1.208E+00   -1.191E+00   -1.175E+00   -1.158E+00   -1.141E+00   -1.124E+00
    -1.107E+00   -1.090E+00   -1.073E+00   -1.056E+00   -1.039E+00   -1.022E+00   -1.005E+00   -9.880E-01   -9.708E-01   -9.536E-01
    -9.363E-01   -9.190E-01   -9.016E-01   -8.842E-01   -8.668E-01   -8.493E-01   -8.318E-01   -8.142E-01   -7.967E-01   -7.791E-01
    -7.614E-01   -7.438E-01   -7.261E-01   -7.083E-01   -6.906E-01   -6.728E-01   -6.550E-01   -6.372E-01   -6.193E-01   -6.014E-01
    -5.835E-01   -5.656E-01   -5.476E-01   -5.297E-01   -5.117E-01   -4.936E-01   -4.756E-01   -4.575E-01   -4.395E-01   -4.214E-01
    -4.032E-01   -3.851E-01   -3.670E-01   -3.488E-01   -3.306E-01   -3.124E-01   -2.942E-01   -2.760E-01   -2.577E-01   -2.395E-01
    -2.212E-01   -2.030E-01   -1.847E-01   -1.664E-01   -1.481E-01   -1.298E-01   -1.114E-01   -9.310E-02   -7.476E-02   -5.642E-02
    -3.806E-02   -1.971E-02   -1.342E-03    1.703E-02    3.540E-02    5.377E-02    7.215E-02    9.053E-02    1.089E-01    1.273E-01
     1.457E-01    1.641E-01    1.825E-01    2.008E-01    2.192E-01    2.376E-01    2.560E-01    2.743E-01
 Asp      Conc. = 5.19E+01
