 LCModel (Version 6.3-1L) Copyright: S.W. Provencher.          Ref.: Magn. Reson. Med. 30:672-679 (1993).                
 Slice#1 Row#2 Col#8  PD_05_press_1_raw_act
 36 lines in following concentration table = NCONC+1
    Conc.  %SD /Cr+PCr  Metabolite                                         
    0.000 999%   0.000 Ala                                                 
   77.048 105%   0.236 Asp                                                 
    0.000 999%   0.000 Cr                                                  
  326.338  18%   1.000 PCr                                                 
   51.552  96%   0.158 GABA                                                
   47.589 103%   0.146 Glc                                                 
 1.12E+03  44%   3.424 Gln                                                 
    0.000 999%   0.000 Glu                                                 
    0.000 999%   0.000 GPC                                                 
  165.422  14%   0.507 PCh                                                 
    0.000 999%   0.000 GSH                                                 
  316.242  77%   0.969 Ins                                                 
 1.59E+03  27%   4.872 Lac                                                 
  862.267  11%   2.642 NAA                                                 
    0.000 999%   0.000 NAAG                                                
   20.397  74% 6.3E-02 Scyllo                                              
  100.020  77%   0.306 Tau                                                 
  114.728  66%   0.352 -CrCH2                                              
  165.422  14%   0.507 GPC+PCh                                             
  862.267  11%   2.642 NAA+NAAG                                            
  326.338  18%   1.000 Cr+PCr                                              
 1.12E+03  44%   3.424 Glu+Gln                                             
  367.769  76%   1.127 Lip13a                                              
    0.000 999%   0.000 Lip13b                                              
   81.747 172%   0.250 Lip09                                               
  731.242  20%   2.241 MM09                                                
   52.868 192%   0.162 Lip20                                               
 1.03E+03  26%   3.153 MM20                                                
  285.068  30%   0.874 MM12                                                
    0.000 999%   0.000 MM14                                                
  513.140  24%   1.572 MM17                                                
  367.769  76%   1.127 Lip13a+Lip13b                                       
  652.836  38%   2.000 MM14+Lip13a+Lip13b+MM12                             
  812.989  13%   2.491 MM09+Lip09                                          
 1.08E+03  24%   3.315 MM20+Lip20                                          
   6 lines in following misc. output table
  FWHM = 0.153 ppm    S/N =   3                                            
  Data shift = 0.000 ppm                                                   
  Ph: -28 deg     -12.3 deg/ppm                                            
  alphaB,S = 8.5E+01,   2.0E+02                                            
   13 spline knots.   Ns = 9(2)                                            
   2 inflections.     1 extrema                                            
  498 points on ppm-axis = NY
      4.000000     3.992357     3.984714     3.977070     3.969427     3.961784     3.954141     3.946497     3.938854     3.931211
      3.923568     3.915925     3.908281     3.900638     3.892995     3.885352     3.877708     3.870065     3.862422     3.854779
      3.847136     3.839492     3.831849     3.824206     3.816563     3.808919     3.801276     3.793633     3.785990     3.778347
      3.770703     3.763060     3.755417     3.747774     3.740130     3.732487     3.724844     3.717201     3.709558     3.701914
      3.694271     3.686628     3.678985     3.671341     3.663698     3.656055     3.648412     3.640769     3.633125     3.625482
      3.617839     3.610196     3.602552     3.594909     3.587266     3.579623     3.571980     3.564336     3.556693     3.549050
      3.541407     3.533763     3.526120     3.518477     3.510834     3.503191     3.495547     3.487904     3.480261     3.472618
      3.464974     3.457331     3.449688     3.442045     3.434402     3.426758     3.419115     3.411472     3.403829     3.396185
      3.388542     3.380899     3.373256     3.365613     3.357969     3.350326     3.342683     3.335040     3.327396     3.319753
      3.312110     3.304467     3.296824     3.289180     3.281537     3.273894     3.266251     3.258607     3.250964     3.243321
      3.235678     3.228034     3.220391     3.212748     3.205105     3.197462     3.189818     3.182175     3.174532     3.166889
      3.159245     3.151602     3.143959     3.136316     3.128673     3.121029     3.113386     3.105743     3.098100     3.090456
      3.082813     3.075170     3.067527     3.059884     3.052240     3.044597     3.036954     3.029311     3.021667     3.014024
      3.006381     2.998738     2.991095     2.983451     2.975808     2.968165     2.960522     2.952878     2.945235     2.937592
      2.929949     2.922306     2.914662     2.907019     2.899376     2.891733     2.884089     2.876446     2.868803     2.861160
      2.853517     2.845873     2.838230     2.830587     2.822944     2.815300     2.807657     2.800014     2.792371     2.784728
      2.777084     2.769441     2.761798     2.754155     2.746511     2.738868     2.731225     2.723582     2.715939     2.708295
      2.700652     2.693009     2.685366     2.677722     2.670079     2.662436     2.654793     2.647150     2.639506     2.631863
      2.624220     2.616577     2.608933     2.601290     2.593647     2.586004     2.578361     2.570717     2.563074     2.555431
      2.547788     2.540144     2.532501     2.524858     2.517215     2.509572     2.501928     2.494285     2.486642     2.478999
      2.471355     2.463712     2.456069     2.448426     2.440783     2.433139     2.425496     2.417853     2.410210     2.402566
      2.394923     2.387280     2.379637     2.371994     2.364350     2.356707     2.349064     2.341421     2.333777     2.326134
      2.318491     2.310848     2.303205     2.295561     2.287918     2.280275     2.272632     2.264988     2.257345     2.249702
      2.242059     2.234416     2.226772     2.219129     2.211486     2.203843     2.196199     2.188556     2.180913     2.173270
      2.165627     2.157983     2.150340     2.142697     2.135054     2.127410     2.119767     2.112124     2.104481     2.096838
      2.089194     2.081551     2.073908     2.066265     2.058621     2.050978     2.043335     2.035692     2.028049     2.020405
      2.012762     2.005119     1.997476     1.989833     1.982190     1.974546     1.966903     1.959260     1.951617     1.943974
      1.936331     1.928688     1.921045     1.913402     1.905759     1.898115     1.890472     1.882829     1.875186     1.867543
      1.859900     1.852257     1.844614     1.836971     1.829327     1.821684     1.814041     1.806398     1.798755     1.791112
      1.783469     1.775826     1.768183     1.760540     1.752896     1.745253     1.737610     1.729967     1.722324     1.714681
      1.707038     1.699395     1.691752     1.684108     1.676465     1.668822     1.661179     1.653536     1.645893     1.638250
      1.630607     1.622964     1.615321     1.607677     1.600034     1.592391     1.584748     1.577105     1.569462     1.561819
      1.554176     1.546533     1.538890     1.531246     1.523603     1.515960     1.508317     1.500674     1.493031     1.485388
      1.477745     1.470102     1.462458     1.454815     1.447172     1.439529     1.431886     1.424243     1.416600     1.408957
      1.401314     1.393671     1.386027     1.378384     1.370741     1.363098     1.355455     1.347812     1.340169     1.332526
      1.324883     1.317240     1.309596     1.301953     1.294310     1.286667     1.279024     1.271381     1.263738     1.256095
      1.248452     1.240808     1.233165     1.225522     1.217879     1.210236     1.202593     1.194950     1.187307     1.179664
      1.172021     1.164377     1.156734     1.149091     1.141448     1.133805     1.126162     1.118519     1.110876     1.103233
      1.095590     1.087946     1.080303     1.072660     1.065017     1.057374     1.049731     1.042088     1.034445     1.026802
      1.019158     1.011515     1.003872     0.996229     0.988586     0.980943     0.973300     0.965657     0.958014     0.950371
      0.942727     0.935084     0.927441     0.919798     0.912155     0.904512     0.896869     0.889226     0.881583     0.873940
      0.866296     0.858653     0.851010     0.843367     0.835724     0.828081     0.820438     0.812795     0.805152     0.797508
      0.789865     0.782222     0.774579     0.766936     0.759293     0.751650     0.744007     0.736364     0.728721     0.721077
      0.713434     0.705791     0.698148     0.690505     0.682862     0.675219     0.667576     0.659933     0.652290     0.644646
      0.637003     0.629360     0.621717     0.614074     0.606431     0.598788     0.591145     0.583502     0.575858     0.568215
      0.560572     0.552929     0.545286     0.537643     0.530000     0.522357     0.514714     0.507071     0.499427     0.491784
      0.484141     0.476498     0.468855     0.461212     0.453569     0.445925     0.438282     0.430639     0.422996     0.415353
      0.407710     0.400067     0.392424     0.384780     0.377137     0.369494     0.361851     0.354208     0.346565     0.338922
      0.331278     0.323635     0.315992     0.308349     0.300706     0.293063     0.285420     0.277777     0.270133     0.262490
      0.254847     0.247204     0.239561     0.231918     0.224275     0.216631     0.208988     0.201345
 NY phased data points follow
  -2.34293E+00 -2.99564E+00 -2.75298E+00 -2.35045E+00  1.03091E+00  5.47633E+00 -2.67828E-01  2.19297E+00 -7.54647E-02  6.35337E-01
   1.75719E+00 -3.97442E+00 -3.19365E+00 -8.22969E-01  7.85096E-01 -4.42249E+00 -1.74513E+00 -2.41157E-01 -1.89605E+00  4.47390E-01
   1.47822E+00 -2.05774E+00  2.97924E+00 -1.54615E+00 -7.90039E+00  1.58264E+00 -7.32148E-01 -2.09640E+00 -2.70295E+00 -1.00340E-01
  -4.41329E+00  2.03729E+00  1.61401E+00  2.96338E+00 -2.85251E+00  1.37903E+00 -9.28555E-01 -3.97519E+00 -4.22856E+00  1.34444E-02
  -4.02174E+00  1.67098E+00  7.61770E-01  1.15205E+00 -2.55068E+00 -1.03883E+00  1.01617E+00 -1.64284E-01  1.98026E+00 -6.29104E-01
   4.66784E-01 -3.00763E+00  5.68241E-01 -3.11678E+00 -1.57110E-01 -9.62699E-01 -2.25896E-01 -2.00225E+00 -3.91077E-01  3.35638E+00
  -2.58480E+00 -2.14378E-01 -4.37842E-01 -2.99453E+00  1.72713E+00 -1.18393E+00 -8.39559E-01  1.76785E+00 -1.72138E-01  1.26469E+00
  -5.40881E+00  2.33776E+00 -8.33499E-01 -3.21235E+00  3.11633E+00 -3.14085E+00 -4.59353E+00 -3.33238E+00  3.76671E-01 -3.17017E+00
  -2.27724E+00 -1.07373E+00 -1.82870E+00 -2.94439E+00  3.34981E+00  2.03390E-01  7.30720E-01  5.08195E+00 -7.05423E-01  9.44007E-01
   1.55818E+00  2.74989E-02 -8.01299E-01  3.76175E+00 -1.03904E+00  6.56220E+00  6.71816E+00  1.89293E+00  4.61995E+00  5.36094E+00
   7.99946E+00  6.58111E+00  5.62083E+00  7.95350E+00  3.30838E+00 -7.43110E-03  4.99481E+00 -2.59407E+00  2.48747E+00  1.20528E+00
   2.48567E+00 -3.32090E-01  3.98103E+00  1.36457E+00  1.88081E+00  2.99666E+00  1.74307E+00  9.01039E-01  5.92622E+00  1.45242E+00
   4.64944E+00  1.50702E+00 -5.98261E-02  7.91933E+00  4.85268E+00  3.16813E+00  5.57413E+00  6.67684E+00  5.00877E+00  2.75819E+00
   2.67409E+00  4.98050E-01  3.10983E+00 -2.77236E+00  2.35320E+00 -6.11194E-01  1.59191E+00  9.52138E-01 -1.21327E+00 -6.62831E-01
  -3.01020E-02 -8.24888E-01  2.47258E-01  3.04630E-01 -8.42633E-01 -1.58846E+00 -3.36360E-01 -4.85340E+00  1.46379E+00 -4.09788E+00
  -3.78774E+00 -1.27054E+00 -2.40150E+00 -1.95332E+00 -3.66229E+00 -2.26636E+00  1.96546E-01 -7.96447E-02 -5.32537E-01  6.20491E-01
  -2.27224E+00 -1.90524E+00  6.80626E-01 -2.03190E-01 -1.53397E+00 -1.44954E+00 -2.18101E+00  1.61101E+00 -4.44008E+00 -2.70617E+00
  -3.46043E+00 -8.41174E-01 -3.41683E+00 -4.78206E+00 -1.65764E+00 -5.47113E+00  7.68734E-01 -6.54647E+00  2.52792E+00 -1.30692E+00
  -3.23582E+00 -5.38008E+00 -4.87673E+00 -1.69178E+00 -1.34029E+00 -2.18012E+00 -3.00795E+00 -5.33336E+00 -6.54406E+00 -1.98547E+00
  -7.47060E+00 -2.02971E+00 -6.65473E+00  1.62269E+00 -6.86613E+00 -5.78371E+00 -2.00503E+00  1.48740E+00 -3.08213E+00 -4.28051E+00
  -4.19288E+00  1.22050E+00 -3.29023E+00 -1.74452E+00 -1.69743E+00  2.90206E+00  2.89743E+00 -2.50145E+00 -2.58863E+00 -1.71402E+00
  -8.76499E-01  1.86654E+00  1.07486E+00  1.14462E-02 -3.36092E+00  3.00938E+00  3.48792E+00 -3.00800E+00  1.18963E+00 -1.33306E-01
  -1.07894E+00 -1.47480E+00  2.21337E+00  1.47374E+00 -7.76083E-01  5.69744E-02 -8.37687E-01 -5.50909E-01  3.58266E+00 -1.59469E-01
  -2.20455E+00 -3.01265E+00 -3.11498E-01 -2.67766E+00 -1.59050E+00  1.54019E+00  1.36341E+00  2.27511E+00  2.99124E+00  3.56848E+00
   3.27303E+00  8.51978E-01  2.23368E+00  4.09402E+00  7.36647E+00  2.12643E+00  6.25023E+00  9.17565E+00  5.41509E+00  7.00501E+00
   7.68980E+00  1.39590E+01  1.52563E+01  6.44164E+00  1.24627E+01  1.33785E+01  1.38246E+01  1.57139E+01  1.79347E+01  1.17362E+01
   1.51769E+01  1.16274E+01  1.33931E+01  9.04845E+00  8.23345E+00  4.43945E+00  5.09780E+00  9.96265E+00  9.05721E+00  5.69159E+00
   9.01338E+00  4.19732E+00  4.39285E+00  2.95773E+00  1.32823E+00 -9.42380E-01 -2.86515E-01 -5.41810E-01 -1.35595E+00  5.51507E-01
  -2.05005E-01  2.12980E-01 -1.91287E+00 -4.33341E-02  1.25924E-01 -1.31226E+00 -2.14511E+00  3.59871E+00 -2.77325E+00 -2.30099E+00
   3.37165E+00  2.87294E+00  1.30450E-01 -1.90077E+00  6.63729E-01 -2.03656E+00 -4.35577E+00  1.88042E+00  5.05748E+00 -2.27473E+00
   3.31530E+00  1.58641E+00 -2.55462E+00  9.51548E-01 -2.69217E+00  1.83964E+00  3.62683E+00  5.09369E+00  1.36392E+00  1.20197E+00
  -1.57291E-01  3.10732E+00  3.46192E+00  6.63304E-01  6.94132E-01  8.87246E+00  2.54243E+00  4.67697E+00  4.76179E+00  2.75822E+00
  -2.13567E-01  2.45515E+00  6.01174E+00  2.50972E+00  4.41179E+00  3.20466E+00  1.64322E+00  4.10691E+00  2.72545E+00  3.68913E+00
   2.62093E+00  6.93709E+00  7.50213E-01  6.13757E+00  6.64670E+00  6.30298E+00  1.63433E-01  4.56072E+00  2.10128E+00  1.38742E+00
  -6.47456E-01  8.92146E-01 -1.13951E+00  1.92205E+00  2.87397E+00 -4.32747E-01  3.61903E+00  1.97288E+00  3.02079E+00  2.09038E+00
  -9.56348E-01  2.84470E+00  2.29917E+00  2.36335E+00  3.52397E+00  1.74957E+00  4.30179E+00  4.64959E+00  4.66558E+00  5.61307E+00
   5.28848E+00  3.58475E+00  1.13423E+01  5.79327E+00  6.89845E+00  2.82842E+00  4.56367E+00  4.31160E+00  4.34026E+00  6.60259E+00
   3.48021E+00  4.51189E+00  2.96841E+00  3.53565E+00  5.22833E+00 -7.82684E-01  6.07228E+00  4.25080E+00  3.96440E+00  8.19421E-01
   4.32364E+00  1.22649E+00  2.09189E+00  5.60898E+00  4.07336E+00  3.14183E+00  2.60690E-01  4.08679E+00  1.27255E+00  1.08944E+00
   3.72099E+00  1.22003E+00  1.04151E+00  1.09816E+00  6.21425E+00  3.81536E+00  1.83249E-01  5.72073E+00  7.34462E+00  3.38471E+00
   5.27104E+00  4.24995E+00  5.65676E+00  6.56257E+00  1.22402E+00  6.69635E+00  2.74846E+00  3.00119E+00  3.68915E+00  2.70016E+00
   5.10252E+00  6.79674E-01  2.69759E-01  3.18333E+00  4.35536E+00  1.66678E+00 -2.11760E+00  5.85847E+00  5.27231E-01  1.79673E+00
  -1.36250E+00  1.16295E+00 -2.04394E+00  5.84354E-01  2.82132E+00  2.49432E+00  2.80599E-01 -8.15423E-01 -7.41318E-01  6.95420E-01
  -3.36037E+00 -1.09180E+00  1.21561E+00 -1.50048E+00 -4.91957E+00 -7.05061E-01 -1.71947E+00 -1.74159E+00 -1.28793E+00 -2.10210E+00
  -1.91154E+00 -1.88776E+00 -9.86499E-01 -2.09780E-01  1.30017E+00 -8.26430E-01 -3.05957E+00 -2.21803E+00  2.42259E-01  9.21688E-02
  -2.29727E+00  1.55158E+00  3.58969E-01 -2.38586E+00  5.38816E-01 -2.09710E+00 -6.34949E+00  1.16754E+00 -2.00147E+00 -3.29023E+00
  -2.54304E+00 -4.55801E+00 -4.10993E+00 -1.71392E+00  1.22109E-01 -3.29180E+00 -4.49211E+00 -3.66180E+00  3.12586E+00 -4.10500E+00
   1.80643E-01  9.66865E-02 -1.26411E+00 -2.50747E+00 -1.19213E+00 -3.36813E+00 -8.20075E-01 -1.27593E+00  3.43453E-01 -7.58223E-01
  -7.42413E-01 -5.83790E-01 -1.50211E+00 -9.95937E-01  2.15180E+00  4.30650E-01 -3.12986E+00 -5.82733E-01 -4.69142E-01 -3.66905E+00
  -1.97653E+00 -8.56579E-01 -5.73908E-01 -2.17155E+00 -2.97729E+00  3.70874E+00 -2.93905E+00  7.03692E-01
 NY points of the fit to the data follow
  -3.59635E-01 -4.10884E-01 -1.02941E-01 -2.44724E-01  1.34239E-01 -8.67470E-02  3.34219E-01  2.18762E-02  3.91101E-01 -2.13881E-02
   2.48186E-01 -2.11510E-01 -5.02684E-02 -4.42014E-01 -2.57086E-01 -5.61844E-01 -3.62563E-01 -6.16364E-01 -4.28166E-01 -6.80410E-01
  -5.29907E-01 -7.56598E-01 -6.43029E-01 -8.40070E-01 -7.57795E-01 -9.21921E-01 -8.47618E-01 -9.73928E-01 -8.81729E-01 -9.33002E-01
  -8.24642E-01 -8.22398E-01 -7.48750E-01 -7.43923E-01 -7.32795E-01 -7.10759E-01 -7.35319E-01 -6.89057E-01 -7.13027E-01 -6.57458E-01
  -6.80548E-01 -6.28424E-01 -6.43217E-01 -5.96927E-01 -6.06260E-01 -5.76187E-01 -6.00196E-01 -6.01649E-01 -6.51001E-01 -6.83957E-01
  -7.45606E-01 -7.81279E-01 -8.28825E-01 -8.48871E-01 -8.60642E-01 -8.73104E-01 -8.76340E-01 -8.85076E-01 -8.79598E-01 -8.92105E-01
  -8.85906E-01 -8.99322E-01 -8.98069E-01 -9.14394E-01 -9.14423E-01 -9.30143E-01 -9.25004E-01 -9.32176E-01 -8.92962E-01 -8.99637E-01
  -8.46486E-01 -8.76309E-01 -8.25980E-01 -8.83658E-01 -8.39792E-01 -9.21852E-01 -8.88220E-01 -9.90242E-01 -9.62517E-01 -1.07345E+00
  -1.04480E+00 -1.14858E+00 -1.12290E+00 -1.21211E+00 -1.14196E+00 -9.20129E-01 -6.94408E-01 -2.79693E-01  7.42338E-02  5.70448E-01
   1.02233E+00  1.50346E+00  2.01949E+00  2.42195E+00  2.96642E+00  3.24146E+00  3.78175E+00  3.91645E+00  4.43461E+00  4.42035E+00
   4.88168E+00  4.62325E+00  4.96383E+00  4.43095E+00  4.61542E+00  3.86098E+00  3.90467E+00  3.08996E+00  3.10299E+00  2.57263E+00
   2.64240E+00  2.36203E+00  2.47921E+00  2.38283E+00  2.51994E+00  2.52707E+00  2.65638E+00  2.72694E+00  2.83892E+00  2.93405E+00
   3.01983E+00  3.12326E+00  3.18692E+00  3.31757E+00  3.35450E+00  3.42796E+00  3.40041E+00  3.29146E+00  3.16901E+00  2.88582E+00
   2.69190E+00  2.32323E+00  2.10295E+00  1.73501E+00  1.51902E+00  1.17885E+00  9.76761E-01  6.70306E-01  4.82465E-01  2.03214E-01
   3.15839E-02 -2.14824E-01 -3.76160E-01 -6.04873E-01 -7.48043E-01 -9.55601E-01 -1.05849E+00 -1.20455E+00 -1.27262E+00 -1.35286E+00
  -1.40549E+00 -1.47347E+00 -1.53006E+00 -1.58940E+00 -1.65510E+00 -1.70904E+00 -1.78826E+00 -1.84433E+00 -1.94778E+00 -1.98979E+00
  -2.10034E+00 -2.11982E+00 -2.24153E+00 -2.25747E+00 -2.37983E+00 -2.39906E+00 -2.50739E+00 -2.53590E+00 -2.62557E+00 -2.67300E+00
  -2.71672E+00 -2.77189E+00 -2.75916E+00 -2.81307E+00 -2.73949E+00 -2.79988E+00 -2.69082E+00 -2.75710E+00 -2.64500E+00 -2.71038E+00
  -2.62755E+00 -2.68409E+00 -2.63521E+00 -2.62375E+00 -2.55860E+00 -2.43663E+00 -2.35666E+00 -2.10444E+00 -2.04978E+00 -1.71764E+00
  -1.75378E+00 -1.45428E+00 -1.71817E+00 -1.39928E+00 -1.81346E+00 -1.45754E+00 -1.94568E+00 -1.53029E+00 -2.03579E+00 -1.57487E+00
  -2.08560E+00 -1.61268E+00 -2.12877E+00 -1.68499E+00 -2.19344E+00 -1.77197E+00 -2.22506E+00 -1.78051E+00 -2.09121E+00 -1.60622E+00
  -1.73916E+00 -1.23391E+00 -1.22505E+00 -7.67600E-01 -7.02852E-01 -3.28441E-01 -2.70128E-01 -1.56249E-02 -4.84029E-02  1.44707E-01
   5.80234E-02  2.66237E-01  1.91755E-01  4.94155E-01  4.05575E-01  7.31101E-01  6.04285E-01  8.91819E-01  7.03136E-01  9.17009E-01
   6.68473E-01  8.18403E-01  5.60970E-01  7.31113E-01  5.65532E-01  7.71014E-01  7.25854E-01  9.48765E-01  1.00389E+00  1.18874E+00
   1.34577E+00  1.63394E+00  2.46483E+00  2.85974E+00  4.22711E+00  4.63203E+00  6.37143E+00  6.68965E+00  8.61248E+00  8.73630E+00
   1.06802E+01  1.05280E+01  1.23446E+01  1.18922E+01  1.35265E+01  1.27967E+01  1.42052E+01  1.31968E+01  1.41681E+01  1.29161E+01
   1.33410E+01  1.19334E+01  1.18205E+01  1.03936E+01  9.95071E+00  8.62390E+00  8.07638E+00  6.91581E+00  6.34362E+00  5.36224E+00
   4.80221E+00  3.99147E+00  3.44429E+00  2.79846E+00  2.29021E+00  1.79371E+00  1.33911E+00  9.73909E-01  5.83743E-01  3.52630E-01
   1.11049E-01  1.75835E-03 -7.46781E-02 -1.29176E-01 -1.77021E-01 -2.07329E-01 -2.33121E-01 -2.41552E-01 -2.46061E-01 -2.32551E-01
  -2.14648E-01 -1.77257E-01 -1.34366E-01 -6.97713E-02  1.82534E-03  9.64662E-02  1.99724E-01  3.25938E-01  4.61256E-01  6.17813E-01
   7.81723E-01  9.63038E-01  1.14797E+00  1.34408E+00  1.53761E+00  1.73432E+00  1.92036E+00  2.10044E+00  2.26120E+00  2.40711E+00
   2.52611E+00  2.62353E+00  2.68933E+00  2.73044E+00  2.73940E+00  2.72536E+00  2.68317E+00  2.62427E+00  2.54548E+00  2.46006E+00
   2.36631E+00  2.27880E+00  2.19690E+00  2.13649E+00  2.09889E+00  2.10367E+00  2.15967E+00  2.30467E+00  2.60347E+00  3.17302E+00
   3.47795E+00  4.01826E+00  4.18667E+00  4.45549E+00  4.40219E+00  4.20648E+00  3.89549E+00  3.72111E+00  3.42600E+00  3.33521E+00
   3.12516E+00  3.12518E+00  2.99673E+00  3.02364E+00  2.90013E+00  2.81051E+00  2.70654E+00  2.51358E+00  2.49966E+00  2.36635E+00
   2.55507E+00  2.72124E+00  3.14404E+00  3.52152E+00  4.02395E+00  4.34743E+00  4.76541E+00  4.83943E+00  5.06625E+00  4.90424E+00
   4.96818E+00  4.72174E+00  4.69817E+00  4.43757E+00  4.36904E+00  4.12541E+00  4.04920E+00  3.84620E+00  3.73555E+00  3.53433E+00
   3.34382E+00  3.05107E+00  2.82310E+00  2.49180E+00  2.25761E+00  1.99114E+00  1.81076E+00  1.69136E+00  1.60674E+00  1.55780E+00
   1.53447E+00  1.54292E+00  1.57525E+00  1.63850E+00  1.72499E+00  1.84148E+00  1.97974E+00  2.14570E+00  2.33011E+00  2.53767E+00
   2.75780E+00  2.99373E+00  3.23343E+00  3.47880E+00  3.71668E+00  3.94803E+00  4.15918E+00  4.35100E+00  4.51024E+00  4.63869E+00
   4.72460E+00  4.77166E+00  4.77045E+00  4.72724E+00  4.63538E+00  4.50393E+00  4.32886E+00  4.12155E+00  3.87997E+00  3.61697E+00
   3.33149E+00  3.03680E+00  2.73178E+00  2.42912E+00  2.12675E+00  1.83611E+00  1.55370E+00  1.28939E+00  1.03814E+00  8.08289E-01
   5.93430E-01  4.00680E-01  2.22644E-01  6.56041E-02 -7.84405E-02 -2.03662E-01 -3.18315E-01 -4.16712E-01 -5.07110E-01 -5.83775E-01
  -6.54832E-01 -7.14395E-01 -7.70384E-01 -8.16722E-01 -8.61115E-01 -8.97313E-01 -9.32839E-01 -9.61289E-01 -9.90024E-01 -1.01252E+00
  -1.03601E+00 -1.05390E+00 -1.07331E+00 -1.08759E+00 -1.10380E+00 -1.11522E+00 -1.12887E+00 -1.13800E+00 -1.14958E+00 -1.15685E+00
  -1.16675E+00 -1.17249E+00 -1.18099E+00 -1.18547E+00 -1.19281E+00 -1.19623E+00 -1.20259E+00 -1.20511E+00 -1.21063E+00 -1.21239E+00
  -1.21720E+00 -1.21830E+00 -1.22248E+00 -1.22301E+00 -1.22666E+00 -1.22669E+00 -1.22986E+00 -1.22945E+00 -1.23220E+00 -1.23139E+00
  -1.23376E+00 -1.23261E+00 -1.23464E+00 -1.23316E+00 -1.23487E+00 -1.23310E+00 -1.23453E+00 -1.23248E+00 -1.23363E+00 -1.23131E+00
  -1.23220E+00 -1.22963E+00 -1.23026E+00 -1.22744E+00 -1.22780E+00 -1.22472E+00 -1.22482E+00 -1.22146E+00 -1.22127E+00 -1.21761E+00
  -1.21709E+00 -1.21308E+00 -1.21218E+00 -1.20776E+00 -1.20637E+00 -1.20141E+00 -1.19940E+00 -1.19369E+00
 NY background values follow
    -2.039E+00   -2.037E+00   -2.036E+00   -2.034E+00   -2.032E+00   -2.030E+00   -2.029E+00   -2.027E+00   -2.025E+00   -2.023E+00
    -2.022E+00   -2.020E+00   -2.018E+00   -2.016E+00   -2.015E+00   -2.013E+00   -2.011E+00   -2.009E+00   -2.007E+00   -2.006E+00
    -2.004E+00   -2.002E+00   -2.000E+00   -1.999E+00   -1.997E+00   -1.995E+00   -1.993E+00   -1.992E+00   -1.990E+00   -1.988E+00
    -1.986E+00   -1.984E+00   -1.983E+00   -1.981E+00   -1.979E+00   -1.977E+00   -1.975E+00   -1.974E+00   -1.972E+00   -1.970E+00
    -1.968E+00   -1.967E+00   -1.965E+00   -1.963E+00   -1.961E+00   -1.959E+00   -1.958E+00   -1.956E+00   -1.954E+00   -1.952E+00
    -1.950E+00   -1.949E+00   -1.947E+00   -1.945E+00   -1.943E+00   -1.941E+00   -1.940E+00   -1.938E+00   -1.936E+00   -1.934E+00
    -1.932E+00   -1.930E+00   -1.929E+00   -1.927E+00   -1.925E+00   -1.923E+00   -1.921E+00   -1.920E+00   -1.918E+00   -1.916E+00
    -1.914E+00   -1.912E+00   -1.910E+00   -1.909E+00   -1.907E+00   -1.905E+00   -1.903E+00   -1.901E+00   -1.900E+00   -1.898E+00
    -1.896E+00   -1.894E+00   -1.892E+00   -1.890E+00   -1.889E+00   -1.887E+00   -1.885E+00   -1.883E+00   -1.881E+00   -1.879E+00
    -1.878E+00   -1.876E+00   -1.874E+00   -1.872E+00   -1.870E+00   -1.868E+00   -1.866E+00   -1.865E+00   -1.863E+00   -1.861E+00
    -1.859E+00   -1.857E+00   -1.855E+00   -1.854E+00   -1.852E+00   -1.850E+00   -1.848E+00   -1.846E+00   -1.844E+00   -1.842E+00
    -1.841E+00   -1.839E+00   -1.837E+00   -1.835E+00   -1.833E+00   -1.831E+00   -1.829E+00   -1.827E+00   -1.826E+00   -1.824E+00
    -1.822E+00   -1.820E+00   -1.818E+00   -1.816E+00   -1.814E+00   -1.813E+00   -1.811E+00   -1.809E+00   -1.807E+00   -1.805E+00
    -1.803E+00   -1.801E+00   -1.799E+00   -1.798E+00   -1.796E+00   -1.794E+00   -1.792E+00   -1.790E+00   -1.788E+00   -1.786E+00
    -1.784E+00   -1.782E+00   -1.781E+00   -1.779E+00   -1.777E+00   -1.775E+00   -1.773E+00   -1.771E+00   -1.769E+00   -1.767E+00
    -1.765E+00   -1.764E+00   -1.762E+00   -1.760E+00   -1.758E+00   -1.756E+00   -1.754E+00   -1.752E+00   -1.750E+00   -1.748E+00
    -1.746E+00   -1.745E+00   -1.743E+00   -1.741E+00   -1.739E+00   -1.737E+00   -1.735E+00   -1.733E+00   -1.731E+00   -1.729E+00
    -1.727E+00   -1.726E+00   -1.724E+00   -1.722E+00   -1.720E+00   -1.718E+00   -1.716E+00   -1.714E+00   -1.712E+00   -1.710E+00
    -1.708E+00   -1.706E+00   -1.704E+00   -1.703E+00   -1.701E+00   -1.699E+00   -1.697E+00   -1.695E+00   -1.693E+00   -1.691E+00
    -1.689E+00   -1.687E+00   -1.685E+00   -1.683E+00   -1.681E+00   -1.679E+00   -1.678E+00   -1.676E+00   -1.674E+00   -1.672E+00
    -1.670E+00   -1.668E+00   -1.666E+00   -1.664E+00   -1.662E+00   -1.660E+00   -1.658E+00   -1.656E+00   -1.654E+00   -1.652E+00
    -1.650E+00   -1.649E+00   -1.647E+00   -1.645E+00   -1.643E+00   -1.641E+00   -1.639E+00   -1.637E+00   -1.635E+00   -1.633E+00
    -1.631E+00   -1.629E+00   -1.627E+00   -1.625E+00   -1.623E+00   -1.621E+00   -1.619E+00   -1.617E+00   -1.615E+00   -1.614E+00
    -1.612E+00   -1.610E+00   -1.608E+00   -1.606E+00   -1.604E+00   -1.602E+00   -1.600E+00   -1.598E+00   -1.596E+00   -1.594E+00
    -1.592E+00   -1.590E+00   -1.588E+00   -1.586E+00   -1.584E+00   -1.582E+00   -1.580E+00   -1.578E+00   -1.576E+00   -1.574E+00
    -1.572E+00   -1.570E+00   -1.568E+00   -1.566E+00   -1.565E+00   -1.563E+00   -1.561E+00   -1.559E+00   -1.557E+00   -1.555E+00
    -1.553E+00   -1.551E+00   -1.549E+00   -1.547E+00   -1.545E+00   -1.543E+00   -1.541E+00   -1.539E+00   -1.537E+00   -1.535E+00
    -1.533E+00   -1.531E+00   -1.529E+00   -1.527E+00   -1.525E+00   -1.523E+00   -1.521E+00   -1.519E+00   -1.517E+00   -1.515E+00
    -1.513E+00   -1.511E+00   -1.509E+00   -1.507E+00   -1.505E+00   -1.503E+00   -1.501E+00   -1.499E+00   -1.497E+00   -1.495E+00
    -1.493E+00   -1.491E+00   -1.489E+00   -1.487E+00   -1.485E+00   -1.483E+00   -1.481E+00   -1.479E+00   -1.477E+00   -1.475E+00
    -1.473E+00   -1.471E+00   -1.469E+00   -1.467E+00   -1.465E+00   -1.463E+00   -1.462E+00   -1.460E+00   -1.458E+00   -1.456E+00
    -1.454E+00   -1.452E+00   -1.450E+00   -1.448E+00   -1.446E+00   -1.444E+00   -1.442E+00   -1.440E+00   -1.438E+00   -1.436E+00
    -1.434E+00   -1.432E+00   -1.430E+00   -1.428E+00   -1.426E+00   -1.424E+00   -1.422E+00   -1.420E+00   -1.418E+00   -1.415E+00
    -1.413E+00   -1.411E+00   -1.409E+00   -1.407E+00   -1.405E+00   -1.403E+00   -1.401E+00   -1.399E+00   -1.397E+00   -1.395E+00
    -1.393E+00   -1.391E+00   -1.389E+00   -1.387E+00   -1.385E+00   -1.383E+00   -1.381E+00   -1.379E+00   -1.377E+00   -1.375E+00
    -1.373E+00   -1.371E+00   -1.369E+00   -1.367E+00   -1.365E+00   -1.363E+00   -1.361E+00   -1.359E+00   -1.357E+00   -1.355E+00
    -1.353E+00   -1.351E+00   -1.349E+00   -1.347E+00   -1.345E+00   -1.343E+00   -1.341E+00   -1.339E+00   -1.337E+00   -1.335E+00
    -1.333E+00   -1.331E+00   -1.329E+00   -1.327E+00   -1.325E+00   -1.323E+00   -1.321E+00   -1.319E+00   -1.317E+00   -1.315E+00
    -1.313E+00   -1.311E+00   -1.309E+00   -1.307E+00   -1.305E+00   -1.303E+00   -1.301E+00   -1.299E+00   -1.297E+00   -1.294E+00
    -1.292E+00   -1.290E+00   -1.288E+00   -1.286E+00   -1.284E+00   -1.282E+00   -1.280E+00   -1.278E+00   -1.276E+00   -1.274E+00
    -1.272E+00   -1.270E+00   -1.268E+00   -1.266E+00   -1.264E+00   -1.262E+00   -1.260E+00   -1.258E+00   -1.256E+00   -1.254E+00
    -1.252E+00   -1.250E+00   -1.248E+00   -1.246E+00   -1.244E+00   -1.242E+00   -1.240E+00   -1.238E+00   -1.236E+00   -1.234E+00
    -1.231E+00   -1.229E+00   -1.227E+00   -1.225E+00   -1.223E+00   -1.221E+00   -1.219E+00   -1.217E+00   -1.215E+00   -1.213E+00
    -1.211E+00   -1.209E+00   -1.207E+00   -1.205E+00   -1.203E+00   -1.201E+00   -1.199E+00   -1.197E+00   -1.195E+00   -1.193E+00
    -1.191E+00   -1.189E+00   -1.187E+00   -1.185E+00   -1.183E+00   -1.181E+00   -1.178E+00   -1.176E+00   -1.174E+00   -1.172E+00
    -1.170E+00   -1.168E+00   -1.166E+00   -1.164E+00   -1.162E+00   -1.160E+00   -1.158E+00   -1.156E+00   -1.154E+00   -1.152E+00
    -1.150E+00   -1.148E+00   -1.146E+00   -1.144E+00   -1.142E+00   -1.140E+00   -1.138E+00   -1.136E+00   -1.134E+00   -1.132E+00
    -1.129E+00   -1.127E+00   -1.125E+00   -1.123E+00   -1.121E+00   -1.119E+00   -1.117E+00   -1.115E+00   -1.113E+00   -1.111E+00
    -1.109E+00   -1.107E+00   -1.105E+00   -1.103E+00   -1.101E+00   -1.099E+00   -1.097E+00   -1.095E+00   -1.093E+00   -1.091E+00
    -1.089E+00   -1.087E+00   -1.084E+00   -1.082E+00   -1.080E+00   -1.078E+00   -1.076E+00   -1.074E+00
 Asp      Conc. = 7.70E+01
