 LCModel (Version 6.3-1L) Copyright: S.W. Provencher.          Ref.: Magn. Reson. Med. 30:672-679 (1993).                
 Slice#3 Row#11 Col#2  PD_05_press_1_raw_act
 36 lines in following concentration table = NCONC+1
    Conc.  %SD /Cr+PCr  Metabolite                                         
    0.000 999%   0.000 Ala                                                 
   35.437 112%   2.507 Asp                                                 
   14.133 108%   1.000 Cr                                                  
    0.000 999%   0.000 PCr                                                 
   29.353  88%   2.077 GABA                                                
    3.963 624%   0.280 Glc                                                 
    0.000 999%   0.000 Gln                                                 
 1.23E+03  25%  86.991 Glu                                                 
    3.268 180%   0.231 GPC                                                 
    0.000 999%   0.000 PCh                                                 
    0.000 999%   0.000 GSH                                                 
    0.000 999%   0.000 Ins                                                 
    0.000 999%   0.000 Lac                                                 
    0.000 999%   0.000 NAA                                                 
  292.475  23%  20.695 NAAG                                                
    1.492 416%   0.106 Scyllo                                              
   19.234 211%   1.361 Tau                                                 
    0.000 999%   0.000 -CrCH2                                              
    3.268 180%   0.231 GPC+PCh                                             
  292.475  23%  20.695 NAA+NAAG                                            
   14.133 108%   1.000 Cr+PCr                                              
 1.23E+03  25%  86.991 Glu+Gln                                             
 1.64E+04   7% 1.2E+03 Lip13a                                              
    0.000 999%   0.000 Lip13b                                              
 4.09E+03   8% 289.737 Lip09                                               
    0.000 999%   0.000 MM09                                                
 2.98E+03   4% 211.150+Lip20                                               
  203.006  74%  14.364 MM20                                                
    0.000 999%   0.000 MM12                                                
   37.475 443%   2.652 MM14                                                
   43.760 234%   3.096 MM17                                                
 1.64E+04   7% 1.2E+03 Lip13a+Lip13b                                       
 1.65E+04   7% 1.2E+03 MM14+Lip13a+Lip13b+MM12                             
 4.09E+03   8% 289.737 MM09+Lip09                                          
 3.19E+03   5% 225.514 MM20+Lip20                                          
   6 lines in following misc. output table
  FWHM = 0.122 ppm    S/N =   9                                            
  Data shift =-0.076 ppm                                                   
  Ph: 134 deg       1.5 deg/ppm                                            
  alphaB,S = 2.8E-01,   1.7E+01                                            
   10 spline knots.   Ns = 9(2)                                            
   3 inflections.     2 extrema                                            
  498 points on ppm-axis = NY
      4.000000     3.992357     3.984714     3.977070     3.969427     3.961784     3.954141     3.946497     3.938854     3.931211
      3.923568     3.915925     3.908281     3.900638     3.892995     3.885352     3.877708     3.870065     3.862422     3.854779
      3.847136     3.839492     3.831849     3.824206     3.816563     3.808919     3.801276     3.793633     3.785990     3.778347
      3.770703     3.763060     3.755417     3.747774     3.740130     3.732487     3.724844     3.717201     3.709558     3.701914
      3.694271     3.686628     3.678985     3.671341     3.663698     3.656055     3.648412     3.640769     3.633125     3.625482
      3.617839     3.610196     3.602552     3.594909     3.587266     3.579623     3.571980     3.564336     3.556693     3.549050
      3.541407     3.533763     3.526120     3.518477     3.510834     3.503191     3.495547     3.487904     3.480261     3.472618
      3.464974     3.457331     3.449688     3.442045     3.434402     3.426758     3.419115     3.411472     3.403829     3.396185
      3.388542     3.380899     3.373256     3.365613     3.357969     3.350326     3.342683     3.335040     3.327396     3.319753
      3.312110     3.304467     3.296824     3.289180     3.281537     3.273894     3.266251     3.258607     3.250964     3.243321
      3.235678     3.228034     3.220391     3.212748     3.205105     3.197462     3.189818     3.182175     3.174532     3.166889
      3.159245     3.151602     3.143959     3.136316     3.128673     3.121029     3.113386     3.105743     3.098100     3.090456
      3.082813     3.075170     3.067527     3.059884     3.052240     3.044597     3.036954     3.029311     3.021667     3.014024
      3.006381     2.998738     2.991095     2.983451     2.975808     2.968165     2.960522     2.952878     2.945235     2.937592
      2.929949     2.922306     2.914662     2.907019     2.899376     2.891733     2.884089     2.876446     2.868803     2.861160
      2.853517     2.845873     2.838230     2.830587     2.822944     2.815300     2.807657     2.800014     2.792371     2.784728
      2.777084     2.769441     2.761798     2.754155     2.746511     2.738868     2.731225     2.723582     2.715939     2.708295
      2.700652     2.693009     2.685366     2.677722     2.670079     2.662436     2.654793     2.647150     2.639506     2.631863
      2.624220     2.616577     2.608933     2.601290     2.593647     2.586004     2.578361     2.570717     2.563074     2.555431
      2.547788     2.540144     2.532501     2.524858     2.517215     2.509572     2.501928     2.494285     2.486642     2.478999
      2.471355     2.463712     2.456069     2.448426     2.440783     2.433139     2.425496     2.417853     2.410210     2.402566
      2.394923     2.387280     2.379637     2.371994     2.364350     2.356707     2.349064     2.341421     2.333777     2.326134
      2.318491     2.310848     2.303205     2.295561     2.287918     2.280275     2.272632     2.264988     2.257345     2.249702
      2.242059     2.234416     2.226772     2.219129     2.211486     2.203843     2.196199     2.188556     2.180913     2.173270
      2.165627     2.157983     2.150340     2.142697     2.135054     2.127410     2.119767     2.112124     2.104481     2.096838
      2.089194     2.081551     2.073908     2.066265     2.058621     2.050978     2.043335     2.035692     2.028049     2.020405
      2.012762     2.005119     1.997476     1.989833     1.982190     1.974546     1.966903     1.959260     1.951617     1.943974
      1.936331     1.928688     1.921045     1.913402     1.905759     1.898115     1.890472     1.882829     1.875186     1.867543
      1.859900     1.852257     1.844614     1.836971     1.829327     1.821684     1.814041     1.806398     1.798755     1.791112
      1.783469     1.775826     1.768183     1.760540     1.752896     1.745253     1.737610     1.729967     1.722324     1.714681
      1.707038     1.699395     1.691752     1.684108     1.676465     1.668822     1.661179     1.653536     1.645893     1.638250
      1.630607     1.622964     1.615321     1.607677     1.600034     1.592391     1.584748     1.577105     1.569462     1.561819
      1.554176     1.546533     1.538890     1.531246     1.523603     1.515960     1.508317     1.500674     1.493031     1.485388
      1.477745     1.470102     1.462458     1.454815     1.447172     1.439529     1.431886     1.424243     1.416600     1.408957
      1.401314     1.393671     1.386027     1.378384     1.370741     1.363098     1.355455     1.347812     1.340169     1.332526
      1.324883     1.317240     1.309596     1.301953     1.294310     1.286667     1.279024     1.271381     1.263738     1.256095
      1.248452     1.240808     1.233165     1.225522     1.217879     1.210236     1.202593     1.194950     1.187307     1.179664
      1.172021     1.164377     1.156734     1.149091     1.141448     1.133805     1.126162     1.118519     1.110876     1.103233
      1.095590     1.087946     1.080303     1.072660     1.065017     1.057374     1.049731     1.042088     1.034445     1.026802
      1.019158     1.011515     1.003872     0.996229     0.988586     0.980943     0.973300     0.965657     0.958014     0.950371
      0.942727     0.935084     0.927441     0.919798     0.912155     0.904512     0.896869     0.889226     0.881583     0.873940
      0.866296     0.858653     0.851010     0.843367     0.835724     0.828081     0.820438     0.812795     0.805152     0.797508
      0.789865     0.782222     0.774579     0.766936     0.759293     0.751650     0.744007     0.736364     0.728721     0.721077
      0.713434     0.705791     0.698148     0.690505     0.682862     0.675219     0.667576     0.659933     0.652290     0.644646
      0.637003     0.629360     0.621717     0.614074     0.606431     0.598788     0.591145     0.583502     0.575858     0.568215
      0.560572     0.552929     0.545286     0.537643     0.530000     0.522357     0.514714     0.507071     0.499427     0.491784
      0.484141     0.476498     0.468855     0.461212     0.453569     0.445925     0.438282     0.430639     0.422996     0.415353
      0.407710     0.400067     0.392424     0.384780     0.377137     0.369494     0.361851     0.354208     0.346565     0.338922
      0.331278     0.323635     0.315992     0.308349     0.300706     0.293063     0.285420     0.277777     0.270133     0.262490
      0.254847     0.247204     0.239561     0.231918     0.224275     0.216631     0.208988     0.201345
 NY phased data points follow
   3.65489E+01  3.61209E+01  3.64271E+01  3.46022E+01  3.70040E+01  3.61852E+01  3.70879E+01  3.43112E+01  3.51828E+01  3.46912E+01
   3.52681E+01  3.63422E+01  3.44688E+01  3.31536E+01  3.33398E+01  3.34628E+01  3.24225E+01  3.36321E+01  3.36559E+01  3.29497E+01
   3.14380E+01  3.24734E+01  3.12270E+01  3.05478E+01  3.21862E+01  3.15442E+01  2.99753E+01  3.07179E+01  3.02058E+01  2.87921E+01
   2.75079E+01  2.76787E+01  2.81856E+01  2.60416E+01  2.97750E+01  2.66364E+01  2.57765E+01  2.64931E+01  2.75885E+01  2.69482E+01
   2.52564E+01  2.48961E+01  2.57905E+01  2.39929E+01  2.32195E+01  2.35795E+01  2.42447E+01  2.43627E+01  2.28583E+01  2.22401E+01
   2.22761E+01  2.11459E+01  2.23621E+01  2.09821E+01  2.05509E+01  2.16148E+01  2.01732E+01  2.05466E+01  2.04148E+01  1.85655E+01
   1.82399E+01  2.14822E+01  1.96927E+01  1.95575E+01  1.74235E+01  1.83886E+01  1.88543E+01  1.72756E+01  1.68245E+01  1.80854E+01
   1.60070E+01  1.70208E+01  1.72093E+01  1.52631E+01  1.52680E+01  1.49829E+01  1.54424E+01  1.51688E+01  1.56052E+01  1.40572E+01
   1.34905E+01  1.43334E+01  1.51047E+01  1.46005E+01  1.30313E+01  1.35338E+01  1.30259E+01  1.27465E+01  1.17863E+01  1.21366E+01
   1.33052E+01  1.18140E+01  1.01933E+01  9.98374E+00  1.04614E+01  1.00240E+01  9.26328E+00  1.21608E+01  1.01848E+01  8.58372E+00
   9.51298E+00  1.06231E+01  9.27983E+00  8.61556E+00  7.06342E+00  8.86893E+00  7.32658E+00  6.98446E+00  7.71911E+00  6.62840E+00
   5.90890E+00  6.19524E+00  6.42662E+00  5.02299E+00  4.77318E+00  5.87705E+00  4.75011E+00  4.10837E+00  5.03840E+00  3.98581E+00
   2.87177E+00  2.52025E+00  3.10018E+00  2.52801E+00  1.90827E+00  1.90557E+00  1.79560E+00  2.16288E+00  1.02575E+00 -7.13684E-02
   5.54172E-01  1.51534E+00 -4.67790E-02  1.41925E+00 -2.36516E-01 -2.04576E+00 -1.06585E+00 -1.82469E+00 -2.23886E+00 -1.82455E+00
  -2.88775E+00 -1.29895E+00 -2.25167E+00 -2.75795E+00 -2.97410E+00 -4.63493E+00 -4.39836E+00 -5.57329E+00 -4.99765E+00 -4.62935E+00
  -5.11187E+00 -4.65348E+00 -5.15340E+00 -4.56707E+00 -4.87620E+00 -4.91703E+00 -3.73333E+00 -2.80955E+00 -3.75916E+00 -3.26700E+00
  -3.19519E+00 -2.63337E+00 -2.67055E+00 -2.75399E+00 -2.06188E+00 -2.30020E+00 -3.02113E+00 -3.33384E+00 -2.01125E+00 -4.04498E+00
  -4.68614E+00 -4.33252E+00 -3.63066E+00 -4.42562E+00 -4.47895E+00 -5.15933E+00 -5.29182E+00 -5.56162E+00 -5.40701E+00 -5.34746E+00
  -6.04251E+00 -7.19502E+00 -7.83489E+00 -7.65674E+00 -8.44413E+00 -9.67589E+00 -9.36258E+00 -1.12864E+01 -9.36019E+00 -1.01729E+01
  -9.34634E+00 -1.07494E+01 -1.24891E+01 -1.26536E+01 -1.34645E+01 -1.29227E+01 -1.44381E+01 -1.34583E+01 -1.41919E+01 -1.48076E+01
  -1.41543E+01 -1.51867E+01 -1.45167E+01 -1.60515E+01 -1.40533E+01 -1.47099E+01 -1.68794E+01 -1.52209E+01 -1.69456E+01 -1.50874E+01
  -1.71035E+01 -1.63503E+01 -1.47692E+01 -1.52970E+01 -1.32156E+01 -1.42095E+01 -1.26657E+01 -1.00399E+01 -1.05329E+01 -8.79071E+00
  -7.50418E+00 -5.39773E+00 -4.83158E+00 -2.38912E+00 -3.16181E-01  1.70371E+00  3.09465E+00  4.70038E+00  5.99040E+00  8.34608E+00
   9.30245E+00  1.20056E+01  1.35833E+01  1.53943E+01  1.60031E+01  1.81399E+01  2.07775E+01  2.11601E+01  2.20529E+01  2.39461E+01
   2.42751E+01  2.42516E+01  2.56547E+01  2.60860E+01  2.80960E+01  2.58969E+01  2.92898E+01  2.89301E+01  2.95124E+01  3.00351E+01
   3.00817E+01  3.06367E+01  3.17933E+01  3.31065E+01  3.29445E+01  3.48473E+01  3.55216E+01  3.44952E+01  3.68516E+01  3.67253E+01
   3.74998E+01  3.75786E+01  3.92536E+01  3.63215E+01  3.87193E+01  3.92330E+01  3.93844E+01  3.81722E+01  3.92890E+01  3.99641E+01
   3.81885E+01  3.86220E+01  3.71909E+01  3.98538E+01  3.97135E+01  3.80221E+01  3.69953E+01  3.54783E+01  3.68340E+01  3.63788E+01
   3.60987E+01  3.70708E+01  3.72163E+01  3.64422E+01  3.83225E+01  3.77933E+01  3.74314E+01  3.81271E+01  3.76032E+01  3.81697E+01
   3.56683E+01  3.84221E+01  3.85748E+01  3.89206E+01  3.69450E+01  3.68166E+01  3.87550E+01  3.88456E+01  3.99880E+01  3.79711E+01
   3.96269E+01  3.87384E+01  3.98267E+01  3.89173E+01  3.98066E+01  4.05378E+01  4.04959E+01  3.92462E+01  3.92986E+01  4.06147E+01
   4.05217E+01  3.94933E+01  3.98151E+01  4.05928E+01  3.93446E+01  4.16283E+01  3.97911E+01  4.09034E+01  4.15014E+01  4.10794E+01
   4.23634E+01  4.27803E+01  4.17880E+01  4.08672E+01  4.10172E+01  4.15766E+01  3.96492E+01  4.14092E+01  4.01034E+01  4.13078E+01
   4.12860E+01  4.17991E+01  4.18483E+01  4.17026E+01  4.19773E+01  4.12001E+01  4.07449E+01  4.14965E+01  4.16978E+01  4.08610E+01
   4.22063E+01  4.16571E+01  4.22180E+01  3.89976E+01  4.06146E+01  3.94087E+01  3.82258E+01  4.03296E+01  3.91767E+01  3.81839E+01
   3.78076E+01  3.70741E+01  3.73896E+01  3.58412E+01  3.59808E+01  3.43163E+01  3.43165E+01  3.26524E+01  3.31964E+01  3.21204E+01
   3.19651E+01  3.18123E+01  3.17272E+01  2.98364E+01  3.04131E+01  3.17491E+01  2.90461E+01  2.87334E+01  2.77180E+01  2.64867E+01
   2.60011E+01  2.69341E+01  2.38311E+01  2.28700E+01  2.40122E+01  2.35874E+01  2.23509E+01  2.31822E+01  2.00940E+01  2.16372E+01
   2.06641E+01  2.10032E+01  2.11998E+01  2.04403E+01  2.04845E+01  1.89032E+01  2.06894E+01  2.01342E+01  2.07303E+01  1.85888E+01
   2.00861E+01  1.88254E+01  2.11057E+01  1.99620E+01  2.10773E+01  1.89708E+01  1.96883E+01  1.80523E+01  1.83944E+01  1.84802E+01
   1.68397E+01  1.75434E+01  1.73453E+01  1.71666E+01  1.74496E+01  1.66117E+01  1.62708E+01  1.78793E+01  1.68205E+01  1.69791E+01
   1.72476E+01  1.70707E+01  1.60745E+01  1.69821E+01  1.56460E+01  1.61675E+01  1.74358E+01  1.56686E+01  1.63403E+01  1.58893E+01
   1.71524E+01  1.57346E+01  1.62176E+01  1.54675E+01  1.48623E+01  1.57036E+01  1.47444E+01  1.43199E+01  1.50843E+01  1.35565E+01
   1.46621E+01  1.42960E+01  1.42159E+01  1.30856E+01  1.26883E+01  1.38188E+01  1.46392E+01  1.44007E+01  1.34676E+01  1.39860E+01
   1.42054E+01  1.39106E+01  1.44439E+01  1.35532E+01  1.33387E+01  1.52876E+01  1.39627E+01  1.32371E+01  1.32302E+01  1.27692E+01
   1.27707E+01  1.32681E+01  1.44878E+01  1.15119E+01  1.44708E+01  1.23787E+01  1.11593E+01  1.14289E+01  1.27597E+01  1.07666E+01
   1.15387E+01  1.18650E+01  1.10053E+01  1.04884E+01  1.19782E+01  1.13974E+01  1.28777E+01  1.11952E+01  9.72649E+00  1.11398E+01
   1.13754E+01  1.11005E+01  1.01702E+01  1.12378E+01  1.07674E+01  9.96013E+00  8.84669E+00  9.36096E+00  9.19349E+00  1.02259E+01
   9.76125E+00  1.01994E+01  1.06469E+01  9.80662E+00  1.03090E+01  1.02342E+01  9.73491E+00  9.99638E+00  9.39937E+00  1.00959E+01
   9.59609E+00  8.21369E+00  8.89090E+00  9.00484E+00  8.52571E+00  8.65542E+00  9.70597E+00  8.91072E+00
 NY points of the fit to the data follow
   3.66117E+01  3.63219E+01  3.61047E+01  3.57978E+01  3.56058E+01  3.53314E+01  3.51824E+01  3.50605E+01  3.52625E+01  3.54851E+01
   3.48762E+01  3.46387E+01  3.36015E+01  3.32062E+01  3.24438E+01  3.29467E+01  3.27335E+01  3.36637E+01  3.29648E+01  3.35152E+01
   3.21463E+01  3.21320E+01  3.12913E+01  3.16456E+01  3.10064E+01  3.12848E+01  3.04953E+01  3.03381E+01  2.96532E+01  2.93655E+01
   2.91023E+01  2.88661E+01  2.87997E+01  2.84389E+01  2.82603E+01  2.75653E+01  2.73888E+01  2.66222E+01  2.66259E+01  2.59511E+01
   2.60070E+01  2.53553E+01  2.52969E+01  2.46443E+01  2.45477E+01  2.39815E+01  2.36494E+01  2.30875E+01  2.27398E+01  2.23299E+01
   2.21840E+01  2.20829E+01  2.19622E+01  2.18295E+01  2.14336E+01  2.10788E+01  2.05598E+01  2.01669E+01  1.98860E+01  1.96513E+01
   1.94555E+01  1.92530E+01  1.90209E+01  1.87793E+01  1.85507E+01  1.82955E+01  1.80567E+01  1.77859E+01  1.75643E+01  1.72940E+01
   1.70576E+01  1.67831E+01  1.65354E+01  1.62673E+01  1.60316E+01  1.57589E+01  1.54908E+01  1.51976E+01  1.49044E+01  1.46112E+01
   1.43340E+01  1.40819E+01  1.37882E+01  1.35306E+01  1.32508E+01  1.30996E+01  1.28214E+01  1.26671E+01  1.23682E+01  1.21823E+01
   1.18962E+01  1.17088E+01  1.14198E+01  1.12029E+01  1.09128E+01  1.06581E+01  1.03651E+01  1.00727E+01  9.77332E+00  9.46179E+00
   9.17037E+00  8.85017E+00  8.54508E+00  8.21108E+00  7.90760E+00  7.53102E+00  7.21418E+00  6.83475E+00  6.54503E+00  6.33032E+00
   6.13103E+00  5.86832E+00  5.67762E+00  5.40410E+00  5.20959E+00  4.94936E+00  4.74335E+00  4.45200E+00  4.24244E+00  3.92284E+00
   3.67770E+00  3.34941E+00  3.06987E+00  2.72391E+00  2.40436E+00  2.03664E+00  1.71268E+00  1.33920E+00  1.02167E+00  6.40761E-01
   2.86147E-01 -6.83978E-02 -4.19640E-01 -7.53489E-01 -1.08731E+00 -1.43970E+00 -1.85546E+00 -2.13095E+00 -2.50823E+00 -2.68009E+00
  -2.91844E+00 -3.05413E+00 -3.32020E+00 -3.38304E+00 -3.58283E+00 -3.55106E+00 -3.66508E+00 -3.61857E+00 -3.68509E+00 -3.59694E+00
  -3.62406E+00 -3.57583E+00 -3.57633E+00 -3.35477E+00 -3.25624E+00 -2.95107E+00 -2.85474E+00 -2.67590E+00 -2.58213E+00 -2.42778E+00
  -2.35382E+00 -2.27300E+00 -2.26086E+00 -2.36496E+00 -2.53702E+00 -2.70913E+00 -2.89487E+00 -3.13517E+00 -3.39119E+00 -3.72858E+00
  -4.09612E+00 -4.50025E+00 -4.91720E+00 -5.33046E+00 -5.73737E+00 -6.29043E+00 -6.70592E+00 -7.32594E+00 -7.79499E+00 -8.44302E+00
  -8.86785E+00 -9.36281E+00 -9.71062E+00 -1.01345E+01 -1.04329E+01 -1.07888E+01 -1.09995E+01 -1.11316E+01 -1.11495E+01 -1.14163E+01
  -1.16431E+01 -1.19377E+01 -1.27953E+01 -1.30913E+01 -1.39968E+01 -1.39677E+01 -1.42396E+01 -1.32277E+01 -1.16441E+01 -1.09079E+01
  -1.00238E+01 -9.95869E+00 -9.66858E+00 -1.05297E+01 -1.14854E+01 -1.33558E+01 -1.36711E+01 -1.45087E+01 -1.45573E+01 -1.48040E+01
  -1.49246E+01 -1.47786E+01 -1.43878E+01 -1.37667E+01 -1.30884E+01 -1.19589E+01 -1.10621E+01 -9.52918E+00 -8.76421E+00 -7.12768E+00
  -6.19695E+00 -4.37050E+00 -3.41272E+00 -1.64931E+00 -5.66332E-01  9.65377E-01  2.44713E+00  4.05048E+00  5.75753E+00  7.13486E+00
   9.27025E+00  1.03674E+01  1.23597E+01  1.28000E+01  1.47713E+01  1.49002E+01  1.68889E+01  1.93877E+01  2.12377E+01  2.21820E+01
   2.28261E+01  2.32730E+01  2.43356E+01  2.59206E+01  2.71341E+01  2.85502E+01  2.93849E+01  3.01471E+01  3.04727E+01  3.09581E+01
   3.11290E+01  3.19400E+01  3.23866E+01  3.35089E+01  3.38996E+01  3.48071E+01  3.51415E+01  3.56849E+01  3.60049E+01  3.67461E+01
   3.72188E+01  3.77097E+01  3.80856E+01  3.81702E+01  3.83704E+01  3.84103E+01  3.83747E+01  3.81655E+01  3.78616E+01  3.75687E+01
   3.73411E+01  3.74315E+01  3.74127E+01  3.78641E+01  3.77644E+01  3.75379E+01  3.71843E+01  3.67462E+01  3.65697E+01  3.63604E+01
   3.63791E+01  3.62987E+01  3.64236E+01  3.64184E+01  3.65642E+01  3.66525E+01  3.68145E+01  3.69553E+01  3.71522E+01  3.73391E+01
   3.75701E+01  3.77920E+01  3.80609E+01  3.82611E+01  3.84883E+01  3.86440E+01  3.88313E+01  3.89508E+01  3.91138E+01  3.92070E+01
   3.93579E+01  3.94471E+01  3.95699E+01  3.96479E+01  3.97444E+01  3.98061E+01  3.98822E+01  3.99362E+01  3.99980E+01  4.00558E+01
   4.01131E+01  4.01681E+01  4.02190E+01  4.02698E+01  4.03165E+01  4.03677E+01  4.04150E+01  4.04721E+01  4.05308E+01  4.05968E+01
   4.06664E+01  4.07406E+01  4.08169E+01  4.08958E+01  4.09753E+01  4.10554E+01  4.11344E+01  4.12116E+01  4.12850E+01  4.13536E+01
   4.14151E+01  4.14679E+01  4.15100E+01  4.15394E+01  4.15541E+01  4.15519E+01  4.15306E+01  4.14884E+01  4.14230E+01  4.13325E+01
   4.12152E+01  4.10693E+01  4.08933E+01  4.06860E+01  4.04463E+01  4.01734E+01  3.98669E+01  3.95267E+01  3.91528E+01  3.87458E+01
   3.83066E+01  3.78364E+01  3.73368E+01  3.68095E+01  3.62570E+01  3.56817E+01  3.50863E+01  3.44731E+01  3.38446E+01  3.32035E+01
   3.25524E+01  3.18943E+01  3.12321E+01  3.05687E+01  2.99072E+01  2.92502E+01  2.86008E+01  2.79614E+01  2.73348E+01  2.67231E+01
   2.61286E+01  2.55533E+01  2.49989E+01  2.44669E+01  2.39587E+01  2.34752E+01  2.30173E+01  2.25856E+01  2.21806E+01  2.18022E+01
   2.14506E+01  2.11254E+01  2.08262E+01  2.05524E+01  2.03033E+01  2.00778E+01  1.98748E+01  1.96933E+01  1.95317E+01  1.93887E+01
   1.92628E+01  1.91523E+01  1.90555E+01  1.89707E+01  1.88961E+01  1.88300E+01  1.87705E+01  1.87159E+01  1.86644E+01  1.86144E+01
   1.85643E+01  1.85125E+01  1.84576E+01  1.83982E+01  1.83333E+01  1.82619E+01  1.81830E+01  1.80959E+01  1.80001E+01  1.78952E+01
   1.77811E+01  1.76577E+01  1.75252E+01  1.73838E+01  1.72339E+01  1.70761E+01  1.69110E+01  1.67394E+01  1.65622E+01  1.63801E+01
   1.61941E+01  1.60051E+01  1.58140E+01  1.56218E+01  1.54294E+01  1.52375E+01  1.50471E+01  1.48587E+01  1.46733E+01  1.44915E+01
   1.43140E+01  1.41413E+01  1.39740E+01  1.38124E+01  1.36568E+01  1.35075E+01  1.33646E+01  1.32282E+01  1.30983E+01  1.29750E+01
   1.28581E+01  1.27474E+01  1.26429E+01  1.25443E+01  1.24513E+01  1.23638E+01  1.22814E+01  1.22038E+01  1.21307E+01  1.20619E+01
   1.19970E+01  1.19356E+01  1.18775E+01  1.18223E+01  1.17698E+01  1.17195E+01  1.16713E+01  1.16247E+01  1.15796E+01  1.15357E+01
   1.14926E+01  1.14501E+01  1.14080E+01  1.13660E+01  1.13239E+01  1.12815E+01  1.12385E+01  1.11948E+01  1.11502E+01  1.11044E+01
   1.10573E+01  1.10088E+01  1.09587E+01  1.09067E+01  1.08529E+01  1.07970E+01  1.07390E+01  1.06786E+01  1.06159E+01  1.05506E+01
   1.04827E+01  1.04121E+01  1.03387E+01  1.02625E+01  1.01834E+01  1.01013E+01  1.00162E+01  9.92801E+00  9.83676E+00  9.74244E+00
   9.64504E+00  9.54460E+00  9.44118E+00  9.33489E+00  9.22588E+00  9.11435E+00  9.00062E+00  8.88514E+00
 NY background values follow
     4.063E+01    4.034E+01    4.005E+01    3.975E+01    3.946E+01    3.916E+01    3.887E+01    3.858E+01    3.829E+01    3.799E+01
     3.770E+01    3.741E+01    3.712E+01    3.683E+01    3.653E+01    3.624E+01    3.595E+01    3.566E+01    3.537E+01    3.508E+01
     3.479E+01    3.450E+01    3.421E+01    3.392E+01    3.364E+01    3.335E+01    3.306E+01    3.277E+01    3.248E+01    3.220E+01
     3.191E+01    3.162E+01    3.134E+01    3.105E+01    3.077E+01    3.048E+01    3.020E+01    2.991E+01    2.963E+01    2.935E+01
     2.906E+01    2.878E+01    2.850E+01    2.821E+01    2.793E+01    2.765E+01    2.737E+01    2.709E+01    2.681E+01    2.652E+01
     2.624E+01    2.596E+01    2.568E+01    2.540E+01    2.512E+01    2.485E+01    2.457E+01    2.429E+01    2.401E+01    2.373E+01
     2.345E+01    2.318E+01    2.290E+01    2.262E+01    2.234E+01    2.207E+01    2.179E+01    2.151E+01    2.124E+01    2.096E+01
     2.068E+01    2.041E+01    2.013E+01    1.986E+01    1.958E+01    1.931E+01    1.903E+01    1.875E+01    1.848E+01    1.820E+01
     1.793E+01    1.765E+01    1.738E+01    1.710E+01    1.682E+01    1.655E+01    1.627E+01    1.599E+01    1.572E+01    1.544E+01
     1.516E+01    1.488E+01    1.460E+01    1.432E+01    1.405E+01    1.377E+01    1.348E+01    1.320E+01    1.292E+01    1.264E+01
     1.236E+01    1.207E+01    1.179E+01    1.150E+01    1.122E+01    1.093E+01    1.065E+01    1.036E+01    1.007E+01    9.778E+00
     9.487E+00    9.195E+00    8.903E+00    8.609E+00    8.314E+00    8.018E+00    7.720E+00    7.422E+00    7.122E+00    6.821E+00
     6.519E+00    6.216E+00    5.911E+00    5.604E+00    5.297E+00    4.988E+00    4.677E+00    4.365E+00    4.051E+00    3.736E+00
     3.419E+00    3.100E+00    2.780E+00    2.458E+00    2.134E+00    1.808E+00    1.480E+00    1.151E+00    8.194E-01    4.861E-01
     1.507E-01   -1.867E-01   -5.262E-01   -8.678E-01   -1.211E+00   -1.556E+00   -1.902E+00   -2.249E+00   -2.596E+00   -2.944E+00
    -3.291E+00   -3.638E+00   -3.984E+00   -4.329E+00   -4.673E+00   -5.015E+00   -5.355E+00   -5.692E+00   -6.027E+00   -6.358E+00
    -6.686E+00   -7.011E+00   -7.331E+00   -7.647E+00   -7.958E+00   -8.264E+00   -8.564E+00   -8.859E+00   -9.147E+00   -9.430E+00
    -9.705E+00   -9.973E+00   -1.023E+01   -1.049E+01   -1.073E+01   -1.097E+01   -1.120E+01   -1.141E+01   -1.162E+01   -1.182E+01
    -1.201E+01   -1.219E+01   -1.235E+01   -1.251E+01   -1.265E+01   -1.279E+01   -1.291E+01   -1.301E+01   -1.311E+01   -1.319E+01
    -1.325E+01   -1.331E+01   -1.335E+01   -1.337E+01   -1.338E+01   -1.337E+01   -1.335E+01   -1.331E+01   -1.326E+01   -1.318E+01
    -1.309E+01   -1.299E+01   -1.286E+01   -1.272E+01   -1.256E+01   -1.238E+01   -1.218E+01   -1.196E+01   -1.172E+01   -1.146E+01
    -1.118E+01   -1.088E+01   -1.056E+01   -1.022E+01   -9.850E+00   -9.463E+00   -9.056E+00   -8.628E+00   -8.182E+00   -7.717E+00
    -7.233E+00   -6.733E+00   -6.216E+00   -5.684E+00   -5.136E+00   -4.574E+00   -3.998E+00   -3.409E+00   -2.808E+00   -2.195E+00
    -1.571E+00   -9.373E-01   -2.938E-01    3.584E-01    1.019E+00    1.687E+00    2.361E+00    3.041E+00    3.727E+00    4.417E+00
     5.111E+00    5.809E+00    6.508E+00    7.210E+00    7.912E+00    8.615E+00    9.317E+00    1.002E+01    1.072E+01    1.141E+01
     1.211E+01    1.280E+01    1.348E+01    1.416E+01    1.483E+01    1.550E+01    1.616E+01    1.681E+01    1.745E+01    1.808E+01
     1.870E+01    1.931E+01    1.991E+01    2.050E+01    2.107E+01    2.163E+01    2.217E+01    2.270E+01    2.321E+01    2.371E+01
     2.419E+01    2.465E+01    2.509E+01    2.551E+01    2.591E+01    2.629E+01    2.665E+01    2.699E+01    2.730E+01    2.759E+01
     2.786E+01    2.810E+01    2.831E+01    2.850E+01    2.866E+01    2.879E+01    2.890E+01    2.898E+01    2.903E+01    2.906E+01
     2.907E+01    2.905E+01    2.900E+01    2.894E+01    2.885E+01    2.874E+01    2.861E+01    2.846E+01    2.828E+01    2.809E+01
     2.789E+01    2.766E+01    2.742E+01    2.716E+01    2.688E+01    2.659E+01    2.629E+01    2.597E+01    2.563E+01    2.529E+01
     2.493E+01    2.456E+01    2.418E+01    2.379E+01    2.339E+01    2.298E+01    2.256E+01    2.214E+01    2.170E+01    2.127E+01
     2.082E+01    2.037E+01    1.992E+01    1.946E+01    1.899E+01    1.853E+01    1.806E+01    1.759E+01    1.712E+01    1.665E+01
     1.618E+01    1.571E+01    1.525E+01    1.478E+01    1.432E+01    1.386E+01    1.340E+01    1.295E+01    1.250E+01    1.206E+01
     1.163E+01    1.120E+01    1.078E+01    1.036E+01    9.960E+00    9.565E+00    9.179E+00    8.804E+00    8.439E+00    8.086E+00
     7.745E+00    7.416E+00    7.100E+00    6.798E+00    6.510E+00    6.237E+00    5.979E+00    5.736E+00    5.508E+00    5.294E+00
     5.094E+00    4.909E+00    4.737E+00    4.578E+00    4.433E+00    4.300E+00    4.180E+00    4.072E+00    3.976E+00    3.892E+00
     3.820E+00    3.758E+00    3.708E+00    3.668E+00    3.639E+00    3.620E+00    3.611E+00    3.611E+00    3.621E+00    3.640E+00
     3.668E+00    3.704E+00    3.748E+00    3.801E+00    3.861E+00    3.929E+00    4.004E+00    4.086E+00    4.175E+00    4.270E+00
     4.372E+00    4.480E+00    4.593E+00    4.711E+00    4.835E+00    4.964E+00    5.097E+00    5.235E+00    5.378E+00    5.524E+00
     5.673E+00    5.826E+00    5.983E+00    6.142E+00    6.304E+00    6.469E+00    6.635E+00    6.804E+00    6.974E+00    7.146E+00
     7.320E+00    7.494E+00    7.669E+00    7.844E+00    8.020E+00    8.196E+00    8.372E+00    8.547E+00    8.722E+00    8.896E+00
     9.069E+00    9.241E+00    9.411E+00    9.580E+00    9.746E+00    9.911E+00    1.007E+01    1.023E+01    1.039E+01    1.054E+01
     1.069E+01    1.084E+01    1.099E+01    1.113E+01    1.127E+01    1.141E+01    1.154E+01    1.167E+01    1.180E+01    1.193E+01
     1.205E+01    1.216E+01    1.228E+01    1.239E+01    1.250E+01    1.260E+01    1.270E+01    1.280E+01    1.290E+01    1.299E+01
     1.307E+01    1.315E+01    1.323E+01    1.331E+01    1.338E+01    1.345E+01    1.351E+01    1.357E+01    1.363E+01    1.368E+01
     1.373E+01    1.377E+01    1.381E+01    1.385E+01    1.388E+01    1.390E+01    1.393E+01    1.395E+01    1.396E+01    1.397E+01
     1.397E+01    1.398E+01    1.397E+01    1.396E+01    1.395E+01    1.394E+01    1.391E+01    1.389E+01    1.386E+01    1.382E+01
     1.378E+01    1.374E+01    1.369E+01    1.364E+01    1.358E+01    1.352E+01    1.345E+01    1.338E+01    1.330E+01    1.322E+01
     1.313E+01    1.304E+01    1.294E+01    1.284E+01    1.274E+01    1.263E+01    1.251E+01    1.239E+01
 Asp      Conc. = 3.54E+01
