 LCModel (Version 6.3-1L) Copyright: S.W. Provencher.          Ref.: Magn. Reson. Med. 30:672-679 (1993).                
 Slice#1 Row#8 Col#9  PD_05_press_1_raw_act
 36 lines in following concentration table = NCONC+1
    Conc.  %SD /Cr+PCr  Metabolite                                         
   26.841 234% 5.3E-02 Ala                                                 
    0.000 999%   0.000 Asp                                                 
  168.279  71%   0.330 Cr                                                  
  340.949  37%   0.670 PCr                                                 
   90.420  85%   0.178 GABA                                                
   59.499 135%   0.117 Glc                                                 
  148.801  85%   0.292 Gln                                                 
  767.591  19%   1.507 Glu                                                 
  281.233   6%   0.552 GPC                                                 
    0.000 999%   0.000 PCh                                                 
  211.689  22%   0.416 GSH                                                 
  675.579  23%   1.327 Ins                                                 
    0.000 999%   0.000 Lac                                                 
 1.01E+03   6%   1.990 NAA                                                 
  179.893  32%   0.353 NAAG                                                
   81.951  21%   0.161 Scyllo                                              
  231.353  48%   0.454 Tau                                                 
  222.069  33%   0.436 -CrCH2                                              
  281.233   6%   0.552 GPC+PCh                                             
 1.19E+03   5%   2.343 NAA+NAAG                                            
  509.228   8%   1.000 Cr+PCr                                              
  916.392  21%   1.800 Glu+Gln                                             
 1.07E+03  24%   2.095 Lip13a                                              
    0.000 999%   0.000 Lip13b                                              
    0.000 999%   0.000 Lip09                                               
  663.846  19%   1.304 MM09                                                
  322.630  42%   0.634 Lip20                                               
 1.55E+03  15%   3.035 MM20                                                
  233.446  34%   0.458 MM12                                                
    0.000 999%   0.000 MM14                                                
   81.894 176%   0.161 MM17                                                
 1.07E+03  24%   2.095 Lip13a+Lip13b                                       
 1.30E+03  19%   2.554 MM14+Lip13a+Lip13b+MM12                             
  663.846  19%   1.304 MM09+Lip09                                          
 1.87E+03  13%   3.669 MM20+Lip20                                          
   6 lines in following misc. output table
  FWHM = 0.038 ppm    S/N =   9                                            
  Data shift =-0.008 ppm                                                   
  Ph: -72 deg     -13.0 deg/ppm                                            
  alphaB,S = 9.7E-01,   5.2E+01                                            
   14 spline knots.   Ns = 5(1)                                            
  ( 5) 4 infls.   ( 3) 1 extrs.                                            
  498 points on ppm-axis = NY
      4.000000     3.992357     3.984714     3.977070     3.969427     3.961784     3.954141     3.946497     3.938854     3.931211
      3.923568     3.915925     3.908281     3.900638     3.892995     3.885352     3.877708     3.870065     3.862422     3.854779
      3.847136     3.839492     3.831849     3.824206     3.816563     3.808919     3.801276     3.793633     3.785990     3.778347
      3.770703     3.763060     3.755417     3.747774     3.740130     3.732487     3.724844     3.717201     3.709558     3.701914
      3.694271     3.686628     3.678985     3.671341     3.663698     3.656055     3.648412     3.640769     3.633125     3.625482
      3.617839     3.610196     3.602552     3.594909     3.587266     3.579623     3.571980     3.564336     3.556693     3.549050
      3.541407     3.533763     3.526120     3.518477     3.510834     3.503191     3.495547     3.487904     3.480261     3.472618
      3.464974     3.457331     3.449688     3.442045     3.434402     3.426758     3.419115     3.411472     3.403829     3.396185
      3.388542     3.380899     3.373256     3.365613     3.357969     3.350326     3.342683     3.335040     3.327396     3.319753
      3.312110     3.304467     3.296824     3.289180     3.281537     3.273894     3.266251     3.258607     3.250964     3.243321
      3.235678     3.228034     3.220391     3.212748     3.205105     3.197462     3.189818     3.182175     3.174532     3.166889
      3.159245     3.151602     3.143959     3.136316     3.128673     3.121029     3.113386     3.105743     3.098100     3.090456
      3.082813     3.075170     3.067527     3.059884     3.052240     3.044597     3.036954     3.029311     3.021667     3.014024
      3.006381     2.998738     2.991095     2.983451     2.975808     2.968165     2.960522     2.952878     2.945235     2.937592
      2.929949     2.922306     2.914662     2.907019     2.899376     2.891733     2.884089     2.876446     2.868803     2.861160
      2.853517     2.845873     2.838230     2.830587     2.822944     2.815300     2.807657     2.800014     2.792371     2.784728
      2.777084     2.769441     2.761798     2.754155     2.746511     2.738868     2.731225     2.723582     2.715939     2.708295
      2.700652     2.693009     2.685366     2.677722     2.670079     2.662436     2.654793     2.647150     2.639506     2.631863
      2.624220     2.616577     2.608933     2.601290     2.593647     2.586004     2.578361     2.570717     2.563074     2.555431
      2.547788     2.540144     2.532501     2.524858     2.517215     2.509572     2.501928     2.494285     2.486642     2.478999
      2.471355     2.463712     2.456069     2.448426     2.440783     2.433139     2.425496     2.417853     2.410210     2.402566
      2.394923     2.387280     2.379637     2.371994     2.364350     2.356707     2.349064     2.341421     2.333777     2.326134
      2.318491     2.310848     2.303205     2.295561     2.287918     2.280275     2.272632     2.264988     2.257345     2.249702
      2.242059     2.234416     2.226772     2.219129     2.211486     2.203843     2.196199     2.188556     2.180913     2.173270
      2.165627     2.157983     2.150340     2.142697     2.135054     2.127410     2.119767     2.112124     2.104481     2.096838
      2.089194     2.081551     2.073908     2.066265     2.058621     2.050978     2.043335     2.035692     2.028049     2.020405
      2.012762     2.005119     1.997476     1.989833     1.982190     1.974546     1.966903     1.959260     1.951617     1.943974
      1.936331     1.928688     1.921045     1.913402     1.905759     1.898115     1.890472     1.882829     1.875186     1.867543
      1.859900     1.852257     1.844614     1.836971     1.829327     1.821684     1.814041     1.806398     1.798755     1.791112
      1.783469     1.775826     1.768183     1.760540     1.752896     1.745253     1.737610     1.729967     1.722324     1.714681
      1.707038     1.699395     1.691752     1.684108     1.676465     1.668822     1.661179     1.653536     1.645893     1.638250
      1.630607     1.622964     1.615321     1.607677     1.600034     1.592391     1.584748     1.577105     1.569462     1.561819
      1.554176     1.546533     1.538890     1.531246     1.523603     1.515960     1.508317     1.500674     1.493031     1.485388
      1.477745     1.470102     1.462458     1.454815     1.447172     1.439529     1.431886     1.424243     1.416600     1.408957
      1.401314     1.393671     1.386027     1.378384     1.370741     1.363098     1.355455     1.347812     1.340169     1.332526
      1.324883     1.317240     1.309596     1.301953     1.294310     1.286667     1.279024     1.271381     1.263738     1.256095
      1.248452     1.240808     1.233165     1.225522     1.217879     1.210236     1.202593     1.194950     1.187307     1.179664
      1.172021     1.164377     1.156734     1.149091     1.141448     1.133805     1.126162     1.118519     1.110876     1.103233
      1.095590     1.087946     1.080303     1.072660     1.065017     1.057374     1.049731     1.042088     1.034445     1.026802
      1.019158     1.011515     1.003872     0.996229     0.988586     0.980943     0.973300     0.965657     0.958014     0.950371
      0.942727     0.935084     0.927441     0.919798     0.912155     0.904512     0.896869     0.889226     0.881583     0.873940
      0.866296     0.858653     0.851010     0.843367     0.835724     0.828081     0.820438     0.812795     0.805152     0.797508
      0.789865     0.782222     0.774579     0.766936     0.759293     0.751650     0.744007     0.736364     0.728721     0.721077
      0.713434     0.705791     0.698148     0.690505     0.682862     0.675219     0.667576     0.659933     0.652290     0.644646
      0.637003     0.629360     0.621717     0.614074     0.606431     0.598788     0.591145     0.583502     0.575858     0.568215
      0.560572     0.552929     0.545286     0.537643     0.530000     0.522357     0.514714     0.507071     0.499427     0.491784
      0.484141     0.476498     0.468855     0.461212     0.453569     0.445925     0.438282     0.430639     0.422996     0.415353
      0.407710     0.400067     0.392424     0.384780     0.377137     0.369494     0.361851     0.354208     0.346565     0.338922
      0.331278     0.323635     0.315992     0.308349     0.300706     0.293063     0.285420     0.277777     0.270133     0.262490
      0.254847     0.247204     0.239561     0.231918     0.224275     0.216631     0.208988     0.201345
 NY phased data points follow
  -2.39657E+01 -2.56674E+01 -2.95992E+01 -2.33452E+01 -2.60421E+01 -1.84369E+01 -1.81067E+01 -1.46980E+01 -1.88197E+01 -9.21397E+00
  -1.17421E+01 -1.13590E+01 -1.21661E+01 -1.34007E+01 -1.70759E+01 -2.17544E+01 -1.65600E+01 -1.92870E+01 -1.43406E+01 -2.09879E+01
  -2.11983E+01 -1.67746E+01 -1.79382E+01 -1.89978E+01 -1.68562E+01 -1.81073E+01 -1.80820E+01 -1.35707E+01 -1.46057E+01 -1.23032E+01
  -1.06939E+01 -1.45677E+01 -1.55093E+01 -1.45654E+01 -1.52999E+01 -1.26869E+01 -1.53685E+01 -1.65063E+01 -1.65846E+01 -1.42098E+01
  -1.62089E+01 -1.51995E+01 -1.54907E+01 -1.15606E+01 -1.12834E+01 -9.11732E+00 -7.36821E+00 -7.74620E+00 -8.23830E+00 -9.26062E+00
  -1.15253E+01 -1.30385E+01 -1.33751E+01 -1.14474E+01 -1.21071E+01 -1.05017E+01 -8.97811E+00 -1.50135E+01 -1.05301E+01 -1.10275E+01
  -1.13043E+01 -1.36558E+01 -1.59023E+01 -1.26711E+01 -1.13432E+01 -1.55247E+01 -1.63737E+01 -1.60167E+01 -1.15856E+01 -1.52159E+01
  -1.59173E+01 -1.35566E+01 -1.05599E+01 -1.23146E+01 -1.20016E+01 -1.47375E+01 -9.57887E+00 -1.11020E+01 -1.07971E+01 -1.10327E+01
  -1.37855E+01 -7.86861E+00 -7.56690E+00 -9.26064E+00 -1.24045E+01 -9.89106E+00 -1.08401E+01 -5.93495E+00 -6.66248E+00 -3.10780E+00
  -3.31892E+00 -9.02190E+00 -6.59439E+00 -5.34691E+00 -1.26169E+01 -9.02584E+00 -9.30875E+00 -1.00547E+01 -8.24158E+00 -1.42479E+00
   6.02479E+00  1.28210E+01  2.57608E+01  2.46895E+01  1.98290E+01  9.76994E+00  3.49798E+00 -4.54672E+00  4.75143E-01 -4.00819E+00
  -4.33546E+00 -7.17458E+00 -7.28002E+00 -5.29448E+00 -8.50701E+00 -6.50282E+00 -9.44709E+00 -1.08756E+01 -9.14301E+00 -9.35765E+00
  -8.82678E+00 -7.85078E+00 -9.62252E+00 -8.77459E+00 -2.26641E+00  8.90367E+00  1.30351E+01  1.84986E+01  1.42196E+01  5.67807E+00
   6.54435E-01  1.83184E+00 -3.02937E+00 -6.26591E+00 -3.82151E+00 -5.94976E+00 -1.03316E+01 -1.06137E+01 -1.03505E+01 -1.06707E+01
  -1.28788E+01 -6.83890E+00 -7.43326E+00 -8.92042E+00 -6.43039E+00 -3.60599E+00 -5.25365E+00 -6.20200E+00 -8.40314E+00 -3.34636E+00
  -6.89778E+00 -9.23869E+00 -7.81760E+00 -6.62709E+00 -6.99363E+00 -7.44068E+00 -5.93030E+00 -3.53839E+00 -3.83676E+00 -4.38423E+00
  -4.66125E+00 -6.17317E+00 -1.07794E+01 -5.80797E+00 -6.20018E+00 -2.30611E+00 -3.37276E+00 -5.32365E+00 -5.15316E+00 -8.84989E+00
  -1.09286E+01 -7.08538E+00 -1.00266E+01 -1.40182E+01 -1.12660E+01 -1.12775E+01 -1.57652E+01 -1.30319E+01 -8.89062E+00 -4.07053E+00
  -6.94847E+00 -8.39911E+00 -1.09329E+01 -1.07031E+01 -5.22931E+00 -5.35924E+00 -7.89199E+00 -1.25936E+01 -3.79499E+00 -2.41889E+00
  -5.49763E+00 -2.66303E+00 -1.90479E+00 -2.68386E+00 -4.58094E+00 -7.27423E+00 -5.93891E+00 -5.90689E+00 -6.77934E+00 -8.70712E+00
  -8.28542E+00 -7.05724E+00 -7.38884E-01 -4.98800E-01  1.93709E+00 -8.59903E-01  4.86031E-01 -3.92577E+00 -4.99805E+00 -7.26406E+00
  -6.83782E+00 -3.59935E+00 -3.68396E+00 -8.23416E-02  3.49020E+00  9.95649E+00  5.25702E+00  5.04295E+00  3.15819E+00 -1.66837E+00
  -3.81696E-01 -5.44044E+00 -4.33602E+00 -3.12562E+00 -3.39333E+00  8.73724E-01  1.79580E-01  1.76581E+00 -1.29992E+00  1.24542E+00
  -7.75845E-01  1.66070E+00  2.69109E+00  3.76867E+00  7.86552E+00  4.27901E+00  5.89097E+00  4.22971E+00  4.02074E+00  1.54593E+00
   2.18768E+00  6.08049E-02 -4.00338E+00 -3.00733E-02  7.34662E-01  6.85869E+00  5.47291E+00  5.94430E+00  6.17995E+00  5.56823E+00
   4.54818E+00  4.18635E+00  8.33964E+00  2.34424E+00  8.47224E+00  1.52868E+01  1.46556E+01  2.06442E+01  2.92731E+01  3.61038E+01
   4.60419E+01  5.38872E+01  5.06084E+01  2.88570E+01  1.50550E+01  1.55888E+01  1.30219E+01  1.17800E+01  7.76385E+00  6.15659E+00
   1.70976E+00 -4.65523E-01 -7.59556E-01  3.06710E+00  2.79889E+00  5.79242E-01 -8.18429E-02 -1.56396E+00 -1.40398E+00 -9.59152E-01
   2.56093E+00 -3.00844E+00  2.06354E+00 -1.39948E+00  4.48259E+00  1.39026E+00  7.15153E-01  1.67104E+00  2.45225E+00 -2.05974E-01
   1.66782E-01  1.38374E-01  2.03770E+00 -2.28091E+00  9.21861E-01  5.90795E+00 -9.88218E-01 -4.65659E-01  6.87896E-01 -7.78277E-02
  -2.60672E+00  2.42237E-01 -1.45884E+00  5.75586E-01 -4.48678E+00 -3.82705E+00 -3.16258E+00 -1.11580E+00  5.44434E-01 -3.71563E+00
  -1.77222E+00  2.72389E+00 -2.13341E+00  1.14182E-01  2.94847E+00 -1.41134E+00  7.52321E-01 -7.89621E-01  2.24860E+00  1.60832E+00
  -1.01798E+00  3.72864E+00  1.65326E+00  3.12997E+00 -2.22010E+00 -3.12077E+00  2.47000E-01 -3.97375E+00 -5.40528E+00 -1.96096E+00
  -9.02160E+00 -2.45021E+00 -2.32054E+00 -1.93401E+00 -3.95188E+00 -4.19448E+00 -4.78532E+00 -2.55643E+00 -3.65418E+00 -5.35850E+00
   2.77090E-01 -3.89220E+00 -2.46200E+00  1.35572E+00  2.55343E+00  3.68139E+00  6.61079E-01 -3.92994E+00 -4.43961E+00  2.70742E-01
   2.50276E+00  4.02095E+00  2.73435E+00  1.00143E+01  1.12728E+01  9.11139E+00  6.90099E+00  5.67219E+00  2.77108E+00  5.31893E+00
  -4.07773E-01  5.86526E+00  2.98002E+00  3.34924E+00  6.27585E+00  6.05394E+00  6.58986E+00  8.15117E+00  8.23820E+00  8.70523E+00
   9.46672E+00  5.85619E+00  8.32629E+00  7.23896E+00  8.40240E+00  5.58819E+00  8.89080E+00  3.13370E+00  7.14526E+00  4.85297E+00
   7.79334E-01  5.51638E+00 -1.44129E+00  4.59868E-01  2.68034E+00  2.86072E+00  2.74880E+00  3.60494E+00  2.47610E+00 -7.56641E-01
   1.35343E+00  1.47200E+00  4.68564E+00  1.71207E-01  1.32124E+00 -2.92098E+00  3.80360E+00  2.52180E-01  5.36335E+00  5.98387E+00
   2.25652E+00  2.27337E+00  2.94899E+00  1.85261E+00  3.12795E+00  4.85819E+00  5.44522E+00  1.10850E+00  3.55949E+00  5.63239E+00
   3.24163E+00  1.36077E+00  6.18819E+00  8.29890E+00  8.21470E+00  6.81755E+00  5.17772E+00  6.80719E+00  4.08535E+00  4.90144E+00
   5.90947E+00  2.00577E+00  1.08059E+00  3.75589E+00  8.54918E-02  3.94732E+00  2.12802E+00  3.29815E+00  4.12890E+00  9.86991E-01
   2.87881E+00 -3.70100E+00  7.81865E-01 -3.38129E+00  2.40182E+00  9.63647E-01  4.41152E+00  2.56413E+00  1.49685E+00  2.06605E+00
   3.20095E+00  5.63542E+00  3.79857E+00  1.63089E+00  6.80696E+00  5.29616E+00  3.01430E+00 -2.31219E+00  2.35535E+00 -1.92496E+00
   5.95937E+00  4.93032E+00  2.35625E+00  3.58842E+00  2.20752E+00 -1.78737E+00  5.42765E-01  1.97046E+00  1.48505E+00 -3.43802E-01
   1.05334E+00  9.03750E-01  2.64739E+00  4.51796E-01  3.56722E+00  4.48940E-01  1.21936E+00  4.86656E-02  3.43891E+00  1.81687E+00
   3.65406E+00  1.41452E-01 -4.80193E+00  1.37938E+00  2.41661E+00  8.70946E-02  1.15118E+00  3.17998E+00  2.68771E+00  1.86186E+00
   2.58551E+00  1.15891E+00  4.26510E-01  1.73641E-01  5.77736E+00  6.97138E+00  3.69076E-01 -7.62618E-01  4.76299E+00  2.26325E+00
   3.36651E+00  5.15831E+00  2.21969E-01  4.38071E+00  2.23981E+00  3.78422E-01  2.64881E+00  3.67380E+00
 NY points of the fit to the data follow
  -2.12616E+01 -2.12352E+01 -2.10579E+01 -2.06903E+01 -2.01515E+01 -1.93558E+01 -1.81386E+01 -1.64031E+01 -1.42673E+01 -1.22220E+01
  -1.09929E+01 -1.11263E+01 -1.24847E+01 -1.42872E+01 -1.57284E+01 -1.66471E+01 -1.71689E+01 -1.75677E+01 -1.78912E+01 -1.79971E+01
  -1.79860E+01 -1.79418E+01 -1.79214E+01 -1.79193E+01 -1.78521E+01 -1.75646E+01 -1.68705E+01 -1.57127E+01 -1.41557E+01 -1.24262E+01
  -1.11191E+01 -1.08073E+01 -1.13250E+01 -1.20069E+01 -1.26451E+01 -1.37672E+01 -1.52608E+01 -1.62881E+01 -1.68331E+01 -1.69455E+01
  -1.66108E+01 -1.59153E+01 -1.49506E+01 -1.37811E+01 -1.22540E+01 -1.04594E+01 -8.93431E+00 -8.38909E+00 -9.32505E+00 -1.12847E+01
  -1.31061E+01 -1.42027E+01 -1.48203E+01 -1.51909E+01 -1.51997E+01 -1.48395E+01 -1.42793E+01 -1.35838E+01 -1.28316E+01 -1.22198E+01
  -1.20390E+01 -1.24125E+01 -1.30935E+01 -1.36627E+01 -1.38996E+01 -1.38001E+01 -1.34487E+01 -1.30431E+01 -1.26753E+01 -1.23671E+01
  -1.20870E+01 -1.17825E+01 -1.14568E+01 -1.11380E+01 -1.08416E+01 -1.06863E+01 -1.07904E+01 -1.13096E+01 -1.20325E+01 -1.24988E+01
  -1.25065E+01 -1.22300E+01 -1.18084E+01 -1.11574E+01 -1.02434E+01 -9.07540E+00 -7.81669E+00 -6.94351E+00 -7.00436E+00 -8.00339E+00
  -9.24889E+00 -1.00073E+01 -1.03030E+01 -1.07176E+01 -1.11694E+01 -1.11824E+01 -1.07925E+01 -9.83622E+00 -7.49051E+00 -2.49936E+00
   5.45632E+00  1.49613E+01  2.29623E+01  2.55551E+01  2.07479E+01  1.13436E+01  3.04068E+00 -1.49414E+00 -4.29126E+00 -7.14935E+00
  -8.53104E+00 -8.94585E+00 -9.10116E+00 -9.14173E+00 -9.16037E+00 -9.14811E+00 -9.12788E+00 -9.12105E+00 -9.12356E+00 -9.10359E+00
  -8.98710E+00 -8.59730E+00 -7.40465E+00 -4.53648E+00  4.41397E-01  6.85057E+00  1.27986E+01  1.56041E+01  1.36047E+01  8.10241E+00
   2.66658E+00 -4.41890E-01 -2.27955E+00 -4.59354E+00 -6.49075E+00 -7.68951E+00 -8.39132E+00 -8.42826E+00 -7.89539E+00 -7.11045E+00
  -6.32863E+00 -5.77488E+00 -5.61472E+00 -5.73147E+00 -5.94348E+00 -6.14698E+00 -6.26807E+00 -6.35751E+00 -6.42400E+00 -6.47042E+00
  -6.53897E+00 -6.63223E+00 -6.72170E+00 -6.77329E+00 -6.75405E+00 -6.63217E+00 -6.43404E+00 -6.29549E+00 -6.36383E+00 -6.66703E+00
  -7.07267E+00 -7.34680E+00 -7.27536E+00 -6.84193E+00 -6.34302E+00 -6.16168E+00 -6.41719E+00 -6.88744E+00 -7.28396E+00 -7.46898E+00
  -7.47215E+00 -7.47553E+00 -7.56734E+00 -7.78927E+00 -8.15240E+00 -8.45796E+00 -8.48624E+00 -8.19084E+00 -7.75704E+00 -7.49518E+00
  -7.57556E+00 -7.80783E+00 -7.84983E+00 -7.65213E+00 -7.48819E+00 -7.41388E+00 -7.22346E+00 -6.59190E+00 -5.44171E+00 -4.11615E+00
  -3.07605E+00 -2.66004E+00 -2.87021E+00 -3.40547E+00 -4.02426E+00 -4.58223E+00 -4.87596E+00 -4.87350E+00 -4.60103E+00 -4.08447E+00
  -3.41580E+00 -2.70376E+00 -1.98709E+00 -1.34045E+00 -9.56754E-01 -1.11041E+00 -1.90466E+00 -3.13941E+00 -4.43535E+00 -5.47966E+00
  -6.07003E+00 -5.93020E+00 -4.89259E+00 -3.06977E+00 -8.46844E-01  1.18277E+00  2.30805E+00  1.76698E+00 -3.11801E-01 -2.96030E+00
  -5.31634E+00 -6.99521E+00 -7.71953E+00 -6.99235E+00 -4.80524E+00 -2.21513E+00 -3.07788E-01  5.26446E-01  6.60143E-01  4.57923E-01
   8.78457E-03 -3.54503E-01 -1.60158E-01  5.86207E-01  1.54402E+00  2.34798E+00  2.83696E+00  2.98483E+00  2.65932E+00  1.86985E+00
   9.68157E-01  3.65884E-01  2.90937E-01  7.62609E-01  1.77738E+00  3.06124E+00  4.07097E+00  4.47694E+00  4.38700E+00  4.14975E+00
   3.90960E+00  3.99504E+00  4.95622E+00  6.98577E+00  9.60951E+00  1.23215E+01  1.55187E+01  2.05750E+01  2.85740E+01  3.90119E+01
   4.86073E+01  5.16620E+01  4.49515E+01  3.24362E+01  2.15018E+01  1.53314E+01  1.11124E+01  6.70754E+00  4.42220E+00  3.38880E+00
   2.69321E+00  2.27299E+00  2.13375E+00  2.13044E+00  2.16412E+00  2.13718E+00  1.97595E+00  1.68348E+00  1.34461E+00  1.01409E+00
   7.07733E-01  4.50632E-01  2.67312E-01  1.62991E-01  1.08755E-01  6.44391E-02  1.42245E-02 -3.95428E-02 -1.04259E-01 -1.67751E-01
  -2.10277E-01 -2.30332E-01 -2.41259E-01 -2.50889E-01 -2.68913E-01 -2.97381E-01 -3.27207E-01 -3.53573E-01 -3.81755E-01 -4.04371E-01
  -4.11063E-01 -4.03930E-01 -3.92076E-01 -3.84191E-01 -3.81881E-01 -3.83425E-01 -3.90869E-01 -4.02836E-01 -4.16817E-01 -4.33004E-01
  -4.51203E-01 -4.70530E-01 -4.90257E-01 -5.09892E-01 -5.28997E-01 -5.47051E-01 -5.62997E-01 -5.75741E-01 -5.84171E-01 -5.87165E-01
  -5.82769E-01 -5.66929E-01 -5.30257E-01 -4.64489E-01 -3.80941E-01 -3.16516E-01 -3.18562E-01 -4.22919E-01 -6.19773E-01 -8.37630E-01
  -9.85635E-01 -1.02309E+00 -9.69044E-01 -8.35842E-01 -5.93769E-01 -2.79650E-01  3.84744E-03  1.87743E-01  2.84744E-01  3.73229E-01
   5.03757E-01  6.56040E-01  8.25851E-01  1.03904E+00  1.29103E+00  1.57728E+00  1.89535E+00  2.24253E+00  2.61539E+00  3.00947E+00
   3.41944E+00  3.83878E+00  4.25993E+00  4.67424E+00  5.07265E+00  5.44587E+00  5.78508E+00  6.08185E+00  6.32873E+00  6.51943E+00
   6.64950E+00  6.71642E+00  6.71982E+00  6.66112E+00  6.54366E+00  6.37232E+00  6.15363E+00  5.89517E+00  5.60534E+00  5.29260E+00
   4.96538E+00  4.63165E+00  4.29901E+00  3.97410E+00  3.66271E+00  3.36932E+00  3.09752E+00  2.84988E+00  2.62835E+00  2.43402E+00
   2.26742E+00  2.12842E+00  2.01675E+00  1.93191E+00  1.87353E+00  1.84104E+00  1.83397E+00  1.85169E+00  1.89389E+00  1.96019E+00
   2.05037E+00  2.16388E+00  2.30004E+00  2.45774E+00  2.63574E+00  2.83224E+00  3.04500E+00  3.27098E+00  3.50659E+00  3.74760E+00
   3.98945E+00  4.22710E+00  4.45529E+00  4.66846E+00  4.86134E+00  5.02897E+00  5.16716E+00  5.27236E+00  5.34200E+00  5.37443E+00
   5.36931E+00  5.32737E+00  5.25062E+00  5.14186E+00  5.00476E+00  4.84345E+00  4.66270E+00  4.46737E+00  4.26244E+00  4.05245E+00
   3.84166E+00  3.63374E+00  3.43199E+00  3.23901E+00  3.05689E+00  2.88690E+00  2.72992E+00  2.58623E+00  2.45596E+00  2.33877E+00
   2.23417E+00  2.14128E+00  2.05930E+00  1.98728E+00  1.92445E+00  1.86989E+00  1.82277E+00  1.78216E+00  1.74741E+00  1.71782E+00
   1.69293E+00  1.67215E+00  1.65502E+00  1.64104E+00  1.62992E+00  1.62134E+00  1.61513E+00  1.61096E+00  1.60863E+00  1.60786E+00
   1.60862E+00  1.61072E+00  1.61415E+00  1.61866E+00  1.62419E+00  1.63059E+00  1.63791E+00  1.64604E+00  1.65497E+00  1.66452E+00
   1.67468E+00  1.68536E+00  1.69665E+00  1.70846E+00  1.72079E+00  1.73348E+00  1.74657E+00  1.76001E+00  1.77390E+00  1.78811E+00
   1.80267E+00  1.81743E+00  1.83249E+00  1.84780E+00  1.86344E+00  1.87930E+00  1.89538E+00  1.91158E+00  1.92801E+00  1.94462E+00
   1.96148E+00  1.97845E+00  1.99557E+00  2.01276E+00  2.03013E+00  2.04763E+00  2.06530E+00  2.08301E+00  2.10082E+00  2.11865E+00
   2.13664E+00  2.15469E+00  2.17284E+00  2.19096E+00  2.20913E+00  2.22730E+00  2.24557E+00  2.26383E+00
 NY background values follow
    -2.291E+01   -2.279E+01   -2.267E+01   -2.256E+01   -2.244E+01   -2.232E+01   -2.220E+01   -2.209E+01   -2.197E+01   -2.185E+01
    -2.173E+01   -2.162E+01   -2.150E+01   -2.138E+01   -2.126E+01   -2.115E+01   -2.103E+01   -2.091E+01   -2.079E+01   -2.068E+01
    -2.056E+01   -2.044E+01   -2.033E+01   -2.021E+01   -2.009E+01   -1.998E+01   -1.986E+01   -1.974E+01   -1.963E+01   -1.951E+01
    -1.940E+01   -1.928E+01   -1.917E+01   -1.905E+01   -1.894E+01   -1.882E+01   -1.871E+01   -1.859E+01   -1.848E+01   -1.836E+01
    -1.825E+01   -1.814E+01   -1.802E+01   -1.791E+01   -1.780E+01   -1.769E+01   -1.757E+01   -1.746E+01   -1.735E+01   -1.724E+01
    -1.713E+01   -1.702E+01   -1.691E+01   -1.680E+01   -1.669E+01   -1.658E+01   -1.647E+01   -1.636E+01   -1.625E+01   -1.614E+01
    -1.603E+01   -1.592E+01   -1.582E+01   -1.571E+01   -1.560E+01   -1.550E+01   -1.539E+01   -1.529E+01   -1.518E+01   -1.508E+01
    -1.497E+01   -1.487E+01   -1.476E+01   -1.466E+01   -1.456E+01   -1.445E+01   -1.435E+01   -1.425E+01   -1.415E+01   -1.405E+01
    -1.395E+01   -1.385E+01   -1.375E+01   -1.365E+01   -1.355E+01   -1.345E+01   -1.335E+01   -1.326E+01   -1.316E+01   -1.306E+01
    -1.297E+01   -1.287E+01   -1.277E+01   -1.268E+01   -1.259E+01   -1.249E+01   -1.240E+01   -1.231E+01   -1.221E+01   -1.212E+01
    -1.203E+01   -1.194E+01   -1.185E+01   -1.176E+01   -1.167E+01   -1.158E+01   -1.149E+01   -1.140E+01   -1.131E+01   -1.123E+01
    -1.114E+01   -1.105E+01   -1.096E+01   -1.088E+01   -1.079E+01   -1.071E+01   -1.062E+01   -1.054E+01   -1.046E+01   -1.037E+01
    -1.029E+01   -1.021E+01   -1.012E+01   -1.004E+01   -9.961E+00   -9.879E+00   -9.799E+00   -9.718E+00   -9.639E+00   -9.559E+00
    -9.480E+00   -9.401E+00   -9.323E+00   -9.245E+00   -9.167E+00   -9.090E+00   -9.013E+00   -8.936E+00   -8.860E+00   -8.784E+00
    -8.709E+00   -8.634E+00   -8.559E+00   -8.485E+00   -8.411E+00   -8.337E+00   -8.264E+00   -8.191E+00   -8.119E+00   -8.047E+00
    -7.975E+00   -7.903E+00   -7.832E+00   -7.762E+00   -7.691E+00   -7.621E+00   -7.552E+00   -7.482E+00   -7.414E+00   -7.345E+00
    -7.277E+00   -7.209E+00   -7.142E+00   -7.074E+00   -7.008E+00   -6.941E+00   -6.875E+00   -6.810E+00   -6.744E+00   -6.679E+00
    -6.615E+00   -6.551E+00   -6.487E+00   -6.423E+00   -6.360E+00   -6.297E+00   -6.235E+00   -6.173E+00   -6.111E+00   -6.050E+00
    -5.989E+00   -5.928E+00   -5.868E+00   -5.808E+00   -5.748E+00   -5.689E+00   -5.630E+00   -5.572E+00   -5.513E+00   -5.456E+00
    -5.398E+00   -5.342E+00   -5.285E+00   -5.229E+00   -5.173E+00   -5.118E+00   -5.063E+00   -5.009E+00   -4.955E+00   -4.902E+00
    -4.848E+00   -4.796E+00   -4.744E+00   -4.692E+00   -4.641E+00   -4.590E+00   -4.540E+00   -4.490E+00   -4.441E+00   -4.392E+00
    -4.344E+00   -4.297E+00   -4.249E+00   -4.203E+00   -4.157E+00   -4.111E+00   -4.066E+00   -4.021E+00   -3.977E+00   -3.934E+00
    -3.891E+00   -3.849E+00   -3.807E+00   -3.766E+00   -3.725E+00   -3.685E+00   -3.646E+00   -3.607E+00   -3.569E+00   -3.531E+00
    -3.494E+00   -3.458E+00   -3.422E+00   -3.386E+00   -3.352E+00   -3.317E+00   -3.284E+00   -3.250E+00   -3.218E+00   -3.186E+00
    -3.154E+00   -3.123E+00   -3.092E+00   -3.062E+00   -3.033E+00   -3.004E+00   -2.975E+00   -2.947E+00   -2.919E+00   -2.892E+00
    -2.865E+00   -2.839E+00   -2.813E+00   -2.787E+00   -2.762E+00   -2.738E+00   -2.713E+00   -2.690E+00   -2.666E+00   -2.643E+00
    -2.621E+00   -2.598E+00   -2.577E+00   -2.555E+00   -2.534E+00   -2.513E+00   -2.493E+00   -2.473E+00   -2.453E+00   -2.434E+00
    -2.415E+00   -2.396E+00   -2.378E+00   -2.360E+00   -2.342E+00   -2.325E+00   -2.308E+00   -2.291E+00   -2.274E+00   -2.258E+00
    -2.242E+00   -2.226E+00   -2.210E+00   -2.195E+00   -2.180E+00   -2.165E+00   -2.150E+00   -2.136E+00   -2.121E+00   -2.107E+00
    -2.093E+00   -2.079E+00   -2.066E+00   -2.052E+00   -2.039E+00   -2.025E+00   -2.012E+00   -1.999E+00   -1.986E+00   -1.973E+00
    -1.960E+00   -1.948E+00   -1.935E+00   -1.922E+00   -1.910E+00   -1.897E+00   -1.885E+00   -1.873E+00   -1.860E+00   -1.848E+00
    -1.835E+00   -1.823E+00   -1.810E+00   -1.798E+00   -1.786E+00   -1.773E+00   -1.760E+00   -1.748E+00   -1.735E+00   -1.722E+00
    -1.710E+00   -1.697E+00   -1.684E+00   -1.671E+00   -1.658E+00   -1.644E+00   -1.631E+00   -1.618E+00   -1.605E+00   -1.591E+00
    -1.578E+00   -1.564E+00   -1.550E+00   -1.537E+00   -1.523E+00   -1.509E+00   -1.495E+00   -1.481E+00   -1.467E+00   -1.452E+00
    -1.438E+00   -1.423E+00   -1.409E+00   -1.394E+00   -1.380E+00   -1.365E+00   -1.350E+00   -1.335E+00   -1.320E+00   -1.305E+00
    -1.289E+00   -1.274E+00   -1.259E+00   -1.243E+00   -1.227E+00   -1.211E+00   -1.196E+00   -1.180E+00   -1.163E+00   -1.147E+00
    -1.131E+00   -1.114E+00   -1.098E+00   -1.081E+00   -1.064E+00   -1.047E+00   -1.030E+00   -1.013E+00   -9.961E-01   -9.787E-01
    -9.613E-01   -9.437E-01   -9.261E-01   -9.083E-01   -8.904E-01   -8.725E-01   -8.544E-01   -8.362E-01   -8.180E-01   -7.996E-01
    -7.811E-01   -7.626E-01   -7.439E-01   -7.251E-01   -7.063E-01   -6.874E-01   -6.683E-01   -6.492E-01   -6.300E-01   -6.107E-01
    -5.913E-01   -5.719E-01   -5.523E-01   -5.327E-01   -5.130E-01   -4.932E-01   -4.733E-01   -4.533E-01   -4.333E-01   -4.132E-01
    -3.930E-01   -3.727E-01   -3.523E-01   -3.319E-01   -3.114E-01   -2.908E-01   -2.702E-01   -2.495E-01   -2.287E-01   -2.079E-01
    -1.869E-01   -1.660E-01   -1.449E-01   -1.238E-01   -1.026E-01   -8.139E-02   -6.009E-02   -3.873E-02   -1.731E-02    4.173E-03
     2.571E-02    4.730E-02    6.895E-02    9.066E-02    1.124E-01    1.342E-01    1.561E-01    1.780E-01    2.000E-01    2.220E-01
     2.440E-01    2.662E-01    2.883E-01    3.105E-01    3.328E-01    3.550E-01    3.774E-01    3.997E-01    4.222E-01    4.446E-01
     4.671E-01    4.896E-01    5.122E-01    5.348E-01    5.574E-01    5.801E-01    6.028E-01    6.255E-01    6.483E-01    6.711E-01
     6.939E-01    7.168E-01    7.396E-01    7.625E-01    7.855E-01    8.084E-01    8.314E-01    8.544E-01    8.774E-01    9.005E-01
     9.235E-01    9.466E-01    9.698E-01    9.929E-01    1.016E+00    1.039E+00    1.062E+00    1.086E+00    1.109E+00    1.132E+00
     1.155E+00    1.179E+00    1.202E+00    1.225E+00    1.249E+00    1.272E+00    1.295E+00    1.319E+00    1.342E+00    1.365E+00
     1.389E+00    1.412E+00    1.436E+00    1.459E+00    1.482E+00    1.506E+00    1.529E+00    1.553E+00    1.576E+00    1.600E+00
     1.623E+00    1.647E+00    1.670E+00    1.694E+00    1.717E+00    1.741E+00    1.764E+00    1.788E+00
 Ala      Conc. = 2.68E+01
