 LCModel (Version 6.3-1L) Copyright: S.W. Provencher.          Ref.: Magn. Reson. Med. 30:672-679 (1993).                
 Slice#3 Row#13 Col#6  PD_05_press_1_raw_act
 36 lines in following concentration table = NCONC+1
    Conc.  %SD /Cr+PCr  Metabolite                                         
  568.062  24%   3.378 Ala                                                 
   37.919  91%   0.225 Asp                                                 
  168.159  18%   1.000 Cr                                                  
    0.000 999%   0.000 PCr                                                 
   13.325 158% 7.9E-02 GABA                                                
   13.596 156% 8.1E-02 Glc                                                 
  399.634  55%   2.377 Gln                                                 
  345.104  74%   2.052 Glu                                                 
   51.244  24%   0.305 GPC                                                 
    0.000 999%   0.000 PCh                                                 
  241.807  21%   1.438 GSH                                                 
  888.144  19%   5.282 Ins                                                 
    0.000 999%   0.000 Lac                                                 
  272.127  13%   1.618 NAA                                                 
    0.000 999%   0.000 NAAG                                                
   14.032  48% 8.3E-02 Scyllo                                              
   41.417  84%   0.246 Tau                                                 
  177.862  26%   1.058 -CrCH2                                              
   51.244  24%   0.305 GPC+PCh                                             
  272.127  13%   1.618 NAA+NAAG                                            
  168.159  18%   1.000 Cr+PCr                                              
  744.738  55%   4.429 Glu+Gln                                             
    0.000 999%   0.000 Lip13a                                              
    0.000 999%   0.000 Lip13b                                              
    6.929 324% 4.1E-02 Lip09                                               
  114.260  48%   0.679 MM09                                                
    0.000 999%   0.000 Lip20                                               
   68.350 143%   0.406 MM20                                                
   33.607  80%   0.200 MM12                                                
  229.635  30%   1.366 MM14                                                
   25.152 220%   0.150 MM17                                                
    0.000 999%   0.000 Lip13a+Lip13b                                       
  263.242  31%   1.565 MM14+Lip13a+Lip13b+MM12                             
  121.189  43%   0.721 MM09+Lip09                                          
   68.350 143%   0.406 MM20+Lip20                                          
   6 lines in following misc. output table
  FWHM = 0.122 ppm    S/N =   2                                            
  Data shift = 0.023 ppm                                                   
  Ph: -18 deg     -13.3 deg/ppm                                            
  alphaB,S = 1.2E+00,   2.6E+01                                            
   14 spline knots.   Ns = 8(2)                                            
  (11) 5 infls.   ( 7) 1 extrs.                                            
  498 points on ppm-axis = NY
      4.000000     3.992357     3.984714     3.977070     3.969427     3.961784     3.954141     3.946497     3.938854     3.931211
      3.923568     3.915925     3.908281     3.900638     3.892995     3.885352     3.877708     3.870065     3.862422     3.854779
      3.847136     3.839492     3.831849     3.824206     3.816563     3.808919     3.801276     3.793633     3.785990     3.778347
      3.770703     3.763060     3.755417     3.747774     3.740130     3.732487     3.724844     3.717201     3.709558     3.701914
      3.694271     3.686628     3.678985     3.671341     3.663698     3.656055     3.648412     3.640769     3.633125     3.625482
      3.617839     3.610196     3.602552     3.594909     3.587266     3.579623     3.571980     3.564336     3.556693     3.549050
      3.541407     3.533763     3.526120     3.518477     3.510834     3.503191     3.495547     3.487904     3.480261     3.472618
      3.464974     3.457331     3.449688     3.442045     3.434402     3.426758     3.419115     3.411472     3.403829     3.396185
      3.388542     3.380899     3.373256     3.365613     3.357969     3.350326     3.342683     3.335040     3.327396     3.319753
      3.312110     3.304467     3.296824     3.289180     3.281537     3.273894     3.266251     3.258607     3.250964     3.243321
      3.235678     3.228034     3.220391     3.212748     3.205105     3.197462     3.189818     3.182175     3.174532     3.166889
      3.159245     3.151602     3.143959     3.136316     3.128673     3.121029     3.113386     3.105743     3.098100     3.090456
      3.082813     3.075170     3.067527     3.059884     3.052240     3.044597     3.036954     3.029311     3.021667     3.014024
      3.006381     2.998738     2.991095     2.983451     2.975808     2.968165     2.960522     2.952878     2.945235     2.937592
      2.929949     2.922306     2.914662     2.907019     2.899376     2.891733     2.884089     2.876446     2.868803     2.861160
      2.853517     2.845873     2.838230     2.830587     2.822944     2.815300     2.807657     2.800014     2.792371     2.784728
      2.777084     2.769441     2.761798     2.754155     2.746511     2.738868     2.731225     2.723582     2.715939     2.708295
      2.700652     2.693009     2.685366     2.677722     2.670079     2.662436     2.654793     2.647150     2.639506     2.631863
      2.624220     2.616577     2.608933     2.601290     2.593647     2.586004     2.578361     2.570717     2.563074     2.555431
      2.547788     2.540144     2.532501     2.524858     2.517215     2.509572     2.501928     2.494285     2.486642     2.478999
      2.471355     2.463712     2.456069     2.448426     2.440783     2.433139     2.425496     2.417853     2.410210     2.402566
      2.394923     2.387280     2.379637     2.371994     2.364350     2.356707     2.349064     2.341421     2.333777     2.326134
      2.318491     2.310848     2.303205     2.295561     2.287918     2.280275     2.272632     2.264988     2.257345     2.249702
      2.242059     2.234416     2.226772     2.219129     2.211486     2.203843     2.196199     2.188556     2.180913     2.173270
      2.165627     2.157983     2.150340     2.142697     2.135054     2.127410     2.119767     2.112124     2.104481     2.096838
      2.089194     2.081551     2.073908     2.066265     2.058621     2.050978     2.043335     2.035692     2.028049     2.020405
      2.012762     2.005119     1.997476     1.989833     1.982190     1.974546     1.966903     1.959260     1.951617     1.943974
      1.936331     1.928688     1.921045     1.913402     1.905759     1.898115     1.890472     1.882829     1.875186     1.867543
      1.859900     1.852257     1.844614     1.836971     1.829327     1.821684     1.814041     1.806398     1.798755     1.791112
      1.783469     1.775826     1.768183     1.760540     1.752896     1.745253     1.737610     1.729967     1.722324     1.714681
      1.707038     1.699395     1.691752     1.684108     1.676465     1.668822     1.661179     1.653536     1.645893     1.638250
      1.630607     1.622964     1.615321     1.607677     1.600034     1.592391     1.584748     1.577105     1.569462     1.561819
      1.554176     1.546533     1.538890     1.531246     1.523603     1.515960     1.508317     1.500674     1.493031     1.485388
      1.477745     1.470102     1.462458     1.454815     1.447172     1.439529     1.431886     1.424243     1.416600     1.408957
      1.401314     1.393671     1.386027     1.378384     1.370741     1.363098     1.355455     1.347812     1.340169     1.332526
      1.324883     1.317240     1.309596     1.301953     1.294310     1.286667     1.279024     1.271381     1.263738     1.256095
      1.248452     1.240808     1.233165     1.225522     1.217879     1.210236     1.202593     1.194950     1.187307     1.179664
      1.172021     1.164377     1.156734     1.149091     1.141448     1.133805     1.126162     1.118519     1.110876     1.103233
      1.095590     1.087946     1.080303     1.072660     1.065017     1.057374     1.049731     1.042088     1.034445     1.026802
      1.019158     1.011515     1.003872     0.996229     0.988586     0.980943     0.973300     0.965657     0.958014     0.950371
      0.942727     0.935084     0.927441     0.919798     0.912155     0.904512     0.896869     0.889226     0.881583     0.873940
      0.866296     0.858653     0.851010     0.843367     0.835724     0.828081     0.820438     0.812795     0.805152     0.797508
      0.789865     0.782222     0.774579     0.766936     0.759293     0.751650     0.744007     0.736364     0.728721     0.721077
      0.713434     0.705791     0.698148     0.690505     0.682862     0.675219     0.667576     0.659933     0.652290     0.644646
      0.637003     0.629360     0.621717     0.614074     0.606431     0.598788     0.591145     0.583502     0.575858     0.568215
      0.560572     0.552929     0.545286     0.537643     0.530000     0.522357     0.514714     0.507071     0.499427     0.491784
      0.484141     0.476498     0.468855     0.461212     0.453569     0.445925     0.438282     0.430639     0.422996     0.415353
      0.407710     0.400067     0.392424     0.384780     0.377137     0.369494     0.361851     0.354208     0.346565     0.338922
      0.331278     0.323635     0.315992     0.308349     0.300706     0.293063     0.285420     0.277777     0.270133     0.262490
      0.254847     0.247204     0.239561     0.231918     0.224275     0.216631     0.208988     0.201345
 NY phased data points follow
  -6.85420E+01 -6.83892E+01 -6.62845E+01 -6.57527E+01 -6.56830E+01 -6.45831E+01 -6.33082E+01 -6.12428E+01 -5.93156E+01 -6.24690E+01
  -6.02484E+01 -5.90533E+01 -5.88596E+01 -5.66745E+01 -5.75087E+01 -5.69986E+01 -5.65175E+01 -5.76578E+01 -5.37914E+01 -5.51546E+01
  -5.36580E+01 -5.33584E+01 -5.13798E+01 -5.18484E+01 -5.20797E+01 -5.17919E+01 -4.81573E+01 -4.76859E+01 -4.76203E+01 -4.79928E+01
  -4.71090E+01 -4.78692E+01 -4.63551E+01 -4.59574E+01 -4.48558E+01 -4.33903E+01 -4.27201E+01 -4.36366E+01 -4.09568E+01 -4.21702E+01
  -4.11651E+01 -4.04552E+01 -4.09775E+01 -3.95238E+01 -3.94710E+01 -3.86457E+01 -3.79303E+01 -3.80121E+01 -3.80059E+01 -3.91973E+01
  -3.56859E+01 -3.72889E+01 -3.59665E+01 -3.72162E+01 -3.52855E+01 -3.52844E+01 -3.58638E+01 -3.55007E+01 -3.48189E+01 -3.61174E+01
  -3.44874E+01 -3.59172E+01 -3.43920E+01 -3.46963E+01 -3.33516E+01 -3.19432E+01 -3.13987E+01 -3.26580E+01 -3.28764E+01 -2.95143E+01
  -3.14929E+01 -3.19739E+01 -3.12946E+01 -3.10394E+01 -3.06787E+01 -3.01502E+01 -2.96455E+01 -2.98421E+01 -2.98549E+01 -2.83820E+01
  -2.99432E+01 -2.85067E+01 -2.62183E+01 -2.73338E+01 -2.64460E+01 -2.86200E+01 -2.78175E+01 -2.70672E+01 -2.64497E+01 -2.54654E+01
  -2.59855E+01 -2.52561E+01 -2.38680E+01 -2.47949E+01 -2.41071E+01 -2.31208E+01 -2.55214E+01 -2.51797E+01 -2.30093E+01 -2.11894E+01
  -2.26365E+01 -2.40007E+01 -2.22941E+01 -2.15172E+01 -2.12488E+01 -2.21798E+01 -2.03783E+01 -1.95083E+01 -1.98443E+01 -1.93061E+01
  -1.96647E+01 -2.09226E+01 -2.22547E+01 -1.97560E+01 -2.03715E+01 -2.07227E+01 -1.93599E+01 -1.73320E+01 -1.90006E+01 -1.96015E+01
  -1.72485E+01 -1.74573E+01 -1.64952E+01 -1.67227E+01 -1.62393E+01 -1.79399E+01 -1.39712E+01 -1.68781E+01 -1.60853E+01 -1.55016E+01
  -1.40525E+01 -1.44614E+01 -1.61890E+01 -1.27807E+01 -1.35769E+01 -1.50662E+01 -1.36005E+01 -1.61886E+01 -1.63342E+01 -1.51204E+01
  -1.62525E+01 -1.45227E+01 -1.68639E+01 -1.52740E+01 -1.39676E+01 -1.74258E+01 -1.50815E+01 -1.44760E+01 -1.56310E+01 -1.37852E+01
  -1.41618E+01 -1.53075E+01 -1.62215E+01 -1.57012E+01 -1.50456E+01 -1.36121E+01 -1.36811E+01 -1.41362E+01 -1.35139E+01 -1.42365E+01
  -1.40173E+01 -1.46721E+01 -1.57033E+01 -1.41617E+01 -1.49892E+01 -1.17593E+01 -1.43010E+01 -1.46347E+01 -1.21772E+01 -1.27018E+01
  -1.23910E+01 -1.22941E+01 -1.24607E+01 -1.48249E+01 -1.11153E+01 -1.36089E+01 -1.21274E+01 -1.17657E+01 -1.32362E+01 -1.04321E+01
  -1.22283E+01 -1.35231E+01 -1.14114E+01 -1.26301E+01 -1.26887E+01 -1.15820E+01 -1.13280E+01 -1.08003E+01 -1.10951E+01 -1.12231E+01
  -1.17699E+01 -1.04354E+01 -9.68003E+00 -1.13149E+01 -1.04319E+01 -1.07536E+01 -1.28271E+01 -7.94099E+00 -1.14953E+01 -1.06164E+01
  -9.72490E+00 -9.94053E+00 -1.05609E+01 -1.10979E+01 -1.03664E+01 -9.75346E+00 -1.17221E+01 -8.69386E+00 -1.05301E+01 -9.95923E+00
  -9.70807E+00 -9.99784E+00 -9.35572E+00 -1.04224E+01 -9.78291E+00 -1.00340E+01 -8.31494E+00 -7.69965E+00 -9.30433E+00 -9.52744E+00
  -8.87783E+00 -8.18862E+00 -1.01374E+01 -1.05648E+01 -9.93809E+00 -1.01042E+01 -9.54042E+00 -9.97357E+00 -1.22464E+01 -9.60333E+00
  -1.12917E+01 -1.10397E+01 -8.55629E+00 -7.58932E+00 -9.11743E+00 -9.57202E+00 -9.34058E+00 -9.75689E+00 -9.50756E+00 -1.12814E+01
  -1.01038E+01 -9.99410E+00 -7.35999E+00 -8.08191E+00 -9.60437E+00 -8.08505E+00 -8.51340E+00 -8.75158E+00 -1.12113E+01 -7.43427E+00
  -8.09707E+00 -7.87593E+00 -7.77540E+00 -5.28699E+00 -5.94464E+00 -5.14851E+00 -3.64463E+00 -4.40457E+00 -3.52749E+00 -4.58678E+00
  -6.70225E+00 -6.15404E+00 -3.52507E+00 -3.73140E+00 -4.83248E+00 -4.70159E+00 -4.35920E+00 -3.85540E+00 -6.19353E+00 -8.04439E+00
  -8.19265E+00 -8.91607E+00 -9.42498E+00 -9.70173E+00 -8.77124E+00 -8.24387E+00 -8.48432E+00 -8.17183E+00 -6.53212E+00 -8.09111E+00
  -7.03848E+00 -8.04302E+00 -7.50669E+00 -8.85797E+00 -9.79931E+00 -8.13483E+00 -6.14563E+00 -7.06161E+00 -7.97344E+00 -8.42245E+00
  -8.79994E+00 -7.81772E+00 -7.13518E+00 -8.42990E+00 -9.02040E+00 -7.75315E+00 -7.60400E+00 -7.87585E+00 -5.48125E+00 -6.49549E+00
  -8.28660E+00 -5.29130E+00 -6.44303E+00 -6.31281E+00 -7.33899E+00 -7.63944E+00 -6.74316E+00 -7.06828E+00 -7.06468E+00 -6.23247E+00
  -5.86387E+00 -4.75555E+00 -6.72363E+00 -6.57825E+00 -7.00197E+00 -5.98491E+00 -5.12893E+00 -3.58543E+00 -1.80223E+00 -9.06003E-01
  -3.25792E+00 -2.47371E+00 -2.99130E+00 -3.17376E+00 -5.60912E+00 -5.51141E+00 -6.23946E+00 -6.22781E+00 -5.67871E+00 -5.19615E+00
  -4.98543E+00 -4.05574E+00 -4.51268E+00 -5.78800E+00 -6.22313E+00 -6.00128E+00 -5.83390E+00 -6.05079E+00 -4.60614E+00 -4.73027E+00
  -5.93003E+00 -5.48162E+00 -5.90431E+00 -5.30261E+00 -4.05697E+00 -3.26815E+00 -3.71355E+00 -4.15827E+00 -5.30772E+00 -6.68121E+00
  -4.02158E+00 -5.30496E+00 -7.71008E+00 -7.03972E+00 -5.83814E+00 -6.80161E+00 -5.91666E+00 -6.09918E+00 -5.80108E+00 -4.97448E+00
  -5.81851E+00 -4.43965E+00 -5.13130E+00 -6.19498E+00 -5.19402E+00 -5.60914E+00 -4.03651E+00 -5.68355E+00 -3.81739E+00 -4.34343E+00
  -5.80327E+00 -7.16379E+00 -5.52288E+00 -3.44491E+00 -4.48413E+00 -6.81775E+00 -6.10398E+00 -6.44353E+00 -4.11565E+00 -4.11573E+00
  -4.98829E+00 -3.42079E+00 -5.60023E+00 -6.03946E+00 -4.56799E+00 -5.96866E+00 -5.30647E+00 -4.04477E+00 -4.69051E+00 -4.73253E+00
  -4.30717E+00 -2.81992E+00 -5.26836E+00 -4.15701E+00 -2.90052E+00 -3.63344E+00 -5.21630E+00 -3.80788E+00 -3.36097E+00 -5.16567E+00
  -3.41439E+00 -2.81995E+00 -4.82668E+00 -4.28388E+00 -3.47383E+00 -4.07782E+00 -4.77172E+00 -3.59765E+00 -4.47043E+00 -3.47082E+00
  -3.85821E+00 -3.41068E+00 -5.16041E+00 -4.71466E+00 -3.18510E+00 -5.30676E+00 -3.11836E+00 -3.80396E+00 -3.69839E+00 -3.00058E+00
  -5.05239E+00 -3.29527E+00 -3.94240E+00 -5.01641E+00 -3.43226E+00 -4.81744E+00 -3.34308E+00 -5.94496E+00 -4.95133E+00 -3.55891E+00
  -4.25856E+00 -6.29384E+00 -6.36419E+00 -2.75413E+00 -4.34846E+00 -5.88374E+00 -5.12100E+00 -4.56046E+00 -4.47823E+00 -3.95429E+00
  -5.48802E+00 -5.27340E+00 -3.27583E+00 -5.36920E+00 -3.51850E+00 -3.40361E+00 -3.29418E+00 -3.78875E+00 -4.65782E+00 -2.30086E+00
  -3.85037E+00 -4.95823E+00 -4.98132E+00 -3.01907E+00 -2.20203E+00 -3.88540E+00 -1.67603E+00 -2.97375E+00 -2.71798E+00 -3.61331E+00
  -4.02178E+00 -3.76587E+00 -1.20769E+00 -2.05352E+00 -3.83587E+00  4.97747E-01 -3.10242E+00 -2.97243E+00 -4.06386E+00 -5.47905E-01
  -3.55585E+00 -3.17438E+00 -4.11697E+00 -1.69319E+00 -3.14081E+00 -2.27497E+00 -2.04020E+00 -3.22525E+00 -3.33276E+00 -3.11914E+00
  -4.39182E+00 -3.90167E+00 -1.95115E+00 -3.44638E+00 -3.65932E+00 -3.19800E+00 -2.56122E+00 -2.18759E+00 -1.37317E+00 -8.90226E-01
  -3.28579E+00 -1.54880E+00 -3.29285E+00 -1.00888E+00 -2.25942E+00 -2.50687E+00 -3.17783E+00 -2.03161E+00
 NY points of the fit to the data follow
  -6.43998E+01 -6.40513E+01 -6.39795E+01 -6.35868E+01 -6.33008E+01 -6.32363E+01 -6.23442E+01 -6.19592E+01 -6.08708E+01 -6.08720E+01
  -6.01785E+01 -6.02668E+01 -5.92845E+01 -5.90616E+01 -5.76871E+01 -5.74268E+01 -5.59868E+01 -5.57243E+01 -5.46688E+01 -5.45470E+01
  -5.36448E+01 -5.32860E+01 -5.24378E+01 -5.20282E+01 -5.10593E+01 -5.03013E+01 -4.87829E+01 -4.82321E+01 -4.74942E+01 -4.72585E+01
  -4.65438E+01 -4.64528E+01 -4.55759E+01 -4.55862E+01 -4.47284E+01 -4.48511E+01 -4.38398E+01 -4.37808E+01 -4.27198E+01 -4.23904E+01
  -4.15839E+01 -4.15333E+01 -4.09316E+01 -4.05962E+01 -3.99740E+01 -4.00251E+01 -3.98503E+01 -3.98286E+01 -3.93451E+01 -3.88177E+01
  -3.81527E+01 -3.75486E+01 -3.70309E+01 -3.65871E+01 -3.63273E+01 -3.61376E+01 -3.60531E+01 -3.60396E+01 -3.59401E+01 -3.58261E+01
  -3.55316E+01 -3.49927E+01 -3.44997E+01 -3.38950E+01 -3.34440E+01 -3.29324E+01 -3.25702E+01 -3.21752E+01 -3.18007E+01 -3.15746E+01
  -3.12852E+01 -3.10328E+01 -3.07247E+01 -3.03618E+01 -2.99709E+01 -2.96124E+01 -2.92396E+01 -2.90105E+01 -2.86954E+01 -2.86757E+01
  -2.84656E+01 -2.84711E+01 -2.82471E+01 -2.82837E+01 -2.80808E+01 -2.79520E+01 -2.75137E+01 -2.72863E+01 -2.68475E+01 -2.67560E+01
  -2.64801E+01 -2.64532E+01 -2.58986E+01 -2.56731E+01 -2.50434E+01 -2.44797E+01 -2.40740E+01 -2.33903E+01 -2.28814E+01 -2.20975E+01
  -2.22236E+01 -2.17517E+01 -2.19221E+01 -2.14601E+01 -2.14236E+01 -2.07904E+01 -2.09813E+01 -2.04032E+01 -2.06211E+01 -2.01273E+01
  -2.04622E+01 -2.01356E+01 -2.04071E+01 -2.02603E+01 -2.03165E+01 -2.02283E+01 -2.00579E+01 -1.95674E+01 -1.91702E+01 -1.85507E+01
  -1.79302E+01 -1.76336E+01 -1.69768E+01 -1.65086E+01 -1.57075E+01 -1.59210E+01 -1.53655E+01 -1.56920E+01 -1.52037E+01 -1.52550E+01
  -1.46666E+01 -1.51017E+01 -1.46249E+01 -1.50842E+01 -1.45943E+01 -1.51799E+01 -1.47533E+01 -1.54288E+01 -1.51477E+01 -1.56683E+01
  -1.54568E+01 -1.57046E+01 -1.54331E+01 -1.56139E+01 -1.53172E+01 -1.53615E+01 -1.50290E+01 -1.50199E+01 -1.47125E+01 -1.47610E+01
  -1.45954E+01 -1.46392E+01 -1.45360E+01 -1.45329E+01 -1.44209E+01 -1.43773E+01 -1.42819E+01 -1.42385E+01 -1.41419E+01 -1.40520E+01
  -1.39481E+01 -1.38394E+01 -1.37659E+01 -1.36723E+01 -1.35825E+01 -1.34977E+01 -1.34252E+01 -1.33406E+01 -1.32843E+01 -1.31860E+01
  -1.31199E+01 -1.30510E+01 -1.30100E+01 -1.29467E+01 -1.28358E+01 -1.28051E+01 -1.27058E+01 -1.27562E+01 -1.26638E+01 -1.26744E+01
  -1.25009E+01 -1.24644E+01 -1.22375E+01 -1.21493E+01 -1.18586E+01 -1.17667E+01 -1.15450E+01 -1.15549E+01 -1.15419E+01 -1.16039E+01
  -1.16847E+01 -1.15112E+01 -1.15095E+01 -1.11761E+01 -1.11312E+01 -1.06236E+01 -1.05266E+01 -1.00733E+01 -1.02070E+01 -1.01738E+01
  -1.05291E+01 -1.04892E+01 -1.08885E+01 -1.06165E+01 -1.08766E+01 -1.05256E+01 -1.05496E+01 -9.91029E+00 -9.78013E+00 -9.57826E+00
  -9.55424E+00 -9.68136E+00 -9.80974E+00 -1.00168E+01 -1.01878E+01 -1.02627E+01 -1.01843E+01 -9.99708E+00 -9.74968E+00 -9.56064E+00
  -9.19202E+00 -9.18564E+00 -9.05149E+00 -9.29113E+00 -9.41656E+00 -9.58820E+00 -9.67702E+00 -9.71154E+00 -9.69569E+00 -9.34523E+00
  -9.12840E+00 -8.89272E+00 -8.87096E+00 -8.63476E+00 -8.85430E+00 -8.85350E+00 -9.14922E+00 -9.14422E+00 -9.41039E+00 -9.24690E+00
  -9.25730E+00 -9.07871E+00 -8.99616E+00 -8.79664E+00 -8.74433E+00 -8.68817E+00 -8.72536E+00 -8.67611E+00 -8.82749E+00 -8.56663E+00
  -8.04447E+00 -7.47693E+00 -6.46943E+00 -5.99728E+00 -5.46669E+00 -5.01668E+00 -4.24659E+00 -4.14374E+00 -4.47620E+00 -4.53547E+00
  -4.84786E+00 -4.78857E+00 -4.62981E+00 -4.64299E+00 -4.89823E+00 -5.04134E+00 -5.38939E+00 -5.70394E+00 -6.41767E+00 -6.78718E+00
  -7.53390E+00 -7.79924E+00 -8.23903E+00 -8.31067E+00 -8.38120E+00 -8.38959E+00 -8.49414E+00 -8.47094E+00 -8.45773E+00 -8.39690E+00
  -8.32018E+00 -8.25475E+00 -8.18788E+00 -8.13831E+00 -8.07891E+00 -8.03344E+00 -7.97357E+00 -7.92329E+00 -7.85634E+00 -7.80211E+00
  -7.73310E+00 -7.67458E+00 -7.60383E+00 -7.54315E+00 -7.47137E+00 -7.40853E+00 -7.33414E+00 -7.26856E+00 -7.19176E+00 -7.12268E+00
  -7.04261E+00 -6.96956E+00 -6.88490E+00 -6.80622E+00 -6.71446E+00 -6.62750E+00 -6.52542E+00 -6.42535E+00 -6.30618E+00 -6.18218E+00
  -6.02467E+00 -5.85616E+00 -5.77605E+00 -5.65975E+00 -5.54753E+00 -5.37986E+00 -4.92089E+00 -4.40085E+00 -4.15340E+00 -3.59649E+00
  -3.93118E+00 -3.85617E+00 -4.25859E+00 -4.42463E+00 -5.74874E+00 -6.14117E+00 -6.66174E+00 -6.17140E+00 -5.94177E+00 -5.45406E+00
  -5.65643E+00 -5.10604E+00 -4.84003E+00 -5.15436E+00 -5.36489E+00 -5.97541E+00 -5.91858E+00 -5.85746E+00 -5.05475E+00 -4.94002E+00
  -4.10838E+00 -3.98312E+00 -3.43338E+00 -3.83336E+00 -3.60180E+00 -4.20495E+00 -4.29397E+00 -4.78888E+00 -4.96855E+00 -5.16809E+00
  -5.22709E+00 -5.42987E+00 -5.52095E+00 -5.63487E+00 -5.68780E+00 -5.71807E+00 -5.72406E+00 -5.72833E+00 -5.71705E+00 -5.70892E+00
  -5.68855E+00 -5.67362E+00 -5.64823E+00 -5.62958E+00 -5.60154E+00 -5.58094E+00 -5.55151E+00 -5.52978E+00 -5.49945E+00 -5.47684E+00
  -5.44564E+00 -5.42197E+00 -5.38951E+00 -5.36425E+00 -5.32991E+00 -5.30239E+00 -5.26549E+00 -5.23497E+00 -5.19470E+00 -5.16037E+00
  -5.11596E+00 -5.07710E+00 -5.02787E+00 -4.98386E+00 -4.92926E+00 -4.87968E+00 -4.81954E+00 -4.76450E+00 -4.69921E+00 -4.63944E+00
  -4.57014E+00 -4.50729E+00 -4.43622E+00 -4.37307E+00 -4.30347E+00 -4.24370E+00 -4.17963E+00 -4.12756E+00 -4.07346E+00 -4.03342E+00
  -3.99325E+00 -3.96863E+00 -3.94505E+00 -3.93765E+00 -3.93144E+00 -3.94089E+00 -3.95050E+00 -3.97419E+00 -3.99610E+00 -4.02973E+00
  -4.05907E+00 -4.09741E+00 -4.12883E+00 -4.16668E+00 -4.19538E+00 -4.22851E+00 -4.25089E+00 -4.27640E+00 -4.29032E+00 -4.30684E+00
  -4.31165E+00 -4.31918E+00 -4.31537E+00 -4.31473E+00 -4.30342E+00 -4.29598E+00 -4.27867E+00 -4.26595E+00 -4.24406E+00 -4.22737E+00
  -4.20215E+00 -4.18264E+00 -4.15510E+00 -4.13363E+00 -4.10449E+00 -4.08163E+00 -4.05137E+00 -4.02758E+00 -3.99657E+00 -3.97211E+00
  -3.94053E+00 -3.91554E+00 -3.88354E+00 -3.85816E+00 -3.82583E+00 -3.80010E+00 -3.76746E+00 -3.74141E+00 -3.70850E+00 -3.68216E+00
  -3.64900E+00 -3.62236E+00 -3.58890E+00 -3.56196E+00 -3.52826E+00 -3.50106E+00 -3.46714E+00 -3.43968E+00 -3.40554E+00 -3.37786E+00
  -3.34357E+00 -3.31572E+00 -3.28127E+00 -3.25323E+00 -3.21865E+00 -3.19049E+00 -3.15582E+00 -3.12754E+00 -3.09277E+00 -3.06438E+00
  -3.02955E+00 -3.00109E+00 -2.96623E+00 -2.93771E+00 -2.90280E+00 -2.87422E+00 -2.83931E+00 -2.81072E+00 -2.77581E+00 -2.74719E+00
  -2.71227E+00 -2.68363E+00 -2.64874E+00 -2.62011E+00 -2.58524E+00 -2.55657E+00 -2.52170E+00 -2.49302E+00 -2.45817E+00 -2.42947E+00
  -2.39458E+00 -2.36580E+00 -2.33084E+00 -2.30196E+00 -2.26690E+00 -2.23783E+00 -2.20254E+00 -2.17315E+00
 NY background values follow
    -6.673E+01   -6.619E+01   -6.566E+01   -6.512E+01   -6.459E+01   -6.405E+01   -6.352E+01   -6.299E+01   -6.245E+01   -6.192E+01
    -6.139E+01   -6.086E+01   -6.033E+01   -5.980E+01   -5.927E+01   -5.874E+01   -5.821E+01   -5.769E+01   -5.716E+01   -5.664E+01
    -5.612E+01   -5.560E+01   -5.508E+01   -5.456E+01   -5.404E+01   -5.353E+01   -5.302E+01   -5.251E+01   -5.200E+01   -5.150E+01
    -5.099E+01   -5.049E+01   -4.999E+01   -4.950E+01   -4.901E+01   -4.851E+01   -4.803E+01   -4.754E+01   -4.706E+01   -4.658E+01
    -4.610E+01   -4.563E+01   -4.516E+01   -4.470E+01   -4.423E+01   -4.377E+01   -4.332E+01   -4.287E+01   -4.242E+01   -4.197E+01
    -4.153E+01   -4.109E+01   -4.066E+01   -4.023E+01   -3.980E+01   -3.938E+01   -3.896E+01   -3.854E+01   -3.813E+01   -3.772E+01
    -3.732E+01   -3.692E+01   -3.652E+01   -3.612E+01   -3.573E+01   -3.535E+01   -3.496E+01   -3.458E+01   -3.421E+01   -3.383E+01
    -3.346E+01   -3.310E+01   -3.274E+01   -3.238E+01   -3.203E+01   -3.167E+01   -3.133E+01   -3.098E+01   -3.064E+01   -3.031E+01
    -2.998E+01   -2.965E+01   -2.932E+01   -2.900E+01   -2.868E+01   -2.837E+01   -2.806E+01   -2.775E+01   -2.745E+01   -2.715E+01
    -2.685E+01   -2.656E+01   -2.627E+01   -2.598E+01   -2.570E+01   -2.542E+01   -2.515E+01   -2.488E+01   -2.461E+01   -2.434E+01
    -2.408E+01   -2.382E+01   -2.357E+01   -2.332E+01   -2.307E+01   -2.282E+01   -2.258E+01   -2.234E+01   -2.211E+01   -2.188E+01
    -2.165E+01   -2.142E+01   -2.120E+01   -2.098E+01   -2.076E+01   -2.055E+01   -2.034E+01   -2.013E+01   -1.992E+01   -1.972E+01
    -1.952E+01   -1.932E+01   -1.913E+01   -1.894E+01   -1.875E+01   -1.856E+01   -1.838E+01   -1.820E+01   -1.802E+01   -1.784E+01
    -1.767E+01   -1.750E+01   -1.733E+01   -1.716E+01   -1.700E+01   -1.684E+01   -1.668E+01   -1.652E+01   -1.636E+01   -1.621E+01
    -1.606E+01   -1.591E+01   -1.577E+01   -1.562E+01   -1.548E+01   -1.534E+01   -1.521E+01   -1.507E+01   -1.494E+01   -1.481E+01
    -1.468E+01   -1.455E+01   -1.443E+01   -1.431E+01   -1.419E+01   -1.407E+01   -1.395E+01   -1.384E+01   -1.373E+01   -1.362E+01
    -1.351E+01   -1.341E+01   -1.330E+01   -1.320E+01   -1.310E+01   -1.300E+01   -1.291E+01   -1.282E+01   -1.272E+01   -1.263E+01
    -1.255E+01   -1.246E+01   -1.238E+01   -1.230E+01   -1.222E+01   -1.214E+01   -1.206E+01   -1.199E+01   -1.191E+01   -1.184E+01
    -1.177E+01   -1.171E+01   -1.164E+01   -1.158E+01   -1.152E+01   -1.146E+01   -1.140E+01   -1.134E+01   -1.128E+01   -1.123E+01
    -1.118E+01   -1.113E+01   -1.108E+01   -1.103E+01   -1.098E+01   -1.094E+01   -1.089E+01   -1.085E+01   -1.081E+01   -1.077E+01
    -1.073E+01   -1.069E+01   -1.065E+01   -1.061E+01   -1.058E+01   -1.054E+01   -1.051E+01   -1.047E+01   -1.044E+01   -1.041E+01
    -1.037E+01   -1.034E+01   -1.031E+01   -1.028E+01   -1.025E+01   -1.023E+01   -1.020E+01   -1.017E+01   -1.014E+01   -1.011E+01
    -1.009E+01   -1.006E+01   -1.003E+01   -1.001E+01   -9.979E+00   -9.953E+00   -9.926E+00   -9.900E+00   -9.873E+00   -9.847E+00
    -9.820E+00   -9.793E+00   -9.767E+00   -9.740E+00   -9.713E+00   -9.687E+00   -9.660E+00   -9.633E+00   -9.606E+00   -9.579E+00
    -9.551E+00   -9.524E+00   -9.497E+00   -9.469E+00   -9.441E+00   -9.414E+00   -9.386E+00   -9.357E+00   -9.329E+00   -9.301E+00
    -9.272E+00   -9.243E+00   -9.214E+00   -9.185E+00   -9.156E+00   -9.126E+00   -9.097E+00   -9.067E+00   -9.036E+00   -9.006E+00
    -8.975E+00   -8.944E+00   -8.913E+00   -8.882E+00   -8.850E+00   -8.818E+00   -8.786E+00   -8.754E+00   -8.721E+00   -8.688E+00
    -8.654E+00   -8.621E+00   -8.587E+00   -8.552E+00   -8.518E+00   -8.483E+00   -8.448E+00   -8.412E+00   -8.377E+00   -8.341E+00
    -8.305E+00   -8.269E+00   -8.232E+00   -8.196E+00   -8.159E+00   -8.122E+00   -8.085E+00   -8.048E+00   -8.010E+00   -7.973E+00
    -7.935E+00   -7.898E+00   -7.860E+00   -7.823E+00   -7.785E+00   -7.747E+00   -7.709E+00   -7.672E+00   -7.634E+00   -7.596E+00
    -7.559E+00   -7.521E+00   -7.484E+00   -7.446E+00   -7.409E+00   -7.372E+00   -7.335E+00   -7.298E+00   -7.261E+00   -7.224E+00
    -7.187E+00   -7.151E+00   -7.115E+00   -7.079E+00   -7.043E+00   -7.008E+00   -6.972E+00   -6.937E+00   -6.903E+00   -6.868E+00
    -6.834E+00   -6.800E+00   -6.766E+00   -6.732E+00   -6.699E+00   -6.666E+00   -6.633E+00   -6.600E+00   -6.568E+00   -6.535E+00
    -6.503E+00   -6.472E+00   -6.440E+00   -6.408E+00   -6.377E+00   -6.346E+00   -6.315E+00   -6.284E+00   -6.254E+00   -6.223E+00
    -6.193E+00   -6.163E+00   -6.133E+00   -6.103E+00   -6.074E+00   -6.044E+00   -6.015E+00   -5.986E+00   -5.957E+00   -5.928E+00
    -5.899E+00   -5.870E+00   -5.842E+00   -5.813E+00   -5.785E+00   -5.757E+00   -5.729E+00   -5.701E+00   -5.673E+00   -5.645E+00
    -5.617E+00   -5.590E+00   -5.562E+00   -5.535E+00   -5.507E+00   -5.480E+00   -5.453E+00   -5.426E+00   -5.399E+00   -5.372E+00
    -5.345E+00   -5.318E+00   -5.291E+00   -5.265E+00   -5.238E+00   -5.211E+00   -5.185E+00   -5.159E+00   -5.132E+00   -5.106E+00
    -5.080E+00   -5.054E+00   -5.027E+00   -5.001E+00   -4.975E+00   -4.949E+00   -4.924E+00   -4.898E+00   -4.872E+00   -4.846E+00
    -4.820E+00   -4.795E+00   -4.769E+00   -4.744E+00   -4.718E+00   -4.693E+00   -4.667E+00   -4.642E+00   -4.617E+00   -4.591E+00
    -4.566E+00   -4.541E+00   -4.516E+00   -4.491E+00   -4.466E+00   -4.440E+00   -4.415E+00   -4.390E+00   -4.365E+00   -4.340E+00
    -4.315E+00   -4.291E+00   -4.266E+00   -4.241E+00   -4.216E+00   -4.191E+00   -4.166E+00   -4.141E+00   -4.116E+00   -4.091E+00
    -4.066E+00   -4.041E+00   -4.016E+00   -3.991E+00   -3.966E+00   -3.941E+00   -3.916E+00   -3.891E+00   -3.865E+00   -3.840E+00
    -3.815E+00   -3.789E+00   -3.764E+00   -3.738E+00   -3.712E+00   -3.687E+00   -3.661E+00   -3.635E+00   -3.609E+00   -3.583E+00
    -3.557E+00   -3.530E+00   -3.504E+00   -3.477E+00   -3.451E+00   -3.424E+00   -3.397E+00   -3.370E+00   -3.343E+00   -3.316E+00
    -3.288E+00   -3.261E+00   -3.233E+00   -3.205E+00   -3.177E+00   -3.149E+00   -3.121E+00   -3.092E+00   -3.064E+00   -3.035E+00
    -3.007E+00   -2.978E+00   -2.949E+00   -2.920E+00   -2.891E+00   -2.862E+00   -2.833E+00   -2.804E+00   -2.775E+00   -2.746E+00
    -2.717E+00   -2.687E+00   -2.658E+00   -2.629E+00   -2.600E+00   -2.570E+00   -2.541E+00   -2.512E+00   -2.483E+00   -2.454E+00
    -2.425E+00   -2.396E+00   -2.367E+00   -2.338E+00   -2.309E+00   -2.280E+00   -2.251E+00   -2.223E+00   -2.194E+00   -2.166E+00
    -2.138E+00   -2.110E+00   -2.081E+00   -2.054E+00   -2.026E+00   -1.998E+00   -1.971E+00   -1.943E+00
 Ala      Conc. = 5.68E+02
