 LCModel (Version 6.3-1L) Copyright: S.W. Provencher.          Ref.: Magn. Reson. Med. 30:672-679 (1993).                
 Slice#1 Row#1 Col#10  PD_05_press_1_raw_act
 36 lines in following concentration table = NCONC+1
    Conc.  %SD /Cr+PCr  Metabolite                                         
    0.000 999%   0.000 Ala                                                 
    4.952  90%   0.705 Asp                                                 
    0.000 999%   0.000 Cr                                                  
    7.020 224%   1.000 PCr                                                 
    2.953  90%   0.421 GABA                                                
    3.074  87%   0.438 Glc                                                 
   31.225 169%   4.448 Gln                                                 
   92.482  71%  13.174 Glu                                                 
    5.755 478%   0.820 GPC                                                 
    1.625 999%   0.232 PCh                                                 
   19.504 106%   2.778 GSH                                                 
    0.000 999%   0.000 Ins                                                 
    0.000 999%   0.000 Lac                                                 
   51.004  39%   7.266 NAA                                                 
   22.607  87%   3.221 NAAG                                                
    1.227  73%   0.175 Scyllo                                              
    5.300  84%   0.755 Tau                                                 
    1.857 423%   0.265 -CrCH2                                              
    7.380  83%   1.051 GPC+PCh                                             
   73.611  36%  10.486 NAA+NAAG                                            
    7.020 224%   1.000 Cr+PCr                                              
  123.707  66%  17.623 Glu+Gln                                             
    0.000 999%   0.000 Lip13a                                              
  561.294  19%  79.959 Lip13b                                              
    0.000 999%   0.000 Lip09                                               
    0.000 999%   0.000 MM09                                                
  178.914  35%  25.487 Lip20                                               
 1.37E-02 999% 2.0E-03 MM20                                                
 6.96E-04 999% 9.9E-05 MM12                                                
    0.000 999%   0.000 MM14                                                
 9.42E-03 999% 1.3E-03 MM17                                                
  561.294  19%  79.959 Lip13a+Lip13b                                       
  561.295  19%  79.959 MM14+Lip13a+Lip13b+MM12                             
    0.000 999%   0.000 MM09+Lip09                                          
  178.928  35%  25.489 MM20+Lip20                                          
   6 lines in following misc. output table
  FWHM = 0.031 ppm    S/N =   1                                            
  Data shift = 0.008 ppm                                                   
  Ph: -10 deg     -17.1 deg/ppm                                            
  alphaB,S = 8.5E+01,   1.3E+01                                            
   14 spline knots.   Ns = 5(1)                                            
   2 inflections.     2 extrema                                            
  498 points on ppm-axis = NY
      4.000000     3.992357     3.984714     3.977070     3.969427     3.961784     3.954141     3.946497     3.938854     3.931211
      3.923568     3.915925     3.908281     3.900638     3.892995     3.885352     3.877708     3.870065     3.862422     3.854779
      3.847136     3.839492     3.831849     3.824206     3.816563     3.808919     3.801276     3.793633     3.785990     3.778347
      3.770703     3.763060     3.755417     3.747774     3.740130     3.732487     3.724844     3.717201     3.709558     3.701914
      3.694271     3.686628     3.678985     3.671341     3.663698     3.656055     3.648412     3.640769     3.633125     3.625482
      3.617839     3.610196     3.602552     3.594909     3.587266     3.579623     3.571980     3.564336     3.556693     3.549050
      3.541407     3.533763     3.526120     3.518477     3.510834     3.503191     3.495547     3.487904     3.480261     3.472618
      3.464974     3.457331     3.449688     3.442045     3.434402     3.426758     3.419115     3.411472     3.403829     3.396185
      3.388542     3.380899     3.373256     3.365613     3.357969     3.350326     3.342683     3.335040     3.327396     3.319753
      3.312110     3.304467     3.296824     3.289180     3.281537     3.273894     3.266251     3.258607     3.250964     3.243321
      3.235678     3.228034     3.220391     3.212748     3.205105     3.197462     3.189818     3.182175     3.174532     3.166889
      3.159245     3.151602     3.143959     3.136316     3.128673     3.121029     3.113386     3.105743     3.098100     3.090456
      3.082813     3.075170     3.067527     3.059884     3.052240     3.044597     3.036954     3.029311     3.021667     3.014024
      3.006381     2.998738     2.991095     2.983451     2.975808     2.968165     2.960522     2.952878     2.945235     2.937592
      2.929949     2.922306     2.914662     2.907019     2.899376     2.891733     2.884089     2.876446     2.868803     2.861160
      2.853517     2.845873     2.838230     2.830587     2.822944     2.815300     2.807657     2.800014     2.792371     2.784728
      2.777084     2.769441     2.761798     2.754155     2.746511     2.738868     2.731225     2.723582     2.715939     2.708295
      2.700652     2.693009     2.685366     2.677722     2.670079     2.662436     2.654793     2.647150     2.639506     2.631863
      2.624220     2.616577     2.608933     2.601290     2.593647     2.586004     2.578361     2.570717     2.563074     2.555431
      2.547788     2.540144     2.532501     2.524858     2.517215     2.509572     2.501928     2.494285     2.486642     2.478999
      2.471355     2.463712     2.456069     2.448426     2.440783     2.433139     2.425496     2.417853     2.410210     2.402566
      2.394923     2.387280     2.379637     2.371994     2.364350     2.356707     2.349064     2.341421     2.333777     2.326134
      2.318491     2.310848     2.303205     2.295561     2.287918     2.280275     2.272632     2.264988     2.257345     2.249702
      2.242059     2.234416     2.226772     2.219129     2.211486     2.203843     2.196199     2.188556     2.180913     2.173270
      2.165627     2.157983     2.150340     2.142697     2.135054     2.127410     2.119767     2.112124     2.104481     2.096838
      2.089194     2.081551     2.073908     2.066265     2.058621     2.050978     2.043335     2.035692     2.028049     2.020405
      2.012762     2.005119     1.997476     1.989833     1.982190     1.974546     1.966903     1.959260     1.951617     1.943974
      1.936331     1.928688     1.921045     1.913402     1.905759     1.898115     1.890472     1.882829     1.875186     1.867543
      1.859900     1.852257     1.844614     1.836971     1.829327     1.821684     1.814041     1.806398     1.798755     1.791112
      1.783469     1.775826     1.768183     1.760540     1.752896     1.745253     1.737610     1.729967     1.722324     1.714681
      1.707038     1.699395     1.691752     1.684108     1.676465     1.668822     1.661179     1.653536     1.645893     1.638250
      1.630607     1.622964     1.615321     1.607677     1.600034     1.592391     1.584748     1.577105     1.569462     1.561819
      1.554176     1.546533     1.538890     1.531246     1.523603     1.515960     1.508317     1.500674     1.493031     1.485388
      1.477745     1.470102     1.462458     1.454815     1.447172     1.439529     1.431886     1.424243     1.416600     1.408957
      1.401314     1.393671     1.386027     1.378384     1.370741     1.363098     1.355455     1.347812     1.340169     1.332526
      1.324883     1.317240     1.309596     1.301953     1.294310     1.286667     1.279024     1.271381     1.263738     1.256095
      1.248452     1.240808     1.233165     1.225522     1.217879     1.210236     1.202593     1.194950     1.187307     1.179664
      1.172021     1.164377     1.156734     1.149091     1.141448     1.133805     1.126162     1.118519     1.110876     1.103233
      1.095590     1.087946     1.080303     1.072660     1.065017     1.057374     1.049731     1.042088     1.034445     1.026802
      1.019158     1.011515     1.003872     0.996229     0.988586     0.980943     0.973300     0.965657     0.958014     0.950371
      0.942727     0.935084     0.927441     0.919798     0.912155     0.904512     0.896869     0.889226     0.881583     0.873940
      0.866296     0.858653     0.851010     0.843367     0.835724     0.828081     0.820438     0.812795     0.805152     0.797508
      0.789865     0.782222     0.774579     0.766936     0.759293     0.751650     0.744007     0.736364     0.728721     0.721077
      0.713434     0.705791     0.698148     0.690505     0.682862     0.675219     0.667576     0.659933     0.652290     0.644646
      0.637003     0.629360     0.621717     0.614074     0.606431     0.598788     0.591145     0.583502     0.575858     0.568215
      0.560572     0.552929     0.545286     0.537643     0.530000     0.522357     0.514714     0.507071     0.499427     0.491784
      0.484141     0.476498     0.468855     0.461212     0.453569     0.445925     0.438282     0.430639     0.422996     0.415353
      0.407710     0.400067     0.392424     0.384780     0.377137     0.369494     0.361851     0.354208     0.346565     0.338922
      0.331278     0.323635     0.315992     0.308349     0.300706     0.293063     0.285420     0.277777     0.270133     0.262490
      0.254847     0.247204     0.239561     0.231918     0.224275     0.216631     0.208988     0.201345
 NY phased data points follow
  -4.00288E+00 -1.80813E+00  1.99678E+00 -1.31607E+00 -6.11392E-01 -1.09164E-01  1.35633E-03  2.27351E+00 -1.61059E+00  8.81215E-02
  -1.32491E+00 -1.74668E+00 -3.80903E-01 -9.09245E-01 -1.14223E+00 -1.49669E-02 -2.04636E+00 -3.97287E+00  1.73421E+00  2.69958E+00
  -2.68340E-01 -2.14897E+00 -3.25978E+00  2.83319E+00  1.24858E+00 -3.00970E+00 -4.78817E-01 -1.75356E+00 -1.04860E+00  1.29081E+00
   2.11703E-01 -2.39091E-01 -6.02290E-02  8.65475E-01  7.63873E-01  9.34774E-01 -2.35100E+00  6.35109E-01 -2.46580E-02 -2.88308E+00
   1.05626E+00  4.13114E-01  9.46307E-01  2.63083E+00 -1.10102E+00  1.50623E+00  1.67168E+00  5.41562E-01  7.90564E-01 -2.74244E+00
  -1.42007E+00 -5.40202E-01  3.02384E+00 -2.53593E+00 -2.56887E-01  7.59132E-01  1.44933E+00  1.18497E+00  1.77937E+00  7.18951E-01
  -1.95948E-01 -2.62213E+00 -2.45070E-01 -1.04006E+00 -1.74897E+00 -1.32707E+00  5.10362E-01  1.08583E+00 -3.22714E-01 -5.37659E-01
   1.01859E+00 -2.82701E+00  1.74915E+00 -4.68226E-01  3.98284E-01 -6.40472E+00  7.70617E-02 -1.73169E-01  1.08158E+00 -4.77618E-01
  -2.22615E+00 -1.15734E+00 -8.47978E-01 -3.11690E-01  1.74226E+00  2.39353E+00  6.20999E-01  6.12440E-01  2.24913E+00  2.10611E+00
  -2.29697E+00  2.87670E-01  3.91773E+00 -5.80815E-01  3.69997E-02  6.07109E-01  8.30131E-01  1.76462E-01 -1.03601E+00  4.51428E+00
  -2.75503E+00  1.49233E+00  2.31604E+00  5.41889E-02  3.77726E-01  3.30440E+00 -2.42506E+00  2.67558E+00 -1.17286E+00  1.10497E+00
  -2.64793E+00  1.76142E+00  2.36281E+00 -9.75504E-02  4.95110E-01  2.26919E+00  3.49271E+00  2.75808E-01 -3.73466E-01 -7.69349E-01
   2.68797E+00  7.79827E-01  2.60144E+00  1.82991E+00  3.65187E+00 -1.23589E+00  4.16875E+00  2.29823E+00 -1.48058E+00 -1.99589E+00
  -1.30561E+00  1.79043E+00 -7.69021E-01 -4.40909E-01  5.89142E-01  2.09043E+00 -8.33342E-01 -6.29604E-01  4.25468E-01 -1.12608E+00
  -2.70602E-01  5.91857E-01  2.81181E-01  3.70007E+00  2.67301E+00 -5.02725E-01  1.53646E-01  2.08960E+00  1.65931E+00  2.48737E+00
   4.70045E-01 -1.44333E+00 -2.46112E+00  5.19294E-01 -4.80045E-01 -2.85219E-01  3.40898E+00  8.96255E-01  1.69434E+00 -1.01184E-01
   8.61589E-01  1.75136E+00  3.53002E-01  1.45460E+00  3.97981E+00 -1.88842E-01  3.88976E+00  1.51048E+00  4.22768E-01 -2.89280E-01
   1.13685E+00  1.38615E+00  2.09120E+00 -3.88519E+00 -4.23743E-01 -2.92597E+00  9.09533E-01  6.84050E-01  3.13604E-01 -1.55469E+00
   1.16023E+00  3.37731E+00 -4.80427E-01  4.66156E-02 -1.40798E+00  1.76059E+00  5.75968E-01  1.48747E+00  2.61309E-01  1.28275E+00
   2.40603E+00 -1.34837E+00  3.38118E-01  1.98847E+00  2.94046E+00 -6.64932E-01  1.17857E+00  2.97951E+00  2.46638E+00 -3.56980E-01
  -2.50509E+00  2.84001E+00  2.99905E+00 -2.42878E-01 -3.19338E-01 -1.47700E+00 -1.70424E+00  1.69597E+00 -1.56586E+00 -2.18246E+00
   1.53052E+00 -1.29678E+00  8.65604E-01 -1.16937E+00  1.69806E+00  2.66153E+00  4.61792E+00  3.18076E+00  8.18969E-01  1.00972E+00
  -1.37970E+00  1.99554E+00 -7.57678E-01  1.84937E+00  2.49693E+00  2.71090E+00  3.86809E+00 -3.59710E-01 -3.52290E-01  2.76517E+00
   1.68000E-01  1.65762E+00  1.62182E+00  4.09393E+00  1.05132E+00 -1.28362E+00 -9.91804E-01  2.52993E+00  2.72530E+00  3.65719E-01
  -5.93050E-01  8.43539E-01  1.98557E-01  2.57366E+00  2.05632E-02  2.48590E+00  3.67121E-01  5.07754E+00  1.85054E+00  1.97843E+00
   1.05513E+00  1.76488E-01  5.17178E+00  1.47302E+00  7.79691E-01  9.02949E-01  4.56638E+00  3.81628E+00  4.59668E+00  5.31253E+00
   2.79023E+00  8.64472E-01  8.80819E-01 -7.25299E-01  7.01810E-03  5.75794E-01  2.61057E+00  2.82568E+00  5.59275E-01  1.16585E+00
   6.05953E-01  1.38714E+00  2.78588E+00  3.03484E-01  1.97998E+00 -1.10206E+00  5.90882E-01  6.88632E-01 -1.10109E+00  3.41226E+00
   4.50055E+00  7.76572E-01  8.41921E-01  1.26741E+00  3.52101E-01  1.69853E+00  3.84601E+00 -6.85278E-01  3.28398E-01  4.47965E-02
  -3.36239E-01  1.44528E+00 -7.97584E-01  7.01022E-01  4.18254E+00  3.79970E-01  8.87697E-01 -1.15561E+00  9.91075E-02  1.08116E+00
   9.24273E-01  4.04873E+00  1.71577E-01 -1.12332E+00  2.48848E+00  2.97511E+00 -1.39357E+00  3.11855E+00  6.63197E-01 -2.60917E-01
  -1.28519E-01  6.74910E-01 -2.80030E-02 -1.82459E-01  1.59224E+00  3.00210E-01  6.15521E-01  2.22651E+00  4.61258E+00  1.48981E+00
  -1.54741E+00  2.83606E+00  1.36678E+00  1.24042E+00  2.01944E+00  6.70595E-01  2.99000E-01  3.36425E+00  2.17845E+00  7.31859E-01
   2.00164E+00  1.12015E+00 -1.99259E+00  3.29255E+00  3.51586E-02  6.35120E-01  5.58030E-01  6.32981E-01 -1.09071E+00  6.65122E-01
  -2.59863E+00 -3.31515E+00  3.48697E+00 -4.16242E-01 -6.34063E-01 -2.45228E+00 -5.15937E-01  2.08155E-01 -1.52902E+00  4.15440E-01
   2.55856E+00  4.51015E+00  1.82613E+00  3.85338E+00  2.04452E+00  3.32943E+00  3.09752E+00  2.57026E+00  2.49001E+00  5.69798E+00
   5.85772E+00  3.79515E+00  3.99984E+00  4.89697E+00  3.20197E+00  4.20849E+00  2.90155E+00  4.46462E+00  6.03229E+00  5.35136E+00
   5.55666E-01  2.88969E+00  3.79624E+00  2.38552E+00  4.53579E+00  1.27118E+00  2.74775E+00  2.68450E-01  3.15807E+00 -1.33125E+00
   2.97790E+00  2.09281E+00  1.54934E+00 -1.69694E+00  1.91588E+00 -2.14797E+00  5.61604E-01  4.02582E+00  1.05070E+00  1.56535E+00
   2.31819E+00  2.40547E+00  2.70004E+00 -1.98788E+00 -5.61171E-01 -3.17186E-02  1.46559E+00 -7.49509E-01 -1.45878E+00  1.92967E+00
  -2.33361E+00  2.13482E-01  4.62284E-01 -1.13404E+00 -5.77113E-01 -1.40000E+00 -5.98484E-01 -3.91434E+00  8.34223E-01 -3.02167E+00
  -2.79198E+00 -2.14373E+00  2.11696E-01 -1.32175E+00 -1.18624E+00 -2.72625E+00  8.09817E-01 -6.65042E-02 -1.82922E+00 -3.15243E+00
   1.16649E+00  2.38725E+00  2.46495E+00 -1.33000E+00  3.99489E-01  2.49414E+00 -1.26719E+00 -3.35883E-01  9.01365E-01 -1.76283E+00
   9.12549E-01  1.44658E+00 -3.68195E-01  1.90216E+00 -2.23204E+00  1.20479E+00  5.12600E-01 -9.37678E-01 -1.40741E+00 -9.86751E-01
  -2.67366E+00 -3.36976E-01 -1.41191E+00  1.26746E+00  7.52097E-01 -5.17890E-01  2.65995E+00 -1.45582E+00  7.78241E-01 -9.94211E-01
  -7.22839E-01 -2.53726E+00 -1.08747E+00  1.89658E-01 -5.40177E-01  2.42158E-01 -1.14115E+00  1.59337E-01 -6.08820E-01 -5.96528E-01
  -6.08506E-01 -1.86203E+00  4.86876E-01 -1.75677E+00  1.41161E+00 -1.95584E-01  2.13580E-01 -3.63830E-01 -9.52708E-01 -8.44552E-01
   1.47231E+00 -9.92061E-01 -1.55339E-02 -9.71091E-01 -9.41009E-01  4.90673E-01 -7.07146E-01  3.69746E-01 -1.51871E+00 -4.08002E-01
  -1.61444E+00  3.44819E-03 -2.11888E-01  1.42575E+00 -7.51498E-01 -3.34736E+00 -1.40103E+00 -9.96642E-02 -1.92373E+00  4.43860E-01
   7.43558E-01  5.07627E-01  4.78562E-01 -3.31460E-01  1.51338E-01  1.25620E+00 -1.02739E+00 -2.71861E+00
 NY points of the fit to the data follow
  -2.46539E-01 -2.56318E-01 -2.66389E-01 -2.79282E-01 -2.71805E-01 -2.21043E-01 -1.48088E-01 -7.92213E-02 -3.13930E-02 -1.73497E-02
  -3.55838E-02 -7.08398E-02 -1.00520E-01 -1.12824E-01 -1.12103E-01 -1.12935E-01 -1.24238E-01 -1.39002E-01 -1.42892E-01 -1.32205E-01
  -1.13766E-01 -8.40901E-02 -4.08647E-02 -3.65289E-02 -1.67586E-01 -3.78424E-01 -4.70090E-01 -3.95548E-01 -1.43706E-01  2.29514E-01
   6.34947E-01  9.37371E-01  1.03221E+00  9.05390E-01  6.08775E-01  2.64211E-01  5.92409E-03 -1.05394E-01 -6.67943E-02  6.63286E-02
   2.09493E-01  3.02736E-01  3.36919E-01  3.25790E-01  2.91682E-01  2.60544E-01  2.43760E-01  2.38219E-01  2.40610E-01  2.45461E-01
   2.49134E-01  2.50868E-01  2.49789E-01  2.44956E-01  2.37708E-01  2.29679E-01  2.21889E-01  2.14886E-01  2.09108E-01  2.04721E-01
   2.01459E-01  1.99403E-01  2.01043E-01  2.04438E-01  2.07744E-01  2.10380E-01  2.07756E-01  1.98674E-01  1.86751E-01  1.72963E-01
   1.61009E-01  1.63995E-01  1.83706E-01  2.08847E-01  2.27266E-01  2.29515E-01  2.11851E-01  1.81798E-01  1.52322E-01  1.30894E-01
   1.16794E-01  1.16923E-01  1.48562E-01  1.98764E-01  2.44628E-01  2.69591E-01  2.67104E-01  2.43719E-01  2.11876E-01  1.78216E-01
   1.44486E-01  1.09214E-01  6.74446E-02  1.85704E-02 -2.53131E-02 -6.49060E-02 -1.22538E-01 -2.10542E-01 -1.78187E-01  1.33798E-01
   6.04870E-01  1.03954E+00  1.29015E+00  1.29988E+00  1.11469E+00  8.44990E-01  6.07962E-01  4.73194E-01  4.32603E-01  4.27465E-01
   4.17225E-01  4.01754E-01  3.86204E-01  3.72828E-01  3.62565E-01  3.50996E-01  3.32806E-01  3.08295E-01  2.77855E-01  2.40647E-01
   1.98878E-01  1.67364E-01  2.17433E-01  3.57896E-01  5.20539E-01  6.41385E-01  6.85947E-01  6.54241E-01  5.85727E-01  5.48991E-01
   5.66954E-01  5.97884E-01  5.93490E-01  5.22378E-01  3.95507E-01  2.74338E-01  2.05710E-01  2.22923E-01  3.12035E-01  4.23744E-01
   5.12269E-01  5.58846E-01  5.68295E-01  5.54577E-01  5.37152E-01  5.29733E-01  5.32658E-01  5.41735E-01  5.52077E-01  5.58984E-01
   5.54546E-01  5.42034E-01  5.34018E-01  5.41159E-01  5.72100E-01  6.18628E-01  6.49135E-01  6.43777E-01  6.11538E-01  5.74374E-01
   5.64075E-01  5.88698E-01  6.26444E-01  6.56395E-01  6.63612E-01  6.40685E-01  5.98337E-01  5.63959E-01  5.53174E-01  5.65237E-01
   5.83425E-01  5.75238E-01  5.27650E-01  4.71672E-01  4.36298E-01  4.31831E-01  4.41004E-01  4.37148E-01  4.09360E-01  3.72931E-01
   3.47831E-01  3.34407E-01  3.18959E-01  2.94354E-01  2.74657E-01  2.78794E-01  3.25550E-01  4.22205E-01  5.45788E-01  6.38086E-01
   6.61165E-01  6.12987E-01  5.12764E-01  3.71355E-01  2.22558E-01  1.25587E-01  1.11120E-01  1.82019E-01  3.15960E-01  4.78594E-01
   6.38097E-01  7.72903E-01  8.54097E-01  8.48209E-01  7.64048E-01  5.54152E-01  2.33087E-01 -7.16276E-02 -2.74381E-01 -3.25871E-01
  -2.00287E-01  1.42776E-01  6.62463E-01  1.13834E+00  1.40319E+00  1.40370E+00  1.17377E+00  7.51479E-01  1.84204E-01 -3.51293E-01
  -6.28711E-01 -5.89502E-01 -3.07334E-01  9.96935E-02  5.00710E-01  7.92139E-01  9.09967E-01  8.48559E-01  6.95797E-01  5.57194E-01
   4.84946E-01  4.66465E-01  4.99821E-01  5.95684E-01  7.20427E-01  8.14565E-01  8.40231E-01  8.03719E-01  6.69004E-01  4.68319E-01
   2.93093E-01  2.22517E-01  2.61837E-01  3.75995E-01  5.10130E-01  5.96756E-01  5.93998E-01  5.07448E-01  3.94689E-01  3.19205E-01
   3.36828E-01  6.20330E-01  1.12938E+00  1.57191E+00  1.75980E+00  1.99047E+00  2.63694E+00  3.38451E+00  3.86793E+00  3.91726E+00
   3.52407E+00  2.81929E+00  2.05425E+00  1.47919E+00  1.20851E+00  1.16064E+00  1.16388E+00  1.12561E+00  1.07096E+00  1.03087E+00
   1.01563E+00  1.01917E+00  1.02485E+00  1.01585E+00  9.86915E-01  9.42108E-01  8.87222E-01  8.32737E-01  7.89251E-01  7.60539E-01
   7.41573E-01  7.27834E-01  7.15760E-01  7.01898E-01  6.83979E-01  6.62081E-01  6.37762E-01  6.16074E-01  6.00296E-01  5.89707E-01
   5.82106E-01  5.75093E-01  5.66618E-01  5.55734E-01  5.41550E-01  5.25399E-01  5.10071E-01  4.97171E-01  4.87154E-01  4.79791E-01
   4.74092E-01  4.68806E-01  4.62935E-01  4.56127E-01  4.48745E-01  4.41392E-01  4.34358E-01  4.27723E-01  4.21515E-01  4.15613E-01
   4.09918E-01  4.04409E-01  3.99108E-01  3.94044E-01  3.89254E-01  3.84765E-01  3.80598E-01  3.76760E-01  3.73257E-01  3.70091E-01
   3.67290E-01  3.64888E-01  3.62933E-01  3.61471E-01  3.60556E-01  3.60239E-01  3.60591E-01  3.61701E-01  3.63684E-01  3.66669E-01
   3.70813E-01  3.76294E-01  3.83344E-01  3.92246E-01  4.03366E-01  4.17147E-01  4.34151E-01  4.55085E-01  4.80864E-01  5.12645E-01
   5.51904E-01  6.00482E-01  6.60664E-01  7.35218E-01  8.27418E-01  9.40958E-01  1.07979E+00  1.24778E+00  1.44828E+00  1.68348E+00
   1.95365E+00  2.25640E+00  2.58599E+00  2.93293E+00  3.28409E+00  3.62325E+00  3.93232E+00  4.19297E+00  4.38865E+00  4.50648E+00
   4.53886E+00  4.48439E+00  4.34803E+00  4.14034E+00  3.87607E+00  3.57238E+00  3.24688E+00  2.91590E+00  2.59323E+00  2.28937E+00
   2.01132E+00  1.76281E+00  1.54489E+00  1.35656E+00  1.19550E+00  1.05865E+00  9.42709E-01  8.44438E-01  7.60895E-01  6.89507E-01
   6.28102E-01  5.74879E-01  5.28378E-01  4.87423E-01  4.51075E-01  4.18577E-01  3.89317E-01  3.62798E-01  3.38619E-01  3.16451E-01
   2.96027E-01  2.77120E-01  2.59539E-01  2.43120E-01  2.27730E-01  2.13255E-01  1.99599E-01  1.86672E-01  1.74400E-01  1.62715E-01
   1.51564E-01  1.40899E-01  1.30679E-01  1.20860E-01  1.11408E-01  1.02289E-01  9.34833E-02  8.49646E-02  7.67123E-02  6.87019E-02
   6.09162E-02  5.33387E-02  4.59597E-02  3.87652E-02  3.17431E-02  2.48777E-02  1.81607E-02  1.15833E-02  5.14137E-03 -1.17505E-03
  -7.37360E-03 -1.34644E-02 -1.94504E-02 -2.53363E-02 -3.11244E-02 -3.68231E-02 -4.24378E-02 -4.79748E-02 -5.34337E-02 -5.88168E-02
  -6.41252E-02 -6.93667E-02 -7.45448E-02 -7.96637E-02 -8.47214E-02 -8.97198E-02 -9.46606E-02 -9.95503E-02 -1.04389E-01 -1.09180E-01
  -1.13918E-01 -1.18609E-01 -1.23252E-01 -1.27855E-01 -1.32417E-01 -1.36938E-01 -1.41415E-01 -1.45852E-01 -1.50251E-01 -1.54616E-01
  -1.58945E-01 -1.63237E-01 -1.67490E-01 -1.71707E-01 -1.75891E-01 -1.80046E-01 -1.84167E-01 -1.88256E-01 -1.92311E-01 -1.96336E-01
  -2.00331E-01 -2.04298E-01 -2.08233E-01 -2.12136E-01 -2.16008E-01 -2.19853E-01 -2.23673E-01 -2.27465E-01 -2.31226E-01 -2.34957E-01
  -2.38658E-01 -2.42334E-01 -2.45982E-01 -2.49603E-01 -2.53192E-01 -2.56752E-01 -2.60285E-01 -2.63794E-01 -2.67275E-01 -2.70726E-01
  -2.74145E-01 -2.77535E-01 -2.80898E-01 -2.84234E-01 -2.87538E-01 -2.90810E-01 -2.94048E-01 -2.97256E-01 -3.00434E-01 -3.03581E-01
  -3.06690E-01 -3.09761E-01 -3.12793E-01 -3.15790E-01 -3.18748E-01 -3.21664E-01 -3.24531E-01 -3.27347E-01
 NY background values follow
     1.809E-01    1.862E-01    1.914E-01    1.966E-01    2.018E-01    2.069E-01    2.120E-01    2.171E-01    2.222E-01    2.272E-01
     2.322E-01    2.371E-01    2.421E-01    2.470E-01    2.518E-01    2.567E-01    2.615E-01    2.663E-01    2.710E-01    2.757E-01
     2.804E-01    2.851E-01    2.897E-01    2.943E-01    2.989E-01    3.034E-01    3.079E-01    3.124E-01    3.168E-01    3.212E-01
     3.256E-01    3.300E-01    3.343E-01    3.386E-01    3.428E-01    3.470E-01    3.512E-01    3.554E-01    3.595E-01    3.636E-01
     3.677E-01    3.718E-01    3.758E-01    3.797E-01    3.837E-01    3.876E-01    3.915E-01    3.953E-01    3.992E-01    4.029E-01
     4.067E-01    4.104E-01    4.141E-01    4.178E-01    4.214E-01    4.250E-01    4.286E-01    4.321E-01    4.356E-01    4.391E-01
     4.425E-01    4.459E-01    4.493E-01    4.527E-01    4.560E-01    4.593E-01    4.625E-01    4.657E-01    4.689E-01    4.721E-01
     4.752E-01    4.783E-01    4.813E-01    4.844E-01    4.874E-01    4.903E-01    4.933E-01    4.962E-01    4.990E-01    5.019E-01
     5.047E-01    5.074E-01    5.102E-01    5.129E-01    5.156E-01    5.182E-01    5.208E-01    5.234E-01    5.260E-01    5.285E-01
     5.310E-01    5.334E-01    5.359E-01    5.382E-01    5.406E-01    5.429E-01    5.452E-01    5.475E-01    5.497E-01    5.519E-01
     5.541E-01    5.562E-01    5.583E-01    5.604E-01    5.625E-01    5.645E-01    5.665E-01    5.684E-01    5.703E-01    5.722E-01
     5.741E-01    5.759E-01    5.777E-01    5.794E-01    5.812E-01    5.829E-01    5.845E-01    5.862E-01    5.878E-01    5.893E-01
     5.909E-01    5.924E-01    5.939E-01    5.953E-01    5.967E-01    5.981E-01    5.995E-01    6.008E-01    6.021E-01    6.034E-01
     6.046E-01    6.058E-01    6.070E-01    6.081E-01    6.092E-01    6.103E-01    6.114E-01    6.124E-01    6.134E-01    6.143E-01
     6.152E-01    6.161E-01    6.170E-01    6.178E-01    6.186E-01    6.194E-01    6.202E-01    6.209E-01    6.216E-01    6.222E-01
     6.229E-01    6.235E-01    6.240E-01    6.246E-01    6.251E-01    6.255E-01    6.260E-01    6.264E-01    6.268E-01    6.272E-01
     6.275E-01    6.278E-01    6.281E-01    6.283E-01    6.285E-01    6.287E-01    6.289E-01    6.290E-01    6.291E-01    6.292E-01
     6.292E-01    6.292E-01    6.292E-01    6.292E-01    6.291E-01    6.290E-01    6.289E-01    6.287E-01    6.285E-01    6.283E-01
     6.281E-01    6.278E-01    6.275E-01    6.272E-01    6.268E-01    6.265E-01    6.261E-01    6.256E-01    6.252E-01    6.247E-01
     6.242E-01    6.236E-01    6.231E-01    6.225E-01    6.218E-01    6.212E-01    6.205E-01    6.198E-01    6.191E-01    6.183E-01
     6.175E-01    6.167E-01    6.159E-01    6.150E-01    6.142E-01    6.133E-01    6.123E-01    6.114E-01    6.104E-01    6.094E-01
     6.083E-01    6.073E-01    6.062E-01    6.051E-01    6.039E-01    6.028E-01    6.016E-01    6.004E-01    5.991E-01    5.979E-01
     5.966E-01    5.953E-01    5.939E-01    5.926E-01    5.912E-01    5.898E-01    5.884E-01    5.869E-01    5.854E-01    5.839E-01
     5.824E-01    5.809E-01    5.793E-01    5.777E-01    5.761E-01    5.744E-01    5.728E-01    5.711E-01    5.694E-01    5.677E-01
     5.659E-01    5.641E-01    5.623E-01    5.605E-01    5.587E-01    5.568E-01    5.550E-01    5.530E-01    5.511E-01    5.492E-01
     5.472E-01    5.452E-01    5.432E-01    5.412E-01    5.391E-01    5.371E-01    5.350E-01    5.329E-01    5.307E-01    5.286E-01
     5.264E-01    5.242E-01    5.220E-01    5.198E-01    5.175E-01    5.153E-01    5.130E-01    5.107E-01    5.084E-01    5.060E-01
     5.036E-01    5.013E-01    4.989E-01    4.964E-01    4.940E-01    4.916E-01    4.891E-01    4.866E-01    4.841E-01    4.816E-01
     4.790E-01    4.765E-01    4.739E-01    4.713E-01    4.687E-01    4.660E-01    4.634E-01    4.607E-01    4.581E-01    4.554E-01
     4.527E-01    4.499E-01    4.472E-01    4.444E-01    4.417E-01    4.389E-01    4.361E-01    4.333E-01    4.304E-01    4.276E-01
     4.247E-01    4.218E-01    4.189E-01    4.160E-01    4.131E-01    4.102E-01    4.072E-01    4.043E-01    4.013E-01    3.983E-01
     3.953E-01    3.923E-01    3.893E-01    3.862E-01    3.832E-01    3.801E-01    3.770E-01    3.739E-01    3.708E-01    3.677E-01
     3.646E-01    3.614E-01    3.583E-01    3.551E-01    3.520E-01    3.488E-01    3.456E-01    3.424E-01    3.392E-01    3.359E-01
     3.327E-01    3.294E-01    3.262E-01    3.229E-01    3.196E-01    3.163E-01    3.130E-01    3.097E-01    3.064E-01    3.031E-01
     2.997E-01    2.964E-01    2.930E-01    2.897E-01    2.863E-01    2.829E-01    2.796E-01    2.762E-01    2.728E-01    2.693E-01
     2.659E-01    2.625E-01    2.591E-01    2.556E-01    2.522E-01    2.487E-01    2.453E-01    2.418E-01    2.383E-01    2.348E-01
     2.314E-01    2.279E-01    2.244E-01    2.209E-01    2.174E-01    2.138E-01    2.103E-01    2.068E-01    2.033E-01    1.997E-01
     1.962E-01    1.927E-01    1.891E-01    1.856E-01    1.820E-01    1.785E-01    1.749E-01    1.713E-01    1.678E-01    1.642E-01
     1.606E-01    1.570E-01    1.535E-01    1.499E-01    1.463E-01    1.427E-01    1.391E-01    1.355E-01    1.319E-01    1.283E-01
     1.247E-01    1.211E-01    1.175E-01    1.139E-01    1.103E-01    1.067E-01    1.031E-01    9.954E-02    9.594E-02    9.234E-02
     8.874E-02    8.513E-02    8.153E-02    7.793E-02    7.433E-02    7.073E-02    6.713E-02    6.353E-02    5.994E-02    5.634E-02
     5.275E-02    4.916E-02    4.557E-02    4.198E-02    3.839E-02    3.481E-02    3.123E-02    2.765E-02    2.407E-02    2.050E-02
     1.693E-02    1.336E-02    9.802E-03    6.242E-03    2.687E-03   -8.651E-04   -4.413E-03   -7.957E-03   -1.150E-02   -1.503E-02
    -1.856E-02   -2.209E-02   -2.561E-02   -2.912E-02   -3.263E-02   -3.614E-02   -3.964E-02   -4.313E-02   -4.662E-02   -5.010E-02
    -5.358E-02   -5.705E-02   -6.051E-02   -6.397E-02   -6.742E-02   -7.086E-02   -7.430E-02   -7.773E-02   -8.115E-02   -8.457E-02
    -8.797E-02   -9.137E-02   -9.476E-02   -9.815E-02   -1.015E-01   -1.049E-01   -1.082E-01   -1.116E-01   -1.149E-01   -1.183E-01
    -1.216E-01   -1.249E-01   -1.282E-01   -1.315E-01   -1.348E-01   -1.381E-01   -1.413E-01   -1.446E-01   -1.478E-01   -1.511E-01
    -1.543E-01   -1.575E-01   -1.607E-01   -1.639E-01   -1.671E-01   -1.703E-01   -1.734E-01   -1.766E-01   -1.797E-01   -1.828E-01
    -1.859E-01   -1.890E-01   -1.921E-01   -1.952E-01   -1.983E-01   -2.013E-01   -2.044E-01   -2.074E-01   -2.104E-01   -2.134E-01
    -2.164E-01   -2.193E-01   -2.223E-01   -2.253E-01   -2.282E-01   -2.311E-01   -2.340E-01   -2.369E-01
 Asp      Conc. = 4.95E+00
