 LCModel (Version 6.3-1L) Copyright: S.W. Provencher.          Ref.: Magn. Reson. Med. 30:672-679 (1993).                
 Slice#1 Row#8 Col#13  PD_05_press_1_raw_act
 36 lines in following concentration table = NCONC+1
    Conc.  %SD /Cr+PCr  Metabolite                                         
    0.000 999%   0.000 Ala                                                 
    3.897 248%   0.000 Asp                                                 
    0.000 999%   0.000 Cr                                                  
    0.000 999%   0.000 PCr                                                 
    2.488 233%   0.000 GABA                                                
    2.260 256%   0.000 Glc                                                 
    0.000 999%   0.000 Gln                                                 
    0.000 999%   0.000 Glu                                                 
    0.000 999%   0.000 GPC                                                 
    0.000 999%   0.000 PCh                                                 
    0.000 999%   0.000 GSH                                                 
    0.000 999%   0.000 Ins                                                 
   62.125  76%   0.000 Lac                                                 
    0.630 999%   0.000 NAA                                                 
   94.052  44%   0.000 NAAG                                                
    0.857 220%   0.000 Scyllo                                              
    3.028 315%   0.000 Tau                                                 
    2.028 368%   0.000 -CrCH2                                              
    0.000 999%   0.000 GPC+PCh                                             
   94.683  41%   0.000 NAA+NAAG                                            
    0.000 999%   0.000 Cr+PCr                                              
    0.000 999%   0.000 Glu+Gln                                             
  311.883  72%   0.000 Lip13a                                              
    0.000 999%   0.000 Lip13b                                              
   88.301  75%   0.000 Lip09                                               
 1.02E+03  12%   0.000 MM09                                                
   54.285  76%   0.000 Lip20                                               
  819.319  19%   0.000 MM20                                                
  635.303  24%   0.000 MM12                                                
  355.058  39%   0.000 MM14                                                
  351.095  26%   0.000 MM17                                                
  311.883  72%   0.000 Lip13a+Lip13b                                       
 1.30E+03  14%   0.000 MM14+Lip13a+Lip13b+MM12                             
 1.11E+03   9%   0.000 MM09+Lip09                                          
  873.603  18%   0.000 MM20+Lip20                                          
   6 lines in following misc. output table
  FWHM = 0.061 ppm    S/N =   3                                            
  Data shift = 0.008 ppm                                                   
  Ph:  88 deg      35.3 deg/ppm                                            
  alphaB,S = 8.5E+01,   4.3E+01                                            
   14 spline knots.   Ns =11(1)                                            
   2 inflections.     2 extrema                                            
  498 points on ppm-axis = NY
      4.000000     3.992357     3.984714     3.977070     3.969427     3.961784     3.954141     3.946497     3.938854     3.931211
      3.923568     3.915925     3.908281     3.900638     3.892995     3.885352     3.877708     3.870065     3.862422     3.854779
      3.847136     3.839492     3.831849     3.824206     3.816563     3.808919     3.801276     3.793633     3.785990     3.778347
      3.770703     3.763060     3.755417     3.747774     3.740130     3.732487     3.724844     3.717201     3.709558     3.701914
      3.694271     3.686628     3.678985     3.671341     3.663698     3.656055     3.648412     3.640769     3.633125     3.625482
      3.617839     3.610196     3.602552     3.594909     3.587266     3.579623     3.571980     3.564336     3.556693     3.549050
      3.541407     3.533763     3.526120     3.518477     3.510834     3.503191     3.495547     3.487904     3.480261     3.472618
      3.464974     3.457331     3.449688     3.442045     3.434402     3.426758     3.419115     3.411472     3.403829     3.396185
      3.388542     3.380899     3.373256     3.365613     3.357969     3.350326     3.342683     3.335040     3.327396     3.319753
      3.312110     3.304467     3.296824     3.289180     3.281537     3.273894     3.266251     3.258607     3.250964     3.243321
      3.235678     3.228034     3.220391     3.212748     3.205105     3.197462     3.189818     3.182175     3.174532     3.166889
      3.159245     3.151602     3.143959     3.136316     3.128673     3.121029     3.113386     3.105743     3.098100     3.090456
      3.082813     3.075170     3.067527     3.059884     3.052240     3.044597     3.036954     3.029311     3.021667     3.014024
      3.006381     2.998738     2.991095     2.983451     2.975808     2.968165     2.960522     2.952878     2.945235     2.937592
      2.929949     2.922306     2.914662     2.907019     2.899376     2.891733     2.884089     2.876446     2.868803     2.861160
      2.853517     2.845873     2.838230     2.830587     2.822944     2.815300     2.807657     2.800014     2.792371     2.784728
      2.777084     2.769441     2.761798     2.754155     2.746511     2.738868     2.731225     2.723582     2.715939     2.708295
      2.700652     2.693009     2.685366     2.677722     2.670079     2.662436     2.654793     2.647150     2.639506     2.631863
      2.624220     2.616577     2.608933     2.601290     2.593647     2.586004     2.578361     2.570717     2.563074     2.555431
      2.547788     2.540144     2.532501     2.524858     2.517215     2.509572     2.501928     2.494285     2.486642     2.478999
      2.471355     2.463712     2.456069     2.448426     2.440783     2.433139     2.425496     2.417853     2.410210     2.402566
      2.394923     2.387280     2.379637     2.371994     2.364350     2.356707     2.349064     2.341421     2.333777     2.326134
      2.318491     2.310848     2.303205     2.295561     2.287918     2.280275     2.272632     2.264988     2.257345     2.249702
      2.242059     2.234416     2.226772     2.219129     2.211486     2.203843     2.196199     2.188556     2.180913     2.173270
      2.165627     2.157983     2.150340     2.142697     2.135054     2.127410     2.119767     2.112124     2.104481     2.096838
      2.089194     2.081551     2.073908     2.066265     2.058621     2.050978     2.043335     2.035692     2.028049     2.020405
      2.012762     2.005119     1.997476     1.989833     1.982190     1.974546     1.966903     1.959260     1.951617     1.943974
      1.936331     1.928688     1.921045     1.913402     1.905759     1.898115     1.890472     1.882829     1.875186     1.867543
      1.859900     1.852257     1.844614     1.836971     1.829327     1.821684     1.814041     1.806398     1.798755     1.791112
      1.783469     1.775826     1.768183     1.760540     1.752896     1.745253     1.737610     1.729967     1.722324     1.714681
      1.707038     1.699395     1.691752     1.684108     1.676465     1.668822     1.661179     1.653536     1.645893     1.638250
      1.630607     1.622964     1.615321     1.607677     1.600034     1.592391     1.584748     1.577105     1.569462     1.561819
      1.554176     1.546533     1.538890     1.531246     1.523603     1.515960     1.508317     1.500674     1.493031     1.485388
      1.477745     1.470102     1.462458     1.454815     1.447172     1.439529     1.431886     1.424243     1.416600     1.408957
      1.401314     1.393671     1.386027     1.378384     1.370741     1.363098     1.355455     1.347812     1.340169     1.332526
      1.324883     1.317240     1.309596     1.301953     1.294310     1.286667     1.279024     1.271381     1.263738     1.256095
      1.248452     1.240808     1.233165     1.225522     1.217879     1.210236     1.202593     1.194950     1.187307     1.179664
      1.172021     1.164377     1.156734     1.149091     1.141448     1.133805     1.126162     1.118519     1.110876     1.103233
      1.095590     1.087946     1.080303     1.072660     1.065017     1.057374     1.049731     1.042088     1.034445     1.026802
      1.019158     1.011515     1.003872     0.996229     0.988586     0.980943     0.973300     0.965657     0.958014     0.950371
      0.942727     0.935084     0.927441     0.919798     0.912155     0.904512     0.896869     0.889226     0.881583     0.873940
      0.866296     0.858653     0.851010     0.843367     0.835724     0.828081     0.820438     0.812795     0.805152     0.797508
      0.789865     0.782222     0.774579     0.766936     0.759293     0.751650     0.744007     0.736364     0.728721     0.721077
      0.713434     0.705791     0.698148     0.690505     0.682862     0.675219     0.667576     0.659933     0.652290     0.644646
      0.637003     0.629360     0.621717     0.614074     0.606431     0.598788     0.591145     0.583502     0.575858     0.568215
      0.560572     0.552929     0.545286     0.537643     0.530000     0.522357     0.514714     0.507071     0.499427     0.491784
      0.484141     0.476498     0.468855     0.461212     0.453569     0.445925     0.438282     0.430639     0.422996     0.415353
      0.407710     0.400067     0.392424     0.384780     0.377137     0.369494     0.361851     0.354208     0.346565     0.338922
      0.331278     0.323635     0.315992     0.308349     0.300706     0.293063     0.285420     0.277777     0.270133     0.262490
      0.254847     0.247204     0.239561     0.231918     0.224275     0.216631     0.208988     0.201345
 NY phased data points follow
   1.28512E+00  1.61083E-01 -5.46417E-01  2.16510E-01 -4.77002E-01 -3.34371E-01  9.11382E-01 -9.59758E-02 -2.34388E+00  2.01238E+00
  -1.05727E+00  1.41806E-01 -2.44121E+00  3.15703E-01 -1.57505E+00  8.21867E-01 -6.98084E-01 -4.73574E-01  1.07100E+00 -6.96636E-01
  -1.74961E+00 -3.01362E-01  5.81932E-01 -7.18826E-01 -6.29090E-01 -1.52356E+00 -1.50340E+00 -4.69725E-01 -2.09059E+00 -3.50884E-01
   7.85976E-01 -1.05954E+00 -2.32481E+00 -4.90873E-01  4.98940E-01  9.96566E-02 -1.54831E-01 -1.27703E+00  3.78566E-01 -2.26919E+00
  -1.14379E+00 -7.67829E-03 -1.15269E+00 -5.93152E-01 -1.86813E+00 -6.17971E-01 -8.33397E-01  6.07931E-01 -3.08003E+00  4.54432E-01
  -2.09183E+00  5.11085E-01 -1.03307E+00 -9.60901E-01 -3.79352E-01 -9.81636E-01 -3.22565E-01 -6.59687E-01 -1.04445E+00  3.04315E-01
  -7.02630E-01  7.97092E-01  8.78801E-01 -6.32348E-01 -1.55826E+00  1.57360E-01 -2.18562E-01 -6.53424E-01 -1.27093E+00 -1.34578E+00
  -2.27263E+00  1.38884E+00 -9.06677E-01 -1.83933E+00 -9.56920E-01 -5.74455E-01 -6.65196E-01  2.45981E-01  7.93065E-01  3.37660E-01
  -3.89668E-01 -1.10192E-01 -3.83238E-02 -1.23189E+00 -3.28624E-01  2.99137E+00 -1.31286E+00  5.80947E-01 -1.00851E+00  3.63394E-01
  -1.18329E+00 -2.20739E+00  9.09959E-01 -7.52923E-01  2.64654E-01 -3.56800E-01  3.41355E-01 -1.80523E-01  7.99674E-01 -9.48939E-01
  -1.54161E+00 -1.37051E+00  1.22321E+00 -1.86114E+00 -4.79588E-01  1.01161E+00  4.54423E-01 -7.44197E-01  1.93521E+00 -1.04267E+00
  -4.48139E-01 -6.61551E-01 -3.79123E-01 -1.78477E-01 -7.48552E-01 -6.81471E-01 -6.60316E-01  1.14820E+00  5.87947E-01 -9.82991E-01
  -4.09977E-01  8.54231E-01 -2.88757E-01  1.23697E+00  3.19270E-01 -8.43107E-01  3.02775E-02 -7.69563E-01 -1.55288E-01 -1.05647E-01
   9.41499E-01  8.33391E-02 -2.60206E+00 -1.36514E+00  5.60914E-01 -5.76402E-01  4.59907E-01 -5.71204E-02  2.73038E+00 -2.34955E-01
  -1.25894E+00  6.38361E-01  9.72765E-01 -1.36570E+00  9.84552E-01 -2.53824E-01 -3.31000E-01  7.38495E-01 -1.51286E+00 -8.42886E-01
   7.80906E-02 -3.91316E-01 -1.48928E+00 -1.81597E+00 -7.44192E-02  9.63862E-01 -3.47593E-01  1.42024E+00  3.81536E-01  1.14112E+00
  -1.77626E+00  2.03774E+00  7.70751E-01  7.35967E-01  1.58023E+00 -1.78811E-01 -1.34598E+00 -3.37262E-01  1.21620E+00  8.94957E-02
  -1.62701E-01  1.16772E+00 -2.10115E+00  9.34879E-01  9.56963E-01 -6.35218E-01  9.01636E-03  9.56304E-01 -1.11945E+00 -8.38258E-01
  -3.83424E-01 -1.09631E+00  2.85735E+00 -1.76946E-01  7.84068E-01  1.82727E-01  1.01515E+00  3.67633E+00 -1.54055E-01  1.64459E+00
  -1.52448E+00  9.84275E-01  4.71402E-01 -7.89730E-02 -3.38270E-02  2.60114E-01  1.02561E-01  1.82726E+00  2.21484E+00  1.02043E+00
   9.80775E-01  2.45993E-01 -6.02244E-01 -7.09304E-01 -4.36713E-01 -3.96054E-01  1.36735E+00  5.60589E-01  3.38104E-01 -1.56392E+00
   1.95467E+00  1.02752E-01  1.36024E+00  5.02907E-02  5.59193E-01  7.24131E-01  1.18380E+00 -1.40479E+00  2.59219E+00  3.33109E-01
   9.69417E-01 -9.67791E-01  7.40720E-01  2.74445E+00 -6.80335E-01 -5.12301E-01 -4.46671E-01  9.70748E-01  1.88781E+00  3.02279E+00
  -7.99468E-01  4.83632E-01 -7.45971E-01 -1.49104E+00  2.21425E+00  2.79957E+00 -1.14602E+00  1.36310E+00  2.50089E+00  1.46200E+00
   6.30533E-01  4.18952E+00  1.61819E+00  2.67958E+00  1.56609E+00  2.60219E+00  2.13796E+00  1.33511E+00  2.45693E+00  2.51156E+00
   1.51260E+00  2.21077E+00  2.49999E+00  3.45342E+00  3.85305E+00  6.76720E+00  3.78274E+00  5.37896E+00  4.67619E+00  7.32252E+00
   4.59943E+00  5.67486E+00  4.53791E+00  2.39928E+00  1.20428E+00  5.10526E-01  6.25080E-01  3.86596E+00  1.58849E+00  2.43191E+00
   2.09405E+00  5.45085E-01  4.92852E-02  1.47899E+00 -5.17486E-01  4.41396E-01  1.18866E-01  6.72279E-02  1.83166E+00 -4.17903E-01
  -3.96496E-01  1.86018E+00 -6.04294E-01 -6.07945E-01  1.65313E+00  1.61215E+00 -1.06800E+00  2.41344E+00  2.70461E-02  2.61412E-01
   9.68698E-01  1.41868E+00  9.66805E-02  2.16661E+00  5.40212E-01 -3.08831E-01 -1.52193E+00  1.83849E+00  1.27803E+00  3.38255E+00
   2.44731E+00  5.48853E-01  1.82297E+00  2.04529E+00  3.46975E+00  1.83408E+00  3.05737E+00  1.91841E+00  2.71297E+00  9.44456E-01
   2.32360E+00  1.30916E+00  1.80794E+00  3.09912E-01 -5.97640E-02  3.99729E-01  1.65697E+00 -2.26129E-01  2.66251E-01 -1.27408E+00
   2.54256E+00 -4.00515E-02  1.27182E+00  2.19325E+00 -6.71936E-01  1.32071E+00  2.07768E+00  3.13427E+00  4.68219E-01  6.07191E-01
   2.12855E+00  1.51370E+00  3.30449E+00  3.62723E+00  2.03046E+00  6.91045E-01  1.57825E+00  1.96293E+00  2.48181E+00  3.96526E+00
   2.30530E+00  3.15285E+00  2.95667E+00  1.53653E+00  4.37850E+00  9.96081E-01  3.12299E+00  2.99794E+00  2.33944E+00  3.14858E+00
  -2.54190E-01  9.77951E-01  3.53047E+00  1.73788E+00  3.41827E+00  1.38409E+00  1.11556E+00  5.66067E+00  4.76838E+00  5.37089E+00
   2.67258E+00  4.03646E+00  5.24605E+00  4.52787E+00  2.99418E+00  4.81880E+00  5.11904E+00  3.37829E+00  3.08067E+00  5.09906E+00
   6.23760E+00  4.82666E+00  5.94024E+00  6.88676E+00  8.09131E+00  5.33704E+00  7.52184E+00  4.24762E+00  5.56571E+00  6.70981E+00
   5.16243E+00  5.62499E+00  6.50070E+00  4.51701E+00  9.33483E+00  6.42128E+00  4.32353E+00  6.54614E+00  4.88055E+00  4.97922E+00
   7.07116E+00  7.67448E+00  3.77389E+00  5.83273E+00  6.73172E+00  6.63048E+00  7.09411E+00  5.85120E+00  5.85780E+00  3.93161E+00
   3.75288E+00  2.95428E+00  4.82932E+00  3.34531E+00  3.35609E+00  5.09301E+00  2.49907E+00  3.09834E+00  1.39567E+00  2.54640E+00
   1.17313E-02  2.68869E+00  1.87688E+00  1.22235E+00  1.74033E+00  2.71640E+00 -1.92963E-02  2.21588E+00 -2.05383E-01  1.30499E+00
  -7.39508E-01  1.04641E+00  1.25363E+00  2.81493E+00  3.76577E-01  8.17466E-01  2.42057E+00 -2.11712E-02  9.78682E-01  1.14466E+00
   8.96636E-01  1.16132E-01 -5.14617E-01 -1.47386E+00  2.22902E+00  2.01724E+00  2.24940E-01  1.19982E+00  7.80050E-01 -1.17914E+00
  -1.84196E+00  5.60985E-01  8.43291E-01  1.09388E+00  5.32738E-01 -9.97568E-01 -1.01088E+00  8.41702E-01 -1.14809E+00 -5.43739E-02
  -1.18776E+00  2.70203E-01 -1.96580E+00 -7.42666E-01 -1.74721E+00 -6.27836E-01  5.35905E-01  1.25004E+00 -2.24492E+00 -7.72838E-01
  -1.89298E+00  5.31141E-02 -1.90687E+00 -1.76045E+00 -1.54398E+00 -2.16265E+00 -2.01813E+00 -3.15098E+00 -1.14145E+00 -2.47474E+00
  -1.51817E+00 -3.76458E+00 -1.72723E+00 -3.28097E+00 -2.45778E+00 -3.24993E-01 -8.13266E-01 -7.14539E-01 -2.89442E+00 -2.59384E+00
  -3.21558E+00 -1.85283E+00 -2.97563E+00 -3.52689E+00 -3.17054E+00 -2.78238E+00 -2.02371E+00 -2.15904E+00 -1.40033E+00 -1.44870E+00
  -2.38944E-01 -2.54936E+00 -2.74509E+00 -1.90344E+00 -2.56556E+00 -1.46978E+00 -2.90700E+00 -4.15175E+00
 NY points of the fit to the data follow
  -1.08871E-01 -1.29207E-01 -1.30330E-01 -1.23654E-01 -1.14676E-01 -1.07623E-01 -1.06686E-01 -1.13642E-01 -1.25963E-01 -1.38491E-01
  -1.48428E-01 -1.55520E-01 -1.58845E-01 -1.57933E-01 -1.53473E-01 -1.46840E-01 -1.40119E-01 -1.35807E-01 -1.35638E-01 -1.38957E-01
  -1.42930E-01 -1.45269E-01 -1.45848E-01 -1.45214E-01 -1.43731E-01 -1.41664E-01 -1.39639E-01 -1.38719E-01 -1.39700E-01 -1.42517E-01
  -1.46392E-01 -1.50461E-01 -1.54372E-01 -1.58290E-01 -1.62239E-01 -1.66005E-01 -1.69383E-01 -1.72363E-01 -1.75150E-01 -1.77929E-01
  -1.80809E-01 -1.83897E-01 -1.87224E-01 -1.90690E-01 -1.94095E-01 -1.97206E-01 -1.99800E-01 -2.01770E-01 -2.03242E-01 -2.04471E-01
  -2.05614E-01 -2.06667E-01 -2.07681E-01 -2.08774E-01 -2.10118E-01 -2.11925E-01 -2.14269E-01 -2.16865E-01 -2.19461E-01 -2.21749E-01
  -2.23537E-01 -2.24847E-01 -2.25759E-01 -2.26369E-01 -2.27136E-01 -2.28529E-01 -2.30395E-01 -2.32383E-01 -2.34218E-01 -2.35581E-01
  -2.36087E-01 -2.35691E-01 -2.34693E-01 -2.33487E-01 -2.32620E-01 -2.33280E-01 -2.35461E-01 -2.37850E-01 -2.39960E-01 -2.41933E-01
  -2.43366E-01 -2.43193E-01 -2.40092E-01 -2.33495E-01 -2.24039E-01 -2.13161E-01 -2.02759E-01 -1.94840E-01 -1.91210E-01 -1.92907E-01
  -1.99912E-01 -2.10991E-01 -2.24091E-01 -2.36607E-01 -2.45680E-01 -2.48957E-01 -2.46155E-01 -2.39699E-01 -2.32253E-01 -2.24170E-01
  -2.14809E-01 -2.04448E-01 -1.93916E-01 -1.83917E-01 -1.74636E-01 -1.65508E-01 -1.55326E-01 -1.42898E-01 -1.27656E-01 -1.09879E-01
  -9.05712E-02 -7.04914E-02 -4.96772E-02 -2.82202E-02 -6.25844E-03  1.62042E-02  3.90579E-02  6.21448E-02  8.53490E-02  1.08307E-01
   1.30683E-01  1.52542E-01  1.74060E-01  1.95267E-01  2.15892E-01  2.35400E-01  2.53406E-01  2.69463E-01  2.82711E-01  2.92249E-01
   2.97548E-01  2.98614E-01  2.95492E-01  2.88051E-01  2.76595E-01  2.61918E-01  2.44926E-01  2.26380E-01  2.06667E-01  1.86096E-01
   1.65145E-01  1.44054E-01  1.22700E-01  1.02005E-01  8.27592E-02  6.33517E-02  4.21852E-02  1.82193E-02 -9.73461E-03 -4.06773E-02
  -7.36672E-02 -1.08201E-01 -1.42069E-01 -1.71462E-01 -1.93786E-01 -2.10122E-01 -2.23745E-01 -2.36095E-01 -2.46344E-01 -2.52942E-01
  -2.58210E-01 -2.68864E-01 -2.90155E-01 -3.23915E-01 -3.67792E-01 -4.14944E-01 -4.56876E-01 -4.85996E-01 -4.99323E-01 -5.00587E-01
  -4.98353E-01 -4.97618E-01 -4.96013E-01 -4.93025E-01 -4.90167E-01 -4.88983E-01 -4.92086E-01 -5.03540E-01 -5.24589E-01 -5.50189E-01
  -5.69701E-01 -5.72622E-01 -5.54869E-01 -5.22128E-01 -4.83901E-01 -4.43642E-01 -3.99077E-01 -3.48094E-01 -2.95476E-01 -2.52454E-01
  -2.27758E-01 -2.24906E-01 -2.40519E-01 -2.64301E-01 -2.85369E-01 -3.00067E-01 -3.09884E-01 -3.14045E-01 -3.10085E-01 -2.97793E-01
  -2.77017E-01 -2.47939E-01 -2.16013E-01 -1.91750E-01 -1.82892E-01 -1.89077E-01 -2.05038E-01 -2.23698E-01 -2.36797E-01 -2.37953E-01
  -2.25939E-01 -2.03051E-01 -1.70853E-01 -1.29237E-01 -7.91865E-02 -2.28959E-02  3.56836E-02  9.22263E-02  1.43372E-01  1.89899E-01
   2.38297E-01  2.92720E-01  3.51581E-01  4.12105E-01  4.70928E-01  5.26241E-01  5.79307E-01  6.32462E-01  6.86234E-01  7.41742E-01
   8.02902E-01  8.75499E-01  9.59649E-01  1.04995E+00  1.14337E+00  1.24011E+00  1.33986E+00  1.43995E+00  1.53663E+00  1.62808E+00
   1.71622E+00  1.80307E+00  1.89072E+00  1.98056E+00  2.05823E+00  2.07377E+00  2.04275E+00  2.03034E+00  2.07450E+00  2.18878E+00
   2.40013E+00  2.74746E+00  3.24094E+00  3.83040E+00  4.42527E+00  4.94042E+00  5.33007E+00  5.58456E+00  5.66601E+00  5.50910E+00
   5.09251E+00  4.45339E+00  3.66049E+00  2.82983E+00  2.12140E+00  1.66753E+00  1.47313E+00  1.40370E+00  1.32682E+00  1.22995E+00
   1.13678E+00  1.05133E+00  9.70559E-01  8.91305E-01  8.13021E-01  7.36384E-01  6.62335E-01  5.91143E-01  5.23239E-01  4.62206E-01
   4.13877E-01  3.82033E-01  3.68115E-01  3.71980E-01  3.92019E-01  4.24694E-01  4.65011E-01  5.10683E-01  5.64257E-01  6.28678E-01
   7.04229E-01  7.90605E-01  8.87857E-01  9.95409E-01  1.11014E+00  1.22681E+00  1.34067E+00  1.44799E+00  1.54485E+00  1.62807E+00
   1.69594E+00  1.74880E+00  1.78785E+00  1.81284E+00  1.82230E+00  1.81567E+00  1.79306E+00  1.75476E+00  1.70171E+00  1.63622E+00
   1.56209E+00  1.48357E+00  1.40418E+00  1.32711E+00  1.25534E+00  1.19146E+00  1.13768E+00  1.09572E+00  1.06683E+00  1.05176E+00
   1.05078E+00  1.06369E+00  1.08988E+00  1.12831E+00  1.17767E+00  1.23641E+00  1.30284E+00  1.37518E+00  1.45157E+00  1.53022E+00
   1.60935E+00  1.68733E+00  1.76256E+00  1.83345E+00  1.89786E+00  1.95131E+00  1.98807E+00  2.02840E+00  2.09799E+00  2.20034E+00
   2.33050E+00  2.48952E+00  2.67712E+00  2.87169E+00  3.01639E+00  3.07329E+00  3.04512E+00  2.95191E+00  2.81305E+00  2.64301E+00
   2.46692E+00  2.33055E+00  2.27621E+00  2.32509E+00  2.49030E+00  2.78217E+00  3.19069E+00  3.65375E+00  4.07436E+00  4.39107E+00
   4.60056E+00  4.70713E+00  4.72018E+00  4.67929E+00  4.64444E+00  4.65602E+00  4.70394E+00  4.75343E+00  4.79303E+00  4.82513E+00
   4.85205E+00  4.87612E+00  4.90001E+00  4.92660E+00  4.95881E+00  4.99939E+00  5.05073E+00  5.11467E+00  5.19233E+00  5.28401E+00
   5.38903E+00  5.50576E+00  5.63160E+00  5.76311E+00  5.89607E+00  6.02570E+00  6.14683E+00  6.25418E+00  6.34259E+00  6.40726E+00
   6.44402E+00  6.44949E+00  6.42122E+00  6.35785E+00  6.25912E+00  6.12585E+00  5.95990E+00  5.76398E+00  5.54158E+00  5.29669E+00
   5.03368E+00  4.75705E+00  4.47127E+00  4.18058E+00  3.88889E+00  3.59969E+00  3.31594E+00  3.04010E+00  2.77409E+00  2.51931E+00
   2.27675E+00  2.04696E+00  1.83022E+00  1.62649E+00  1.43555E+00  1.25702E+00  1.09043E+00  9.35241E-01  7.90887E-01  6.56774E-01
   5.32308E-01  4.16904E-01  3.09998E-01  2.11045E-01  1.19512E-01  3.48837E-02 -4.33352E-02 -1.15618E-01 -1.82412E-01 -2.44147E-01
  -3.01231E-01 -3.54055E-01 -4.02980E-01 -4.48343E-01 -4.90454E-01 -5.29601E-01 -5.66052E-01 -6.00052E-01 -6.31824E-01 -6.61565E-01
  -6.89454E-01 -7.15657E-01 -7.40323E-01 -7.63588E-01 -7.85569E-01 -8.06373E-01 -8.26094E-01 -8.44822E-01 -8.62638E-01 -8.79613E-01
  -8.95809E-01 -9.11282E-01 -9.26085E-01 -9.40268E-01 -9.53876E-01 -9.66948E-01 -9.79517E-01 -9.91616E-01 -1.00328E+00 -1.01453E+00
  -1.02540E+00 -1.03590E+00 -1.04607E+00 -1.05592E+00 -1.06546E+00 -1.07473E+00 -1.08372E+00 -1.09247E+00 -1.10097E+00 -1.10924E+00
  -1.11731E+00 -1.12517E+00 -1.13283E+00 -1.14032E+00 -1.14763E+00 -1.15477E+00 -1.16175E+00 -1.16859E+00 -1.17528E+00 -1.18184E+00
  -1.18826E+00 -1.19456E+00 -1.20075E+00 -1.20682E+00 -1.21278E+00 -1.21863E+00 -1.22439E+00 -1.23005E+00 -1.23562E+00 -1.24111E+00
  -1.24650E+00 -1.25182E+00 -1.25706E+00 -1.26222E+00 -1.26732E+00 -1.27234E+00 -1.27730E+00 -1.28219E+00
 NY background values follow
    -1.101E-01   -1.128E-01   -1.154E-01   -1.180E-01   -1.206E-01   -1.232E-01   -1.258E-01   -1.285E-01   -1.311E-01   -1.337E-01
    -1.363E-01   -1.389E-01   -1.416E-01   -1.442E-01   -1.468E-01   -1.494E-01   -1.520E-01   -1.546E-01   -1.573E-01   -1.599E-01
    -1.625E-01   -1.651E-01   -1.677E-01   -1.704E-01   -1.730E-01   -1.756E-01   -1.782E-01   -1.808E-01   -1.834E-01   -1.861E-01
    -1.887E-01   -1.913E-01   -1.939E-01   -1.965E-01   -1.992E-01   -2.018E-01   -2.044E-01   -2.070E-01   -2.096E-01   -2.122E-01
    -2.149E-01   -2.175E-01   -2.201E-01   -2.227E-01   -2.253E-01   -2.280E-01   -2.306E-01   -2.332E-01   -2.358E-01   -2.384E-01
    -2.410E-01   -2.437E-01   -2.463E-01   -2.489E-01   -2.515E-01   -2.541E-01   -2.568E-01   -2.594E-01   -2.620E-01   -2.646E-01
    -2.672E-01   -2.698E-01   -2.725E-01   -2.751E-01   -2.777E-01   -2.803E-01   -2.829E-01   -2.856E-01   -2.882E-01   -2.908E-01
    -2.934E-01   -2.960E-01   -2.987E-01   -3.013E-01   -3.039E-01   -3.065E-01   -3.091E-01   -3.117E-01   -3.144E-01   -3.170E-01
    -3.196E-01   -3.222E-01   -3.248E-01   -3.275E-01   -3.301E-01   -3.327E-01   -3.353E-01   -3.379E-01   -3.405E-01   -3.432E-01
    -3.458E-01   -3.484E-01   -3.510E-01   -3.536E-01   -3.563E-01   -3.589E-01   -3.615E-01   -3.641E-01   -3.667E-01   -3.693E-01
    -3.720E-01   -3.746E-01   -3.772E-01   -3.798E-01   -3.824E-01   -3.851E-01   -3.877E-01   -3.903E-01   -3.929E-01   -3.955E-01
    -3.981E-01   -4.008E-01   -4.034E-01   -4.060E-01   -4.086E-01   -4.112E-01   -4.139E-01   -4.165E-01   -4.191E-01   -4.217E-01
    -4.243E-01   -4.269E-01   -4.296E-01   -4.322E-01   -4.348E-01   -4.374E-01   -4.400E-01   -4.427E-01   -4.453E-01   -4.479E-01
    -4.505E-01   -4.531E-01   -4.558E-01   -4.584E-01   -4.610E-01   -4.636E-01   -4.662E-01   -4.688E-01   -4.715E-01   -4.741E-01
    -4.767E-01   -4.793E-01   -4.819E-01   -4.846E-01   -4.872E-01   -4.898E-01   -4.924E-01   -4.950E-01   -4.976E-01   -5.003E-01
    -5.029E-01   -5.055E-01   -5.081E-01   -5.107E-01   -5.134E-01   -5.160E-01   -5.186E-01   -5.212E-01   -5.238E-01   -5.265E-01
    -5.291E-01   -5.317E-01   -5.343E-01   -5.369E-01   -5.395E-01   -5.422E-01   -5.448E-01   -5.474E-01   -5.500E-01   -5.526E-01
    -5.553E-01   -5.579E-01   -5.605E-01   -5.631E-01   -5.657E-01   -5.684E-01   -5.710E-01   -5.736E-01   -5.762E-01   -5.788E-01
    -5.815E-01   -5.841E-01   -5.867E-01   -5.893E-01   -5.919E-01   -5.945E-01   -5.972E-01   -5.998E-01   -6.024E-01   -6.050E-01
    -6.076E-01   -6.103E-01   -6.129E-01   -6.155E-01   -6.181E-01   -6.207E-01   -6.234E-01   -6.260E-01   -6.286E-01   -6.312E-01
    -6.338E-01   -6.365E-01   -6.391E-01   -6.417E-01   -6.443E-01   -6.469E-01   -6.495E-01   -6.522E-01   -6.548E-01   -6.574E-01
    -6.600E-01   -6.626E-01   -6.653E-01   -6.679E-01   -6.705E-01   -6.731E-01   -6.757E-01   -6.784E-01   -6.810E-01   -6.836E-01
    -6.862E-01   -6.888E-01   -6.915E-01   -6.941E-01   -6.967E-01   -6.993E-01   -7.019E-01   -7.046E-01   -7.072E-01   -7.098E-01
    -7.124E-01   -7.150E-01   -7.177E-01   -7.203E-01   -7.229E-01   -7.255E-01   -7.281E-01   -7.308E-01   -7.334E-01   -7.360E-01
    -7.386E-01   -7.412E-01   -7.439E-01   -7.465E-01   -7.491E-01   -7.517E-01   -7.543E-01   -7.570E-01   -7.596E-01   -7.622E-01
    -7.648E-01   -7.674E-01   -7.701E-01   -7.727E-01   -7.753E-01   -7.779E-01   -7.805E-01   -7.832E-01   -7.858E-01   -7.884E-01
    -7.910E-01   -7.936E-01   -7.963E-01   -7.989E-01   -8.015E-01   -8.041E-01   -8.067E-01   -8.094E-01   -8.120E-01   -8.146E-01
    -8.172E-01   -8.198E-01   -8.225E-01   -8.251E-01   -8.277E-01   -8.303E-01   -8.329E-01   -8.356E-01   -8.382E-01   -8.408E-01
    -8.434E-01   -8.460E-01   -8.487E-01   -8.513E-01   -8.539E-01   -8.565E-01   -8.591E-01   -8.618E-01   -8.644E-01   -8.670E-01
    -8.696E-01   -8.722E-01   -8.749E-01   -8.775E-01   -8.801E-01   -8.827E-01   -8.853E-01   -8.880E-01   -8.906E-01   -8.932E-01
    -8.958E-01   -8.984E-01   -9.011E-01   -9.037E-01   -9.063E-01   -9.089E-01   -9.115E-01   -9.142E-01   -9.168E-01   -9.194E-01
    -9.220E-01   -9.246E-01   -9.273E-01   -9.299E-01   -9.325E-01   -9.351E-01   -9.377E-01   -9.404E-01   -9.430E-01   -9.456E-01
    -9.482E-01   -9.508E-01   -9.535E-01   -9.561E-01   -9.587E-01   -9.613E-01   -9.640E-01   -9.666E-01   -9.692E-01   -9.718E-01
    -9.744E-01   -9.771E-01   -9.797E-01   -9.823E-01   -9.849E-01   -9.875E-01   -9.902E-01   -9.928E-01   -9.954E-01   -9.980E-01
    -1.001E+00   -1.003E+00   -1.006E+00   -1.009E+00   -1.011E+00   -1.014E+00   -1.016E+00   -1.019E+00   -1.022E+00   -1.024E+00
    -1.027E+00   -1.029E+00   -1.032E+00   -1.035E+00   -1.037E+00   -1.040E+00   -1.043E+00   -1.045E+00   -1.048E+00   -1.050E+00
    -1.053E+00   -1.056E+00   -1.058E+00   -1.061E+00   -1.064E+00   -1.066E+00   -1.069E+00   -1.071E+00   -1.074E+00   -1.077E+00
    -1.079E+00   -1.082E+00   -1.085E+00   -1.087E+00   -1.090E+00   -1.092E+00   -1.095E+00   -1.098E+00   -1.100E+00   -1.103E+00
    -1.105E+00   -1.108E+00   -1.111E+00   -1.113E+00   -1.116E+00   -1.119E+00   -1.121E+00   -1.124E+00   -1.126E+00   -1.129E+00
    -1.132E+00   -1.134E+00   -1.137E+00   -1.140E+00   -1.142E+00   -1.145E+00   -1.147E+00   -1.150E+00   -1.153E+00   -1.155E+00
    -1.158E+00   -1.161E+00   -1.163E+00   -1.166E+00   -1.168E+00   -1.171E+00   -1.174E+00   -1.176E+00   -1.179E+00   -1.181E+00
    -1.184E+00   -1.187E+00   -1.189E+00   -1.192E+00   -1.195E+00   -1.197E+00   -1.200E+00   -1.202E+00   -1.205E+00   -1.208E+00
    -1.210E+00   -1.213E+00   -1.216E+00   -1.218E+00   -1.221E+00   -1.223E+00   -1.226E+00   -1.229E+00   -1.231E+00   -1.234E+00
    -1.237E+00   -1.239E+00   -1.242E+00   -1.244E+00   -1.247E+00   -1.250E+00   -1.252E+00   -1.255E+00   -1.258E+00   -1.260E+00
    -1.263E+00   -1.265E+00   -1.268E+00   -1.271E+00   -1.273E+00   -1.276E+00   -1.278E+00   -1.281E+00   -1.284E+00   -1.286E+00
    -1.289E+00   -1.292E+00   -1.294E+00   -1.297E+00   -1.299E+00   -1.302E+00   -1.305E+00   -1.307E+00   -1.310E+00   -1.313E+00
    -1.315E+00   -1.318E+00   -1.320E+00   -1.323E+00   -1.326E+00   -1.328E+00   -1.331E+00   -1.334E+00   -1.336E+00   -1.339E+00
    -1.341E+00   -1.344E+00   -1.347E+00   -1.349E+00   -1.352E+00   -1.354E+00   -1.357E+00   -1.360E+00   -1.362E+00   -1.365E+00
    -1.368E+00   -1.370E+00   -1.373E+00   -1.375E+00   -1.378E+00   -1.381E+00   -1.383E+00   -1.386E+00   -1.389E+00   -1.391E+00
    -1.394E+00   -1.396E+00   -1.399E+00   -1.402E+00   -1.404E+00   -1.407E+00   -1.410E+00   -1.412E+00
 Asp      Conc. = 3.90E+00
