 LCModel (Version 6.3-1L) Copyright: S.W. Provencher.          Ref.: Magn. Reson. Med. 30:672-679 (1993).                
 Slice#1 Row#8 Col#6  PD_05_press_1_raw_act
 36 lines in following concentration table = NCONC+1
    Conc.  %SD /Cr+PCr  Metabolite                                         
    0.000 999%   0.000 Ala                                                 
    0.000 999%   0.000 Asp                                                 
  198.901  61%   0.358 Cr                                                  
  355.979  36%   0.642 PCr                                                 
   50.693 152% 9.1E-02 GABA                                                
   83.355  96%   0.150 Glc                                                 
  491.324  25%   0.885 Gln                                                 
  880.555  16%   1.587 Glu                                                 
  316.552   5%   0.570 GPC                                                 
    0.000 999%   0.000 PCh                                                 
  207.347  21%   0.374 GSH                                                 
  823.674  18%   1.484 Ins                                                 
    0.000 999%   0.000 Lac                                                 
 1.13E+03   5%   2.043 NAA                                                 
   74.780  79%   0.135 NAAG                                                
   72.417  23%   0.131 Scyllo                                              
  376.731  30%   0.679 Tau                                                 
  244.820  29%   0.441 -CrCH2                                              
  316.552   5%   0.570 GPC+PCh                                             
 1.21E+03   4%   2.177 NAA+NAAG                                            
  554.880   7%   1.000 Cr+PCr                                              
 1.37E+03  14%   2.472 Glu+Gln                                             
    0.000 999%   0.000 Lip13a                                              
  362.310  21%   0.653 Lip13b                                              
   97.185  56%   0.175 Lip09                                               
  720.615  19%   1.299 MM09                                                
   57.840  65%   0.104 Lip20                                               
 1.34E+03  19%   2.424 MM20                                                
  157.610  60%   0.284 MM12                                                
  216.236  88%   0.390 MM14                                                
  210.602  71%   0.380 MM17                                                
  362.310  21%   0.653 Lip13a+Lip13b                                       
  736.156  32%   1.327 MM14+Lip13a+Lip13b+MM12                             
  817.800  16%   1.474 MM09+Lip09                                          
 1.40E+03  18%   2.528 MM20+Lip20                                          
   6 lines in following misc. output table
  FWHM = 0.038 ppm    S/N =  10                                            
  Data shift = 0.000 ppm                                                   
  Ph: -73 deg     -15.1 deg/ppm                                            
  alphaB,S = 9.3E-01,   5.8E+01                                            
   14 spline knots.   Ns = 5(1)                                            
  ( 6) 4 infls.   ( 3) 1 extrs.                                            
  498 points on ppm-axis = NY
      4.000000     3.992357     3.984714     3.977070     3.969427     3.961784     3.954141     3.946497     3.938854     3.931211
      3.923568     3.915925     3.908281     3.900638     3.892995     3.885352     3.877708     3.870065     3.862422     3.854779
      3.847136     3.839492     3.831849     3.824206     3.816563     3.808919     3.801276     3.793633     3.785990     3.778347
      3.770703     3.763060     3.755417     3.747774     3.740130     3.732487     3.724844     3.717201     3.709558     3.701914
      3.694271     3.686628     3.678985     3.671341     3.663698     3.656055     3.648412     3.640769     3.633125     3.625482
      3.617839     3.610196     3.602552     3.594909     3.587266     3.579623     3.571980     3.564336     3.556693     3.549050
      3.541407     3.533763     3.526120     3.518477     3.510834     3.503191     3.495547     3.487904     3.480261     3.472618
      3.464974     3.457331     3.449688     3.442045     3.434402     3.426758     3.419115     3.411472     3.403829     3.396185
      3.388542     3.380899     3.373256     3.365613     3.357969     3.350326     3.342683     3.335040     3.327396     3.319753
      3.312110     3.304467     3.296824     3.289180     3.281537     3.273894     3.266251     3.258607     3.250964     3.243321
      3.235678     3.228034     3.220391     3.212748     3.205105     3.197462     3.189818     3.182175     3.174532     3.166889
      3.159245     3.151602     3.143959     3.136316     3.128673     3.121029     3.113386     3.105743     3.098100     3.090456
      3.082813     3.075170     3.067527     3.059884     3.052240     3.044597     3.036954     3.029311     3.021667     3.014024
      3.006381     2.998738     2.991095     2.983451     2.975808     2.968165     2.960522     2.952878     2.945235     2.937592
      2.929949     2.922306     2.914662     2.907019     2.899376     2.891733     2.884089     2.876446     2.868803     2.861160
      2.853517     2.845873     2.838230     2.830587     2.822944     2.815300     2.807657     2.800014     2.792371     2.784728
      2.777084     2.769441     2.761798     2.754155     2.746511     2.738868     2.731225     2.723582     2.715939     2.708295
      2.700652     2.693009     2.685366     2.677722     2.670079     2.662436     2.654793     2.647150     2.639506     2.631863
      2.624220     2.616577     2.608933     2.601290     2.593647     2.586004     2.578361     2.570717     2.563074     2.555431
      2.547788     2.540144     2.532501     2.524858     2.517215     2.509572     2.501928     2.494285     2.486642     2.478999
      2.471355     2.463712     2.456069     2.448426     2.440783     2.433139     2.425496     2.417853     2.410210     2.402566
      2.394923     2.387280     2.379637     2.371994     2.364350     2.356707     2.349064     2.341421     2.333777     2.326134
      2.318491     2.310848     2.303205     2.295561     2.287918     2.280275     2.272632     2.264988     2.257345     2.249702
      2.242059     2.234416     2.226772     2.219129     2.211486     2.203843     2.196199     2.188556     2.180913     2.173270
      2.165627     2.157983     2.150340     2.142697     2.135054     2.127410     2.119767     2.112124     2.104481     2.096838
      2.089194     2.081551     2.073908     2.066265     2.058621     2.050978     2.043335     2.035692     2.028049     2.020405
      2.012762     2.005119     1.997476     1.989833     1.982190     1.974546     1.966903     1.959260     1.951617     1.943974
      1.936331     1.928688     1.921045     1.913402     1.905759     1.898115     1.890472     1.882829     1.875186     1.867543
      1.859900     1.852257     1.844614     1.836971     1.829327     1.821684     1.814041     1.806398     1.798755     1.791112
      1.783469     1.775826     1.768183     1.760540     1.752896     1.745253     1.737610     1.729967     1.722324     1.714681
      1.707038     1.699395     1.691752     1.684108     1.676465     1.668822     1.661179     1.653536     1.645893     1.638250
      1.630607     1.622964     1.615321     1.607677     1.600034     1.592391     1.584748     1.577105     1.569462     1.561819
      1.554176     1.546533     1.538890     1.531246     1.523603     1.515960     1.508317     1.500674     1.493031     1.485388
      1.477745     1.470102     1.462458     1.454815     1.447172     1.439529     1.431886     1.424243     1.416600     1.408957
      1.401314     1.393671     1.386027     1.378384     1.370741     1.363098     1.355455     1.347812     1.340169     1.332526
      1.324883     1.317240     1.309596     1.301953     1.294310     1.286667     1.279024     1.271381     1.263738     1.256095
      1.248452     1.240808     1.233165     1.225522     1.217879     1.210236     1.202593     1.194950     1.187307     1.179664
      1.172021     1.164377     1.156734     1.149091     1.141448     1.133805     1.126162     1.118519     1.110876     1.103233
      1.095590     1.087946     1.080303     1.072660     1.065017     1.057374     1.049731     1.042088     1.034445     1.026802
      1.019158     1.011515     1.003872     0.996229     0.988586     0.980943     0.973300     0.965657     0.958014     0.950371
      0.942727     0.935084     0.927441     0.919798     0.912155     0.904512     0.896869     0.889226     0.881583     0.873940
      0.866296     0.858653     0.851010     0.843367     0.835724     0.828081     0.820438     0.812795     0.805152     0.797508
      0.789865     0.782222     0.774579     0.766936     0.759293     0.751650     0.744007     0.736364     0.728721     0.721077
      0.713434     0.705791     0.698148     0.690505     0.682862     0.675219     0.667576     0.659933     0.652290     0.644646
      0.637003     0.629360     0.621717     0.614074     0.606431     0.598788     0.591145     0.583502     0.575858     0.568215
      0.560572     0.552929     0.545286     0.537643     0.530000     0.522357     0.514714     0.507071     0.499427     0.491784
      0.484141     0.476498     0.468855     0.461212     0.453569     0.445925     0.438282     0.430639     0.422996     0.415353
      0.407710     0.400067     0.392424     0.384780     0.377137     0.369494     0.361851     0.354208     0.346565     0.338922
      0.331278     0.323635     0.315992     0.308349     0.300706     0.293063     0.285420     0.277777     0.270133     0.262490
      0.254847     0.247204     0.239561     0.231918     0.224275     0.216631     0.208988     0.201345
 NY phased data points follow
  -3.32033E+01 -3.58211E+01 -3.28344E+01 -3.87000E+01 -3.45281E+01 -2.79136E+01 -2.95313E+01 -2.15796E+01 -2.64440E+01 -2.16414E+01
  -1.61399E+01 -2.14906E+01 -1.76674E+01 -1.89424E+01 -2.51626E+01 -2.46823E+01 -2.61492E+01 -2.96023E+01 -2.97876E+01 -2.75368E+01
  -2.42075E+01 -2.66219E+01 -2.72759E+01 -2.77595E+01 -2.79333E+01 -2.64441E+01 -2.43245E+01 -2.09228E+01 -2.00317E+01 -2.19297E+01
  -2.17772E+01 -1.52300E+01 -2.05773E+01 -1.76371E+01 -2.03127E+01 -1.97662E+01 -2.06564E+01 -2.04314E+01 -1.99319E+01 -2.27139E+01
  -1.87732E+01 -2.05077E+01 -1.91460E+01 -1.65884E+01 -1.82282E+01 -1.71755E+01 -1.40065E+01 -1.26144E+01 -1.57862E+01 -1.51299E+01
  -1.55190E+01 -1.62385E+01 -1.96380E+01 -1.86640E+01 -1.99695E+01 -2.06911E+01 -1.86187E+01 -1.50587E+01 -1.45318E+01 -1.61708E+01
  -1.54646E+01 -1.81746E+01 -1.72068E+01 -1.65635E+01 -2.25923E+01 -1.60154E+01 -1.38442E+01 -1.80158E+01 -1.77213E+01 -1.90434E+01
  -2.42495E+01 -1.36597E+01 -1.30502E+01 -1.86027E+01 -1.45056E+01 -1.30615E+01 -1.66680E+01 -1.49764E+01 -1.69709E+01 -1.32745E+01
  -1.62800E+01 -1.63310E+01 -1.86607E+01 -1.26646E+01 -1.25581E+01 -1.30601E+01 -1.30072E+01 -1.13460E+01 -1.61912E+01 -9.43813E+00
  -1.25500E+01 -1.26197E+01 -8.00488E+00 -1.14040E+01 -1.18875E+01 -1.49227E+01 -1.08264E+01 -9.71303E+00 -9.08816E+00 -2.67471E-01
   3.94532E+00  1.10618E+01  2.44089E+01  2.65842E+01  1.92854E+01  5.58497E+00 -2.13658E+00 -2.68826E+00 -2.94208E+00 -7.98595E+00
  -1.18608E+01 -1.02548E+01 -1.05571E+01 -1.12231E+01 -1.14542E+01 -1.17316E+01 -1.34090E+01 -1.21768E+01 -1.05697E+01 -1.59034E+01
  -9.75078E+00 -1.58977E+01 -7.83847E+00 -8.57786E+00 -6.02165E+00  3.81158E+00  1.09758E+01  1.11923E+01  1.25483E+01  8.06541E+00
   2.19105E-02 -5.43409E+00 -4.06798E+00 -4.55400E+00 -8.93921E+00 -1.16826E+01 -1.49204E+01 -1.01223E+01 -1.29873E+01 -1.05168E+01
  -1.03005E+01 -1.34949E+01 -9.46645E+00 -1.19463E+01 -9.05724E+00 -1.32056E+01 -9.36110E+00 -9.70982E+00 -1.11726E+01 -1.16008E+01
  -7.74590E+00 -9.22129E+00 -1.25453E+01 -9.46658E+00 -4.86762E+00 -1.12392E+01 -1.13138E+01 -7.77653E+00 -4.32629E+00 -7.82926E+00
  -7.24493E+00 -1.04793E+01 -1.30914E+01 -6.57091E+00 -1.05239E+01 -7.51098E+00 -7.93829E+00 -9.03703E+00 -1.33317E+01 -8.93733E+00
  -1.14557E+01 -1.10305E+01 -9.11265E+00 -1.12717E+01 -1.41929E+01 -1.58551E+01 -1.38235E+01 -1.43582E+01 -1.60589E+01 -1.01092E+01
  -1.16399E+01 -8.78993E+00 -1.42607E+01 -1.89411E+01 -8.46043E+00 -1.04262E+01 -6.52639E+00 -9.02544E+00 -1.02876E+01 -7.83068E+00
  -1.42074E+00 -4.35941E+00 -5.41492E+00 -6.89595E+00 -3.11712E+00 -5.91080E+00 -9.78223E+00 -8.51669E+00 -8.45166E+00 -4.08210E+00
  -6.64723E+00 -5.08098E+00 -8.06185E+00 -9.78034E-01  5.44730E-01 -3.83994E+00 -4.96838E+00 -5.48923E+00 -4.42179E+00 -1.18956E+01
  -8.81721E+00 -1.25048E+01 -1.07092E+01 -6.52243E+00 -3.66046E+00  1.41075E+00  6.59769E+00  4.74057E+00  3.03683E+00  2.58640E+00
  -6.76536E+00 -5.55880E+00 -4.20664E+00 -7.55985E+00 -8.13674E+00 -5.24437E+00 -4.63221E+00  4.08344E+00  6.65877E-01  1.34361E+00
  -1.05532E+00 -5.36537E-01 -1.63221E+00 -3.93816E+00  5.60725E-01 -4.12852E-01  5.04643E-01 -2.78476E+00  1.57139E+00  1.78687E+00
   1.41243E+00  3.25776E-01 -1.83789E+00  3.65459E-01 -3.19374E+00 -1.14595E+00  1.71863E+00  3.96190E+00  2.27845E+00  3.72930E+00
   3.74598E+00 -1.70633E+00 -1.19703E+00  1.59175E+00  2.81924E+00  9.57188E+00  1.48724E+01  2.01021E+01  2.50486E+01  3.30430E+01
   4.82745E+01  5.31481E+01  4.52362E+01  3.16303E+01  1.74245E+01  1.30260E+01  1.37458E+01  4.51561E+00  3.87861E+00  1.23705E+00
   9.06445E-01  4.80404E-01  2.13990E+00  1.95607E+00  1.42044E+00  3.99223E+00 -3.72757E+00 -2.13920E+00 -5.30554E-01 -1.53736E+00
   4.38622E+00 -8.21381E-01  2.60424E+00 -1.95678E+00  5.35544E-01 -1.89546E+00  2.01615E+00 -3.00316E-01 -5.78197E+00 -2.36327E+00
  -4.37327E-02  1.97509E+00 -1.65287E+00  3.17233E+00 -6.08448E-01 -4.95633E-01  1.66556E+00  1.67698E+00  1.05577E+00 -2.74814E-02
  -5.36113E-01 -2.79272E+00 -1.40274E+00  1.15766E+00 -1.06249E+00  1.31140E+00  5.24789E+00 -2.09517E-01  2.00619E+00 -3.51372E+00
   1.67782E-01 -4.26360E-02 -1.11461E+00 -3.61025E+00 -1.24483E+00 -2.94501E-01 -1.10995E+00  4.11854E+00  2.93466E+00 -3.44926E-02
   6.44301E-01  5.29604E+00 -7.06030E-01  1.48104E+00 -1.56387E+00 -1.00977E+00 -2.75516E+00  8.97141E-01  1.91179E+00  2.97921E+00
  -1.53879E+00  3.29651E+00 -4.28219E-01  1.05621E+00  8.61675E-01  1.70972E+00  3.19366E-01  2.37650E-01 -1.17553E+00  2.60529E-01
  -1.78819E-01  2.39188E-01 -3.80425E+00  1.54879E+00  4.22362E+00  1.04330E+00  1.11653E+00  5.25429E+00  3.90913E+00  3.16624E+00
   5.35144E+00  6.40597E+00  7.75337E+00  2.53287E+00  6.91241E+00  9.70023E+00  4.69962E+00  4.45668E+00  2.02065E+00  3.01590E+00
   6.67200E+00 -2.74820E-01  5.11006E+00  1.43496E+00  3.31914E+00  1.57210E+00  2.93092E+00  2.33762E+00  2.89947E+00  5.70966E+00
  -2.34452E+00  7.21180E-01  1.33140E+00  4.61640E-01  1.51801E+00  2.65760E+00  6.01775E-01 -1.25142E+00 -3.33308E+00  1.06500E+00
  -1.77898E+00 -2.74665E+00  1.49649E+00 -1.06167E+00  5.86554E-01  5.07326E-01  7.60218E-01  2.57448E+00  3.20393E+00  3.54749E+00
   1.48837E+00  4.79372E+00  4.22554E+00  7.45125E+00  4.15979E+00  9.14344E+00  8.34947E+00  9.95929E+00  6.57033E+00  4.06302E+00
   1.14677E+01  5.27449E+00  5.34741E+00  1.05933E+01  8.80056E+00  7.64313E+00  6.52139E+00  3.52661E+00  9.69471E+00  8.88485E+00
   6.74362E+00  7.97003E+00  8.03445E+00  4.90146E+00  7.33057E+00  3.18643E+00  5.21586E+00  6.58820E+00  8.03476E+00  6.35723E+00
   4.74987E+00  3.43086E+00  9.93879E-01  2.51069E+00  3.62132E+00  2.46330E+00  1.45271E+00  2.13093E+00  3.05866E+00  2.90500E+00
   2.43993E+00  7.37677E+00  5.37155E+00  6.72953E+00  4.40341E+00  2.99651E+00  4.55219E+00  2.01962E+00  3.94029E+00  5.99248E+00
   3.72755E+00  6.95262E+00  5.12494E+00  2.72112E+00  2.35920E+00  3.12448E+00 -1.55059E+00  4.95357E+00 -2.87206E-01  4.99379E+00
   6.39931E+00  6.32541E+00  3.94217E+00  1.25935E+00  6.07854E+00  2.11747E+00  4.29917E+00  2.59753E+00  2.10782E+00 -3.26100E+00
   1.84536E+00  3.13595E-01  1.45521E+00  3.70767E+00 -2.62232E-01  5.22805E+00  3.12456E+00  4.30869E+00  6.51144E+00  4.21029E+00
   2.38517E+00  5.50886E+00  4.42540E+00  6.41542E-01  4.76922E-01  7.47534E-01  4.19064E+00  4.09824E-01  3.84650E+00  1.24542E+00
   2.35811E+00  4.27261E+00  5.65120E+00  3.44507E+00  5.84285E+00  1.88159E+00  4.48492E+00  3.23868E+00  8.73357E+00  1.06619E+00
   6.87440E+00  2.23948E+00  3.54818E-01  2.46787E+00 -1.03274E+00  3.23484E+00  2.97344E+00  2.74592E+00
 NY points of the fit to the data follow
  -3.02645E+01 -3.02488E+01 -3.00629E+01 -2.97586E+01 -2.92563E+01 -2.83847E+01 -2.72169E+01 -2.57213E+01 -2.37217E+01 -2.12281E+01
  -1.89853E+01 -1.81443E+01 -1.91299E+01 -2.11114E+01 -2.27956E+01 -2.39354E+01 -2.47455E+01 -2.52873E+01 -2.56558E+01 -2.57489E+01
  -2.56751E+01 -2.55183E+01 -2.54002E+01 -2.53248E+01 -2.52014E+01 -2.47885E+01 -2.42452E+01 -2.34843E+01 -2.22196E+01 -2.05047E+01
  -1.88622E+01 -1.78589E+01 -1.75188E+01 -1.76013E+01 -1.80814E+01 -1.92100E+01 -2.08977E+01 -2.22926E+01 -2.33169E+01 -2.38933E+01
  -2.37213E+01 -2.27442E+01 -2.12012E+01 -1.96144E+01 -1.80978E+01 -1.63336E+01 -1.44472E+01 -1.33350E+01 -1.37809E+01 -1.55852E+01
  -1.76922E+01 -1.93174E+01 -2.03658E+01 -2.09487E+01 -2.09945E+01 -2.05807E+01 -1.99329E+01 -1.91622E+01 -1.83133E+01 -1.75108E+01
  -1.70602E+01 -1.71711E+01 -1.77046E+01 -1.82979E+01 -1.86115E+01 -1.85882E+01 -1.82530E+01 -1.77727E+01 -1.73245E+01 -1.69933E+01
  -1.66515E+01 -1.61492E+01 -1.56352E+01 -1.51825E+01 -1.47224E+01 -1.44141E+01 -1.44424E+01 -1.50336E+01 -1.60138E+01 -1.67877E+01
  -1.69579E+01 -1.65883E+01 -1.57663E+01 -1.47724E+01 -1.38814E+01 -1.30401E+01 -1.23232E+01 -1.21775E+01 -1.28729E+01 -1.39637E+01
  -1.47032E+01 -1.48511E+01 -1.49333E+01 -1.52822E+01 -1.54115E+01 -1.52195E+01 -1.44920E+01 -1.22197E+01 -7.73121E+00 -2.01628E+00
   5.24220E+00  1.41974E+01  2.21422E+01  2.44876E+01  1.91240E+01  9.36504E+00  9.84382E-01 -3.88432E+00 -7.51882E+00 -1.06922E+01
  -1.18734E+01 -1.23110E+01 -1.25277E+01 -1.26114E+01 -1.26838E+01 -1.27152E+01 -1.27114E+01 -1.26884E+01 -1.26581E+01 -1.25929E+01
  -1.24082E+01 -1.18069E+01 -9.92643E+00 -6.88038E+00 -2.90574E+00  2.43536E+00  8.45477E+00  1.24520E+01  1.18835E+01  7.10571E+00
   1.26634E+00 -2.75014E+00 -5.14946E+00 -7.63640E+00 -9.54479E+00 -1.06418E+01 -1.13521E+01 -1.15371E+01 -1.12212E+01 -1.06217E+01
  -9.92876E+00 -9.34096E+00 -9.07661E+00 -9.10100E+00 -9.26175E+00 -9.45668E+00 -9.59330E+00 -9.68855E+00 -9.75127E+00 -9.78356E+00
  -9.82572E+00 -9.86827E+00 -9.89415E+00 -9.89102E+00 -9.84493E+00 -9.74582E+00 -9.64823E+00 -9.61314E+00 -9.66968E+00 -9.85887E+00
  -1.01220E+01 -1.03172E+01 -1.02663E+01 -9.86316E+00 -9.32541E+00 -9.05543E+00 -9.21968E+00 -9.60600E+00 -9.96660E+00 -1.01700E+01
  -1.02463E+01 -1.03561E+01 -1.04983E+01 -1.06186E+01 -1.08037E+01 -1.10080E+01 -1.10717E+01 -1.08407E+01 -1.03659E+01 -9.98225E+00
  -9.96143E+00 -1.01534E+01 -1.02135E+01 -1.00480E+01 -9.84754E+00 -9.69702E+00 -9.48120E+00 -8.88161E+00 -7.81673E+00 -6.58530E+00
  -5.57166E+00 -5.09902E+00 -5.22862E+00 -5.73971E+00 -6.41906E+00 -7.08558E+00 -7.50607E+00 -7.57780E+00 -7.23483E+00 -6.41762E+00
  -5.22618E+00 -3.90293E+00 -2.67965E+00 -1.78298E+00 -1.44326E+00 -1.92565E+00 -3.24347E+00 -5.09023E+00 -7.22721E+00 -9.22407E+00
  -1.03998E+01 -1.02101E+01 -8.58740E+00 -6.15967E+00 -3.48483E+00 -8.37506E-01  1.36059E+00  2.07157E+00  6.40301E-01 -2.07452E+00
  -4.92066E+00 -7.28339E+00 -8.99984E+00 -9.71601E+00 -8.64486E+00 -6.18591E+00 -3.55817E+00 -1.74543E+00 -8.62403E-01 -5.15866E-01
  -6.07319E-01 -1.09066E+00 -1.46260E+00 -1.36095E+00 -1.03860E+00 -6.87725E-01 -2.66738E-01  3.19221E-01  8.37469E-01  9.60095E-01
   6.66932E-01  1.05140E-01 -5.80267E-01 -1.22533E+00 -1.37070E+00 -7.76365E-01  9.67540E-02  7.44516E-01  1.09837E+00  1.42095E+00
   1.73928E+00  2.07820E+00  2.62273E+00  3.58149E+00  5.05261E+00  7.86407E+00  1.29115E+01  1.89421E+01  2.66805E+01  3.71311E+01
   4.73893E+01  5.11006E+01  4.48388E+01  3.24722E+01  2.12164E+01  1.43728E+01  9.23741E+00  4.48381E+00  2.44710E+00  1.61132E+00
   1.07292E+00  6.78389E-01  4.80624E-01  4.57825E-01  5.26564E-01  6.34220E-01  6.67743E-01  5.67427E-01  3.86424E-01  1.90728E-01
  -1.44199E-02 -2.09589E-01 -3.54224E-01 -4.28865E-01 -4.46144E-01 -4.37671E-01 -4.25828E-01 -4.08894E-01 -3.91802E-01 -3.80034E-01
  -3.60169E-01 -3.26298E-01 -2.83299E-01 -2.35120E-01 -1.87046E-01 -1.39074E-01 -8.86173E-02 -3.59892E-02  1.49880E-02  6.56463E-02
   1.18464E-01  1.71928E-01  2.22246E-01  2.66196E-01  3.02014E-01  3.29079E-01  3.45273E-01  3.51688E-01  3.50629E-01  3.43604E-01
   3.31138E-01  3.14855E-01  2.96230E-01  2.76987E-01  2.58465E-01  2.42094E-01  2.28815E-01  2.19810E-01  2.15851E-01  2.17834E-01
   2.25962E-01  2.40300E-01  2.60404E-01  2.86158E-01  3.17086E-01  3.52765E-01  3.92111E-01  4.34163E-01  4.77716E-01  5.22036E-01
   5.66151E-01  6.09271E-01  6.50250E-01  6.88394E-01  7.23069E-01  7.54378E-01  7.82584E-01  8.08837E-01  8.35054E-01  8.65142E-01
   9.05089E-01  9.63980E-01  1.05365E+00  1.18906E+00  1.38677E+00  1.66350E+00  2.03224E+00  2.49845E+00  3.05524E+00  3.68076E+00
   4.33705E+00  4.97326E+00  5.53116E+00  5.95437E+00  6.19756E+00  6.23541E+00  6.06702E+00  5.71648E+00  5.22740E+00  4.65508E+00
   4.05633E+00  3.48145E+00  2.96777E+00  2.53765E+00  2.19855E+00  1.94655E+00  1.77003E+00  1.65422E+00  1.58402E+00  1.54643E+00
   1.53093E+00  1.53018E+00  1.53923E+00  1.55555E+00  1.57798E+00  1.60659E+00  1.64184E+00  1.68482E+00  1.73674E+00  1.79934E+00
   1.87434E+00  1.96375E+00  2.06936E+00  2.19328E+00  2.33744E+00  2.50401E+00  2.69474E+00  2.91121E+00  3.15431E+00  3.42456E+00
   3.72158E+00  4.04428E+00  4.39022E+00  4.75593E+00  5.13648E+00  5.52596E+00  5.91720E+00  6.30230E+00  6.67241E+00  7.01848E+00
   7.33141E+00  7.60283E+00  7.82517E+00  7.99238E+00  8.09984E+00  8.14504E+00  8.12743E+00  8.04881E+00  7.91280E+00  7.72486E+00
   7.49174E+00  7.22140E+00  6.92231E+00  6.60339E+00  6.27312E+00  5.93957E+00  5.60978E+00  5.28995E+00  4.98504E+00  4.69896E+00
   4.43430E+00  4.19266E+00  3.97457E+00  3.77998E+00  3.60811E+00  3.45785E+00  3.32755E+00  3.21551E+00  3.11985E+00  3.03888E+00
   2.97084E+00  2.91422E+00  2.86742E+00  2.82917E+00  2.79822E+00  2.77367E+00  2.75459E+00  2.74026E+00  2.72993E+00  2.72309E+00
   2.71921E+00  2.71800E+00  2.71908E+00  2.72218E+00  2.72695E+00  2.73324E+00  2.74083E+00  2.74966E+00  2.75951E+00  2.77030E+00
   2.78182E+00  2.79407E+00  2.80693E+00  2.82043E+00  2.83441E+00  2.84885E+00  2.86364E+00  2.87882E+00  2.89434E+00  2.91021E+00
   2.92632E+00  2.94266E+00  2.95918E+00  2.97595E+00  2.99292E+00  3.01010E+00  3.02739E+00  3.04482E+00  3.06235E+00  3.08005E+00
   3.09786E+00  3.11580E+00  3.13379E+00  3.15188E+00  3.17003E+00  3.18833E+00  3.20670E+00  3.22516E+00  3.24364E+00  3.26219E+00
   3.28080E+00  3.29954E+00  3.31831E+00  3.33715E+00  3.35600E+00  3.37493E+00  3.39393E+00  3.41304E+00  3.43217E+00  3.45136E+00
   3.47057E+00  3.48988E+00  3.50927E+00  3.52874E+00  3.54824E+00  3.56781E+00  3.58742E+00  3.60715E+00
 NY background values follow
    -3.219E+01   -3.201E+01   -3.183E+01   -3.165E+01   -3.147E+01   -3.129E+01   -3.111E+01   -3.093E+01   -3.075E+01   -3.057E+01
    -3.039E+01   -3.021E+01   -3.003E+01   -2.985E+01   -2.967E+01   -2.949E+01   -2.931E+01   -2.913E+01   -2.895E+01   -2.877E+01
    -2.859E+01   -2.841E+01   -2.823E+01   -2.806E+01   -2.788E+01   -2.770E+01   -2.752E+01   -2.735E+01   -2.717E+01   -2.699E+01
    -2.682E+01   -2.664E+01   -2.647E+01   -2.629E+01   -2.612E+01   -2.595E+01   -2.577E+01   -2.560E+01   -2.543E+01   -2.526E+01
    -2.508E+01   -2.491E+01   -2.474E+01   -2.457E+01   -2.440E+01   -2.424E+01   -2.407E+01   -2.390E+01   -2.373E+01   -2.357E+01
    -2.340E+01   -2.324E+01   -2.307E+01   -2.291E+01   -2.275E+01   -2.258E+01   -2.242E+01   -2.226E+01   -2.210E+01   -2.194E+01
    -2.178E+01   -2.163E+01   -2.147E+01   -2.131E+01   -2.116E+01   -2.100E+01   -2.085E+01   -2.069E+01   -2.054E+01   -2.039E+01
    -2.024E+01   -2.009E+01   -1.994E+01   -1.979E+01   -1.964E+01   -1.949E+01   -1.935E+01   -1.920E+01   -1.905E+01   -1.891E+01
    -1.877E+01   -1.862E+01   -1.848E+01   -1.834E+01   -1.820E+01   -1.806E+01   -1.793E+01   -1.779E+01   -1.765E+01   -1.752E+01
    -1.738E+01   -1.725E+01   -1.712E+01   -1.698E+01   -1.685E+01   -1.672E+01   -1.659E+01   -1.647E+01   -1.634E+01   -1.621E+01
    -1.609E+01   -1.596E+01   -1.584E+01   -1.572E+01   -1.559E+01   -1.547E+01   -1.535E+01   -1.523E+01   -1.511E+01   -1.499E+01
    -1.488E+01   -1.476E+01   -1.464E+01   -1.453E+01   -1.441E+01   -1.430E+01   -1.419E+01   -1.408E+01   -1.396E+01   -1.385E+01
    -1.374E+01   -1.363E+01   -1.353E+01   -1.342E+01   -1.331E+01   -1.320E+01   -1.310E+01   -1.299E+01   -1.289E+01   -1.278E+01
    -1.268E+01   -1.258E+01   -1.248E+01   -1.238E+01   -1.227E+01   -1.217E+01   -1.207E+01   -1.198E+01   -1.188E+01   -1.178E+01
    -1.168E+01   -1.158E+01   -1.149E+01   -1.139E+01   -1.130E+01   -1.120E+01   -1.111E+01   -1.102E+01   -1.092E+01   -1.083E+01
    -1.074E+01   -1.065E+01   -1.055E+01   -1.046E+01   -1.037E+01   -1.028E+01   -1.020E+01   -1.011E+01   -1.002E+01   -9.931E+00
    -9.844E+00   -9.757E+00   -9.671E+00   -9.585E+00   -9.500E+00   -9.415E+00   -9.330E+00   -9.246E+00   -9.162E+00   -9.079E+00
    -8.996E+00   -8.913E+00   -8.831E+00   -8.749E+00   -8.667E+00   -8.586E+00   -8.506E+00   -8.425E+00   -8.345E+00   -8.266E+00
    -8.186E+00   -8.107E+00   -8.028E+00   -7.950E+00   -7.872E+00   -7.794E+00   -7.717E+00   -7.640E+00   -7.564E+00   -7.487E+00
    -7.412E+00   -7.336E+00   -7.261E+00   -7.186E+00   -7.112E+00   -7.038E+00   -6.965E+00   -6.891E+00   -6.819E+00   -6.746E+00
    -6.675E+00   -6.603E+00   -6.532E+00   -6.462E+00   -6.391E+00   -6.322E+00   -6.253E+00   -6.184E+00   -6.115E+00   -6.048E+00
    -5.980E+00   -5.913E+00   -5.847E+00   -5.781E+00   -5.715E+00   -5.650E+00   -5.586E+00   -5.522E+00   -5.459E+00   -5.396E+00
    -5.333E+00   -5.271E+00   -5.210E+00   -5.149E+00   -5.089E+00   -5.029E+00   -4.970E+00   -4.911E+00   -4.853E+00   -4.796E+00
    -4.739E+00   -4.682E+00   -4.626E+00   -4.571E+00   -4.516E+00   -4.461E+00   -4.408E+00   -4.354E+00   -4.301E+00   -4.249E+00
    -4.197E+00   -4.146E+00   -4.095E+00   -4.044E+00   -3.994E+00   -3.945E+00   -3.896E+00   -3.847E+00   -3.799E+00   -3.752E+00
    -3.704E+00   -3.658E+00   -3.611E+00   -3.565E+00   -3.520E+00   -3.475E+00   -3.430E+00   -3.386E+00   -3.342E+00   -3.299E+00
    -3.256E+00   -3.213E+00   -3.171E+00   -3.129E+00   -3.087E+00   -3.046E+00   -3.006E+00   -2.965E+00   -2.925E+00   -2.886E+00
    -2.846E+00   -2.807E+00   -2.769E+00   -2.730E+00   -2.692E+00   -2.655E+00   -2.618E+00   -2.581E+00   -2.544E+00   -2.508E+00
    -2.472E+00   -2.436E+00   -2.400E+00   -2.365E+00   -2.330E+00   -2.296E+00   -2.262E+00   -2.228E+00   -2.194E+00   -2.160E+00
    -2.127E+00   -2.094E+00   -2.062E+00   -2.029E+00   -1.997E+00   -1.965E+00   -1.933E+00   -1.902E+00   -1.871E+00   -1.840E+00
    -1.809E+00   -1.778E+00   -1.748E+00   -1.718E+00   -1.688E+00   -1.658E+00   -1.628E+00   -1.599E+00   -1.570E+00   -1.541E+00
    -1.512E+00   -1.484E+00   -1.455E+00   -1.427E+00   -1.399E+00   -1.371E+00   -1.343E+00   -1.315E+00   -1.288E+00   -1.260E+00
    -1.233E+00   -1.206E+00   -1.179E+00   -1.152E+00   -1.125E+00   -1.098E+00   -1.072E+00   -1.045E+00   -1.019E+00   -9.926E-01
    -9.664E-01   -9.402E-01   -9.141E-01   -8.881E-01   -8.621E-01   -8.362E-01   -8.103E-01   -7.845E-01   -7.587E-01   -7.329E-01
    -7.072E-01   -6.814E-01   -6.557E-01   -6.300E-01   -6.043E-01   -5.786E-01   -5.529E-01   -5.271E-01   -5.014E-01   -4.756E-01
    -4.498E-01   -4.240E-01   -3.981E-01   -3.721E-01   -3.462E-01   -3.201E-01   -2.940E-01   -2.679E-01   -2.416E-01   -2.153E-01
    -1.889E-01   -1.624E-01   -1.358E-01   -1.091E-01   -8.233E-02   -5.545E-02   -2.849E-02   -1.440E-03    2.570E-02    5.291E-02
     8.021E-02    1.076E-01    1.350E-01    1.626E-01    1.902E-01    2.178E-01    2.456E-01    2.734E-01    3.012E-01    3.291E-01
     3.571E-01    3.851E-01    4.132E-01    4.414E-01    4.696E-01    4.978E-01    5.261E-01    5.544E-01    5.827E-01    6.111E-01
     6.395E-01    6.680E-01    6.965E-01    7.250E-01    7.535E-01    7.821E-01    8.107E-01    8.393E-01    8.679E-01    8.965E-01
     9.252E-01    9.538E-01    9.825E-01    1.011E+00    1.040E+00    1.068E+00    1.097E+00    1.126E+00    1.154E+00    1.183E+00
     1.212E+00    1.240E+00    1.269E+00    1.298E+00    1.326E+00    1.355E+00    1.383E+00    1.411E+00    1.440E+00    1.468E+00
     1.497E+00    1.525E+00    1.553E+00    1.581E+00    1.609E+00    1.637E+00    1.665E+00    1.693E+00    1.721E+00    1.749E+00
     1.777E+00    1.804E+00    1.832E+00    1.859E+00    1.886E+00    1.914E+00    1.941E+00    1.968E+00    1.995E+00    2.022E+00
     2.048E+00    2.075E+00    2.101E+00    2.128E+00    2.154E+00    2.180E+00    2.206E+00    2.232E+00    2.258E+00    2.283E+00
     2.309E+00    2.334E+00    2.359E+00    2.384E+00    2.409E+00    2.434E+00    2.459E+00    2.483E+00    2.507E+00    2.531E+00
     2.556E+00    2.580E+00    2.603E+00    2.627E+00    2.651E+00    2.674E+00    2.698E+00    2.721E+00    2.744E+00    2.767E+00
     2.790E+00    2.813E+00    2.836E+00    2.859E+00    2.882E+00    2.905E+00    2.927E+00    2.950E+00    2.972E+00    2.995E+00
     3.017E+00    3.040E+00    3.062E+00    3.084E+00    3.107E+00    3.129E+00    3.151E+00    3.173E+00    3.196E+00    3.218E+00
     3.240E+00    3.262E+00    3.285E+00    3.307E+00    3.329E+00    3.351E+00    3.374E+00    3.396E+00
 Cr       Conc. = 1.99E+02
