 LCModel (Version 6.3-1L) Copyright: S.W. Provencher.          Ref.: Magn. Reson. Med. 30:672-679 (1993).                
 Slice#3 Row#1 Col#6  PD_05_press_1_raw_act
 36 lines in following concentration table = NCONC+1
    Conc.  %SD /Cr+PCr  Metabolite                                         
    0.000 999%   0.000 Ala                                                 
   16.101  89%   0.150 Asp                                                 
   77.317  41%   0.721 Cr                                                  
   29.988  92%   0.279 PCr                                                 
    8.450 103% 7.9E-02 GABA                                                
   10.285  85% 9.6E-02 Glc                                                 
   79.061  68%   0.737 Gln                                                 
  200.728  33%   1.871 Glu                                                 
   25.644  23%   0.239 GPC                                                 
    0.000 999%   0.000 PCh                                                 
   13.230 131%   0.123 GSH                                                 
  108.353  57%   1.010 Ins                                                 
    0.000 999%   0.000 Lac                                                 
  127.558  20%   1.189 NAA                                                 
    4.867 385% 4.5E-02 NAAG                                                
    4.411  62% 4.1E-02 Scyllo                                              
   15.530  92%   0.145 Tau                                                 
    0.000 999%   0.000 -CrCH2                                              
   25.644  23%   0.239 GPC+PCh                                             
  132.426  16%   1.234 NAA+NAAG                                            
  107.305  17%   1.000 Cr+PCr                                              
  279.789  34%   2.607 Glu+Gln                                             
    0.000 999%   0.000 Lip13a                                              
    0.000 999%   0.000 Lip13b                                              
 5.77E-05 999% 5.4E-07 Lip09                                               
  162.062  26%   1.510 MM09                                                
    0.000 999%   0.000 Lip20                                               
  188.356  45%   1.755 MM20                                                
    2.760 999% 2.6E-02 MM12                                                
    0.000 999%   0.000 MM14                                                
    0.000 999%   0.000 MM17                                                
    0.000 999%   0.000 Lip13a+Lip13b                                       
    2.760 999% 2.6E-02 MM14+Lip13a+Lip13b+MM12                             
  162.062  26%   1.510 MM09+Lip09                                          
  188.356  45%   1.755 MM20+Lip20                                          
   6 lines in following misc. output table
  FWHM = 0.054 ppm    S/N =   2                                            
  Data shift =-0.015 ppm                                                   
  Ph: -29 deg       1.7 deg/ppm                                            
  alphaB,S = 1.3E+00,   2.7E+00                                            
   14 spline knots.   Ns = 7(1)                                            
  (10)11 infls.   (10) 8 extrs.                                            
  498 points on ppm-axis = NY
      4.000000     3.992357     3.984714     3.977070     3.969427     3.961784     3.954141     3.946497     3.938854     3.931211
      3.923568     3.915925     3.908281     3.900638     3.892995     3.885352     3.877708     3.870065     3.862422     3.854779
      3.847136     3.839492     3.831849     3.824206     3.816563     3.808919     3.801276     3.793633     3.785990     3.778347
      3.770703     3.763060     3.755417     3.747774     3.740130     3.732487     3.724844     3.717201     3.709558     3.701914
      3.694271     3.686628     3.678985     3.671341     3.663698     3.656055     3.648412     3.640769     3.633125     3.625482
      3.617839     3.610196     3.602552     3.594909     3.587266     3.579623     3.571980     3.564336     3.556693     3.549050
      3.541407     3.533763     3.526120     3.518477     3.510834     3.503191     3.495547     3.487904     3.480261     3.472618
      3.464974     3.457331     3.449688     3.442045     3.434402     3.426758     3.419115     3.411472     3.403829     3.396185
      3.388542     3.380899     3.373256     3.365613     3.357969     3.350326     3.342683     3.335040     3.327396     3.319753
      3.312110     3.304467     3.296824     3.289180     3.281537     3.273894     3.266251     3.258607     3.250964     3.243321
      3.235678     3.228034     3.220391     3.212748     3.205105     3.197462     3.189818     3.182175     3.174532     3.166889
      3.159245     3.151602     3.143959     3.136316     3.128673     3.121029     3.113386     3.105743     3.098100     3.090456
      3.082813     3.075170     3.067527     3.059884     3.052240     3.044597     3.036954     3.029311     3.021667     3.014024
      3.006381     2.998738     2.991095     2.983451     2.975808     2.968165     2.960522     2.952878     2.945235     2.937592
      2.929949     2.922306     2.914662     2.907019     2.899376     2.891733     2.884089     2.876446     2.868803     2.861160
      2.853517     2.845873     2.838230     2.830587     2.822944     2.815300     2.807657     2.800014     2.792371     2.784728
      2.777084     2.769441     2.761798     2.754155     2.746511     2.738868     2.731225     2.723582     2.715939     2.708295
      2.700652     2.693009     2.685366     2.677722     2.670079     2.662436     2.654793     2.647150     2.639506     2.631863
      2.624220     2.616577     2.608933     2.601290     2.593647     2.586004     2.578361     2.570717     2.563074     2.555431
      2.547788     2.540144     2.532501     2.524858     2.517215     2.509572     2.501928     2.494285     2.486642     2.478999
      2.471355     2.463712     2.456069     2.448426     2.440783     2.433139     2.425496     2.417853     2.410210     2.402566
      2.394923     2.387280     2.379637     2.371994     2.364350     2.356707     2.349064     2.341421     2.333777     2.326134
      2.318491     2.310848     2.303205     2.295561     2.287918     2.280275     2.272632     2.264988     2.257345     2.249702
      2.242059     2.234416     2.226772     2.219129     2.211486     2.203843     2.196199     2.188556     2.180913     2.173270
      2.165627     2.157983     2.150340     2.142697     2.135054     2.127410     2.119767     2.112124     2.104481     2.096838
      2.089194     2.081551     2.073908     2.066265     2.058621     2.050978     2.043335     2.035692     2.028049     2.020405
      2.012762     2.005119     1.997476     1.989833     1.982190     1.974546     1.966903     1.959260     1.951617     1.943974
      1.936331     1.928688     1.921045     1.913402     1.905759     1.898115     1.890472     1.882829     1.875186     1.867543
      1.859900     1.852257     1.844614     1.836971     1.829327     1.821684     1.814041     1.806398     1.798755     1.791112
      1.783469     1.775826     1.768183     1.760540     1.752896     1.745253     1.737610     1.729967     1.722324     1.714681
      1.707038     1.699395     1.691752     1.684108     1.676465     1.668822     1.661179     1.653536     1.645893     1.638250
      1.630607     1.622964     1.615321     1.607677     1.600034     1.592391     1.584748     1.577105     1.569462     1.561819
      1.554176     1.546533     1.538890     1.531246     1.523603     1.515960     1.508317     1.500674     1.493031     1.485388
      1.477745     1.470102     1.462458     1.454815     1.447172     1.439529     1.431886     1.424243     1.416600     1.408957
      1.401314     1.393671     1.386027     1.378384     1.370741     1.363098     1.355455     1.347812     1.340169     1.332526
      1.324883     1.317240     1.309596     1.301953     1.294310     1.286667     1.279024     1.271381     1.263738     1.256095
      1.248452     1.240808     1.233165     1.225522     1.217879     1.210236     1.202593     1.194950     1.187307     1.179664
      1.172021     1.164377     1.156734     1.149091     1.141448     1.133805     1.126162     1.118519     1.110876     1.103233
      1.095590     1.087946     1.080303     1.072660     1.065017     1.057374     1.049731     1.042088     1.034445     1.026802
      1.019158     1.011515     1.003872     0.996229     0.988586     0.980943     0.973300     0.965657     0.958014     0.950371
      0.942727     0.935084     0.927441     0.919798     0.912155     0.904512     0.896869     0.889226     0.881583     0.873940
      0.866296     0.858653     0.851010     0.843367     0.835724     0.828081     0.820438     0.812795     0.805152     0.797508
      0.789865     0.782222     0.774579     0.766936     0.759293     0.751650     0.744007     0.736364     0.728721     0.721077
      0.713434     0.705791     0.698148     0.690505     0.682862     0.675219     0.667576     0.659933     0.652290     0.644646
      0.637003     0.629360     0.621717     0.614074     0.606431     0.598788     0.591145     0.583502     0.575858     0.568215
      0.560572     0.552929     0.545286     0.537643     0.530000     0.522357     0.514714     0.507071     0.499427     0.491784
      0.484141     0.476498     0.468855     0.461212     0.453569     0.445925     0.438282     0.430639     0.422996     0.415353
      0.407710     0.400067     0.392424     0.384780     0.377137     0.369494     0.361851     0.354208     0.346565     0.338922
      0.331278     0.323635     0.315992     0.308349     0.300706     0.293063     0.285420     0.277777     0.270133     0.262490
      0.254847     0.247204     0.239561     0.231918     0.224275     0.216631     0.208988     0.201345
 NY phased data points follow
   7.84418E-01  1.76763E+00  1.03073E+00  8.63000E-01  8.44685E-01 -7.79327E-01  3.25888E-01  5.23933E-01 -1.47660E+00  2.29212E+00
   4.75414E+00  1.86640E+00  3.50060E+00  7.38641E+00  2.97356E+00  5.19378E+00  5.14901E+00  6.50665E-01  3.62064E+00  3.03890E+00
   2.33801E+00  3.66878E+00 -5.15819E-01  6.52766E-01  2.62187E+00  1.41813E+00 -6.35668E-02  5.31493E-01  7.56684E-01  5.63848E-01
   3.08315E+00  1.42727E+00  1.09165E+00  9.97112E-01  1.95198E+00  1.20056E+00  2.36296E-01  4.09991E-01  3.14077E+00  1.02968E+00
   1.12870E+00 -1.28589E+00  2.82986E-01  2.52122E+00  2.89100E+00  1.70818E+00  4.02268E-01  1.79162E+00  2.20118E+00 -1.80503E+00
   2.95413E+00 -8.99199E-02  1.67577E+00  9.07858E-01  2.19000E-01  1.54274E+00  1.65487E+00  3.82149E-01  1.52247E+00  1.91883E+00
   1.23281E+00  2.12849E+00  5.41596E-01  8.98054E-01  8.98249E-01 -4.49963E-01 -9.64847E-01 -1.73286E+00 -2.14198E+00 -1.22332E-02
   3.97230E+00  1.67967E-01  3.88997E+00 -7.09383E-02  2.27806E+00  1.03447E+00  3.32998E+00  8.19816E-02  1.13636E+00 -1.64762E-01
  -1.12129E+00  1.82823E+00  6.79801E-01 -7.63804E-01  2.13010E+00  1.09846E+00  5.40659E-01 -2.96448E-01  2.65920E-01 -1.51252E+00
   1.19561E+00  3.34338E+00  8.78283E-01 -2.15383E-01  4.76542E-01 -6.56903E-01 -2.42267E+00 -2.92243E+00 -2.05665E+00  1.33453E-01
   2.00805E-01  1.27330E+00  1.84507E+00  1.71421E-01  2.64597E+00  3.58807E+00  2.56306E+00  1.79609E+00  3.43989E+00  2.05090E+00
   2.79547E+00  1.95987E+00 -8.17222E-01  9.80189E-01  4.27990E-01  9.56744E-01  2.32881E+00 -1.05545E+00  3.17502E-01 -3.57085E+00
  -3.05817E+00 -1.86354E+00 -1.14720E+00 -3.44586E+00  1.23424E+00  1.15016E+00 -1.84456E+00  3.13536E+00  2.85837E+00  2.30161E+00
   4.48920E+00  8.27120E+00  2.61914E+00  2.74795E+00  3.05330E+00 -1.97002E-01  7.04247E-01 -2.04320E-02 -8.43832E-01  1.67728E+00
  -1.42704E+00 -5.64685E-01 -4.10925E-01  3.63085E-02 -4.15461E-01 -1.78976E-01  2.15143E+00 -2.45604E+00 -2.24238E+00 -1.53035E+00
  -1.68054E+00 -6.12861E-01  1.54223E+00  1.50161E+00 -1.42022E+00  1.37352E+00 -1.13154E+00  5.02590E-01 -1.89983E+00 -1.09540E+00
  -2.16399E+00  1.09225E+00 -1.23795E+00 -3.54765E-01  6.06303E-02 -3.42099E+00 -5.21632E-01  1.30059E-01  9.85828E-01  4.72044E-02
  -1.08262E-01 -2.10380E+00  2.06817E-01 -1.31679E+00 -1.66494E+00 -9.24296E-01 -5.20529E-01 -1.40357E+00  3.51806E-01  1.39932E+00
   6.47234E-01 -1.04772E+00 -2.10308E+00 -5.08397E+00  2.61133E-02 -2.95446E+00 -8.87995E-01 -6.58082E-01  2.26238E+00 -1.73959E+00
  -1.42122E+00 -5.43333E-01  9.67898E-01 -8.53472E-02 -1.44746E-01 -5.61115E-01 -1.24478E+00 -9.64238E-01  3.86360E-01 -4.98860E-02
   1.24369E+00 -8.90134E-01  5.15067E-01  2.53298E+00 -5.36087E-01 -4.85099E-01  1.99931E+00 -3.45539E-01 -2.12943E+00 -1.68861E+00
  -1.95317E+00 -1.98288E+00  1.52830E+00 -1.83829E+00  3.92656E-01  1.30464E+00  1.67156E+00  1.17018E+00  2.72111E+00  3.14855E-01
   1.72921E+00 -1.94450E+00  7.71108E-01 -1.48723E+00  6.47965E-01 -1.39105E+00 -2.11999E+00 -4.86916E-01 -5.46446E-01 -3.68921E-01
  -9.31145E-01  1.09665E+00  1.69470E+00  3.62426E-01 -4.97984E-01  2.87717E+00 -6.01967E-01 -2.71766E-01  2.08464E+00  4.76370E-01
  -3.01139E-02 -5.00746E-01  9.87592E-01  2.65840E-01  6.46928E-01 -1.38761E-01  4.69042E-01 -9.41875E-01  8.95808E-01  9.29538E-02
  -1.08875E+00 -1.89617E+00 -1.80843E+00 -2.11625E+00 -3.81141E+00 -2.60696E+00 -1.04975E-01  1.18479E-01  1.59357E+00  1.51193E+00
   4.02995E+00  3.80315E+00  4.91918E+00  6.39471E+00  7.06660E+00  5.45855E+00  4.99001E+00  2.97149E+00  1.53927E+00 -1.64507E-02
   2.01990E+00  1.41012E+00  6.77156E-01  7.51458E-02 -1.96156E+00  1.96406E+00 -2.28212E+00 -2.42585E+00  9.29947E-01 -9.92639E-01
  -1.79397E+00 -1.43598E+00 -8.17365E-01 -9.23368E-01 -1.81878E+00 -2.13433E+00  7.42571E-01  1.42157E-01 -1.52453E+00 -2.82524E-01
   9.18326E-01 -1.20629E+00  5.13067E-01 -4.26237E+00  4.77333E-01  8.16784E-02  6.35372E-01  8.31607E-01  1.22724E+00  1.03753E+00
  -1.32322E+00 -1.77678E+00  1.65875E+00 -2.55737E+00 -2.38656E+00  1.85977E+00 -6.61653E-01  7.79398E-01 -2.13703E+00 -1.46478E+00
  -9.10893E-01 -8.93617E-01 -6.18798E-01 -1.36289E+00 -1.24639E+00 -4.07742E-01  5.88241E-03 -5.69580E-01 -1.67774E-01 -1.09811E+00
  -5.39125E-01  8.31409E-01 -2.11943E-01 -3.09934E+00 -8.45218E-01 -2.58659E-01 -3.46032E+00 -3.05959E+00 -4.52581E+00 -1.70229E+00
   6.85798E-01 -3.14827E+00 -2.16207E+00 -1.87067E-01 -1.40304E+00 -2.49557E+00 -4.54600E+00 -1.87142E+00 -4.04625E+00 -1.67349E+00
  -7.04950E-01 -1.39310E+00 -1.97835E+00 -3.51489E+00 -1.58284E+00  1.74460E-02 -2.07490E+00 -1.45367E+00 -3.22247E+00 -2.90104E+00
  -2.64890E+00 -3.77234E+00 -3.47962E+00 -1.95831E+00 -1.87643E+00 -2.05678E+00 -2.53460E-02 -1.50518E+00 -1.19101E+00  3.17483E-01
  -4.59802E+00 -2.60578E+00 -3.51485E+00 -3.34445E+00 -1.82424E+00 -9.21108E-01  5.96098E-01 -2.08981E+00 -1.15399E+00 -5.31360E-01
   8.99727E-01 -2.65789E-01  4.07552E-01  7.61757E-01 -1.41844E+00  2.30097E+00 -7.95132E-01  5.33090E-01 -1.07289E-01  1.57268E+00
   4.62384E-01 -3.63603E-01  1.03614E+00  3.71541E-01  1.01119E+00  1.80862E+00 -1.30705E+00  1.30528E+00  2.09874E+00  1.73031E+00
   4.40094E+00  1.22213E+00  2.30112E+00  2.43193E+00  5.94641E-01  2.19053E+00  7.09301E-01  3.15532E+00  1.31572E+00  1.36364E+00
   7.04880E-01  2.94080E+00  8.09156E-01  2.20829E+00  1.39147E+00 -2.43783E-01 -1.01397E+00  1.03219E+00  5.88887E-01  7.40406E-01
  -1.43507E+00 -1.30584E+00 -1.09891E+00 -5.94178E-01  1.03836E+00 -9.56610E-01 -1.37902E+00  1.85475E+00 -1.19066E+00  7.49822E-02
   5.48514E-01  1.10878E+00  2.48296E-01  1.10438E+00 -3.21434E-01 -5.03840E-01  4.53868E-01 -1.98855E+00 -6.55133E-01  2.05858E+00
  -1.07969E+00  1.31099E+00 -2.49431E-01 -3.19496E+00  2.90458E-01 -3.09396E+00  8.04398E-02  8.36056E-01 -6.80254E-01 -3.98423E-01
  -1.63605E+00 -1.14635E+00  6.44889E-01  3.29887E-01  8.63089E-01 -3.10636E-01  2.83979E+00  1.24305E+00  1.33925E+00 -1.18573E+00
   2.15257E-01  9.37595E-01  1.90498E+00  9.77102E-01  1.71502E+00 -8.69034E-02 -6.69512E-01  8.45071E-01  1.66685E+00 -5.96550E-01
   1.16472E+00  1.71185E+00  7.86547E-01 -9.81816E-01  9.78575E-01  2.98321E+00  2.02904E+00  8.24318E-04  1.73417E+00 -6.68907E-01
   2.79283E-01 -5.88440E-02  8.66533E-01 -6.27043E-01  3.47526E+00 -1.64363E+00 -1.28391E+00 -9.14440E-01  2.27801E+00  1.79156E+00
   1.99565E+00  4.10239E-01 -4.72124E-01  1.41752E+00  1.58663E+00  2.87757E+00 -7.12788E-01 -8.65833E-03  3.87426E-01  2.69983E-01
   2.98596E+00  3.02562E+00 -3.12219E-01  9.76374E-01  1.30689E-02  1.29995E+00 -1.37692E+00  1.77258E+00
 NY points of the fit to the data follow
   1.19377E+00  7.09164E-01  2.34358E-01  1.37565E-01 -5.09314E-01 -8.88052E-01 -5.33633E-04  6.15712E-01  1.18908E+00  2.09096E+00
   2.29781E+00  2.60187E+00  3.54622E+00  3.75599E+00  3.64740E+00  4.12304E+00  3.58458E+00  2.41812E+00  2.18012E+00  1.70721E+00
   1.11833E+00  1.18303E+00  1.12500E+00  8.65551E-01  6.55513E-01  2.29423E-01  5.91565E-02  1.96406E-01  3.97301E-01  7.50012E-01
   1.04899E+00  1.07021E+00  1.11927E+00  1.23917E+00  1.35416E+00  1.45214E+00  1.65237E+00  1.62585E+00  1.32263E+00  7.45660E-01
   9.03553E-02 -2.73818E-01 -2.93420E-01  1.51726E-01  7.17680E-01  9.63534E-01  1.17749E+00  1.47390E+00  1.55354E+00  1.51922E+00
   1.67655E+00  1.77473E+00  1.37900E+00  9.59913E-01  7.74714E-01  5.25714E-01  3.48229E-01  3.57488E-01  4.34488E-01  5.50228E-01
   6.04181E-01  6.08198E-01  6.55352E-01  7.54584E-01  6.98607E-01  5.53536E-01  5.03134E-01  4.21528E-01  2.96055E-01  2.59405E-01
   3.10867E-01  3.74021E-01  4.97555E-01  6.26902E-01  6.24366E-01  6.51850E-01  6.93569E-01  5.93179E-01  5.43511E-01  4.85772E-01
   4.33052E-01  4.92613E-01  5.49778E-01  5.50503E-01  4.80173E-01  3.71547E-01  3.66300E-01  3.87820E-01  3.37210E-01  3.05025E-01
   3.13516E-01  1.58112E-01  2.19093E-02  7.76209E-02 -9.69970E-03 -3.76665E-01 -1.48731E+00 -1.99559E+00 -1.12303E+00 -4.60517E-01
   3.71453E-01  1.16184E+00  1.20466E+00  1.67150E+00  2.52829E+00  2.70139E+00  3.23262E+00  4.05642E+00  3.31919E+00  2.29755E+00
   2.24857E+00  1.42136E+00  3.59526E-01  9.69574E-02  4.08631E-02  1.66122E-02 -1.44443E-02 -7.80183E-02 -2.45443E-01 -9.45248E-01
  -2.70110E+00 -2.91598E+00 -1.64279E+00 -7.33805E-01  5.82885E-01  1.59525E+00  1.65766E+00  2.61121E+00  3.80181E+00  4.07725E+00
   5.08504E+00  5.91050E+00  4.42679E+00  3.25838E+00  3.02297E+00  1.53002E+00  2.39747E-01 -3.57315E-02 -1.57049E-01 -2.47224E-01
  -2.52867E-01 -2.59838E-01 -2.57593E-01 -2.00498E-01 -1.63982E-01 -1.45714E-01 -1.27563E-01 -1.31311E-01 -1.46009E-01 -1.74531E-01
  -2.07482E-01 -2.43787E-01 -2.62356E-01 -2.32281E-01 -1.84031E-01 -2.09028E-01 -2.60320E-01 -3.27067E-01 -4.34037E-01 -4.13996E-01
  -3.71778E-01 -4.01861E-01 -3.98237E-01 -4.08028E-01 -4.79418E-01 -4.74579E-01 -4.18636E-01 -4.09331E-01 -3.52224E-01 -2.58758E-01
  -3.21455E-01 -4.25963E-01 -4.80941E-01 -5.60218E-01 -5.37092E-01 -5.10580E-01 -5.74452E-01 -6.55939E-01 -6.75194E-01 -6.67643E-01
  -6.28807E-01 -6.33532E-01 -6.87926E-01 -7.61680E-01 -8.04968E-01 -7.71893E-01 -6.56571E-01 -5.97457E-01 -5.72938E-01 -4.53376E-01
  -4.22899E-01 -3.50080E-01 -2.43042E-01 -2.73712E-01 -4.01591E-01 -4.73757E-01 -5.83729E-01 -7.12872E-01 -7.71053E-01 -6.87658E-01
  -4.41810E-01 -1.98781E-01  2.03130E-01  7.70309E-01  7.37260E-01  5.67133E-01  4.94071E-01 -6.32749E-02 -6.02162E-01 -1.16336E+00
  -1.39966E+00 -1.29050E+00 -9.47134E-01 -7.53028E-01 -3.96678E-01  5.62334E-01  1.11000E+00  8.75172E-01  8.13687E-01  8.50916E-01
   3.91224E-01 -3.31583E-01 -7.47555E-01 -1.23114E+00 -1.71048E+00 -1.87488E+00 -1.91192E+00 -1.30754E+00 -5.54564E-01 -1.72241E-01
   1.80129E-01  5.47565E-01  4.97972E-01  3.18419E-01  1.95778E-01  2.06409E-01  3.74588E-01  3.03215E-01  2.24669E-01  2.19562E-01
   1.87759E-01  3.11995E-01  4.15977E-01  3.10226E-01  3.34696E-01  3.40163E-01 -4.86867E-02 -3.06266E-01 -1.69942E-01 -2.65961E-01
  -3.10781E-01 -5.79984E-02 -4.81646E-01 -2.62425E+00 -3.49119E+00 -1.98225E+00 -8.39642E-01  6.95005E-01  2.21090E+00  2.39074E+00
   3.25803E+00  4.65187E+00  4.80870E+00  5.76744E+00  7.16446E+00  5.74756E+00  4.01223E+00  3.90278E+00  2.34746E+00  3.83139E-01
  -9.93451E-02 -1.92557E-01 -3.44697E-01 -3.82797E-01 -3.43325E-01 -3.57766E-01 -3.49616E-01 -2.91482E-01 -2.67942E-01 -2.75616E-01
  -2.64875E-01 -2.83691E-01 -3.34279E-01 -3.80166E-01 -4.22312E-01 -4.50271E-01 -4.60255E-01 -4.69989E-01 -4.74773E-01 -4.68216E-01
  -4.64245E-01 -4.70465E-01 -4.76226E-01 -4.76561E-01 -4.83175E-01 -4.92688E-01 -4.96215E-01 -4.99876E-01 -5.05933E-01 -5.08815E-01
  -5.10657E-01 -5.13178E-01 -5.15226E-01 -5.16227E-01 -5.16172E-01 -5.16741E-01 -5.16637E-01 -5.15477E-01 -5.15519E-01 -5.15622E-01
  -5.15277E-01 -5.15690E-01 -5.16000E-01 -5.15887E-01 -5.15729E-01 -5.15470E-01 -5.15067E-01 -5.14526E-01 -5.13868E-01 -5.13104E-01
  -5.12268E-01 -5.11392E-01 -5.10399E-01 -5.09242E-01 -5.07985E-01 -5.06683E-01 -5.05321E-01 -5.03896E-01 -5.02357E-01 -5.00662E-01
  -4.98876E-01 -4.97044E-01 -4.95147E-01 -4.93148E-01 -4.91021E-01 -4.88766E-01 -4.86413E-01 -4.83995E-01 -4.81496E-01 -4.78845E-01
  -4.76033E-01 -4.73104E-01 -4.70074E-01 -4.66941E-01 -4.63685E-01 -4.60248E-01 -4.56627E-01 -4.52869E-01 -4.48996E-01 -4.44988E-01
  -4.40798E-01 -4.36400E-01 -4.31813E-01 -4.27072E-01 -4.22182E-01 -4.17106E-01 -4.11799E-01 -4.06256E-01 -4.00499E-01 -3.94539E-01
  -3.88351E-01 -3.81870E-01 -3.75040E-01 -3.67841E-01 -3.60258E-01 -3.52242E-01 -3.43691E-01 -3.34473E-01 -3.24467E-01 -3.13565E-01
  -3.01632E-01 -2.88466E-01 -2.73803E-01 -2.57350E-01 -2.38811E-01 -2.17875E-01 -1.94172E-01 -1.67266E-01 -1.36683E-01 -1.01961E-01
  -6.26860E-02 -1.84852E-02  3.09754E-02  8.59545E-02  1.46559E-01  2.12676E-01  2.83938E-01  3.59724E-01  4.39164E-01  5.21107E-01
   6.04092E-01  6.86370E-01  7.65971E-01  8.40818E-01  9.08816E-01  9.67934E-01  1.01628E+00  1.05221E+00  1.07447E+00  1.08227E+00
   1.07535E+00  1.05398E+00  1.01889E+00  9.71258E-01  9.12696E-01  8.45141E-01  7.70729E-01  6.91657E-01  6.10064E-01  5.27970E-01
   4.47212E-01  3.69385E-01  2.95778E-01  2.27328E-01  1.64652E-01  1.08092E-01  5.77651E-02  1.35906E-02 -2.46937E-02 -5.75021E-02
  -8.53238E-02 -1.08661E-01 -1.28011E-01 -1.43859E-01 -1.56682E-01 -1.66945E-01 -1.75051E-01 -1.81331E-01 -1.86051E-01 -1.89452E-01
  -1.91765E-01 -1.93191E-01 -1.93880E-01 -1.93932E-01 -1.93424E-01 -1.92440E-01 -1.91076E-01 -1.89401E-01 -1.87451E-01 -1.85244E-01
  -1.82796E-01 -1.80146E-01 -1.77346E-01 -1.74419E-01 -1.71363E-01 -1.68171E-01 -1.64851E-01 -1.61437E-01 -1.57961E-01 -1.54423E-01
  -1.50810E-01 -1.47111E-01 -1.43342E-01 -1.39529E-01 -1.35690E-01 -1.31815E-01 -1.27882E-01 -1.23890E-01 -1.19861E-01 -1.15817E-01
  -1.11762E-01 -1.07674E-01 -1.03538E-01 -9.93622E-02 -9.51733E-02 -9.09846E-02 -8.67869E-02 -8.25591E-02 -7.82889E-02 -7.39971E-02
  -6.97090E-02 -6.54246E-02 -6.11269E-02 -5.67988E-02 -5.24388E-02 -4.80703E-02 -4.37153E-02 -3.93628E-02 -3.49876E-02 -3.05822E-02
  -2.61584E-02 -2.17394E-02 -1.73359E-02 -1.29300E-02 -8.49831E-03 -4.03950E-03  4.25316E-04  4.87506E-03  9.31193E-03  1.37602E-02
   1.82379E-02  2.27348E-02  2.72248E-02  3.16942E-02  3.61564E-02  4.06378E-02  4.51471E-02  4.96642E-02
 NY background values follow
     5.143E-01    5.088E-01    5.033E-01    4.978E-01    4.923E-01    4.868E-01    4.813E-01    4.757E-01    4.702E-01    4.647E-01
     4.592E-01    4.537E-01    4.482E-01    4.427E-01    4.372E-01    4.317E-01    4.261E-01    4.206E-01    4.151E-01    4.096E-01
     4.041E-01    3.986E-01    3.931E-01    3.876E-01    3.821E-01    3.766E-01    3.711E-01    3.656E-01    3.601E-01    3.546E-01
     3.491E-01    3.436E-01    3.381E-01    3.326E-01    3.272E-01    3.217E-01    3.162E-01    3.107E-01    3.052E-01    2.998E-01
     2.943E-01    2.888E-01    2.834E-01    2.779E-01    2.724E-01    2.670E-01    2.615E-01    2.561E-01    2.506E-01    2.452E-01
     2.397E-01    2.343E-01    2.288E-01    2.234E-01    2.180E-01    2.126E-01    2.072E-01    2.017E-01    1.963E-01    1.909E-01
     1.855E-01    1.801E-01    1.748E-01    1.694E-01    1.640E-01    1.586E-01    1.533E-01    1.479E-01    1.426E-01    1.373E-01
     1.319E-01    1.266E-01    1.213E-01    1.160E-01    1.107E-01    1.054E-01    1.001E-01    9.483E-02    8.956E-02    8.430E-02
     7.905E-02    7.382E-02    6.859E-02    6.337E-02    5.816E-02    5.296E-02    4.777E-02    4.259E-02    3.742E-02    3.226E-02
     2.711E-02    2.198E-02    1.685E-02    1.174E-02    6.636E-03    1.546E-03   -3.532E-03   -8.598E-03   -1.365E-02   -1.869E-02
    -2.372E-02   -2.873E-02   -3.373E-02   -3.872E-02   -4.369E-02   -4.865E-02   -5.360E-02   -5.853E-02   -6.345E-02   -6.835E-02
    -7.324E-02   -7.811E-02   -8.296E-02   -8.780E-02   -9.263E-02   -9.744E-02   -1.022E-01   -1.070E-01   -1.118E-01   -1.165E-01
    -1.212E-01   -1.259E-01   -1.306E-01   -1.353E-01   -1.400E-01   -1.446E-01   -1.492E-01   -1.538E-01   -1.584E-01   -1.630E-01
    -1.675E-01   -1.720E-01   -1.765E-01   -1.810E-01   -1.855E-01   -1.899E-01   -1.944E-01   -1.988E-01   -2.032E-01   -2.075E-01
    -2.119E-01   -2.162E-01   -2.205E-01   -2.248E-01   -2.290E-01   -2.333E-01   -2.375E-01   -2.417E-01   -2.458E-01   -2.500E-01
    -2.541E-01   -2.582E-01   -2.623E-01   -2.664E-01   -2.704E-01   -2.744E-01   -2.784E-01   -2.824E-01   -2.864E-01   -2.903E-01
    -2.942E-01   -2.981E-01   -3.019E-01   -3.058E-01   -3.096E-01   -3.134E-01   -3.172E-01   -3.209E-01   -3.246E-01   -3.283E-01
    -3.320E-01   -3.356E-01   -3.393E-01   -3.429E-01   -3.464E-01   -3.500E-01   -3.535E-01   -3.570E-01   -3.605E-01   -3.639E-01
    -3.674E-01   -3.708E-01   -3.741E-01   -3.775E-01   -3.808E-01   -3.841E-01   -3.874E-01   -3.907E-01   -3.939E-01   -3.971E-01
    -4.003E-01   -4.034E-01   -4.065E-01   -4.096E-01   -4.127E-01   -4.157E-01   -4.188E-01   -4.218E-01   -4.247E-01   -4.277E-01
    -4.306E-01   -4.335E-01   -4.363E-01   -4.392E-01   -4.420E-01   -4.448E-01   -4.475E-01   -4.502E-01   -4.529E-01   -4.556E-01
    -4.582E-01   -4.609E-01   -4.635E-01   -4.660E-01   -4.686E-01   -4.711E-01   -4.735E-01   -4.760E-01   -4.784E-01   -4.808E-01
    -4.832E-01   -4.855E-01   -4.878E-01   -4.901E-01   -4.924E-01   -4.946E-01   -4.968E-01   -4.990E-01   -5.011E-01   -5.032E-01
    -5.053E-01   -5.074E-01   -5.094E-01   -5.114E-01   -5.134E-01   -5.153E-01   -5.172E-01   -5.191E-01   -5.210E-01   -5.228E-01
    -5.246E-01   -5.263E-01   -5.281E-01   -5.298E-01   -5.314E-01   -5.331E-01   -5.347E-01   -5.363E-01   -5.378E-01   -5.393E-01
    -5.408E-01   -5.422E-01   -5.437E-01   -5.450E-01   -5.464E-01   -5.477E-01   -5.490E-01   -5.503E-01   -5.515E-01   -5.527E-01
    -5.539E-01   -5.550E-01   -5.561E-01   -5.571E-01   -5.582E-01   -5.592E-01   -5.601E-01   -5.610E-01   -5.619E-01   -5.628E-01
    -5.636E-01   -5.644E-01   -5.652E-01   -5.659E-01   -5.666E-01   -5.672E-01   -5.679E-01   -5.684E-01   -5.690E-01   -5.695E-01
    -5.700E-01   -5.704E-01   -5.708E-01   -5.712E-01   -5.715E-01   -5.718E-01   -5.721E-01   -5.723E-01   -5.725E-01   -5.727E-01
    -5.728E-01   -5.729E-01   -5.729E-01   -5.729E-01   -5.729E-01   -5.728E-01   -5.727E-01   -5.726E-01   -5.724E-01   -5.722E-01
    -5.719E-01   -5.716E-01   -5.713E-01   -5.709E-01   -5.705E-01   -5.701E-01   -5.696E-01   -5.690E-01   -5.685E-01   -5.679E-01
    -5.672E-01   -5.666E-01   -5.658E-01   -5.651E-01   -5.643E-01   -5.634E-01   -5.625E-01   -5.616E-01   -5.607E-01   -5.597E-01
    -5.586E-01   -5.575E-01   -5.564E-01   -5.552E-01   -5.540E-01   -5.528E-01   -5.515E-01   -5.502E-01   -5.488E-01   -5.474E-01
    -5.460E-01   -5.445E-01   -5.430E-01   -5.415E-01   -5.399E-01   -5.382E-01   -5.366E-01   -5.349E-01   -5.331E-01   -5.313E-01
    -5.295E-01   -5.277E-01   -5.258E-01   -5.238E-01   -5.219E-01   -5.199E-01   -5.178E-01   -5.157E-01   -5.136E-01   -5.115E-01
    -5.093E-01   -5.070E-01   -5.048E-01   -5.025E-01   -5.001E-01   -4.978E-01   -4.954E-01   -4.929E-01   -4.904E-01   -4.879E-01
    -4.854E-01   -4.828E-01   -4.802E-01   -4.775E-01   -4.748E-01   -4.721E-01   -4.693E-01   -4.665E-01   -4.637E-01   -4.608E-01
    -4.579E-01   -4.550E-01   -4.521E-01   -4.491E-01   -4.461E-01   -4.430E-01   -4.399E-01   -4.368E-01   -4.337E-01   -4.305E-01
    -4.273E-01   -4.241E-01   -4.208E-01   -4.176E-01   -4.142E-01   -4.109E-01   -4.075E-01   -4.042E-01   -4.007E-01   -3.973E-01
    -3.938E-01   -3.904E-01   -3.868E-01   -3.833E-01   -3.798E-01   -3.762E-01   -3.726E-01   -3.689E-01   -3.653E-01   -3.616E-01
    -3.579E-01   -3.542E-01   -3.505E-01   -3.467E-01   -3.430E-01   -3.392E-01   -3.353E-01   -3.315E-01   -3.277E-01   -3.238E-01
    -3.199E-01   -3.160E-01   -3.121E-01   -3.082E-01   -3.042E-01   -3.002E-01   -2.963E-01   -2.923E-01   -2.882E-01   -2.842E-01
    -2.802E-01   -2.761E-01   -2.720E-01   -2.680E-01   -2.639E-01   -2.597E-01   -2.556E-01   -2.515E-01   -2.473E-01   -2.431E-01
    -2.390E-01   -2.348E-01   -2.306E-01   -2.264E-01   -2.221E-01   -2.179E-01   -2.137E-01   -2.094E-01   -2.051E-01   -2.009E-01
    -1.966E-01   -1.923E-01   -1.880E-01   -1.837E-01   -1.794E-01   -1.750E-01   -1.707E-01   -1.664E-01   -1.620E-01   -1.577E-01
    -1.533E-01   -1.490E-01   -1.446E-01   -1.402E-01   -1.358E-01   -1.314E-01   -1.270E-01   -1.226E-01   -1.182E-01   -1.138E-01
    -1.094E-01   -1.050E-01   -1.006E-01   -9.615E-02   -9.173E-02   -8.729E-02   -8.286E-02   -7.842E-02   -7.397E-02   -6.953E-02
    -6.508E-02   -6.063E-02   -5.617E-02   -5.172E-02   -4.726E-02   -4.279E-02   -3.833E-02   -3.386E-02   -2.940E-02   -2.493E-02
    -2.046E-02   -1.599E-02   -1.151E-02   -7.039E-03   -2.565E-03    1.911E-03    6.387E-03    1.086E-02    1.534E-02    1.982E-02
     2.429E-02    2.877E-02    3.324E-02    3.772E-02    4.219E-02    4.667E-02    5.114E-02    5.561E-02
 Asp      Conc. = 1.61E+01
