 LCModel (Version 6.3-1L) Copyright: S.W. Provencher.          Ref.: Magn. Reson. Med. 30:672-679 (1993).                
 Slice#2 Row#5 Col#12  PD_05_press_1_raw_act
 36 lines in following concentration table = NCONC+1
    Conc.  %SD /Cr+PCr  Metabolite                                         
 1.18E+03  50%   2.870 Ala                                                 
   75.931 152%   0.185 Asp                                                 
    0.000 999%   0.000 Cr                                                  
  411.248  12%   1.000 PCr                                                 
   43.343 168%   0.105 GABA                                                
   97.269  73%   0.237 Glc                                                 
 2.71E+03  20%   6.594 Gln                                                 
 2.15E+03  34%   5.222 Glu                                                 
    0.000 999%   0.000 GPC                                                 
   92.991  22%   0.226 PCh                                                 
    0.000 999%   0.000 GSH                                                 
  277.774  84%   0.675 Ins                                                 
  589.076 116%   1.432 Lac                                                 
 1.48E+03   5%   3.597 NAA                                                 
    0.000 999%   0.000 NAAG                                                
   40.889  46% 9.9E-02 Scyllo                                              
  293.444  37%   0.714 Tau                                                 
  101.155  96%   0.246 -CrCH2                                              
   92.991  22%   0.226 GPC+PCh                                             
 1.48E+03   5%   3.597 NAA+NAAG                                            
  411.248  12%   1.000 Cr+PCr                                              
 4.86E+03  23%  11.816 Glu+Gln                                             
 8.95E+03  12%  21.765 Lip13a                                              
    0.000 999%   0.000 Lip13b                                              
 1.56E+03  30%   3.787 Lip09                                               
   29.898 999% 7.3E-02 MM09                                                
  414.942  69%   1.009 Lip20                                               
    0.000 999%   0.000 MM20                                                
  117.739 192%   0.286 MM12                                                
 2.68E+03  21%   6.512 MM14                                                
 1.86E+03  21%   4.518 MM17                                                
 8.95E+03  12%  21.765 Lip13a+Lip13b                                       
 1.17E+04   9%  28.564 MM14+Lip13a+Lip13b+MM12                             
 1.59E+03  21%   3.860 MM09+Lip09                                          
  414.942  69%   1.009 MM20+Lip20                                          
   6 lines in following misc. output table
  FWHM = 0.138 ppm    S/N =   9                                            
  Data shift = 0.023 ppm                                                   
  Ph: -42 deg     -26.1 deg/ppm                                            
  alphaB,S = 7.9E-01,   3.1E+02                                            
   12 spline knots.   Ns = 9(2)                                            
  (13) 2 infls.   ( 5) 1 extrs.                                            
  498 points on ppm-axis = NY
      4.000000     3.992357     3.984714     3.977070     3.969427     3.961784     3.954141     3.946497     3.938854     3.931211
      3.923568     3.915925     3.908281     3.900638     3.892995     3.885352     3.877708     3.870065     3.862422     3.854779
      3.847136     3.839492     3.831849     3.824206     3.816563     3.808919     3.801276     3.793633     3.785990     3.778347
      3.770703     3.763060     3.755417     3.747774     3.740130     3.732487     3.724844     3.717201     3.709558     3.701914
      3.694271     3.686628     3.678985     3.671341     3.663698     3.656055     3.648412     3.640769     3.633125     3.625482
      3.617839     3.610196     3.602552     3.594909     3.587266     3.579623     3.571980     3.564336     3.556693     3.549050
      3.541407     3.533763     3.526120     3.518477     3.510834     3.503191     3.495547     3.487904     3.480261     3.472618
      3.464974     3.457331     3.449688     3.442045     3.434402     3.426758     3.419115     3.411472     3.403829     3.396185
      3.388542     3.380899     3.373256     3.365613     3.357969     3.350326     3.342683     3.335040     3.327396     3.319753
      3.312110     3.304467     3.296824     3.289180     3.281537     3.273894     3.266251     3.258607     3.250964     3.243321
      3.235678     3.228034     3.220391     3.212748     3.205105     3.197462     3.189818     3.182175     3.174532     3.166889
      3.159245     3.151602     3.143959     3.136316     3.128673     3.121029     3.113386     3.105743     3.098100     3.090456
      3.082813     3.075170     3.067527     3.059884     3.052240     3.044597     3.036954     3.029311     3.021667     3.014024
      3.006381     2.998738     2.991095     2.983451     2.975808     2.968165     2.960522     2.952878     2.945235     2.937592
      2.929949     2.922306     2.914662     2.907019     2.899376     2.891733     2.884089     2.876446     2.868803     2.861160
      2.853517     2.845873     2.838230     2.830587     2.822944     2.815300     2.807657     2.800014     2.792371     2.784728
      2.777084     2.769441     2.761798     2.754155     2.746511     2.738868     2.731225     2.723582     2.715939     2.708295
      2.700652     2.693009     2.685366     2.677722     2.670079     2.662436     2.654793     2.647150     2.639506     2.631863
      2.624220     2.616577     2.608933     2.601290     2.593647     2.586004     2.578361     2.570717     2.563074     2.555431
      2.547788     2.540144     2.532501     2.524858     2.517215     2.509572     2.501928     2.494285     2.486642     2.478999
      2.471355     2.463712     2.456069     2.448426     2.440783     2.433139     2.425496     2.417853     2.410210     2.402566
      2.394923     2.387280     2.379637     2.371994     2.364350     2.356707     2.349064     2.341421     2.333777     2.326134
      2.318491     2.310848     2.303205     2.295561     2.287918     2.280275     2.272632     2.264988     2.257345     2.249702
      2.242059     2.234416     2.226772     2.219129     2.211486     2.203843     2.196199     2.188556     2.180913     2.173270
      2.165627     2.157983     2.150340     2.142697     2.135054     2.127410     2.119767     2.112124     2.104481     2.096838
      2.089194     2.081551     2.073908     2.066265     2.058621     2.050978     2.043335     2.035692     2.028049     2.020405
      2.012762     2.005119     1.997476     1.989833     1.982190     1.974546     1.966903     1.959260     1.951617     1.943974
      1.936331     1.928688     1.921045     1.913402     1.905759     1.898115     1.890472     1.882829     1.875186     1.867543
      1.859900     1.852257     1.844614     1.836971     1.829327     1.821684     1.814041     1.806398     1.798755     1.791112
      1.783469     1.775826     1.768183     1.760540     1.752896     1.745253     1.737610     1.729967     1.722324     1.714681
      1.707038     1.699395     1.691752     1.684108     1.676465     1.668822     1.661179     1.653536     1.645893     1.638250
      1.630607     1.622964     1.615321     1.607677     1.600034     1.592391     1.584748     1.577105     1.569462     1.561819
      1.554176     1.546533     1.538890     1.531246     1.523603     1.515960     1.508317     1.500674     1.493031     1.485388
      1.477745     1.470102     1.462458     1.454815     1.447172     1.439529     1.431886     1.424243     1.416600     1.408957
      1.401314     1.393671     1.386027     1.378384     1.370741     1.363098     1.355455     1.347812     1.340169     1.332526
      1.324883     1.317240     1.309596     1.301953     1.294310     1.286667     1.279024     1.271381     1.263738     1.256095
      1.248452     1.240808     1.233165     1.225522     1.217879     1.210236     1.202593     1.194950     1.187307     1.179664
      1.172021     1.164377     1.156734     1.149091     1.141448     1.133805     1.126162     1.118519     1.110876     1.103233
      1.095590     1.087946     1.080303     1.072660     1.065017     1.057374     1.049731     1.042088     1.034445     1.026802
      1.019158     1.011515     1.003872     0.996229     0.988586     0.980943     0.973300     0.965657     0.958014     0.950371
      0.942727     0.935084     0.927441     0.919798     0.912155     0.904512     0.896869     0.889226     0.881583     0.873940
      0.866296     0.858653     0.851010     0.843367     0.835724     0.828081     0.820438     0.812795     0.805152     0.797508
      0.789865     0.782222     0.774579     0.766936     0.759293     0.751650     0.744007     0.736364     0.728721     0.721077
      0.713434     0.705791     0.698148     0.690505     0.682862     0.675219     0.667576     0.659933     0.652290     0.644646
      0.637003     0.629360     0.621717     0.614074     0.606431     0.598788     0.591145     0.583502     0.575858     0.568215
      0.560572     0.552929     0.545286     0.537643     0.530000     0.522357     0.514714     0.507071     0.499427     0.491784
      0.484141     0.476498     0.468855     0.461212     0.453569     0.445925     0.438282     0.430639     0.422996     0.415353
      0.407710     0.400067     0.392424     0.384780     0.377137     0.369494     0.361851     0.354208     0.346565     0.338922
      0.331278     0.323635     0.315992     0.308349     0.300706     0.293063     0.285420     0.277777     0.270133     0.262490
      0.254847     0.247204     0.239561     0.231918     0.224275     0.216631     0.208988     0.201345
 NY phased data points follow
   6.94885E+00  9.75547E+00  8.12092E+00  1.05200E+01  9.45361E+00  6.08648E+00  8.15848E+00  5.87659E+00  7.95338E+00  7.74567E+00
   8.51346E+00  7.57244E+00  7.85255E+00  8.67198E+00  6.25068E+00  8.93441E+00  6.38915E+00  9.71181E+00  9.88991E+00  9.21984E+00
   9.40802E+00  7.27720E+00  8.60336E+00  1.07134E+01  1.05596E+01  9.11492E+00  8.19913E+00  6.89650E+00  8.70355E+00  7.21948E+00
   7.08757E+00  7.22949E+00  5.83724E+00  7.65814E+00  5.74620E+00  8.73938E+00  1.07121E+01  8.35205E+00  6.18825E+00  9.57885E+00
   7.80212E+00  8.64968E+00  4.94217E+00  8.90529E+00  5.99469E+00  6.54676E+00  4.57415E+00  4.90318E+00  6.93058E+00  6.44804E+00
   5.48042E+00  8.36932E+00  4.95599E+00  7.12557E+00  8.70797E+00  7.48257E+00  8.54006E+00  8.24109E+00  6.69550E+00  7.45798E+00
   8.85069E+00  6.70331E+00  7.68699E+00  7.26057E+00  6.52172E+00  8.62447E+00  7.54072E+00  8.08631E+00  5.45735E+00  6.78174E+00
   7.86159E+00  9.09695E+00  7.56054E+00  5.86853E+00  5.97467E+00  6.86210E+00  7.10210E+00  8.02298E+00  6.06614E+00  4.97957E+00
   7.86119E+00  8.14119E+00  8.25036E+00  6.19878E+00  8.97215E+00  8.17023E+00  8.04981E+00  6.08186E+00  6.17596E+00  6.06908E+00
   7.53355E+00  6.49292E+00  8.54659E+00  8.99643E+00  9.37176E+00  6.88803E+00  8.34232E+00  1.01993E+01  9.89643E+00  8.69988E+00
   1.01090E+01  1.12000E+01  7.48414E+00  9.74506E+00  8.68143E+00  1.03202E+01  8.77806E+00  7.34241E+00  7.19442E+00  6.66457E+00
   7.33168E+00  9.27427E+00  7.19761E+00  1.03816E+01  7.60464E+00  9.80853E+00  9.70085E+00  1.03116E+01  9.06078E+00  9.70930E+00
   1.12454E+01  9.49457E+00  1.21103E+01  1.15324E+01  1.39463E+01  9.57386E+00  9.93782E+00  1.07489E+01  7.38990E+00  9.47921E+00
   9.80117E+00  8.30445E+00  8.33366E+00  7.62032E+00  8.67433E+00  1.03660E+01  6.89412E+00  4.45268E+00  5.42320E+00  6.52995E+00
   5.91558E+00  5.07296E+00  5.04236E+00  7.44342E+00  6.98797E+00  7.17422E+00  5.49565E+00  6.17640E+00  5.16946E+00  4.99309E+00
   6.00578E+00  4.98324E+00  6.94419E+00  5.27518E+00  4.45633E+00  6.90931E+00  4.79654E+00  4.27353E+00  5.80697E+00  6.27458E+00
   5.95066E+00  5.67811E+00  5.72832E+00  4.42163E+00  4.47281E+00  5.96134E+00  5.51234E+00  5.11898E+00  3.53832E+00  4.41697E+00
   1.85629E+00  2.37405E+00  5.26541E+00  5.27612E+00  4.87317E+00  3.00581E+00  2.71857E+00  4.74253E+00  3.29431E+00  2.29513E+00
   4.52853E+00  2.92903E+00  4.81726E+00  4.43515E+00  5.01734E+00  3.87212E+00  4.44771E+00  4.49045E+00  5.85287E+00  5.39281E+00
   5.54021E+00  4.86108E+00  6.45980E+00  5.92180E+00  4.95040E+00  4.42789E+00  7.32826E+00  7.45892E+00  6.07684E+00  6.39530E+00
   6.73596E+00  5.44096E+00  8.19312E+00  7.16879E+00  1.01012E+01  7.32316E+00  6.05853E+00  9.22891E+00  7.82951E+00  7.32861E+00
   8.38630E+00  9.38773E+00  9.06492E+00  1.08661E+01  1.04713E+01  9.89430E+00  1.12764E+01  1.04533E+01  1.21704E+01  1.06317E+01
   1.34841E+01  8.68618E+00  1.07913E+01  8.98655E+00  9.83627E+00  8.80402E+00  1.25288E+01  1.06953E+01  9.10359E+00  1.06634E+01
   1.11060E+01  1.24573E+01  1.23139E+01  1.04174E+01  1.15743E+01  1.30878E+01  1.16107E+01  1.38281E+01  1.14193E+01  1.11439E+01
   1.07706E+01  1.27432E+01  1.34398E+01  1.64444E+01  1.67653E+01  1.31710E+01  1.54319E+01  1.64212E+01  1.69697E+01  1.85745E+01
   1.84437E+01  2.08700E+01  2.21805E+01  2.48758E+01  2.45484E+01  2.65863E+01  2.91683E+01  3.13370E+01  3.33049E+01  3.50320E+01
   3.43600E+01  3.49228E+01  3.38552E+01  3.26088E+01  3.37162E+01  3.20618E+01  3.09554E+01  2.87705E+01  2.78272E+01  2.74303E+01
   2.85264E+01  2.60151E+01  2.12364E+01  2.17474E+01  2.11829E+01  2.31621E+01  2.13823E+01  1.97952E+01  1.84652E+01  2.14475E+01
   1.90377E+01  2.07026E+01  2.02648E+01  2.19138E+01  1.90360E+01  2.13050E+01  1.98131E+01  2.26534E+01  2.23430E+01  2.04548E+01
   2.39063E+01  2.22886E+01  2.15239E+01  2.21801E+01  2.12102E+01  2.36122E+01  2.40372E+01  2.37747E+01  2.38021E+01  2.59852E+01
   2.54131E+01  2.22200E+01  2.53438E+01  2.62835E+01  2.59204E+01  2.82324E+01  2.74295E+01  2.85478E+01  3.07468E+01  2.82216E+01
   3.00111E+01  3.05951E+01  2.99697E+01  3.18678E+01  3.02421E+01  2.95009E+01  3.22301E+01  2.98441E+01  3.40304E+01  3.18718E+01
   3.39848E+01  3.73786E+01  3.58464E+01  3.63413E+01  3.65423E+01  3.79819E+01  3.91855E+01  3.93099E+01  3.87985E+01  3.98672E+01
   4.21009E+01  3.89355E+01  4.12864E+01  4.41484E+01  4.09895E+01  4.00855E+01  4.36623E+01  4.14385E+01  4.27725E+01  4.36072E+01
   4.31493E+01  4.24730E+01  4.16975E+01  4.08071E+01  4.15434E+01  4.16728E+01  4.12640E+01  4.13051E+01  4.14419E+01  4.17215E+01
   3.97134E+01  3.98181E+01  4.12141E+01  4.11073E+01  4.03086E+01  4.21771E+01  3.98697E+01  3.83128E+01  4.00662E+01  3.80677E+01
   3.77558E+01  3.65846E+01  3.91627E+01  3.93093E+01  3.68785E+01  3.99813E+01  3.80222E+01  3.76253E+01  3.61299E+01  3.72068E+01
   3.76135E+01  3.58687E+01  3.27392E+01  3.37000E+01  3.32307E+01  3.18242E+01  3.02138E+01  3.32677E+01  3.33258E+01  3.08139E+01
   2.73636E+01  2.76374E+01  2.74325E+01  2.98895E+01  2.66119E+01  2.76769E+01  2.80982E+01  2.86340E+01  2.58482E+01  2.59262E+01
   2.51869E+01  2.47598E+01  2.76649E+01  2.82864E+01  2.46442E+01  2.56611E+01  2.70585E+01  2.50445E+01  2.41221E+01  2.47529E+01
   2.58215E+01  2.33862E+01  2.45487E+01  2.37272E+01  2.36055E+01  2.18379E+01  2.42484E+01  2.48527E+01  2.24102E+01  2.22515E+01
   2.06486E+01  2.15848E+01  2.31342E+01  2.29307E+01  2.10658E+01  2.20824E+01  1.83249E+01  1.85725E+01  1.86301E+01  1.91748E+01
   1.83165E+01  1.67906E+01  1.83265E+01  1.35438E+01  1.57372E+01  1.35150E+01  1.53531E+01  1.50167E+01  1.55527E+01  1.34668E+01
   1.42566E+01  1.32166E+01  1.48071E+01  1.11868E+01  1.24472E+01  1.38247E+01  1.27155E+01  1.15489E+01  1.28983E+01  1.17957E+01
   1.09776E+01  1.18949E+01  1.69062E+01  8.88261E+00  9.71769E+00  1.11614E+01  1.09464E+01  1.32027E+01  1.34010E+01  1.15374E+01
   1.20131E+01  1.25587E+01  1.01612E+01  1.03616E+01  9.76560E+00  9.93970E+00  7.84557E+00  9.23920E+00  8.01533E+00  8.57714E+00
   8.01548E+00  9.85631E+00  1.13313E+01  8.93959E+00  9.96829E+00  9.39063E+00  8.75597E+00  9.36716E+00  9.54604E+00  9.30009E+00
   8.25307E+00  7.68186E+00  9.10137E+00  7.64257E+00  9.21785E+00  8.73909E+00  8.33364E+00  9.41809E+00  8.15699E+00  7.71450E+00
   7.70215E+00  6.56489E+00  8.27279E+00  6.99605E+00  7.74846E+00  8.33469E+00  4.97894E+00  8.32968E+00  7.31531E+00  9.53966E+00
   7.31280E+00  4.81186E+00  5.43854E+00  6.91988E+00  6.89112E+00  7.98049E+00  6.52859E+00  4.42742E+00
 NY points of the fit to the data follow
   7.18182E+00  7.41041E+00  7.51841E+00  7.73856E+00  7.88883E+00  8.13030E+00  8.28331E+00  8.56481E+00  8.58155E+00  8.76585E+00
   8.56531E+00  8.65924E+00  8.28064E+00  8.42702E+00  8.11979E+00  8.42525E+00  8.17596E+00  8.52136E+00  8.22937E+00  8.49306E+00
   8.09638E+00  8.34906E+00  7.98327E+00  8.20662E+00  7.89545E+00  8.06639E+00  7.83639E+00  7.96336E+00  7.85518E+00  7.97421E+00
   8.06949E+00  8.13542E+00  8.25107E+00  8.23781E+00  8.33935E+00  8.24397E+00  8.31712E+00  8.15392E+00  8.22230E+00  8.02157E+00
   8.07338E+00  7.85262E+00  7.91790E+00  7.69596E+00  7.78438E+00  7.59189E+00  7.76079E+00  7.65655E+00  7.74594E+00  7.52819E+00
   7.46143E+00  7.18696E+00  7.02130E+00  6.82242E+00  6.82837E+00  6.78766E+00  6.85225E+00  6.84066E+00  6.85043E+00  6.79469E+00
   6.71167E+00  6.71526E+00  6.63949E+00  6.67850E+00  6.60473E+00  6.67239E+00  6.59804E+00  6.69626E+00  6.66150E+00  6.77647E+00
   6.77667E+00  6.86765E+00  6.88052E+00  6.92896E+00  6.97320E+00  6.96146E+00  7.03387E+00  6.95511E+00  7.06220E+00  6.92109E+00
   7.08015E+00  6.89994E+00  7.09274E+00  6.88636E+00  7.13314E+00  7.01376E+00  7.25158E+00  7.20025E+00  7.38648E+00  7.41889E+00
   7.53598E+00  7.68441E+00  7.71448E+00  8.00594E+00  7.95163E+00  8.39335E+00  8.23777E+00  8.83355E+00  8.56579E+00  9.24099E+00
   8.84084E+00  9.50731E+00  8.96547E+00  9.55384E+00  8.91693E+00  9.38682E+00  8.71008E+00  9.09739E+00  8.63513E+00  8.91228E+00
   8.59069E+00  8.75584E+00  8.57766E+00  8.66213E+00  8.65075E+00  8.66809E+00  8.84116E+00  8.83027E+00  9.16690E+00  9.10933E+00
   9.58093E+00  9.46093E+00  9.98623E+00  9.78341E+00  1.03149E+01  1.01139E+01  1.04958E+01  1.01985E+01  1.03798E+01  9.99779E+00
   9.98065E+00  9.54326E+00  9.36790E+00  8.92366E+00  8.66422E+00  8.25087E+00  7.95266E+00  7.59086E+00  7.28558E+00  6.99798E+00
   6.74778E+00  6.52760E+00  6.29236E+00  6.10207E+00  5.87332E+00  5.71932E+00  5.53433E+00  5.48078E+00  5.49321E+00  5.48477E+00
   5.49880E+00  5.48354E+00  5.48956E+00  5.46452E+00  5.45830E+00  5.42250E+00  5.39679E+00  5.34712E+00  5.28784E+00  5.23738E+00
   5.16679E+00  5.12411E+00  5.03677E+00  4.98099E+00  4.88006E+00  4.81878E+00  4.71845E+00  4.65295E+00  4.55653E+00  4.46713E+00
   4.40966E+00  4.31209E+00  4.31597E+00  4.21993E+00  4.29364E+00  4.18904E+00  4.30814E+00  4.20363E+00  4.34455E+00  4.24872E+00
   4.40078E+00  4.32162E+00  4.47647E+00  4.46911E+00  4.69348E+00  4.81601E+00  5.08901E+00  5.38064E+00  5.62927E+00  5.97959E+00
   6.13766E+00  6.42819E+00  6.29182E+00  6.63348E+00  6.41116E+00  6.85294E+00  6.65820E+00  7.24856E+00  7.16609E+00  7.74906E+00
   7.68443E+00  8.12473E+00  8.00213E+00  8.17406E+00  7.93226E+00  7.86087E+00  7.71492E+00  7.52631E+00  7.61806E+00  7.37986E+00
   7.81946E+00  7.55412E+00  8.30854E+00  7.96926E+00  8.93279E+00  8.50871E+00  9.52263E+00  8.99670E+00  9.79845E+00  9.29968E+00
   9.94471E+00  9.62188E+00  1.01774E+01  1.01981E+01  1.06481E+01  1.08683E+01  1.12409E+01  1.16023E+01  1.18560E+01  1.21838E+01
   1.22885E+01  1.23900E+01  1.21533E+01  1.21797E+01  1.20092E+01  1.19799E+01  1.19771E+01  1.19197E+01  1.22366E+01  1.19657E+01
   1.24755E+01  1.21115E+01  1.33560E+01  1.30754E+01  1.45576E+01  1.43915E+01  1.61160E+01  1.62356E+01  1.81586E+01  1.86649E+01
   2.07236E+01  2.16126E+01  2.36914E+01  2.48633E+01  2.67932E+01  2.81519E+01  2.97256E+01  3.10134E+01  3.18480E+01  3.29675E+01
   3.30120E+01  3.38932E+01  3.31609E+01  3.37794E+01  3.23073E+01  3.24726E+01  3.05476E+01  3.04029E+01  2.83169E+01  2.79915E+01
   2.59798E+01  2.55519E+01  2.37198E+01  2.33233E+01  2.19249E+01  2.16400E+01  2.05418E+01  2.03139E+01  1.94207E+01  1.92186E+01
   1.85690E+01  1.85573E+01  1.87379E+01  1.90121E+01  1.93045E+01  1.96507E+01  2.00177E+01  2.03990E+01  2.08111E+01  2.12306E+01
   2.16681E+01  2.21032E+01  2.25438E+01  2.29732E+01  2.33951E+01  2.38114E+01  2.42110E+01  2.45962E+01  2.49557E+01  2.52968E+01
   2.56072E+01  2.58997E+01  2.61616E+01  2.64144E+01  2.66512E+01  2.68954E+01  2.71496E+01  2.74475E+01  2.78247E+01  2.83301E+01
   2.86929E+01  2.92496E+01  2.95942E+01  3.01942E+01  3.05412E+01  3.11858E+01  3.14960E+01  3.23693E+01  3.28175E+01  3.38285E+01
   3.43574E+01  3.53765E+01  3.58940E+01  3.68136E+01  3.72701E+01  3.80040E+01  3.84314E+01  3.89448E+01  3.94458E+01  3.98149E+01
   4.03772E+01  4.05232E+01  4.11900E+01  4.11178E+01  4.18764E+01  4.15936E+01  4.23450E+01  4.19931E+01  4.26791E+01  4.22514E+01
   4.27818E+01  4.23169E+01  4.25830E+01  4.20917E+01  4.21210E+01  4.16686E+01  4.15506E+01  4.12311E+01  4.10874E+01  4.10966E+01
   4.08289E+01  4.08953E+01  4.05717E+01  4.06840E+01  4.02984E+01  4.03907E+01  3.99004E+01  4.01112E+01  3.97391E+01  3.98733E+01
   3.95002E+01  3.94944E+01  3.90568E+01  3.88731E+01  3.83677E+01  3.80196E+01  3.74701E+01  3.70034E+01  3.64574E+01  3.59959E+01
   3.53791E+01  3.47956E+01  3.41403E+01  3.34703E+01  3.27980E+01  3.20691E+01  3.14127E+01  3.08092E+01  3.02392E+01  2.97071E+01
   2.92060E+01  2.87435E+01  2.83136E+01  2.79240E+01  2.75681E+01  2.72524E+01  2.69697E+01  2.67252E+01  2.65105E+01  2.63297E+01
   2.61730E+01  2.60437E+01  2.59306E+01  2.58361E+01  2.57484E+01  2.56689E+01  2.55856E+01  2.54997E+01  2.53993E+01  2.52861E+01
   2.51490E+01  2.49908E+01  2.48015E+01  2.45856E+01  2.43349E+01  2.40556E+01  2.37413E+01  2.34001E+01  2.30273E+01  2.26325E+01
   2.22122E+01  2.17770E+01  2.13242E+01  2.08647E+01  2.03959E+01  1.99286E+01  1.94598E+01  1.89995E+01  1.85441E+01  1.81028E+01
   1.76711E+01  1.72571E+01  1.68554E+01  1.64735E+01  1.61051E+01  1.57569E+01  1.54222E+01  1.51072E+01  1.48048E+01  1.45208E+01
   1.42479E+01  1.39919E+01  1.37454E+01  1.35141E+01  1.32907E+01  1.30808E+01  1.28772E+01  1.26858E+01  1.24991E+01  1.23234E+01
   1.21512E+01  1.19888E+01  1.18290E+01  1.16780E+01  1.15287E+01  1.13874E+01  1.12472E+01  1.11142E+01  1.09816E+01  1.08558E+01
   1.07299E+01  1.06103E+01  1.04901E+01  1.03759E+01  1.02607E+01  1.01512E+01  1.00404E+01  9.93496E+00  9.82809E+00  9.72623E+00
   9.62277E+00  9.52411E+00  9.42367E+00  9.32785E+00  9.23009E+00  9.13681E+00  9.04146E+00  8.95045E+00  8.85725E+00  8.76828E+00
   8.67702E+00  8.58989E+00  8.50038E+00  8.41491E+00  8.32699E+00  8.24303E+00  8.15655E+00  8.07396E+00  7.98880E+00  7.90747E+00
   7.82351E+00  7.74333E+00  7.66048E+00  7.58136E+00  7.49954E+00  7.42140E+00  7.34052E+00  7.26330E+00  7.18332E+00  7.10697E+00
   7.02783E+00  6.95231E+00  6.87399E+00  6.79928E+00  6.72179E+00  6.64792E+00  6.57129E+00  6.49832E+00
 NY background values follow
     4.294E+00    4.297E+00    4.301E+00    4.304E+00    4.308E+00    4.312E+00    4.317E+00    4.321E+00    4.325E+00    4.330E+00
     4.334E+00    4.339E+00    4.344E+00    4.349E+00    4.354E+00    4.359E+00    4.364E+00    4.370E+00    4.375E+00    4.381E+00
     4.386E+00    4.392E+00    4.398E+00    4.403E+00    4.409E+00    4.415E+00    4.421E+00    4.427E+00    4.433E+00    4.439E+00
     4.445E+00    4.451E+00    4.458E+00    4.464E+00    4.470E+00    4.476E+00    4.482E+00    4.488E+00    4.495E+00    4.501E+00
     4.507E+00    4.513E+00    4.519E+00    4.526E+00    4.532E+00    4.538E+00    4.544E+00    4.550E+00    4.556E+00    4.562E+00
     4.567E+00    4.573E+00    4.579E+00    4.585E+00    4.590E+00    4.596E+00    4.601E+00    4.607E+00    4.612E+00    4.617E+00
     4.623E+00    4.628E+00    4.633E+00    4.638E+00    4.643E+00    4.648E+00    4.652E+00    4.657E+00    4.662E+00    4.667E+00
     4.671E+00    4.676E+00    4.680E+00    4.685E+00    4.689E+00    4.693E+00    4.698E+00    4.702E+00    4.706E+00    4.711E+00
     4.715E+00    4.719E+00    4.723E+00    4.727E+00    4.731E+00    4.735E+00    4.740E+00    4.744E+00    4.748E+00    4.752E+00
     4.756E+00    4.760E+00    4.764E+00    4.768E+00    4.772E+00    4.775E+00    4.779E+00    4.783E+00    4.787E+00    4.791E+00
     4.795E+00    4.799E+00    4.803E+00    4.807E+00    4.811E+00    4.815E+00    4.820E+00    4.824E+00    4.828E+00    4.832E+00
     4.836E+00    4.840E+00    4.844E+00    4.849E+00    4.853E+00    4.857E+00    4.862E+00    4.867E+00    4.871E+00    4.876E+00
     4.882E+00    4.887E+00    4.892E+00    4.898E+00    4.904E+00    4.910E+00    4.917E+00    4.924E+00    4.931E+00    4.938E+00
     4.946E+00    4.954E+00    4.962E+00    4.971E+00    4.980E+00    4.990E+00    5.000E+00    5.011E+00    5.022E+00    5.033E+00
     5.045E+00    5.058E+00    5.071E+00    5.084E+00    5.099E+00    5.113E+00    5.129E+00    5.145E+00    5.161E+00    5.179E+00
     5.197E+00    5.215E+00    5.234E+00    5.254E+00    5.275E+00    5.297E+00    5.319E+00    5.342E+00    5.366E+00    5.391E+00
     5.416E+00    5.442E+00    5.470E+00    5.498E+00    5.527E+00    5.557E+00    5.587E+00    5.619E+00    5.652E+00    5.686E+00
     5.720E+00    5.755E+00    5.792E+00    5.829E+00    5.867E+00    5.906E+00    5.945E+00    5.986E+00    6.027E+00    6.069E+00
     6.112E+00    6.155E+00    6.199E+00    6.244E+00    6.290E+00    6.336E+00    6.383E+00    6.431E+00    6.479E+00    6.528E+00
     6.578E+00    6.628E+00    6.679E+00    6.730E+00    6.782E+00    6.835E+00    6.888E+00    6.942E+00    6.996E+00    7.050E+00
     7.105E+00    7.161E+00    7.217E+00    7.274E+00    7.331E+00    7.388E+00    7.446E+00    7.504E+00    7.563E+00    7.622E+00
     7.681E+00    7.740E+00    7.800E+00    7.861E+00    7.921E+00    7.982E+00    8.043E+00    8.105E+00    8.166E+00    8.228E+00
     8.290E+00    8.353E+00    8.415E+00    8.478E+00    8.541E+00    8.604E+00    8.667E+00    8.730E+00    8.793E+00    8.857E+00
     8.920E+00    8.984E+00    9.047E+00    9.110E+00    9.174E+00    9.237E+00    9.301E+00    9.364E+00    9.427E+00    9.490E+00
     9.553E+00    9.615E+00    9.678E+00    9.740E+00    9.803E+00    9.864E+00    9.926E+00    9.988E+00    1.005E+01    1.011E+01
     1.017E+01    1.023E+01    1.029E+01    1.035E+01    1.041E+01    1.047E+01    1.053E+01    1.058E+01    1.064E+01    1.070E+01
     1.075E+01    1.081E+01    1.087E+01    1.092E+01    1.097E+01    1.103E+01    1.108E+01    1.113E+01    1.118E+01    1.124E+01
     1.129E+01    1.134E+01    1.138E+01    1.143E+01    1.148E+01    1.153E+01    1.157E+01    1.162E+01    1.166E+01    1.171E+01
     1.175E+01    1.179E+01    1.183E+01    1.187E+01    1.191E+01    1.195E+01    1.199E+01    1.202E+01    1.206E+01    1.210E+01
     1.213E+01    1.216E+01    1.220E+01    1.223E+01    1.226E+01    1.229E+01    1.232E+01    1.235E+01    1.238E+01    1.240E+01
     1.243E+01    1.246E+01    1.248E+01    1.251E+01    1.253E+01    1.255E+01    1.257E+01    1.259E+01    1.261E+01    1.263E+01
     1.265E+01    1.267E+01    1.268E+01    1.270E+01    1.271E+01    1.273E+01    1.274E+01    1.275E+01    1.276E+01    1.278E+01
     1.279E+01    1.279E+01    1.280E+01    1.281E+01    1.282E+01    1.282E+01    1.283E+01    1.283E+01    1.283E+01    1.284E+01
     1.284E+01    1.284E+01    1.284E+01    1.284E+01    1.284E+01    1.283E+01    1.283E+01    1.283E+01    1.282E+01    1.281E+01
     1.281E+01    1.280E+01    1.279E+01    1.278E+01    1.277E+01    1.276E+01    1.275E+01    1.274E+01    1.273E+01    1.271E+01
     1.270E+01    1.268E+01    1.267E+01    1.265E+01    1.263E+01    1.262E+01    1.260E+01    1.258E+01    1.256E+01    1.254E+01
     1.251E+01    1.249E+01    1.247E+01    1.244E+01    1.242E+01    1.240E+01    1.237E+01    1.234E+01    1.232E+01    1.229E+01
     1.226E+01    1.223E+01    1.220E+01    1.217E+01    1.214E+01    1.211E+01    1.207E+01    1.204E+01    1.201E+01    1.197E+01
     1.194E+01    1.190E+01    1.187E+01    1.183E+01    1.179E+01    1.176E+01    1.172E+01    1.168E+01    1.164E+01    1.160E+01
     1.156E+01    1.152E+01    1.147E+01    1.143E+01    1.139E+01    1.135E+01    1.130E+01    1.126E+01    1.121E+01    1.117E+01
     1.112E+01    1.108E+01    1.103E+01    1.098E+01    1.093E+01    1.089E+01    1.084E+01    1.079E+01    1.074E+01    1.069E+01
     1.064E+01    1.059E+01    1.054E+01    1.049E+01    1.044E+01    1.038E+01    1.033E+01    1.028E+01    1.023E+01    1.017E+01
     1.012E+01    1.007E+01    1.001E+01    9.957E+00    9.903E+00    9.848E+00    9.793E+00    9.738E+00    9.682E+00    9.627E+00
     9.571E+00    9.515E+00    9.458E+00    9.402E+00    9.345E+00    9.288E+00    9.231E+00    9.174E+00    9.117E+00    9.060E+00
     9.002E+00    8.944E+00    8.887E+00    8.829E+00    8.771E+00    8.713E+00    8.655E+00    8.596E+00    8.538E+00    8.480E+00
     8.421E+00    8.363E+00    8.304E+00    8.245E+00    8.186E+00    8.127E+00    8.068E+00    8.009E+00    7.950E+00    7.891E+00
     7.831E+00    7.772E+00    7.712E+00    7.653E+00    7.593E+00    7.533E+00    7.474E+00    7.414E+00    7.354E+00    7.294E+00
     7.233E+00    7.173E+00    7.113E+00    7.053E+00    6.992E+00    6.932E+00    6.871E+00    6.810E+00    6.750E+00    6.689E+00
     6.628E+00    6.567E+00    6.506E+00    6.445E+00    6.384E+00    6.323E+00    6.262E+00    6.201E+00    6.139E+00    6.078E+00
     6.016E+00    5.955E+00    5.893E+00    5.832E+00    5.770E+00    5.708E+00    5.647E+00    5.585E+00
 Ala      Conc. = 1.18E+03
