 LCModel (Version 6.3-1L) Copyright: S.W. Provencher.          Ref.: Magn. Reson. Med. 30:672-679 (1993).                
 Slice#2 Row#2 Col#6  PD_05_press_1_raw_act
 36 lines in following concentration table = NCONC+1
    Conc.  %SD /Cr+PCr  Metabolite                                         
    0.000 999%   0.000 Ala                                                 
   69.340 122%   0.135 Asp                                                 
  431.908  62%   0.841 Cr                                                  
   81.835 327%   0.159 PCr                                                 
   43.512 121% 8.5E-02 GABA                                                
   55.467  94%   0.108 Glc                                                 
    0.000 999%   0.000 Gln                                                 
    0.000 999%   0.000 Glu                                                 
   88.995 114%   0.173 GPC                                                 
  112.088  91%   0.218 PCh                                                 
  301.007  25%   0.586 GSH                                                 
  749.204  34%   1.458 Ins                                                 
    0.000 999%   0.000 Lac                                                 
 1.00E+03   8%   1.951 NAA                                                 
    0.000 999%   0.000 NAAG                                                
   34.938  42% 6.8E-02 Scyllo                                              
  119.801  68%   0.233 Tau                                                 
  224.710  39%   0.437 -CrCH2                                              
  201.083  10%   0.391 GPC+PCh                                             
 1.00E+03   8%   1.951 NAA+NAAG                                            
  513.743  10%   1.000 Cr+PCr                                              
    0.000 999%   0.000 Glu+Gln                                             
    0.000 999%   0.000 Lip13a                                              
    0.000 999%   0.000 Lip13b                                              
   66.168 116%   0.129 Lip09                                               
 1.36E+03  11%   2.651 MM09                                                
   16.664 337% 3.2E-02 Lip20                                               
 1.88E+03  15%   3.659 MM20                                                
    0.000 999%   0.000 MM12                                                
    0.000 999%   0.000 MM14                                                
  524.043  26%   1.020 MM17                                                
    0.000 999%   0.000 Lip13a+Lip13b                                       
    0.000 999%   0.000 MM14+Lip13a+Lip13b+MM12                             
 1.43E+03   9%   2.779 MM09+Lip09                                          
 1.90E+03  14%   3.691 MM20+Lip20                                          
   6 lines in following misc. output table
  FWHM = 0.092 ppm    S/N =   5                                            
  Data shift = 0.000 ppm                                                   
  Ph:  19 deg       8.4 deg/ppm                                            
  alphaB,S = 5.3E-01,   5.1E+01                                            
   14 spline knots.   Ns = 7(2)                                            
  (11) 1 infls.   ( 2) 2 extrs.                                            
  498 points on ppm-axis = NY
      4.000000     3.992357     3.984714     3.977070     3.969427     3.961784     3.954141     3.946497     3.938854     3.931211
      3.923568     3.915925     3.908281     3.900638     3.892995     3.885352     3.877708     3.870065     3.862422     3.854779
      3.847136     3.839492     3.831849     3.824206     3.816563     3.808919     3.801276     3.793633     3.785990     3.778347
      3.770703     3.763060     3.755417     3.747774     3.740130     3.732487     3.724844     3.717201     3.709558     3.701914
      3.694271     3.686628     3.678985     3.671341     3.663698     3.656055     3.648412     3.640769     3.633125     3.625482
      3.617839     3.610196     3.602552     3.594909     3.587266     3.579623     3.571980     3.564336     3.556693     3.549050
      3.541407     3.533763     3.526120     3.518477     3.510834     3.503191     3.495547     3.487904     3.480261     3.472618
      3.464974     3.457331     3.449688     3.442045     3.434402     3.426758     3.419115     3.411472     3.403829     3.396185
      3.388542     3.380899     3.373256     3.365613     3.357969     3.350326     3.342683     3.335040     3.327396     3.319753
      3.312110     3.304467     3.296824     3.289180     3.281537     3.273894     3.266251     3.258607     3.250964     3.243321
      3.235678     3.228034     3.220391     3.212748     3.205105     3.197462     3.189818     3.182175     3.174532     3.166889
      3.159245     3.151602     3.143959     3.136316     3.128673     3.121029     3.113386     3.105743     3.098100     3.090456
      3.082813     3.075170     3.067527     3.059884     3.052240     3.044597     3.036954     3.029311     3.021667     3.014024
      3.006381     2.998738     2.991095     2.983451     2.975808     2.968165     2.960522     2.952878     2.945235     2.937592
      2.929949     2.922306     2.914662     2.907019     2.899376     2.891733     2.884089     2.876446     2.868803     2.861160
      2.853517     2.845873     2.838230     2.830587     2.822944     2.815300     2.807657     2.800014     2.792371     2.784728
      2.777084     2.769441     2.761798     2.754155     2.746511     2.738868     2.731225     2.723582     2.715939     2.708295
      2.700652     2.693009     2.685366     2.677722     2.670079     2.662436     2.654793     2.647150     2.639506     2.631863
      2.624220     2.616577     2.608933     2.601290     2.593647     2.586004     2.578361     2.570717     2.563074     2.555431
      2.547788     2.540144     2.532501     2.524858     2.517215     2.509572     2.501928     2.494285     2.486642     2.478999
      2.471355     2.463712     2.456069     2.448426     2.440783     2.433139     2.425496     2.417853     2.410210     2.402566
      2.394923     2.387280     2.379637     2.371994     2.364350     2.356707     2.349064     2.341421     2.333777     2.326134
      2.318491     2.310848     2.303205     2.295561     2.287918     2.280275     2.272632     2.264988     2.257345     2.249702
      2.242059     2.234416     2.226772     2.219129     2.211486     2.203843     2.196199     2.188556     2.180913     2.173270
      2.165627     2.157983     2.150340     2.142697     2.135054     2.127410     2.119767     2.112124     2.104481     2.096838
      2.089194     2.081551     2.073908     2.066265     2.058621     2.050978     2.043335     2.035692     2.028049     2.020405
      2.012762     2.005119     1.997476     1.989833     1.982190     1.974546     1.966903     1.959260     1.951617     1.943974
      1.936331     1.928688     1.921045     1.913402     1.905759     1.898115     1.890472     1.882829     1.875186     1.867543
      1.859900     1.852257     1.844614     1.836971     1.829327     1.821684     1.814041     1.806398     1.798755     1.791112
      1.783469     1.775826     1.768183     1.760540     1.752896     1.745253     1.737610     1.729967     1.722324     1.714681
      1.707038     1.699395     1.691752     1.684108     1.676465     1.668822     1.661179     1.653536     1.645893     1.638250
      1.630607     1.622964     1.615321     1.607677     1.600034     1.592391     1.584748     1.577105     1.569462     1.561819
      1.554176     1.546533     1.538890     1.531246     1.523603     1.515960     1.508317     1.500674     1.493031     1.485388
      1.477745     1.470102     1.462458     1.454815     1.447172     1.439529     1.431886     1.424243     1.416600     1.408957
      1.401314     1.393671     1.386027     1.378384     1.370741     1.363098     1.355455     1.347812     1.340169     1.332526
      1.324883     1.317240     1.309596     1.301953     1.294310     1.286667     1.279024     1.271381     1.263738     1.256095
      1.248452     1.240808     1.233165     1.225522     1.217879     1.210236     1.202593     1.194950     1.187307     1.179664
      1.172021     1.164377     1.156734     1.149091     1.141448     1.133805     1.126162     1.118519     1.110876     1.103233
      1.095590     1.087946     1.080303     1.072660     1.065017     1.057374     1.049731     1.042088     1.034445     1.026802
      1.019158     1.011515     1.003872     0.996229     0.988586     0.980943     0.973300     0.965657     0.958014     0.950371
      0.942727     0.935084     0.927441     0.919798     0.912155     0.904512     0.896869     0.889226     0.881583     0.873940
      0.866296     0.858653     0.851010     0.843367     0.835724     0.828081     0.820438     0.812795     0.805152     0.797508
      0.789865     0.782222     0.774579     0.766936     0.759293     0.751650     0.744007     0.736364     0.728721     0.721077
      0.713434     0.705791     0.698148     0.690505     0.682862     0.675219     0.667576     0.659933     0.652290     0.644646
      0.637003     0.629360     0.621717     0.614074     0.606431     0.598788     0.591145     0.583502     0.575858     0.568215
      0.560572     0.552929     0.545286     0.537643     0.530000     0.522357     0.514714     0.507071     0.499427     0.491784
      0.484141     0.476498     0.468855     0.461212     0.453569     0.445925     0.438282     0.430639     0.422996     0.415353
      0.407710     0.400067     0.392424     0.384780     0.377137     0.369494     0.361851     0.354208     0.346565     0.338922
      0.331278     0.323635     0.315992     0.308349     0.300706     0.293063     0.285420     0.277777     0.270133     0.262490
      0.254847     0.247204     0.239561     0.231918     0.224275     0.216631     0.208988     0.201345
 NY phased data points follow
  -4.12480E+00  2.43602E+00  3.20965E+00  1.48696E+00  3.34680E+00  8.53098E-01  1.90478E+00  1.11301E+00  4.56427E+00  3.08893E+00
   2.46026E+00  5.52314E+00  1.79762E+00  5.76952E+00  6.11713E+00  6.36240E-01  3.25718E+00  3.34926E+00  1.20820E+00  6.53178E-01
   1.60438E+00  4.96273E+00  2.81977E-01  5.11986E+00  4.68357E+00  4.44434E+00  1.58034E+00  5.65140E+00  4.15870E+00 -7.45279E-01
   5.38219E+00  3.11185E+00  3.52981E+00  5.46797E+00  4.21681E+00  2.70564E+00  3.09160E+00  3.63576E+00  7.49683E+00  1.23370E+00
   3.89876E+00  7.84733E+00  1.83117E+00  3.74799E+00  7.47813E+00  3.38191E+00  3.43928E+00  2.61800E+00  4.59459E+00  5.11208E+00
   5.67394E+00  6.24733E+00  8.41286E-01  4.97764E+00  2.34976E+00  2.72477E+00  5.44909E+00  2.78846E+00  2.45626E+00  4.02991E+00
   5.70106E+00  3.52894E+00  4.44845E+00  1.66918E+00 -5.43560E-01  2.92439E+00  4.01465E+00  3.76139E+00  3.88246E+00 -1.82458E+00
   9.05065E-01  3.72654E+00  2.96162E+00  6.90312E-01  2.17049E+00 -7.39437E-01  1.47062E+00  2.68394E+00 -9.43954E-01  4.71928E+00
   1.31336E+00 -8.30986E-02  3.92417E+00  2.49901E+00  1.43537E+00  2.05541E+00  2.05883E+00  3.78851E+00  5.15247E-01 -5.21942E-01
   3.05540E+00 -7.18592E-01 -1.66365E+00  1.18463E-01 -1.61795E+00  9.87643E-01  4.06108E+00  7.90687E+00  8.70000E+00  7.66808E+00
   1.02201E+01  8.06209E+00  8.84765E+00  8.72913E+00  9.62552E+00  1.07420E+01  9.73342E+00  8.06057E+00  7.08279E+00  7.99554E+00
   1.01395E+01  6.60298E+00  4.60181E+00  7.32040E+00  2.20107E+00  3.07853E+00  4.08475E+00  4.83857E+00  7.89080E-01  4.60831E+00
   8.56731E+00  7.03817E+00  9.27410E+00  1.02172E+01  9.44126E+00  1.03455E+01  1.09100E+01  1.25455E+01  1.35268E+01  1.44583E+01
   1.03730E+01  7.32185E+00  6.08147E+00  8.14865E+00  7.30577E+00  9.09283E+00  6.01847E+00  5.83114E+00  3.41599E+00  1.22891E+00
   4.73919E+00  3.40469E+00  4.18945E+00  2.06894E+00  5.77039E+00  4.62167E+00  2.84189E-02  2.97027E+00  2.39077E+00  3.19998E+00
   1.33487E+00  4.71008E-01 -8.20153E-01  1.03583E+00  1.07453E+00 -3.68909E+00 -7.74975E-01 -3.77997E-01 -3.58116E-01 -4.23089E-01
   9.17993E-01 -1.75152E-02  8.58442E-01 -6.89194E-03  2.05295E+00 -4.21909E-01  2.94491E+00 -6.35775E-01 -5.76776E-01 -1.61644E+00
  -3.20517E+00 -1.77680E+00  7.84521E-01 -2.31065E+00 -1.74761E+00 -3.15045E+00 -2.72666E+00 -3.57781E+00 -2.71754E+00 -4.88305E+00
  -4.84256E+00 -5.25052E+00 -6.10342E+00 -6.23991E+00 -1.84079E+00 -2.69697E+00 -2.99318E+00 -2.25926E+00  8.30995E-01 -1.99254E+00
  -1.02777E-01  1.13001E+00  2.41556E+00 -2.45611E+00 -2.01038E+00  1.44193E+00 -3.49161E+00 -9.15903E-01 -9.10897E-01 -1.18115E+00
   1.72562E-01 -1.75434E+00 -4.22588E+00 -8.55674E-02  2.31739E-01  1.54621E-01 -3.88360E+00 -1.93594E+00 -4.67403E+00  5.44976E-01
  -1.50993E+00 -1.65472E-01  4.53875E+00  1.15667E+00  2.66224E+00 -5.09495E-01  2.40881E+00 -1.08331E+00  1.25339E+00 -1.82362E-01
  -1.17008E+00 -3.03727E-01 -1.13464E+00  2.18706E-01  1.85792E-01  6.66861E-01  1.37714E+00  1.25745E+00  9.97557E-01 -1.20890E+00
   3.67846E+00  2.32564E+00 -1.77161E+00 -7.92285E-02  2.14348E+00  1.36530E+00  3.22014E-01  2.60413E+00 -9.30704E-01  4.26246E-01
   5.06836E-01  1.66927E+00  2.65863E+00  3.37116E+00  6.25728E-01  3.83114E+00  2.48005E+00  2.45788E-01  1.62112E+00  2.27009E+00
   3.45461E+00  8.98149E+00  8.55685E+00  1.17879E+01  1.49373E+01  2.20132E+01  2.05827E+01  2.11276E+01  1.97040E+01  2.15833E+01
   1.72966E+01  2.47109E+01  2.00705E+01  1.34456E+01  1.07797E+01  1.18140E+01  8.71263E+00  6.07791E+00  5.24467E+00  6.07617E+00
   9.69326E-01  2.72902E+00 -7.82686E-01 -1.19423E-01 -2.66497E+00 -2.94109E+00 -3.38704E+00 -1.79036E+00 -4.71524E+00 -2.42860E+00
  -3.59223E-01 -9.66181E-01 -2.99730E+00 -5.25787E+00 -3.92803E+00 -1.58679E+00 -3.57845E+00 -1.95028E+00 -1.87074E+00 -4.96866E+00
  -2.95620E+00 -3.79501E+00 -5.01011E+00  4.69207E-01 -4.00448E+00 -6.16716E+00 -2.95412E+00 -2.54701E+00 -1.29702E+00 -3.98995E+00
  -1.75897E+00 -1.73767E+00 -2.17736E+00 -4.35581E-01  4.09487E-01  1.53977E+00 -1.13979E+00  5.29536E-01  8.68073E-02 -2.41511E+00
  -1.88905E+00 -6.30343E+00 -5.12410E+00 -2.04154E+00 -3.62096E+00 -6.19531E+00 -2.13749E+00 -4.72861E+00 -4.88611E+00  7.88111E-02
  -3.50633E+00 -6.72238E+00 -4.06072E+00 -5.01717E+00 -2.96012E+00 -2.95785E+00 -4.70708E+00 -6.74333E+00 -6.08430E+00 -8.71204E+00
  -6.91948E+00 -5.99097E+00 -7.40303E+00 -3.51248E+00 -8.15786E+00 -7.30153E+00 -6.91323E+00 -7.58631E+00 -8.12743E+00 -1.10663E+01
  -9.18094E+00 -1.07994E+01 -8.66877E+00 -1.21823E+01 -8.20973E+00 -1.06042E+01 -1.15840E+01 -1.22634E+01 -1.27752E+01 -1.12355E+01
  -1.14919E+01 -1.10941E+01 -8.06738E+00 -5.27500E+00 -8.10590E+00 -7.58497E+00 -6.58632E+00 -5.48385E+00 -7.99362E+00  1.54376E+00
  -1.40798E+00 -1.11764E+00 -2.53300E+00 -2.67878E+00 -2.17810E+00 -3.76441E+00 -1.86979E+00 -8.31421E-01 -3.05926E+00 -1.65764E+00
  -2.97761E+00 -3.03701E+00 -4.91038E+00  1.23600E+00  1.23701E+00  2.60506E+00 -1.95920E+00  1.98574E-01  3.94763E+00  5.20314E+00
   3.65469E+00  6.58882E+00  2.39930E+00  3.57018E+00  2.04233E+00  4.27393E+00  5.24043E+00  6.63786E+00  6.95189E+00  3.59768E+00
   5.32904E+00  8.35251E+00  4.72899E+00  7.24811E+00  3.00136E+00  3.15691E+00  7.07675E+00  3.98183E+00  5.68581E+00  2.75289E+00
   1.74098E+00  2.03765E+00  3.49714E+00  2.83119E+00  3.06075E+00  4.34415E-01  2.76890E+00  1.43213E+00  2.81177E+00  9.95412E-02
  -2.14589E+00 -3.05304E+00 -7.58943E-02 -6.52525E-01 -1.59797E+00 -1.74083E+00  7.17702E-03 -2.88282E+00 -1.01259E+00  4.22057E-01
   8.44022E-01 -2.66019E+00 -5.47893E+00 -1.34937E+00 -3.05492E+00 -5.47638E+00 -3.02851E+00 -3.51205E+00 -3.98131E+00 -2.92796E+00
  -3.54946E+00 -3.40525E+00 -3.45638E+00 -2.55281E+00  1.93302E-01 -2.10149E+00 -4.83957E+00 -3.68711E+00 -5.32720E+00 -4.17905E+00
  -2.80092E+00 -2.17269E+00 -2.81534E+00  3.25318E-01 -1.28298E+00 -1.14137E+00 -1.41414E+00 -1.60692E+00 -2.79628E+00 -8.92461E-01
   1.60400E+00 -2.39184E-01 -2.79791E+00 -1.31121E+00 -2.15854E+00 -2.29073E+00 -2.77202E+00 -2.30742E+00 -2.22890E+00 -1.04062E+00
  -4.23301E+00 -5.14271E+00 -2.73176E+00 -1.13423E+00 -3.79652E+00 -2.44835E+00 -1.98837E+00 -2.71724E+00 -4.13822E+00 -1.15381E+00
  -1.84054E+00 -1.97350E+00 -2.43721E+00 -2.59746E+00 -5.55524E+00 -1.82299E+00 -3.01077E-01 -1.19925E+00 -2.89456E-01  1.47644E+00
  -3.66854E+00 -2.79324E+00 -2.03615E+00 -3.00349E+00 -3.44353E+00 -3.92401E+00 -2.29774E+00 -1.05362E+00 -1.93177E+00  2.82586E-01
  -5.47011E+00 -3.11460E+00 -1.56232E+00 -1.84771E+00 -4.63965E+00 -6.17492E-01 -2.49600E+00 -2.31425E+00
 NY points of the fit to the data follow
   1.44616E+00  1.14757E+00  1.35335E+00  1.32701E+00  1.93043E+00  2.20546E+00  3.06720E+00  3.09489E+00  3.82082E+00  3.59065E+00
   4.16667E+00  4.14257E+00  4.65398E+00  4.37640E+00  4.49769E+00  3.83906E+00  3.43972E+00  2.92791E+00  2.57884E+00  2.31397E+00
   2.44799E+00  2.38704E+00  2.94163E+00  3.05123E+00  3.77189E+00  3.86311E+00  4.31660E+00  4.44964E+00  4.79764E+00  4.93385E+00
   5.31621E+00  5.34038E+00  5.28844E+00  4.96165E+00  4.44307E+00  4.01011E+00  3.71339E+00  3.59578E+00  3.67220E+00  3.78165E+00
   3.92493E+00  4.08885E+00  4.19846E+00  4.24502E+00  4.19732E+00  4.08875E+00  4.02160E+00  3.93515E+00  3.86706E+00  3.73613E+00
   3.53883E+00  3.35902E+00  3.16116E+00  3.11966E+00  3.13912E+00  3.11463E+00  3.15532E+00  2.99559E+00  2.88769E+00  2.69828E+00
   2.58002E+00  2.41021E+00  2.34490E+00  2.22576E+00  2.24355E+00  2.20251E+00  2.34008E+00  2.35946E+00  2.53138E+00  2.51176E+00
   2.63937E+00  2.49686E+00  2.54024E+00  2.34539E+00  2.37233E+00  2.24518E+00  2.35542E+00  2.24944E+00  2.35598E+00  2.19193E+00
   2.21583E+00  1.99791E+00  1.88891E+00  1.63674E+00  1.49364E+00  1.24975E+00  1.14429E+00  9.04480E-01  6.59143E-01  1.32975E-01
  -3.70166E-01 -5.57761E-01 -6.87991E-01  1.12769E-01  8.36576E-01  2.31250E+00  3.81069E+00  5.42491E+00  7.29150E+00  8.04551E+00
   9.52243E+00  9.48634E+00  1.06581E+01  1.03535E+01  1.12969E+01  1.01336E+01  1.03012E+01  8.60720E+00  8.28734E+00  7.00880E+00
   6.77900E+00  5.73473E+00  5.35053E+00  3.92035E+00  3.38988E+00  2.39858E+00  2.17947E+00  2.58207E+00  2.79153E+00  4.64061E+00
   5.11755E+00  7.76480E+00  7.99309E+00  1.01573E+01  9.98218E+00  1.15307E+01  1.10644E+01  1.23024E+01  1.13582E+01  1.14244E+01
   1.01120E+01  9.39233E+00  8.32016E+00  7.85709E+00  7.18845E+00  6.66196E+00  6.12078E+00  5.28387E+00  4.84148E+00  3.99136E+00
   3.76463E+00  2.98065E+00  2.92550E+00  2.38842E+00  2.32581E+00  1.92275E+00  1.83798E+00  1.55637E+00  1.49183E+00  1.27714E+00
   1.19581E+00  9.21996E-01  7.93039E-01  4.94812E-01  3.34267E-01  9.78923E-02 -5.91518E-02 -1.73712E-01 -3.17471E-01 -3.74108E-01
  -5.47093E-01 -6.42321E-01 -8.01270E-01 -8.62775E-01 -1.03796E+00 -1.08120E+00 -1.32198E+00 -1.45588E+00 -1.67835E+00 -1.89876E+00
  -2.03200E+00 -2.27683E+00 -2.27898E+00 -2.53609E+00 -2.50427E+00 -2.85596E+00 -2.84743E+00 -3.24640E+00 -3.14983E+00 -3.45307E+00
  -3.25646E+00 -3.37881E+00 -3.10474E+00 -2.98125E+00 -2.60519E+00 -2.40064E+00 -2.09599E+00 -1.94883E+00 -1.82727E+00 -1.62051E+00
  -1.68255E+00 -1.41138E+00 -1.64752E+00 -1.38085E+00 -1.60150E+00 -1.32855E+00 -1.44318E+00 -1.17273E+00 -1.20151E+00 -9.60640E-01
  -9.35793E-01 -8.32233E-01 -8.17514E-01 -9.01172E-01 -9.14645E-01 -1.11496E+00 -1.14559E+00 -1.37720E+00 -1.37422E+00 -1.54097E+00
  -1.47461E+00 -1.59278E+00 -1.49114E+00 -1.58697E+00 -1.47101E+00 -1.45639E+00 -1.31172E+00 -1.19387E+00 -1.05609E+00 -9.62479E-01
  -8.73933E-01 -8.47114E-01 -8.24385E-01 -8.19134E-01 -8.23924E-01 -7.27993E-01 -6.67475E-01 -4.14831E-01 -2.53724E-01  1.41304E-02
   2.00143E-01  3.49201E-01  4.76132E-01  5.16920E-01  6.22513E-01  6.71121E-01  8.52247E-01  9.44059E-01  1.20939E+00  1.31933E+00
   1.64457E+00  1.80546E+00  2.16113E+00  2.38540E+00  2.71900E+00  2.84326E+00  2.60220E+00  2.42978E+00  2.90890E+00  3.34377E+00
   5.56403E+00  7.43067E+00  1.03465E+01  1.34318E+01  1.56809E+01  1.91731E+01  1.88350E+01  2.16448E+01  1.95517E+01  2.17476E+01
   1.91416E+01  2.08413E+01  1.65572E+01  1.70844E+01  1.23231E+01  1.21630E+01  8.84960E+00  8.77564E+00  6.13229E+00  5.90116E+00
   3.35576E+00  2.81245E+00  7.49282E-01  9.67127E-02 -1.31840E+00 -1.87331E+00 -2.37492E+00 -2.64806E+00 -2.84242E+00 -2.99821E+00
  -3.13925E+00 -3.25384E+00 -3.35176E+00 -3.42418E+00 -3.48068E+00 -3.50959E+00 -3.52255E+00 -3.50572E+00 -3.47247E+00 -3.40651E+00
  -3.32444E+00 -3.20834E+00 -3.07747E+00 -2.91604E+00 -2.74655E+00 -2.55398E+00 -2.36302E+00 -2.16141E+00 -1.97290E+00 -1.78862E+00
  -1.63097E+00 -1.49152E+00 -1.39128E+00 -1.32113E+00 -1.29876E+00 -1.31322E+00 -1.37812E+00 -1.48007E+00 -1.62812E+00 -1.80642E+00
  -2.02069E+00 -2.25315E+00 -2.50797E+00 -2.76671E+00 -3.03347E+00 -3.29061E+00 -3.54348E+00 -3.77638E+00 -3.99672E+00 -4.19104E+00
  -4.36879E+00 -4.51860E+00 -4.65162E+00 -4.75806E+00 -4.85014E+00 -4.91891E+00 -4.97693E+00 -5.01555E+00 -5.04727E+00 -5.06338E+00
  -5.07598E+00 -5.07600E+00 -5.07507E+00 -5.06379E+00 -5.05336E+00 -5.03412E+00 -5.01686E+00 -4.99171E+00 -4.96913E+00 -4.93917E+00
  -4.91211E+00 -4.87794E+00 -4.84675E+00 -4.80849E+00 -4.77312E+00 -4.73066E+00 -4.69097E+00 -4.64407E+00 -4.59968E+00 -4.54785E+00
  -4.49820E+00 -4.44085E+00 -4.38530E+00 -4.32169E+00 -4.25933E+00 -4.18839E+00 -4.11806E+00 -4.03851E+00 -3.95876E+00 -3.86892E+00
  -3.77779E+00 -3.67542E+00 -3.57040E+00 -3.45268E+00 -3.33055E+00 -3.19380E+00 -3.05039E+00 -2.88995E+00 -2.72012E+00 -2.53036E+00
  -2.32800E+00 -2.10236E+00 -1.86063E+00 -1.59225E+00 -1.30454E+00 -9.87375E-01 -6.48604E-01 -2.79064E-01  1.12227E-01  5.32793E-01
   9.71802E-01  1.43456E+00  1.90789E+00  2.39444E+00  2.87847E+00  3.36003E+00  3.82121E+00  4.26023E+00  4.65808E+00  5.01251E+00
   5.30507E+00  5.53492E+00  5.68610E+00  5.76107E+00  5.74807E+00  5.65415E+00  5.47264E+00  5.21565E+00  4.88144E+00  4.48649E+00
   4.03279E+00  3.53952E+00  3.01051E+00  2.46560E+00  1.90841E+00  1.35754E+00  8.14682E-01  2.95803E-01 -2.00290E-01 -6.60789E-01
  -1.08994E+00 -1.47798E+00 -1.83181E+00 -2.14407E+00 -2.42355E+00 -2.66444E+00 -2.87658E+00 -3.05496E+00 -3.20984E+00 -3.33642E+00
  -3.44483E+00 -3.53012E+00 -3.60207E+00 -3.65543E+00 -3.69950E+00 -3.72869E+00 -3.75183E+00 -3.76297E+00 -3.77054E+00 -3.76835E+00
  -3.76448E+00 -3.75252E+00 -3.74026E+00 -3.72113E+00 -3.70272E+00 -3.67838E+00 -3.65550E+00 -3.62735E+00 -3.60119E+00 -3.57026E+00
  -3.54170E+00 -3.50876E+00 -3.47846E+00 -3.44406E+00 -3.41248E+00 -3.37700E+00 -3.34451E+00 -3.30828E+00 -3.27514E+00 -3.23839E+00
  -3.20479E+00 -3.16768E+00 -3.13377E+00 -3.09646E+00 -3.06237E+00 -3.02493E+00 -2.99072E+00 -2.95321E+00 -2.91897E+00 -2.88147E+00
  -2.84722E+00 -2.80975E+00 -2.77552E+00 -2.73811E+00 -2.70394E+00 -2.66663E+00 -2.63253E+00 -2.59530E+00 -2.56127E+00 -2.52415E+00
  -2.49022E+00 -2.45322E+00 -2.41936E+00 -2.38245E+00 -2.34868E+00 -2.31189E+00 -2.27820E+00 -2.24150E+00 -2.20787E+00 -2.17124E+00
  -2.13768E+00 -2.10113E+00 -2.06760E+00 -2.03109E+00 -1.99756E+00 -1.96106E+00 -1.92753E+00 -1.89103E+00 -1.85744E+00 -1.82087E+00
  -1.78716E+00 -1.75049E+00 -1.71664E+00 -1.67979E+00 -1.64569E+00 -1.60856E+00 -1.57411E+00 -1.53659E+00
 NY background values follow
     1.795E+00    1.786E+00    1.776E+00    1.766E+00    1.756E+00    1.746E+00    1.736E+00    1.726E+00    1.715E+00    1.705E+00
     1.695E+00    1.685E+00    1.675E+00    1.664E+00    1.654E+00    1.644E+00    1.633E+00    1.623E+00    1.612E+00    1.602E+00
     1.591E+00    1.581E+00    1.570E+00    1.559E+00    1.548E+00    1.537E+00    1.526E+00    1.515E+00    1.504E+00    1.493E+00
     1.482E+00    1.471E+00    1.460E+00    1.448E+00    1.437E+00    1.425E+00    1.414E+00    1.402E+00    1.390E+00    1.378E+00
     1.366E+00    1.355E+00    1.342E+00    1.330E+00    1.318E+00    1.306E+00    1.293E+00    1.281E+00    1.268E+00    1.256E+00
     1.243E+00    1.230E+00    1.217E+00    1.204E+00    1.191E+00    1.178E+00    1.164E+00    1.151E+00    1.137E+00    1.124E+00
     1.110E+00    1.096E+00    1.082E+00    1.068E+00    1.054E+00    1.040E+00    1.025E+00    1.011E+00    9.960E-01    9.812E-01
     9.663E-01    9.513E-01    9.362E-01    9.210E-01    9.056E-01    8.901E-01    8.745E-01    8.587E-01    8.428E-01    8.268E-01
     8.106E-01    7.944E-01    7.779E-01    7.614E-01    7.447E-01    7.279E-01    7.109E-01    6.938E-01    6.765E-01    6.591E-01
     6.415E-01    6.238E-01    6.060E-01    5.880E-01    5.698E-01    5.515E-01    5.331E-01    5.144E-01    4.957E-01    4.768E-01
     4.577E-01    4.385E-01    4.191E-01    3.995E-01    3.798E-01    3.600E-01    3.400E-01    3.198E-01    2.994E-01    2.789E-01
     2.583E-01    2.374E-01    2.164E-01    1.953E-01    1.739E-01    1.524E-01    1.308E-01    1.089E-01    8.694E-02    6.477E-02
     4.243E-02    1.992E-02   -2.768E-03   -2.562E-02   -4.865E-02   -7.186E-02   -9.524E-02   -1.188E-01   -1.425E-01   -1.664E-01
    -1.905E-01   -2.148E-01   -2.392E-01   -2.639E-01   -2.887E-01   -3.136E-01   -3.388E-01   -3.642E-01   -3.897E-01   -4.154E-01
    -4.413E-01   -4.673E-01   -4.936E-01   -5.200E-01   -5.466E-01   -5.733E-01   -6.003E-01   -6.274E-01   -6.546E-01   -6.821E-01
    -7.096E-01   -7.374E-01   -7.653E-01   -7.934E-01   -8.216E-01   -8.500E-01   -8.786E-01   -9.073E-01   -9.361E-01   -9.652E-01
    -9.943E-01   -1.024E+00   -1.053E+00   -1.083E+00   -1.112E+00   -1.142E+00   -1.172E+00   -1.203E+00   -1.233E+00   -1.263E+00
    -1.294E+00   -1.325E+00   -1.355E+00   -1.386E+00   -1.418E+00   -1.449E+00   -1.480E+00   -1.512E+00   -1.543E+00   -1.575E+00
    -1.607E+00   -1.639E+00   -1.671E+00   -1.703E+00   -1.735E+00   -1.768E+00   -1.800E+00   -1.833E+00   -1.866E+00   -1.899E+00
    -1.932E+00   -1.964E+00   -1.998E+00   -2.031E+00   -2.064E+00   -2.097E+00   -2.131E+00   -2.164E+00   -2.197E+00   -2.231E+00
    -2.265E+00   -2.298E+00   -2.332E+00   -2.366E+00   -2.399E+00   -2.433E+00   -2.467E+00   -2.501E+00   -2.534E+00   -2.568E+00
    -2.602E+00   -2.636E+00   -2.670E+00   -2.704E+00   -2.738E+00   -2.772E+00   -2.805E+00   -2.839E+00   -2.873E+00   -2.907E+00
    -2.941E+00   -2.974E+00   -3.008E+00   -3.042E+00   -3.075E+00   -3.109E+00   -3.143E+00   -3.176E+00   -3.210E+00   -3.243E+00
    -3.276E+00   -3.309E+00   -3.343E+00   -3.376E+00   -3.409E+00   -3.441E+00   -3.474E+00   -3.507E+00   -3.539E+00   -3.572E+00
    -3.604E+00   -3.636E+00   -3.668E+00   -3.700E+00   -3.731E+00   -3.763E+00   -3.794E+00   -3.825E+00   -3.856E+00   -3.887E+00
    -3.917E+00   -3.947E+00   -3.978E+00   -4.007E+00   -4.037E+00   -4.066E+00   -4.096E+00   -4.125E+00   -4.153E+00   -4.182E+00
    -4.210E+00   -4.238E+00   -4.265E+00   -4.293E+00   -4.320E+00   -4.346E+00   -4.373E+00   -4.399E+00   -4.425E+00   -4.450E+00
    -4.475E+00   -4.500E+00   -4.525E+00   -4.549E+00   -4.573E+00   -4.596E+00   -4.619E+00   -4.642E+00   -4.664E+00   -4.686E+00
    -4.708E+00   -4.729E+00   -4.750E+00   -4.770E+00   -4.790E+00   -4.810E+00   -4.829E+00   -4.848E+00   -4.866E+00   -4.884E+00
    -4.901E+00   -4.918E+00   -4.935E+00   -4.951E+00   -4.966E+00   -4.981E+00   -4.996E+00   -5.010E+00   -5.024E+00   -5.037E+00
    -5.050E+00   -5.062E+00   -5.074E+00   -5.085E+00   -5.095E+00   -5.105E+00   -5.115E+00   -5.124E+00   -5.132E+00   -5.140E+00
    -5.148E+00   -5.155E+00   -5.161E+00   -5.167E+00   -5.172E+00   -5.176E+00   -5.180E+00   -5.184E+00   -5.186E+00   -5.189E+00
    -5.190E+00   -5.191E+00   -5.192E+00   -5.191E+00   -5.191E+00   -5.189E+00   -5.188E+00   -5.185E+00   -5.182E+00   -5.179E+00
    -5.174E+00   -5.170E+00   -5.164E+00   -5.159E+00   -5.152E+00   -5.145E+00   -5.138E+00   -5.130E+00   -5.121E+00   -5.112E+00
    -5.102E+00   -5.092E+00   -5.081E+00   -5.070E+00   -5.058E+00   -5.046E+00   -5.033E+00   -5.019E+00   -5.005E+00   -4.991E+00
    -4.976E+00   -4.960E+00   -4.944E+00   -4.927E+00   -4.910E+00   -4.892E+00   -4.874E+00   -4.856E+00   -4.836E+00   -4.817E+00
    -4.797E+00   -4.776E+00   -4.755E+00   -4.733E+00   -4.711E+00   -4.688E+00   -4.665E+00   -4.642E+00   -4.618E+00   -4.593E+00
    -4.568E+00   -4.543E+00   -4.517E+00   -4.491E+00   -4.465E+00   -4.438E+00   -4.411E+00   -4.384E+00   -4.356E+00   -4.328E+00
    -4.299E+00   -4.270E+00   -4.241E+00   -4.212E+00   -4.182E+00   -4.152E+00   -4.122E+00   -4.092E+00   -4.061E+00   -4.030E+00
    -3.999E+00   -3.967E+00   -3.936E+00   -3.904E+00   -3.872E+00   -3.840E+00   -3.808E+00   -3.775E+00   -3.743E+00   -3.710E+00
    -3.677E+00   -3.644E+00   -3.611E+00   -3.578E+00   -3.545E+00   -3.511E+00   -3.478E+00   -3.445E+00   -3.411E+00   -3.378E+00
    -3.344E+00   -3.310E+00   -3.277E+00   -3.243E+00   -3.209E+00   -3.175E+00   -3.142E+00   -3.108E+00   -3.074E+00   -3.040E+00
    -3.006E+00   -2.973E+00   -2.939E+00   -2.905E+00   -2.871E+00   -2.837E+00   -2.803E+00   -2.769E+00   -2.736E+00   -2.702E+00
    -2.668E+00   -2.634E+00   -2.600E+00   -2.567E+00   -2.533E+00   -2.499E+00   -2.466E+00   -2.432E+00   -2.399E+00   -2.365E+00
    -2.332E+00   -2.298E+00   -2.265E+00   -2.232E+00   -2.199E+00   -2.166E+00   -2.133E+00   -2.100E+00   -2.067E+00   -2.034E+00
    -2.001E+00   -1.968E+00   -1.936E+00   -1.903E+00   -1.871E+00   -1.839E+00   -1.807E+00   -1.774E+00   -1.742E+00   -1.710E+00
    -1.679E+00   -1.647E+00   -1.615E+00   -1.583E+00   -1.552E+00   -1.520E+00   -1.489E+00   -1.458E+00   -1.427E+00   -1.395E+00
    -1.364E+00   -1.333E+00   -1.303E+00   -1.272E+00   -1.241E+00   -1.210E+00   -1.180E+00   -1.149E+00   -1.119E+00   -1.088E+00
    -1.058E+00   -1.028E+00   -9.978E-01   -9.677E-01   -9.377E-01   -9.078E-01   -8.779E-01   -8.481E-01   -8.184E-01   -7.888E-01
    -7.592E-01   -7.297E-01   -7.002E-01   -6.708E-01   -6.415E-01   -6.123E-01   -5.831E-01   -5.540E-01
 Asp      Conc. = 6.93E+01
