 LCModel (Version 6.3-1L) Copyright: S.W. Provencher.          Ref.: Magn. Reson. Med. 30:672-679 (1993).                
 Slice#2 Row#12 Col#5  PD_05_press_1_raw_act
 36 lines in following concentration table = NCONC+1
    Conc.  %SD /Cr+PCr  Metabolite                                         
    0.000 999%   0.000 Ala                                                 
   88.871 119%   0.139 Asp                                                 
    0.000 999%   0.000 Cr                                                  
  637.351   5%   1.000 PCr                                                 
   62.784 117% 9.9E-02 GABA                                                
   23.987 286% 3.8E-02 Glc                                                 
  346.664  46%   0.544 Gln                                                 
  711.755  26%   1.117 Glu                                                 
  181.071   7%   0.284 GPC                                                 
    0.000 999%   0.000 PCh                                                 
  341.722  13%   0.536 GSH                                                 
  989.764  17%   1.553 Ins                                                 
    0.000 999%   0.000 Lac                                                 
 1.04E+03   6%   1.637 NAA                                                 
   41.452 153% 6.5E-02 NAAG                                                
   66.595  22%   0.104 Scyllo                                              
   42.983 246% 6.7E-02 Tau                                                 
  415.361  15%   0.652 -CrCH2                                              
  181.071   7%   0.284 GPC+PCh                                             
 1.08E+03   4%   1.702 NAA+NAAG                                            
  637.351   5%   1.000 Cr+PCr                                              
 1.06E+03  28%   1.661 Glu+Gln                                             
  583.912  53%   0.916 Lip13a                                              
  134.524  86%   0.211 Lip13b                                              
  158.863  70%   0.249 Lip09                                               
  479.761  24%   0.753 MM09                                                
   97.598  80%   0.153 Lip20                                               
  770.668  26%   1.209 MM20                                                
  160.125  48%   0.251 MM12                                                
  432.739  33%   0.679 MM14                                                
  148.315  76%   0.233 MM17                                                
  718.436  31%   1.127 Lip13a+Lip13b                                       
 1.31E+03  19%   2.057 MM14+Lip13a+Lip13b+MM12                             
  638.624  15%   1.002 MM09+Lip09                                          
  868.266  23%   1.362 MM20+Lip20                                          
   6 lines in following misc. output table
  FWHM = 0.069 ppm    S/N =   9                                            
  Data shift = 0.000 ppm                                                   
  Ph: -36 deg     -12.4 deg/ppm                                            
  alphaB,S = 8.1E-01,   1.0E+02                                            
   14 spline knots.   Ns = 9(1)                                            
  (16) 5 infls.   (17) 1 extrs.                                            
  498 points on ppm-axis = NY
      4.000000     3.992357     3.984714     3.977070     3.969427     3.961784     3.954141     3.946497     3.938854     3.931211
      3.923568     3.915925     3.908281     3.900638     3.892995     3.885352     3.877708     3.870065     3.862422     3.854779
      3.847136     3.839492     3.831849     3.824206     3.816563     3.808919     3.801276     3.793633     3.785990     3.778347
      3.770703     3.763060     3.755417     3.747774     3.740130     3.732487     3.724844     3.717201     3.709558     3.701914
      3.694271     3.686628     3.678985     3.671341     3.663698     3.656055     3.648412     3.640769     3.633125     3.625482
      3.617839     3.610196     3.602552     3.594909     3.587266     3.579623     3.571980     3.564336     3.556693     3.549050
      3.541407     3.533763     3.526120     3.518477     3.510834     3.503191     3.495547     3.487904     3.480261     3.472618
      3.464974     3.457331     3.449688     3.442045     3.434402     3.426758     3.419115     3.411472     3.403829     3.396185
      3.388542     3.380899     3.373256     3.365613     3.357969     3.350326     3.342683     3.335040     3.327396     3.319753
      3.312110     3.304467     3.296824     3.289180     3.281537     3.273894     3.266251     3.258607     3.250964     3.243321
      3.235678     3.228034     3.220391     3.212748     3.205105     3.197462     3.189818     3.182175     3.174532     3.166889
      3.159245     3.151602     3.143959     3.136316     3.128673     3.121029     3.113386     3.105743     3.098100     3.090456
      3.082813     3.075170     3.067527     3.059884     3.052240     3.044597     3.036954     3.029311     3.021667     3.014024
      3.006381     2.998738     2.991095     2.983451     2.975808     2.968165     2.960522     2.952878     2.945235     2.937592
      2.929949     2.922306     2.914662     2.907019     2.899376     2.891733     2.884089     2.876446     2.868803     2.861160
      2.853517     2.845873     2.838230     2.830587     2.822944     2.815300     2.807657     2.800014     2.792371     2.784728
      2.777084     2.769441     2.761798     2.754155     2.746511     2.738868     2.731225     2.723582     2.715939     2.708295
      2.700652     2.693009     2.685366     2.677722     2.670079     2.662436     2.654793     2.647150     2.639506     2.631863
      2.624220     2.616577     2.608933     2.601290     2.593647     2.586004     2.578361     2.570717     2.563074     2.555431
      2.547788     2.540144     2.532501     2.524858     2.517215     2.509572     2.501928     2.494285     2.486642     2.478999
      2.471355     2.463712     2.456069     2.448426     2.440783     2.433139     2.425496     2.417853     2.410210     2.402566
      2.394923     2.387280     2.379637     2.371994     2.364350     2.356707     2.349064     2.341421     2.333777     2.326134
      2.318491     2.310848     2.303205     2.295561     2.287918     2.280275     2.272632     2.264988     2.257345     2.249702
      2.242059     2.234416     2.226772     2.219129     2.211486     2.203843     2.196199     2.188556     2.180913     2.173270
      2.165627     2.157983     2.150340     2.142697     2.135054     2.127410     2.119767     2.112124     2.104481     2.096838
      2.089194     2.081551     2.073908     2.066265     2.058621     2.050978     2.043335     2.035692     2.028049     2.020405
      2.012762     2.005119     1.997476     1.989833     1.982190     1.974546     1.966903     1.959260     1.951617     1.943974
      1.936331     1.928688     1.921045     1.913402     1.905759     1.898115     1.890472     1.882829     1.875186     1.867543
      1.859900     1.852257     1.844614     1.836971     1.829327     1.821684     1.814041     1.806398     1.798755     1.791112
      1.783469     1.775826     1.768183     1.760540     1.752896     1.745253     1.737610     1.729967     1.722324     1.714681
      1.707038     1.699395     1.691752     1.684108     1.676465     1.668822     1.661179     1.653536     1.645893     1.638250
      1.630607     1.622964     1.615321     1.607677     1.600034     1.592391     1.584748     1.577105     1.569462     1.561819
      1.554176     1.546533     1.538890     1.531246     1.523603     1.515960     1.508317     1.500674     1.493031     1.485388
      1.477745     1.470102     1.462458     1.454815     1.447172     1.439529     1.431886     1.424243     1.416600     1.408957
      1.401314     1.393671     1.386027     1.378384     1.370741     1.363098     1.355455     1.347812     1.340169     1.332526
      1.324883     1.317240     1.309596     1.301953     1.294310     1.286667     1.279024     1.271381     1.263738     1.256095
      1.248452     1.240808     1.233165     1.225522     1.217879     1.210236     1.202593     1.194950     1.187307     1.179664
      1.172021     1.164377     1.156734     1.149091     1.141448     1.133805     1.126162     1.118519     1.110876     1.103233
      1.095590     1.087946     1.080303     1.072660     1.065017     1.057374     1.049731     1.042088     1.034445     1.026802
      1.019158     1.011515     1.003872     0.996229     0.988586     0.980943     0.973300     0.965657     0.958014     0.950371
      0.942727     0.935084     0.927441     0.919798     0.912155     0.904512     0.896869     0.889226     0.881583     0.873940
      0.866296     0.858653     0.851010     0.843367     0.835724     0.828081     0.820438     0.812795     0.805152     0.797508
      0.789865     0.782222     0.774579     0.766936     0.759293     0.751650     0.744007     0.736364     0.728721     0.721077
      0.713434     0.705791     0.698148     0.690505     0.682862     0.675219     0.667576     0.659933     0.652290     0.644646
      0.637003     0.629360     0.621717     0.614074     0.606431     0.598788     0.591145     0.583502     0.575858     0.568215
      0.560572     0.552929     0.545286     0.537643     0.530000     0.522357     0.514714     0.507071     0.499427     0.491784
      0.484141     0.476498     0.468855     0.461212     0.453569     0.445925     0.438282     0.430639     0.422996     0.415353
      0.407710     0.400067     0.392424     0.384780     0.377137     0.369494     0.361851     0.354208     0.346565     0.338922
      0.331278     0.323635     0.315992     0.308349     0.300706     0.293063     0.285420     0.277777     0.270133     0.262490
      0.254847     0.247204     0.239561     0.231918     0.224275     0.216631     0.208988     0.201345
 NY phased data points follow
  -6.34084E+01 -6.09218E+01 -6.02595E+01 -5.70450E+01 -5.64151E+01 -5.59052E+01 -5.34692E+01 -4.85599E+01 -4.75417E+01 -4.84179E+01
  -4.92495E+01 -4.84553E+01 -4.92388E+01 -4.80277E+01 -5.08575E+01 -5.03948E+01 -5.34513E+01 -5.12089E+01 -4.98727E+01 -5.04368E+01
  -4.96738E+01 -4.72102E+01 -4.83344E+01 -4.36172E+01 -4.50286E+01 -4.38273E+01 -4.32965E+01 -4.16121E+01 -4.03456E+01 -3.90058E+01
  -3.73293E+01 -3.99770E+01 -3.80832E+01 -3.64317E+01 -3.90933E+01 -3.95974E+01 -3.88980E+01 -3.90823E+01 -3.82447E+01 -3.81707E+01
  -3.52376E+01 -3.46212E+01 -3.77691E+01 -3.52230E+01 -3.51524E+01 -3.35527E+01 -3.40549E+01 -3.49756E+01 -3.23355E+01 -3.27060E+01
  -3.28314E+01 -3.42575E+01 -3.35328E+01 -3.22041E+01 -3.35316E+01 -3.26532E+01 -3.08930E+01 -3.25588E+01 -3.34638E+01 -3.30277E+01
  -3.26948E+01 -3.07028E+01 -3.38333E+01 -3.30019E+01 -3.47759E+01 -3.17703E+01 -3.41150E+01 -3.13288E+01 -3.35077E+01 -3.12807E+01
  -3.06469E+01 -2.95478E+01 -2.88995E+01 -3.07101E+01 -3.09746E+01 -2.78876E+01 -2.77771E+01 -2.95375E+01 -3.08601E+01 -2.97081E+01
  -2.70377E+01 -2.71750E+01 -2.79088E+01 -2.75574E+01 -2.50790E+01 -2.59478E+01 -2.49244E+01 -2.59514E+01 -2.54846E+01 -2.32237E+01
  -2.34139E+01 -2.50699E+01 -2.44397E+01 -2.19829E+01 -2.29986E+01 -2.07081E+01 -2.08632E+01 -2.34334E+01 -1.75771E+01 -1.74631E+01
  -1.52492E+01 -1.25328E+01 -1.22724E+01 -1.10295E+01 -1.21968E+01 -1.11133E+01 -1.39251E+01 -1.67223E+01 -1.70989E+01 -1.84753E+01
  -1.80162E+01 -1.81757E+01 -1.95798E+01 -1.83709E+01 -2.03321E+01 -1.94833E+01 -1.83005E+01 -1.82493E+01 -1.65437E+01 -1.47186E+01
  -1.58460E+01 -1.03600E+01 -9.23309E+00 -1.02749E+01 -6.50797E+00 -3.31379E+00 -1.35918E+00 -2.22890E+00 -2.99830E+00 -4.21380E+00
  -5.55824E+00 -8.52737E+00 -1.07299E+01 -1.44003E+01 -1.79840E+01 -1.52723E+01 -1.74378E+01 -1.66336E+01 -1.83630E+01 -1.81101E+01
  -1.55806E+01 -1.82664E+01 -1.37332E+01 -1.60545E+01 -1.91517E+01 -1.45181E+01 -1.72117E+01 -1.66832E+01 -1.63225E+01 -1.66312E+01
  -1.59974E+01 -1.46811E+01 -1.74771E+01 -1.53157E+01 -1.54078E+01 -1.56122E+01 -1.57467E+01 -1.60339E+01 -1.54281E+01 -1.53355E+01
  -1.65664E+01 -1.49497E+01 -1.47216E+01 -1.73528E+01 -1.72391E+01 -1.45303E+01 -1.04655E+01 -1.21476E+01 -1.49795E+01 -1.41253E+01
  -1.68683E+01 -1.62087E+01 -1.49314E+01 -1.72031E+01 -1.37624E+01 -1.49367E+01 -1.67771E+01 -1.67187E+01 -1.71357E+01 -1.56692E+01
  -1.51302E+01 -1.67341E+01 -1.65541E+01 -1.18525E+01 -1.30363E+01 -1.56654E+01 -1.39698E+01 -1.32873E+01 -1.20682E+01 -1.34197E+01
  -9.49511E+00 -1.21417E+01 -9.98137E+00 -1.12250E+01 -1.01849E+01 -1.11461E+01 -1.08699E+01 -1.08902E+01 -1.20141E+01 -1.35066E+01
  -1.07869E+01 -1.05105E+01 -1.00045E+01 -9.04597E+00 -8.96515E+00 -1.04277E+01 -1.11469E+01 -1.07243E+01 -1.05934E+01 -9.36978E+00
  -1.15766E+01 -9.90559E+00 -1.04431E+01 -9.36598E+00 -6.50720E+00 -8.52170E+00 -6.87338E+00 -8.30142E+00 -7.77993E+00 -8.33467E+00
  -1.20378E+01 -9.69009E+00 -8.95845E+00 -1.08492E+01 -9.11271E+00 -7.43173E+00 -7.05953E+00 -4.06287E+00 -5.06249E+00 -8.88787E+00
  -4.20204E+00 -8.31222E+00 -6.79692E+00 -6.86799E+00 -7.33619E+00 -5.60992E+00 -6.34428E+00 -5.03194E+00 -9.50726E+00 -4.06092E+00
  -4.89344E+00 -4.48344E+00 -8.84787E+00 -5.32441E+00 -4.71064E+00 -7.78889E+00 -4.56766E+00 -3.37456E+00 -2.33075E+00  5.37157E-01
   1.56553E-01  2.90736E+00  2.28111E+00  5.83794E+00  9.97420E+00  9.85579E+00  1.34494E+01  1.72717E+01  2.25371E+01  2.27702E+01
   2.46377E+01  2.58083E+01  2.21167E+01  1.56062E+01  1.01566E+01  6.61189E+00  2.23001E+00  1.12621E+00 -1.80284E+00 -1.18168E+00
  -1.85638E+00 -1.74649E+00 -2.75952E+00 -2.66734E+00 -1.34971E+00 -1.98273E+00 -3.64629E+00 -2.47004E+00 -3.20820E+00 -3.27966E+00
  -3.05335E+00 -2.01470E+00 -2.80497E+00 -4.60302E+00 -4.84947E+00 -4.56440E+00 -4.87076E+00 -4.75548E+00 -3.90476E+00 -3.18439E+00
  -1.64532E+00 -4.77821E+00 -1.11181E+00 -3.07392E+00 -4.91349E+00 -3.80907E+00 -4.24681E+00 -5.41029E+00 -5.62266E+00 -3.89851E+00
  -2.35238E+00 -3.63287E+00 -2.51134E+00 -1.92597E-01 -1.87916E+00 -1.87139E+00  9.67918E-01 -2.23115E+00 -2.77886E+00 -2.92788E+00
  -3.18174E+00  1.52174E+00 -2.59650E+00 -1.71163E+00 -2.06793E+00 -2.06302E+00 -3.99093E+00  4.02466E-01 -1.22224E+00 -1.45418E+00
   1.14150E-01 -1.76522E+00  3.60092E-01  2.20876E+00  2.03856E+00 -1.00478E+00 -1.65260E+00  8.73273E-01  2.81331E-01  2.62142E+00
   2.15870E+00 -8.55812E-01  1.33766E+00 -6.34273E-01 -7.79453E-01 -4.46047E-01 -1.08328E+00 -6.21378E-01 -2.12925E+00 -1.99588E-01
   6.59034E-01 -1.31722E+00 -1.94143E-01  2.21529E+00  3.62468E+00  4.91251E+00  1.81529E+00  5.06612E-03  2.72583E+00 -7.26157E-02
   2.62627E+00  2.40630E+00  3.07887E+00  3.40601E+00  4.86404E+00  4.75336E+00  1.60217E+00  3.31440E+00  2.64654E+00  3.27977E+00
   1.14979E+00  5.14571E-01  1.81640E+00  3.09813E+00  3.02787E+00  1.60952E+00  3.29941E+00 -9.29644E-01  3.20523E+00  3.26156E-01
  -4.08723E-01  1.57459E+00  2.04468E+00 -7.70011E-01  5.79839E-01  4.92401E-03 -3.27075E-01 -3.03523E-02 -9.68027E-01  6.17309E-02
   1.57574E+00  4.34960E-01  1.48896E+00 -1.27759E+00  1.59518E+00  3.31116E-01 -1.32474E+00  6.56155E-01  9.54711E-01 -5.15303E-01
   1.14174E+00  8.51074E-01  1.96266E+00  2.43596E+00  2.47946E+00  2.31373E+00  2.51423E+00  4.07915E+00  2.52375E+00  3.76584E+00
   1.81676E+00  3.76234E+00  3.43302E+00  1.74974E+00  3.57239E+00  9.46219E-01  4.25112E+00  1.56533E+00  1.74342E+00  2.60903E+00
   2.84633E+00  2.32317E+00  1.82509E+00  1.61691E+00  2.17908E+00  2.20328E+00  2.55767E+00  2.87817E-01  2.08569E+00  2.15903E+00
   7.68027E-01 -2.51634E+00 -5.74791E-01 -1.26662E+00 -4.09465E-01  6.85715E-01 -2.62637E+00  3.88310E-01 -8.50950E-01 -7.28621E-01
  -2.91528E+00  7.74760E-01 -1.35934E+00 -1.11484E+00 -1.51669E-01 -1.85910E+00 -2.12491E+00 -1.24203E+00 -1.55012E+00 -2.72865E-01
  -9.81866E-01 -1.42286E+00  1.61157E+00 -7.44921E-01 -1.66617E+00 -2.86728E+00 -1.18225E+00 -2.42977E+00 -9.02548E-01  6.23118E-01
  -9.49342E-01 -1.15027E+00  5.21042E-01 -1.43998E-01 -1.85022E-01  6.64774E-01  1.16831E+00  2.43132E-01 -2.90764E-01 -1.43186E+00
   4.13699E-01 -5.00940E-01  1.07629E+00  1.84267E+00 -1.13426E+00 -2.04531E+00 -9.71084E-01 -5.00114E-01 -9.76324E-01 -1.83961E-01
   2.75253E+00 -1.61799E+00 -6.17904E-01 -1.62052E-01 -1.64385E+00  6.16302E-01  7.83970E-02 -3.06648E-01  2.50260E+00  1.04971E+00
   9.39196E-01  8.27066E-01 -4.26185E-01 -2.03069E-01 -3.48317E-01 -1.45739E+00  4.77562E-01 -4.99034E-01  7.62418E-01  8.00393E-01
   1.63913E+00  1.18134E+00  5.90124E-01  3.70394E+00  2.65256E+00  2.75579E+00 -9.51264E-02  1.66043E+00
 NY points of the fit to the data follow
  -5.77316E+01 -5.70160E+01 -5.62795E+01 -5.55818E+01 -5.49794E+01 -5.43053E+01 -5.32176E+01 -5.18546E+01 -5.06105E+01 -4.95970E+01
  -4.88178E+01 -4.84007E+01 -4.84518E+01 -4.88206E+01 -4.92139E+01 -4.94951E+01 -4.95803E+01 -4.93428E+01 -4.89827E+01 -4.89474E+01
  -4.88405E+01 -4.82148E+01 -4.72233E+01 -4.61755E+01 -4.51985E+01 -4.42740E+01 -4.32292E+01 -4.19226E+01 -4.04503E+01 -3.91061E+01
  -3.80552E+01 -3.73437E+01 -3.71679E+01 -3.76155E+01 -3.84978E+01 -3.95336E+01 -4.04234E+01 -4.07468E+01 -4.03251E+01 -3.95624E+01
  -3.88756E+01 -3.81561E+01 -3.72470E+01 -3.61638E+01 -3.50252E+01 -3.40954E+01 -3.35586E+01 -3.34306E+01 -3.36633E+01 -3.42125E+01
  -3.49141E+01 -3.54790E+01 -3.57223E+01 -3.56512E+01 -3.53024E+01 -3.47723E+01 -3.42546E+01 -3.37862E+01 -3.32951E+01 -3.28443E+01
  -3.25515E+01 -3.24367E+01 -3.23994E+01 -3.23575E+01 -3.22531E+01 -3.20408E+01 -3.16724E+01 -3.11546E+01 -3.05928E+01 -3.00770E+01
  -2.96564E+01 -2.93370E+01 -2.90800E+01 -2.88776E+01 -2.87242E+01 -2.85997E+01 -2.84899E+01 -2.83551E+01 -2.80660E+01 -2.77421E+01
  -2.74753E+01 -2.72570E+01 -2.70128E+01 -2.66743E+01 -2.62488E+01 -2.58695E+01 -2.55961E+01 -2.53986E+01 -2.52966E+01 -2.52896E+01
  -2.53289E+01 -2.53363E+01 -2.52420E+01 -2.49216E+01 -2.39071E+01 -2.23413E+01 -2.09411E+01 -1.98494E+01 -1.87315E+01 -1.72366E+01
  -1.52250E+01 -1.31241E+01 -1.15602E+01 -1.07757E+01 -1.08154E+01 -1.17750E+01 -1.35611E+01 -1.57185E+01 -1.76940E+01 -1.91513E+01
  -1.99973E+01 -2.03238E+01 -2.04937E+01 -2.08257E+01 -2.10375E+01 -2.09453E+01 -2.06868E+01 -2.00033E+01 -1.82526E+01 -1.61458E+01
  -1.43292E+01 -1.27483E+01 -1.10419E+01 -8.77844E+00 -5.99068E+00 -3.43565E+00 -1.83616E+00 -1.36157E+00 -2.03970E+00 -3.89855E+00
  -6.61294E+00 -9.47506E+00 -1.19223E+01 -1.37071E+01 -1.48279E+01 -1.54739E+01 -1.61350E+01 -1.68902E+01 -1.71076E+01 -1.68700E+01
  -1.64531E+01 -1.59961E+01 -1.56159E+01 -1.54092E+01 -1.53790E+01 -1.54359E+01 -1.55290E+01 -1.56173E+01 -1.56679E+01 -1.56974E+01
  -1.57204E+01 -1.57510E+01 -1.58310E+01 -1.59010E+01 -1.59201E+01 -1.58838E+01 -1.57953E+01 -1.57242E+01 -1.57162E+01 -1.57401E+01
  -1.57439E+01 -1.56988E+01 -1.56047E+01 -1.54829E+01 -1.53535E+01 -1.52424E+01 -1.52011E+01 -1.52734E+01 -1.54196E+01 -1.55294E+01
  -1.55629E+01 -1.55500E+01 -1.55840E+01 -1.56650E+01 -1.57252E+01 -1.57093E+01 -1.56251E+01 -1.55483E+01 -1.55085E+01 -1.54301E+01
  -1.52581E+01 -1.50176E+01 -1.47385E+01 -1.44341E+01 -1.41041E+01 -1.37251E+01 -1.32651E+01 -1.27660E+01 -1.22691E+01 -1.18416E+01
  -1.14879E+01 -1.12105E+01 -1.10654E+01 -1.10754E+01 -1.12060E+01 -1.13383E+01 -1.13283E+01 -1.11127E+01 -1.07639E+01 -1.03301E+01
  -9.85912E+00 -9.49477E+00 -9.24081E+00 -9.11604E+00 -9.21667E+00 -9.52235E+00 -9.94248E+00 -1.02788E+01 -1.04700E+01 -1.05603E+01
  -1.04971E+01 -1.01814E+01 -9.59466E+00 -8.92730E+00 -8.42263E+00 -8.12569E+00 -8.00968E+00 -8.16418E+00 -8.64676E+00 -9.31877E+00
  -9.89876E+00 -1.01959E+01 -1.01287E+01 -9.73219E+00 -9.06214E+00 -8.24094E+00 -7.47699E+00 -6.89629E+00 -6.53650E+00 -6.34167E+00
  -6.25215E+00 -6.19482E+00 -6.07036E+00 -5.88033E+00 -5.68264E+00 -5.43615E+00 -5.18949E+00 -5.02640E+00 -4.98647E+00 -5.09181E+00
  -5.33122E+00 -5.57698E+00 -5.69149E+00 -5.62799E+00 -5.34855E+00 -4.85046E+00 -4.21104E+00 -3.56454E+00 -2.99725E+00 -2.48303E+00
  -1.76084E+00  1.99161E-01  3.51375E+00  6.72180E+00  9.33658E+00  1.16685E+01  1.43755E+01  1.78538E+01  2.13779E+01  2.37205E+01
   2.44342E+01  2.35387E+01  2.08967E+01  1.66039E+01  1.14997E+01  6.74170E+00  3.04332E+00  6.27847E-01 -6.19046E-01 -1.39652E+00
  -2.47648E+00 -3.39043E+00 -3.63371E+00 -3.66952E+00 -3.66063E+00 -3.63411E+00 -3.62049E+00 -3.64268E+00 -3.68999E+00 -3.74739E+00
  -3.80031E+00 -3.83652E+00 -3.84892E+00 -3.84119E+00 -3.81678E+00 -3.77740E+00 -3.72871E+00 -3.67441E+00 -3.61685E+00 -3.55742E+00
  -3.49494E+00 -3.42784E+00 -3.35802E+00 -3.28429E+00 -3.20569E+00 -3.12353E+00 -3.03924E+00 -2.95117E+00 -2.85925E+00 -2.76491E+00
  -2.66905E+00 -2.57183E+00 -2.47527E+00 -2.38050E+00 -2.28820E+00 -2.19929E+00 -2.11446E+00 -2.03352E+00 -1.95619E+00 -1.88174E+00
  -1.80999E+00 -1.73993E+00 -1.67085E+00 -1.60172E+00 -1.53170E+00 -1.45958E+00 -1.38468E+00 -1.30596E+00 -1.22302E+00 -1.13534E+00
  -1.04301E+00 -9.46010E-01 -8.44870E-01 -7.39940E-01 -6.32186E-01 -5.22388E-01 -4.11828E-01 -3.01405E-01 -1.92350E-01 -8.54282E-02
   1.83267E-02  1.18434E-01  2.14265E-01  3.05893E-01  3.93318E-01  4.77218E-01  5.58176E-01  6.37472E-01  7.16353E-01  7.96832E-01
   8.80901E-01  9.71266E-01  1.07053E+00  1.18191E+00  1.30827E+00  1.45257E+00  1.61649E+00  1.80058E+00  2.00276E+00  2.21851E+00
   2.43984E+00  2.65614E+00  2.85417E+00  3.02012E+00  3.14061E+00  3.20539E+00  3.20810E+00  3.14801E+00  3.02931E+00  2.86111E+00
   2.65526E+00  2.42531E+00  2.18397E+00  1.94247E+00  1.70899E+00  1.48914E+00  1.28563E+00  1.09954E+00  9.30305E-01  7.77082E-01
   6.38508E-01  5.13793E-01  4.02166E-01  3.03618E-01  2.18105E-01  1.46172E-01  8.81675E-02  4.49266E-02  1.70013E-02  5.32910E-03
   1.04637E-02  3.32656E-02  7.41882E-02  1.33982E-01  2.12939E-01  3.11523E-01  4.29575E-01  5.66962E-01  7.22817E-01  8.96169E-01
   1.08516E+00  1.28767E+00  1.50056E+00  1.72039E+00  1.94281E+00  2.16331E+00  2.37662E+00  2.57758E+00  2.76060E+00  2.92068E+00
   3.05288E+00  3.15330E+00  3.21850E+00  3.24643E+00  3.23582E+00  3.18696E+00  3.10102E+00  2.98062E+00  2.82902E+00  2.65059E+00
   2.44997E+00  2.23252E+00  2.00337E+00  1.76789E+00  1.53080E+00  1.29667E+00  1.06917E+00  8.51662E-01  6.46501E-01  4.55677E-01
   2.80184E-01  1.20778E-01 -2.25976E-02 -1.50058E-01 -2.62379E-01 -3.60251E-01 -4.44864E-01 -5.17152E-01 -5.78396E-01 -6.29521E-01
  -6.71755E-01 -7.05942E-01 -7.33181E-01 -7.54134E-01 -7.69690E-01 -7.80325E-01 -7.86779E-01 -7.89400E-01 -7.88793E-01 -7.85153E-01
  -7.78946E-01 -7.70272E-01 -7.59538E-01 -7.46796E-01 -7.32383E-01 -7.16267E-01 -6.98724E-01 -6.79698E-01 -6.59461E-01 -6.37942E-01
  -6.15369E-01 -5.91622E-01 -5.66906E-01 -5.41119E-01 -5.14491E-01 -4.86915E-01 -4.58588E-01 -4.29375E-01 -3.99475E-01 -3.68780E-01
  -3.37496E-01 -3.05492E-01 -2.72940E-01 -2.39696E-01 -2.05954E-01 -1.71593E-01 -1.36804E-01 -1.01439E-01 -6.56630E-02 -2.93328E-02
   7.36113E-03  4.45450E-02  8.20436E-02  1.20014E-01  1.58295E-01  1.97024E-01  2.36011E-01  2.75391E-01  3.14999E-01  3.54995E-01
   3.95217E-01  4.35798E-01  4.76552E-01  5.17623E-01  5.58857E-01  6.00415E-01  6.42131E-01  6.84136E-01  7.26251E-01  7.68632E-01
   8.11134E-01  8.53916E-01  8.96812E-01  9.39955E-01  9.83184E-01  1.02667E+00  1.07027E+00  1.11417E+00
 NY background values follow
    -5.944E+01   -5.901E+01   -5.858E+01   -5.816E+01   -5.773E+01   -5.731E+01   -5.688E+01   -5.646E+01   -5.603E+01   -5.561E+01
    -5.519E+01   -5.476E+01   -5.434E+01   -5.392E+01   -5.350E+01   -5.308E+01   -5.266E+01   -5.224E+01   -5.182E+01   -5.140E+01
    -5.099E+01   -5.057E+01   -5.016E+01   -4.974E+01   -4.933E+01   -4.892E+01   -4.851E+01   -4.811E+01   -4.770E+01   -4.730E+01
    -4.689E+01   -4.649E+01   -4.609E+01   -4.570E+01   -4.530E+01   -4.491E+01   -4.452E+01   -4.413E+01   -4.374E+01   -4.336E+01
    -4.297E+01   -4.259E+01   -4.221E+01   -4.184E+01   -4.146E+01   -4.109E+01   -4.073E+01   -4.036E+01   -4.000E+01   -3.964E+01
    -3.928E+01   -3.892E+01   -3.857E+01   -3.822E+01   -3.787E+01   -3.753E+01   -3.719E+01   -3.685E+01   -3.651E+01   -3.618E+01
    -3.585E+01   -3.552E+01   -3.519E+01   -3.487E+01   -3.455E+01   -3.423E+01   -3.392E+01   -3.360E+01   -3.329E+01   -3.299E+01
    -3.268E+01   -3.238E+01   -3.208E+01   -3.178E+01   -3.149E+01   -3.120E+01   -3.091E+01   -3.063E+01   -3.034E+01   -3.006E+01
    -2.979E+01   -2.951E+01   -2.924E+01   -2.897E+01   -2.870E+01   -2.844E+01   -2.818E+01   -2.792E+01   -2.766E+01   -2.741E+01
    -2.716E+01   -2.691E+01   -2.667E+01   -2.643E+01   -2.619E+01   -2.595E+01   -2.572E+01   -2.549E+01   -2.526E+01   -2.503E+01
    -2.481E+01   -2.459E+01   -2.437E+01   -2.416E+01   -2.394E+01   -2.373E+01   -2.352E+01   -2.332E+01   -2.311E+01   -2.291E+01
    -2.272E+01   -2.252E+01   -2.233E+01   -2.213E+01   -2.194E+01   -2.176E+01   -2.157E+01   -2.139E+01   -2.121E+01   -2.103E+01
    -2.086E+01   -2.068E+01   -2.051E+01   -2.034E+01   -2.018E+01   -2.001E+01   -1.985E+01   -1.969E+01   -1.953E+01   -1.937E+01
    -1.922E+01   -1.906E+01   -1.891E+01   -1.876E+01   -1.861E+01   -1.847E+01   -1.833E+01   -1.818E+01   -1.804E+01   -1.791E+01
    -1.777E+01   -1.763E+01   -1.750E+01   -1.737E+01   -1.724E+01   -1.711E+01   -1.699E+01   -1.686E+01   -1.674E+01   -1.661E+01
    -1.649E+01   -1.637E+01   -1.625E+01   -1.614E+01   -1.602E+01   -1.591E+01   -1.579E+01   -1.568E+01   -1.557E+01   -1.546E+01
    -1.535E+01   -1.524E+01   -1.514E+01   -1.503E+01   -1.493E+01   -1.482E+01   -1.472E+01   -1.462E+01   -1.452E+01   -1.441E+01
    -1.431E+01   -1.421E+01   -1.412E+01   -1.402E+01   -1.392E+01   -1.382E+01   -1.373E+01   -1.363E+01   -1.353E+01   -1.344E+01
    -1.334E+01   -1.325E+01   -1.316E+01   -1.306E+01   -1.297E+01   -1.288E+01   -1.278E+01   -1.269E+01   -1.260E+01   -1.251E+01
    -1.241E+01   -1.232E+01   -1.223E+01   -1.214E+01   -1.205E+01   -1.196E+01   -1.187E+01   -1.178E+01   -1.169E+01   -1.160E+01
    -1.151E+01   -1.142E+01   -1.133E+01   -1.124E+01   -1.116E+01   -1.107E+01   -1.098E+01   -1.089E+01   -1.080E+01   -1.071E+01
    -1.063E+01   -1.054E+01   -1.045E+01   -1.036E+01   -1.028E+01   -1.019E+01   -1.010E+01   -1.002E+01   -9.930E+00   -9.844E+00
    -9.757E+00   -9.671E+00   -9.584E+00   -9.498E+00   -9.411E+00   -9.325E+00   -9.239E+00   -9.153E+00   -9.067E+00   -8.980E+00
    -8.894E+00   -8.809E+00   -8.723E+00   -8.637E+00   -8.552E+00   -8.466E+00   -8.381E+00   -8.296E+00   -8.211E+00   -8.127E+00
    -8.043E+00   -7.959E+00   -7.875E+00   -7.791E+00   -7.708E+00   -7.626E+00   -7.543E+00   -7.461E+00   -7.379E+00   -7.298E+00
    -7.217E+00   -7.137E+00   -7.057E+00   -6.977E+00   -6.898E+00   -6.820E+00   -6.742E+00   -6.664E+00   -6.587E+00   -6.511E+00
    -6.435E+00   -6.360E+00   -6.285E+00   -6.211E+00   -6.138E+00   -6.066E+00   -5.994E+00   -5.922E+00   -5.852E+00   -5.782E+00
    -5.713E+00   -5.645E+00   -5.577E+00   -5.510E+00   -5.444E+00   -5.379E+00   -5.315E+00   -5.251E+00   -5.188E+00   -5.126E+00
    -5.064E+00   -5.004E+00   -4.944E+00   -4.885E+00   -4.826E+00   -4.768E+00   -4.711E+00   -4.655E+00   -4.599E+00   -4.544E+00
    -4.490E+00   -4.436E+00   -4.384E+00   -4.331E+00   -4.280E+00   -4.229E+00   -4.179E+00   -4.129E+00   -4.081E+00   -4.032E+00
    -3.985E+00   -3.938E+00   -3.892E+00   -3.846E+00   -3.801E+00   -3.757E+00   -3.713E+00   -3.670E+00   -3.628E+00   -3.586E+00
    -3.545E+00   -3.504E+00   -3.464E+00   -3.425E+00   -3.386E+00   -3.348E+00   -3.310E+00   -3.273E+00   -3.236E+00   -3.200E+00
    -3.165E+00   -3.130E+00   -3.096E+00   -3.062E+00   -3.029E+00   -2.996E+00   -2.964E+00   -2.932E+00   -2.901E+00   -2.870E+00
    -2.840E+00   -2.811E+00   -2.782E+00   -2.753E+00   -2.725E+00   -2.697E+00   -2.670E+00   -2.644E+00   -2.618E+00   -2.592E+00
    -2.567E+00   -2.542E+00   -2.517E+00   -2.494E+00   -2.470E+00   -2.447E+00   -2.425E+00   -2.403E+00   -2.381E+00   -2.360E+00
    -2.339E+00   -2.318E+00   -2.298E+00   -2.279E+00   -2.259E+00   -2.240E+00   -2.222E+00   -2.204E+00   -2.186E+00   -2.169E+00
    -2.152E+00   -2.135E+00   -2.119E+00   -2.103E+00   -2.087E+00   -2.072E+00   -2.057E+00   -2.043E+00   -2.028E+00   -2.014E+00
    -2.000E+00   -1.987E+00   -1.973E+00   -1.960E+00   -1.947E+00   -1.934E+00   -1.921E+00   -1.909E+00   -1.897E+00   -1.884E+00
    -1.872E+00   -1.860E+00   -1.848E+00   -1.836E+00   -1.825E+00   -1.813E+00   -1.801E+00   -1.789E+00   -1.778E+00   -1.766E+00
    -1.754E+00   -1.742E+00   -1.730E+00   -1.718E+00   -1.706E+00   -1.694E+00   -1.682E+00   -1.670E+00   -1.657E+00   -1.645E+00
    -1.632E+00   -1.619E+00   -1.606E+00   -1.592E+00   -1.579E+00   -1.565E+00   -1.551E+00   -1.536E+00   -1.522E+00   -1.507E+00
    -1.492E+00   -1.476E+00   -1.460E+00   -1.444E+00   -1.428E+00   -1.411E+00   -1.394E+00   -1.377E+00   -1.359E+00   -1.341E+00
    -1.323E+00   -1.305E+00   -1.286E+00   -1.266E+00   -1.247E+00   -1.227E+00   -1.206E+00   -1.185E+00   -1.164E+00   -1.143E+00
    -1.121E+00   -1.099E+00   -1.076E+00   -1.053E+00   -1.030E+00   -1.006E+00   -9.814E-01   -9.567E-01   -9.316E-01   -9.061E-01
    -8.801E-01   -8.538E-01   -8.269E-01   -7.996E-01   -7.719E-01   -7.437E-01   -7.151E-01   -6.860E-01   -6.564E-01   -6.264E-01
    -5.959E-01   -5.648E-01   -5.334E-01   -5.014E-01   -4.689E-01   -4.360E-01   -4.026E-01   -3.687E-01   -3.345E-01   -2.998E-01
    -2.646E-01   -2.291E-01   -1.932E-01   -1.569E-01   -1.203E-01   -8.325E-02   -4.588E-02   -8.182E-03    2.985E-02    6.819E-02
     1.068E-01    1.458E-01    1.850E-01    2.245E-01    2.642E-01    3.042E-01    3.445E-01    3.849E-01    4.256E-01    4.665E-01
     5.076E-01    5.489E-01    5.903E-01    6.319E-01    6.736E-01    7.155E-01    7.575E-01    7.997E-01    8.419E-01    8.842E-01
     9.267E-01    9.692E-01    1.012E+00    1.054E+00    1.097E+00    1.140E+00    1.182E+00    1.225E+00
 Asp      Conc. = 8.89E+01
