 LCModel (Version 6.3-1L) Copyright: S.W. Provencher.          Ref.: Magn. Reson. Med. 30:672-679 (1993).                
 Slice#2 Row#14 Col#2  PD_05_press_1_raw_act
 36 lines in following concentration table = NCONC+1
    Conc.  %SD /Cr+PCr  Metabolite                                         
    0.000 999%   0.000 Ala                                                 
   29.030  62%   0.243 Asp                                                 
    0.000 999%   0.000 Cr                                                  
  119.410  24%   1.000 PCr                                                 
   11.455  95% 9.6E-02 GABA                                                
   12.255  89%   0.103 Glc                                                 
 1.55E+03  15%  12.978 Gln                                                 
 2.65E+03  11%  22.199 Glu                                                 
    0.000 999%   0.000 GPC                                                 
   49.826  21%   0.417 PCh                                                 
    0.000 999%   0.000 GSH                                                 
  477.071  26%   3.995 Ins                                                 
    0.000 999%   0.000 Lac                                                 
  160.734  18%   1.346 NAA                                                 
    0.000 999%   0.000 NAAG                                                
    4.939  72% 4.1E-02 Scyllo                                              
   26.322  67%   0.220 Tau                                                 
   10.445  95% 8.7E-02 -CrCH2                                              
   49.826  21%   0.417 GPC+PCh                                             
  160.734  18%   1.346 NAA+NAAG                                            
  119.410  24%   1.000 Cr+PCr                                              
 4.20E+03   9%  35.177 Glu+Gln                                             
    0.000 999%   0.000 Lip13a                                              
    0.000 999%   0.000 Lip13b                                              
    0.000 999%   0.000 Lip09                                               
   11.746 170% 9.8E-02 MM09                                                
 5.53E-02 999% 4.6E-04 Lip20                                               
   23.779 140%   0.199 MM20                                                
    3.107 233% 2.6E-02 MM12                                                
    0.000 999%   0.000 MM14                                                
    9.238 152% 7.7E-02 MM17                                                
    0.000 999%   0.000 Lip13a+Lip13b                                       
    3.107 233% 2.6E-02 MM14+Lip13a+Lip13b+MM12                             
   11.746 170% 9.8E-02 MM09+Lip09                                          
   23.834 140%   0.200 MM20+Lip20                                          
   6 lines in following misc. output table
  FWHM = 0.199 ppm    S/N =   2                                            
  Data shift = 0.275 ppm                                                   
  Ph:-112 deg      12.6 deg/ppm                                            
  alphaB,S = 3.7E+00,   2.0E+02                                            
    8 spline knots.   Ns = 9(2)                                            
  (16) 2 infls.   (19) 1 extrs.                                            
  498 points on ppm-axis = NY
      4.000000     3.992357     3.984714     3.977070     3.969427     3.961784     3.954141     3.946497     3.938854     3.931211
      3.923568     3.915925     3.908281     3.900638     3.892995     3.885352     3.877708     3.870065     3.862422     3.854779
      3.847136     3.839492     3.831849     3.824206     3.816563     3.808919     3.801276     3.793633     3.785990     3.778347
      3.770703     3.763060     3.755417     3.747774     3.740130     3.732487     3.724844     3.717201     3.709558     3.701914
      3.694271     3.686628     3.678985     3.671341     3.663698     3.656055     3.648412     3.640769     3.633125     3.625482
      3.617839     3.610196     3.602552     3.594909     3.587266     3.579623     3.571980     3.564336     3.556693     3.549050
      3.541407     3.533763     3.526120     3.518477     3.510834     3.503191     3.495547     3.487904     3.480261     3.472618
      3.464974     3.457331     3.449688     3.442045     3.434402     3.426758     3.419115     3.411472     3.403829     3.396185
      3.388542     3.380899     3.373256     3.365613     3.357969     3.350326     3.342683     3.335040     3.327396     3.319753
      3.312110     3.304467     3.296824     3.289180     3.281537     3.273894     3.266251     3.258607     3.250964     3.243321
      3.235678     3.228034     3.220391     3.212748     3.205105     3.197462     3.189818     3.182175     3.174532     3.166889
      3.159245     3.151602     3.143959     3.136316     3.128673     3.121029     3.113386     3.105743     3.098100     3.090456
      3.082813     3.075170     3.067527     3.059884     3.052240     3.044597     3.036954     3.029311     3.021667     3.014024
      3.006381     2.998738     2.991095     2.983451     2.975808     2.968165     2.960522     2.952878     2.945235     2.937592
      2.929949     2.922306     2.914662     2.907019     2.899376     2.891733     2.884089     2.876446     2.868803     2.861160
      2.853517     2.845873     2.838230     2.830587     2.822944     2.815300     2.807657     2.800014     2.792371     2.784728
      2.777084     2.769441     2.761798     2.754155     2.746511     2.738868     2.731225     2.723582     2.715939     2.708295
      2.700652     2.693009     2.685366     2.677722     2.670079     2.662436     2.654793     2.647150     2.639506     2.631863
      2.624220     2.616577     2.608933     2.601290     2.593647     2.586004     2.578361     2.570717     2.563074     2.555431
      2.547788     2.540144     2.532501     2.524858     2.517215     2.509572     2.501928     2.494285     2.486642     2.478999
      2.471355     2.463712     2.456069     2.448426     2.440783     2.433139     2.425496     2.417853     2.410210     2.402566
      2.394923     2.387280     2.379637     2.371994     2.364350     2.356707     2.349064     2.341421     2.333777     2.326134
      2.318491     2.310848     2.303205     2.295561     2.287918     2.280275     2.272632     2.264988     2.257345     2.249702
      2.242059     2.234416     2.226772     2.219129     2.211486     2.203843     2.196199     2.188556     2.180913     2.173270
      2.165627     2.157983     2.150340     2.142697     2.135054     2.127410     2.119767     2.112124     2.104481     2.096838
      2.089194     2.081551     2.073908     2.066265     2.058621     2.050978     2.043335     2.035692     2.028049     2.020405
      2.012762     2.005119     1.997476     1.989833     1.982190     1.974546     1.966903     1.959260     1.951617     1.943974
      1.936331     1.928688     1.921045     1.913402     1.905759     1.898115     1.890472     1.882829     1.875186     1.867543
      1.859900     1.852257     1.844614     1.836971     1.829327     1.821684     1.814041     1.806398     1.798755     1.791112
      1.783469     1.775826     1.768183     1.760540     1.752896     1.745253     1.737610     1.729967     1.722324     1.714681
      1.707038     1.699395     1.691752     1.684108     1.676465     1.668822     1.661179     1.653536     1.645893     1.638250
      1.630607     1.622964     1.615321     1.607677     1.600034     1.592391     1.584748     1.577105     1.569462     1.561819
      1.554176     1.546533     1.538890     1.531246     1.523603     1.515960     1.508317     1.500674     1.493031     1.485388
      1.477745     1.470102     1.462458     1.454815     1.447172     1.439529     1.431886     1.424243     1.416600     1.408957
      1.401314     1.393671     1.386027     1.378384     1.370741     1.363098     1.355455     1.347812     1.340169     1.332526
      1.324883     1.317240     1.309596     1.301953     1.294310     1.286667     1.279024     1.271381     1.263738     1.256095
      1.248452     1.240808     1.233165     1.225522     1.217879     1.210236     1.202593     1.194950     1.187307     1.179664
      1.172021     1.164377     1.156734     1.149091     1.141448     1.133805     1.126162     1.118519     1.110876     1.103233
      1.095590     1.087946     1.080303     1.072660     1.065017     1.057374     1.049731     1.042088     1.034445     1.026802
      1.019158     1.011515     1.003872     0.996229     0.988586     0.980943     0.973300     0.965657     0.958014     0.950371
      0.942727     0.935084     0.927441     0.919798     0.912155     0.904512     0.896869     0.889226     0.881583     0.873940
      0.866296     0.858653     0.851010     0.843367     0.835724     0.828081     0.820438     0.812795     0.805152     0.797508
      0.789865     0.782222     0.774579     0.766936     0.759293     0.751650     0.744007     0.736364     0.728721     0.721077
      0.713434     0.705791     0.698148     0.690505     0.682862     0.675219     0.667576     0.659933     0.652290     0.644646
      0.637003     0.629360     0.621717     0.614074     0.606431     0.598788     0.591145     0.583502     0.575858     0.568215
      0.560572     0.552929     0.545286     0.537643     0.530000     0.522357     0.514714     0.507071     0.499427     0.491784
      0.484141     0.476498     0.468855     0.461212     0.453569     0.445925     0.438282     0.430639     0.422996     0.415353
      0.407710     0.400067     0.392424     0.384780     0.377137     0.369494     0.361851     0.354208     0.346565     0.338922
      0.331278     0.323635     0.315992     0.308349     0.300706     0.293063     0.285420     0.277777     0.270133     0.262490
      0.254847     0.247204     0.239561     0.231918     0.224275     0.216631     0.208988     0.201345
 NY phased data points follow
  -4.10311E+00 -2.54816E+00 -3.56211E+00 -3.76287E+00 -3.95358E+00 -2.93427E+00 -2.24217E+00 -3.58256E+00 -4.29133E+00 -3.35948E+00
  -1.38418E+00 -2.07251E+00 -1.93288E+00 -1.97188E+00 -3.47022E+00 -2.33477E+00 -1.54347E+00 -3.67822E+00 -1.77391E+00 -2.72600E+00
  -2.21022E+00 -2.23118E+00 -2.36007E+00 -7.09286E-01 -2.04947E+00 -1.37974E+00 -9.80927E-01 -2.31528E+00 -1.61448E+00 -2.08691E+00
  -2.22085E+00 -3.52890E+00 -1.75120E+00 -2.03546E+00 -1.08447E+00 -1.72900E+00 -5.70356E-01 -7.58007E-01 -1.40580E+00 -1.58925E+00
  -1.27730E+00 -9.90310E-01  1.42063E+00 -3.44326E-01 -5.55868E-02 -2.02339E-01  9.93651E-01 -6.39677E-01 -6.43694E-01 -2.08404E-01
  -7.30793E-01 -5.18104E-01 -7.00109E-01 -4.11744E-01 -9.19953E-01 -1.34087E-01 -3.86161E-01  8.55776E-02  8.51994E-01  1.35882E-01
   2.08208E-01 -1.23212E+00 -1.88308E-01 -1.98431E+00  1.77539E-01 -1.63569E+00 -9.96195E-01  5.88843E-01 -1.06438E+00 -3.23716E-01
  -1.84377E+00  3.92527E-01  1.25524E-01  5.03934E-01  1.60662E+00 -1.35667E+00 -8.18604E-01  9.08544E-01 -2.24068E+00  1.21004E+00
   2.63904E-01  2.15764E-01  4.71471E-01 -4.96432E-01 -1.64012E+00 -9.84063E-01 -1.74706E+00 -8.67076E-01 -1.33549E+00  3.82187E-01
  -7.97517E-01 -9.02897E-01  1.28964E+00 -7.14078E-01 -5.84057E-01  3.34092E-01  3.32372E-01  1.52047E-01  4.95321E-01 -1.13138E-01
   1.73740E-01 -2.62116E-02  1.04443E+00 -5.37581E-01  1.05482E+00  2.85024E-01  9.47713E-01  2.46527E-01  2.04780E+00  1.88229E+00
   2.05985E+00  2.71348E-01  1.25586E+00  1.86689E+00  1.57265E+00  1.00142E+00  1.43571E+00  2.25003E+00  1.17321E+00  1.58792E+00
   1.93009E+00  2.07789E+00  1.14931E+00  2.68883E+00  2.08138E+00  1.54069E+00  1.20645E+00  3.06723E+00  3.42463E-02  9.46365E-01
   7.39102E-01  1.95288E-01  8.32873E-01  1.90805E+00  1.37986E+00  3.07219E+00  2.15840E+00  1.42754E+00  1.78401E+00  9.89994E-01
   1.77447E+00  3.35836E-01  1.35331E+00  2.43345E+00  1.61426E+00  4.70598E-01  9.62447E-01  1.17006E+00  1.94412E+00 -7.50610E-02
   1.54752E+00  9.59659E-01  9.97302E-01  2.07652E-01  3.04906E-01  3.50476E-01  8.54154E-01  5.01307E-01  1.34990E-01  8.20431E-02
   5.11475E-01  1.65461E+00  2.17816E-01  2.23173E+00 -3.28677E-02  1.18694E+00  1.97580E+00  2.42753E-01  6.52401E-01  1.68057E+00
   2.30495E+00  1.45983E+00  2.35905E+00  5.96966E-01  3.01943E+00  1.89150E+00  2.42566E+00  4.01816E+00  1.55828E+00  2.81092E+00
   2.90795E+00  3.58015E+00  4.13445E+00  2.83210E+00  1.77862E+00  1.69250E+00  2.43684E+00  1.45812E+00  3.68557E+00  2.97888E+00
   3.70719E+00  3.41827E+00  2.63891E+00  3.55074E+00  4.06518E+00  3.34427E+00  4.09666E+00  2.45603E+00  3.16205E+00  3.02853E+00
   3.65466E+00  3.88065E+00  4.60505E+00  4.55395E+00  2.67879E+00  4.31062E+00  3.18294E+00  4.56588E+00  4.93710E+00  2.40914E+00
   4.98519E+00  3.95864E+00  5.42238E+00  3.35975E+00  5.28469E+00  5.00762E+00  5.19168E+00  6.15798E+00  5.79751E+00  5.03924E+00
   6.05116E+00  5.22676E+00  4.91391E+00  5.98547E+00  4.01048E+00  5.63281E+00  6.59546E+00  4.79240E+00  4.03862E+00  5.35689E+00
   6.17050E+00  5.15730E+00  3.62158E+00  5.09489E+00  5.19131E+00  4.74526E+00  4.84500E+00  4.79574E+00  6.33367E+00  5.94805E+00
   6.61659E+00  6.65857E+00  7.86507E+00  5.68838E+00  6.24315E+00  5.79366E+00  5.61176E+00  5.68231E+00  5.19949E+00  4.34191E+00
   5.81306E+00  6.18375E+00  6.08141E+00  5.98461E+00  7.49814E+00  5.79945E+00  7.35358E+00  6.10743E+00  6.96185E+00  7.56176E+00
   6.89735E+00  6.61431E+00  6.57593E+00  7.00548E+00  7.32727E+00  7.55222E+00  7.86514E+00  6.99250E+00  7.54813E+00  8.07796E+00
   9.09099E+00  9.30688E+00  8.27726E+00  8.87086E+00  8.56831E+00  8.62194E+00  1.02248E+01  7.18966E+00  6.73851E+00  7.25317E+00
   8.36345E+00  7.92963E+00  7.98381E+00  7.73573E+00  5.40276E+00  6.91859E+00  6.53236E+00  6.67018E+00  5.15113E+00  5.40329E+00
   5.04504E+00  5.30482E+00  5.57721E+00  4.39985E+00  4.12728E+00  3.81433E+00  4.89551E+00  5.37555E+00  3.77923E+00  4.04564E+00
   3.34992E+00  5.24654E+00  5.92752E+00  2.66731E+00  3.13228E+00  4.09656E+00  4.42370E+00  4.35645E+00  3.76490E+00  2.76912E+00
   5.29454E+00  6.38686E+00  3.64861E+00  3.93768E+00  4.24305E+00  3.50984E+00  4.55697E+00  3.89156E+00  3.38071E+00  5.05604E+00
   4.36024E+00  2.07990E+00  4.68385E+00  3.00826E+00  3.82464E+00  2.59355E+00  3.36075E+00  4.34637E+00  6.64696E+00  3.04184E+00
   4.55510E+00  3.79361E+00  4.68360E+00  3.64283E+00  6.05559E+00  3.31149E+00  3.78461E+00  4.45022E+00  4.13988E+00  4.31373E+00
   3.69935E+00  3.71480E+00  5.38541E+00  4.47901E+00  4.65455E+00  4.27443E+00  5.01706E+00  4.56595E+00  2.01156E+00  3.46717E+00
   4.63926E+00  2.89619E+00  3.50319E+00  5.89325E+00  3.41574E+00  4.26008E+00  4.52931E+00  4.09416E+00  3.47455E+00  3.53680E+00
   5.05843E+00  2.98094E+00  3.55537E+00  3.40423E+00  3.75232E+00  3.75208E+00  3.75744E+00  4.55063E+00  3.98396E+00  2.61220E+00
   3.13765E+00  3.65305E+00  3.56914E+00  2.44760E+00  3.71467E+00  4.33996E+00  4.63634E+00  4.70276E+00  2.33586E+00  4.32699E+00
   3.79249E+00  3.86817E+00  3.22206E+00  3.65117E+00  3.21027E+00  2.04296E+00  4.52906E+00  2.86111E+00  3.84170E+00  2.89804E+00
   4.19736E+00  3.99594E+00  3.67884E+00  3.69033E+00  3.99530E+00  3.95023E+00  2.68328E+00  2.25027E+00  2.67164E+00  4.75918E+00
   4.51244E+00  3.24045E+00  3.55420E+00  3.42947E+00  4.11319E+00  2.83199E+00  5.05764E+00  3.56407E+00  4.30751E+00  1.48465E+00
   3.29891E+00  4.00399E+00  2.51677E+00  2.98191E+00  2.85079E+00  3.14543E+00  2.32193E+00  1.64895E+00  4.65464E+00  3.14187E+00
   2.18547E+00  3.35336E+00  1.42012E+00  3.96914E+00  2.73120E+00  1.95328E+00  2.84657E+00  2.25831E+00  1.22581E+00  2.99877E+00
   2.81372E+00  2.30217E+00  3.37012E+00  2.11824E+00  3.32396E+00  2.86710E+00  2.34819E+00  2.10741E+00  1.65435E+00  3.29396E+00
   2.15078E+00  1.91276E+00  3.71019E+00  2.51849E+00  1.82155E+00  4.54525E+00  2.79681E+00  3.32697E+00  2.63232E+00  2.93791E+00
   3.16236E+00  3.47187E+00  3.03642E+00  2.24840E+00  1.82741E+00  2.38917E+00  3.63379E+00  2.57262E+00  2.43497E+00  1.90336E+00
   1.13609E+00  3.32613E+00  2.89138E+00  2.05354E+00  1.37395E+00  2.67913E+00  1.89872E+00  3.13419E+00  3.90741E+00  2.84618E+00
   2.03127E+00  2.23775E+00  3.61552E+00  2.23464E+00  3.05136E+00  2.50294E+00  2.66667E+00  2.25050E+00  1.78083E+00  3.69496E+00
   2.54650E+00  2.39423E+00  3.47039E+00  2.99058E+00  1.50846E+00  2.25903E+00  2.50708E+00  3.08751E+00  2.53320E+00  2.52014E+00
   1.83119E+00  2.43913E+00  3.39750E+00  1.54814E+00  2.65415E+00  2.07451E+00  1.87609E+00  3.27465E+00
 NY points of the fit to the data follow
  -4.07822E+00 -3.86665E+00 -3.80188E+00 -3.61257E+00 -3.57397E+00 -3.40672E+00 -3.38262E+00 -3.19054E+00 -3.16339E+00 -3.02066E+00
  -3.01174E+00 -2.95999E+00 -2.96172E+00 -3.00549E+00 -2.92566E+00 -2.94133E+00 -2.69441E+00 -2.72276E+00 -2.32942E+00 -2.38909E+00
  -1.97014E+00 -2.07261E+00 -1.64210E+00 -1.79538E+00 -1.36329E+00 -1.58368E+00 -1.17071E+00 -1.54524E+00 -1.14029E+00 -1.61632E+00
  -1.10424E+00 -1.47117E+00 -8.09247E-01 -1.13161E+00 -4.14815E-01 -7.76568E-01 -1.39527E-01 -5.83071E-01 -6.00346E-02 -4.33889E-01
   8.39143E-03 -2.45506E-01  1.00029E-01 -5.96924E-02  1.10423E-01  6.18503E-02  1.23566E-01  2.55398E-01  2.18339E-01  1.06667E-01
  -9.67936E-02 -3.23723E-01 -5.33238E-01 -6.42681E-01 -4.36904E-01 -2.49864E-01  1.01165E-02  4.61802E-02  1.46899E-01 -5.45139E-02
  -1.90616E-01 -3.06669E-01 -3.96224E-01 -4.77535E-01 -5.62196E-01 -6.30758E-01 -7.20423E-01 -7.71783E-01 -8.37129E-01 -8.27084E-01
  -7.87437E-01 -7.13557E-01 -6.83364E-01 -6.44174E-01 -6.53681E-01 -6.38829E-01 -6.76297E-01 -6.73019E-01 -7.24157E-01 -7.12229E-01
  -7.70647E-01 -7.42444E-01 -7.71445E-01 -7.12416E-01 -7.26434E-01 -6.39892E-01 -6.31080E-01 -5.54643E-01 -5.17926E-01 -4.64602E-01
  -3.73132E-01 -3.57040E-01 -2.05661E-01 -2.39883E-01 -3.27337E-02 -9.73581E-02  1.35202E-01  3.49879E-02  2.68499E-01  1.46428E-01
   3.84686E-01  2.64648E-01  5.27799E-01  4.23199E-01  7.34664E-01  6.21594E-01  9.71035E-01  8.29433E-01  1.22233E+00  1.06320E+00
   1.44414E+00  1.26756E+00  1.62244E+00  1.45575E+00  1.75361E+00  1.58379E+00  1.77339E+00  1.63002E+00  1.69660E+00  1.60607E+00
   1.53685E+00  1.49335E+00  1.30421E+00  1.35723E+00  1.12721E+00  1.37860E+00  1.24745E+00  1.53744E+00  1.39515E+00  1.70263E+00
   1.53063E+00  1.83788E+00  1.63930E+00  1.94086E+00  1.71451E+00  1.99706E+00  1.74322E+00  1.98765E+00  1.69987E+00  1.87502E+00
   1.58365E+00  1.68556E+00  1.41936E+00  1.45181E+00  1.23409E+00  1.20644E+00  1.07791E+00  1.03729E+00  1.06991E+00  1.11026E+00
   1.15125E+00  1.19447E+00  1.23452E+00  1.27858E+00  1.31637E+00  1.36017E+00  1.39512E+00  1.43731E+00  1.46907E+00  1.50827E+00
   1.53852E+00  1.57568E+00  1.60539E+00  1.64034E+00  1.66991E+00  1.70572E+00  1.73869E+00  1.77674E+00  1.81328E+00  1.85245E+00
   1.89267E+00  1.93485E+00  1.97857E+00  2.02502E+00  2.07150E+00  2.11868E+00  2.15477E+00  2.19494E+00  2.21084E+00  2.23054E+00
   2.23384E+00  2.23073E+00  2.23900E+00  2.23908E+00  2.31073E+00  2.34699E+00  2.50037E+00  2.60279E+00  2.81526E+00  2.93697E+00
   3.15353E+00  3.18136E+00  3.28828E+00  3.18432E+00  3.24696E+00  3.03599E+00  3.14863E+00  2.98735E+00  3.22457E+00  3.13147E+00
   3.51175E+00  3.48267E+00  3.90592E+00  3.80106E+00  4.16251E+00  3.96424E+00  4.24034E+00  3.89532E+00  4.10461E+00  3.63459E+00
   3.88525E+00  3.42796E+00  3.83154E+00  3.47126E+00  4.01818E+00  3.75355E+00  4.27456E+00  3.94834E+00  4.32409E+00  3.88215E+00
   4.20399E+00  3.79461E+00  4.18612E+00  4.00092E+00  4.53195E+00  4.49272E+00  4.98583E+00  4.95865E+00  5.25345E+00  5.04536E+00
   5.12451E+00  4.56686E+00  4.43059E+00  4.02982E+00  4.34327E+00  4.27240E+00  4.95825E+00  5.38093E+00  5.95746E+00  6.24665E+00
   6.56292E+00  6.58163E+00  6.53594E+00  6.16359E+00  5.95136E+00  5.78808E+00  5.80354E+00  5.75602E+00  5.94917E+00  5.95685E+00
   6.21268E+00  6.21061E+00  6.44499E+00  6.36715E+00  6.63594E+00  6.48461E+00  6.78717E+00  6.53405E+00  6.81533E+00  6.61217E+00
   7.12676E+00  6.97670E+00  7.59161E+00  7.50403E+00  7.96293E+00  7.72884E+00  8.13295E+00  7.76581E+00  8.00189E+00  7.60368E+00
   7.67880E+00  7.18468E+00  7.09442E+00  6.70465E+00  6.61625E+00  6.32426E+00  6.20089E+00  5.94545E+00  5.74964E+00  5.45704E+00
   5.33009E+00  5.17051E+00  5.28257E+00  5.23354E+00  5.31039E+00  5.32592E+00  5.31354E+00  5.32460E+00  5.29436E+00  5.28896E+00
   5.22826E+00  5.20471E+00  5.12569E+00  5.09038E+00  5.04123E+00  5.03454E+00  5.00655E+00  5.00373E+00  4.98678E+00  4.98120E+00
   4.96724E+00  4.94833E+00  4.93075E+00  4.91275E+00  4.89618E+00  4.87955E+00  4.86405E+00  4.84870E+00  4.83400E+00  4.81785E+00
   4.80275E+00  4.78766E+00  4.77251E+00  4.75707E+00  4.74227E+00  4.72712E+00  4.71243E+00  4.69760E+00  4.68316E+00  4.66873E+00
   4.65454E+00  4.64050E+00  4.62668E+00  4.61317E+00  4.60033E+00  4.58740E+00  4.57477E+00  4.56214E+00  4.54980E+00  4.53736E+00
   4.52515E+00  4.51279E+00  4.50062E+00  4.48827E+00  4.47609E+00  4.46373E+00  4.45151E+00  4.43910E+00  4.42683E+00  4.41436E+00
   4.40203E+00  4.38949E+00  4.37709E+00  4.36448E+00  4.35200E+00  4.33931E+00  4.32675E+00  4.31396E+00  4.30131E+00  4.28841E+00
   4.27563E+00  4.26260E+00  4.24968E+00  4.23650E+00  4.22340E+00  4.21002E+00  4.19673E+00  4.18314E+00  4.16962E+00  4.15581E+00
   4.14206E+00  4.12801E+00  4.11404E+00  4.09978E+00  4.08562E+00  4.07119E+00  4.05689E+00  4.04234E+00  4.02796E+00  4.01337E+00
   3.99898E+00  3.98443E+00  3.97011E+00  3.95567E+00  3.94151E+00  3.92726E+00  3.91332E+00  3.89932E+00  3.88565E+00  3.87194E+00
   3.85859E+00  3.84521E+00  3.83219E+00  3.81912E+00  3.80640E+00  3.79361E+00  3.78112E+00  3.76850E+00  3.75610E+00  3.74346E+00
   3.73092E+00  3.71801E+00  3.70503E+00  3.69150E+00  3.67772E+00  3.66319E+00  3.64824E+00  3.63238E+00  3.61594E+00  3.59849E+00
   3.58039E+00  3.56126E+00  3.54153E+00  3.52085E+00  3.49972E+00  3.47784E+00  3.45575E+00  3.43317E+00  3.41066E+00  3.38796E+00
   3.36561E+00  3.34332E+00  3.32160E+00  3.30014E+00  3.27940E+00  3.25900E+00  3.23938E+00  3.22011E+00  3.20159E+00  3.18336E+00
   3.16579E+00  3.14842E+00  3.13160E+00  3.11486E+00  3.09856E+00  3.08223E+00  3.06625E+00  3.05016E+00  3.03433E+00  3.01832E+00
   3.00253E+00  2.98651E+00  2.97067E+00  2.95457E+00  2.93864E+00  2.92243E+00  2.90637E+00  2.89004E+00  2.87384E+00  2.85736E+00
   2.84103E+00  2.82441E+00  2.80794E+00  2.79118E+00  2.77457E+00  2.75767E+00  2.74093E+00  2.72391E+00  2.70704E+00  2.68990E+00
   2.67291E+00  2.65565E+00  2.63855E+00  2.62118E+00  2.60398E+00  2.58650E+00  2.56920E+00  2.55163E+00  2.53424E+00  2.51658E+00
   2.49911E+00  2.48137E+00  2.46383E+00  2.44604E+00  2.42844E+00  2.41060E+00  2.39296E+00  2.37508E+00  2.35741E+00  2.33952E+00
   2.32185E+00  2.30395E+00  2.28630E+00  2.26843E+00  2.25082E+00  2.23301E+00  2.21548E+00  2.19777E+00  2.18034E+00  2.16277E+00
   2.14551E+00  2.12812E+00  2.11108E+00  2.09395E+00  2.07719E+00  2.06040E+00  2.04404E+00  2.02769E+00  2.01184E+00  1.99607E+00
   1.98089E+00  1.96590E+00  1.95161E+00  1.93766E+00  1.92459E+00  1.91207E+00  1.90070E+00  1.89023E+00
 NY background values follow
    -5.381E+00   -5.337E+00   -5.292E+00   -5.247E+00   -5.202E+00   -5.157E+00   -5.112E+00   -5.066E+00   -5.020E+00   -4.975E+00
    -4.929E+00   -4.883E+00   -4.836E+00   -4.790E+00   -4.743E+00   -4.697E+00   -4.650E+00   -4.603E+00   -4.556E+00   -4.509E+00
    -4.461E+00   -4.414E+00   -4.366E+00   -4.318E+00   -4.271E+00   -4.223E+00   -4.175E+00   -4.126E+00   -4.078E+00   -4.030E+00
    -3.981E+00   -3.933E+00   -3.884E+00   -3.835E+00   -3.786E+00   -3.737E+00   -3.688E+00   -3.639E+00   -3.589E+00   -3.540E+00
    -3.491E+00   -3.441E+00   -3.391E+00   -3.342E+00   -3.292E+00   -3.242E+00   -3.192E+00   -3.142E+00   -3.092E+00   -3.042E+00
    -2.991E+00   -2.941E+00   -2.891E+00   -2.840E+00   -2.790E+00   -2.739E+00   -2.689E+00   -2.638E+00   -2.587E+00   -2.537E+00
    -2.486E+00   -2.435E+00   -2.384E+00   -2.333E+00   -2.282E+00   -2.231E+00   -2.180E+00   -2.129E+00   -2.078E+00   -2.027E+00
    -1.976E+00   -1.925E+00   -1.873E+00   -1.822E+00   -1.771E+00   -1.720E+00   -1.669E+00   -1.617E+00   -1.566E+00   -1.515E+00
    -1.463E+00   -1.412E+00   -1.361E+00   -1.310E+00   -1.258E+00   -1.207E+00   -1.156E+00   -1.105E+00   -1.053E+00   -1.002E+00
    -9.508E-01   -8.997E-01   -8.485E-01   -7.973E-01   -7.462E-01   -6.951E-01   -6.440E-01   -5.930E-01   -5.420E-01   -4.910E-01
    -4.401E-01   -3.892E-01   -3.383E-01   -2.875E-01   -2.367E-01   -1.861E-01   -1.354E-01   -8.485E-02   -3.435E-02    1.608E-02
     6.643E-02    1.167E-01    1.669E-01    2.170E-01    2.670E-01    3.169E-01    3.667E-01    4.163E-01    4.659E-01    5.154E-01
     5.647E-01    6.139E-01    6.630E-01    7.120E-01    7.608E-01    8.095E-01    8.581E-01    9.065E-01    9.547E-01    1.003E+00
     1.051E+00    1.099E+00    1.146E+00    1.194E+00    1.241E+00    1.288E+00    1.335E+00    1.381E+00    1.428E+00    1.474E+00
     1.520E+00    1.566E+00    1.612E+00    1.658E+00    1.703E+00    1.748E+00    1.793E+00    1.837E+00    1.882E+00    1.926E+00
     1.970E+00    2.014E+00    2.057E+00    2.100E+00    2.143E+00    2.186E+00    2.228E+00    2.271E+00    2.313E+00    2.354E+00
     2.396E+00    2.437E+00    2.478E+00    2.518E+00    2.558E+00    2.598E+00    2.638E+00    2.677E+00    2.717E+00    2.755E+00
     2.794E+00    2.832E+00    2.870E+00    2.907E+00    2.945E+00    2.982E+00    3.018E+00    3.054E+00    3.090E+00    3.126E+00
     3.161E+00    3.196E+00    3.231E+00    3.265E+00    3.299E+00    3.332E+00    3.366E+00    3.398E+00    3.431E+00    3.463E+00
     3.495E+00    3.526E+00    3.557E+00    3.588E+00    3.618E+00    3.648E+00    3.678E+00    3.707E+00    3.735E+00    3.764E+00
     3.792E+00    3.819E+00    3.846E+00    3.873E+00    3.900E+00    3.926E+00    3.951E+00    3.977E+00    4.002E+00    4.026E+00
     4.050E+00    4.074E+00    4.097E+00    4.120E+00    4.143E+00    4.165E+00    4.187E+00    4.209E+00    4.230E+00    4.251E+00
     4.271E+00    4.291E+00    4.311E+00    4.330E+00    4.349E+00    4.368E+00    4.386E+00    4.404E+00    4.421E+00    4.439E+00
     4.456E+00    4.472E+00    4.488E+00    4.504E+00    4.519E+00    4.535E+00    4.549E+00    4.564E+00    4.578E+00    4.592E+00
     4.605E+00    4.618E+00    4.631E+00    4.643E+00    4.655E+00    4.667E+00    4.678E+00    4.690E+00    4.700E+00    4.711E+00
     4.721E+00    4.731E+00    4.740E+00    4.749E+00    4.758E+00    4.767E+00    4.775E+00    4.783E+00    4.791E+00    4.798E+00
     4.805E+00    4.812E+00    4.818E+00    4.824E+00    4.830E+00    4.836E+00    4.841E+00    4.846E+00    4.850E+00    4.855E+00
     4.859E+00    4.862E+00    4.866E+00    4.869E+00    4.872E+00    4.875E+00    4.877E+00    4.879E+00    4.881E+00    4.883E+00
     4.884E+00    4.885E+00    4.886E+00    4.886E+00    4.886E+00    4.886E+00    4.886E+00    4.885E+00    4.885E+00    4.883E+00
     4.882E+00    4.881E+00    4.879E+00    4.877E+00    4.874E+00    4.872E+00    4.869E+00    4.866E+00    4.863E+00    4.859E+00
     4.855E+00    4.851E+00    4.847E+00    4.843E+00    4.838E+00    4.833E+00    4.828E+00    4.823E+00    4.817E+00    4.811E+00
     4.805E+00    4.799E+00    4.793E+00    4.786E+00    4.780E+00    4.773E+00    4.765E+00    4.758E+00    4.751E+00    4.743E+00
     4.735E+00    4.727E+00    4.719E+00    4.710E+00    4.702E+00    4.693E+00    4.684E+00    4.675E+00    4.666E+00    4.657E+00
     4.647E+00    4.638E+00    4.628E+00    4.618E+00    4.608E+00    4.597E+00    4.587E+00    4.576E+00    4.566E+00    4.555E+00
     4.544E+00    4.533E+00    4.522E+00    4.511E+00    4.499E+00    4.488E+00    4.476E+00    4.464E+00    4.452E+00    4.440E+00
     4.428E+00    4.416E+00    4.404E+00    4.391E+00    4.379E+00    4.366E+00    4.353E+00    4.340E+00    4.327E+00    4.314E+00
     4.301E+00    4.288E+00    4.275E+00    4.261E+00    4.248E+00    4.234E+00    4.221E+00    4.207E+00    4.193E+00    4.180E+00
     4.166E+00    4.152E+00    4.138E+00    4.123E+00    4.109E+00    4.095E+00    4.081E+00    4.066E+00    4.052E+00    4.037E+00
     4.023E+00    4.008E+00    3.993E+00    3.979E+00    3.964E+00    3.949E+00    3.934E+00    3.919E+00    3.904E+00    3.889E+00
     3.874E+00    3.859E+00    3.843E+00    3.828E+00    3.813E+00    3.797E+00    3.782E+00    3.767E+00    3.751E+00    3.736E+00
     3.720E+00    3.705E+00    3.689E+00    3.673E+00    3.657E+00    3.642E+00    3.626E+00    3.610E+00    3.594E+00    3.578E+00
     3.562E+00    3.546E+00    3.530E+00    3.513E+00    3.497E+00    3.481E+00    3.464E+00    3.448E+00    3.431E+00    3.415E+00
     3.398E+00    3.382E+00    3.365E+00    3.348E+00    3.331E+00    3.314E+00    3.297E+00    3.280E+00    3.263E+00    3.245E+00
     3.228E+00    3.211E+00    3.193E+00    3.176E+00    3.158E+00    3.140E+00    3.123E+00    3.105E+00    3.087E+00    3.069E+00
     3.051E+00    3.033E+00    3.014E+00    2.996E+00    2.978E+00    2.959E+00    2.941E+00    2.922E+00    2.903E+00    2.884E+00
     2.865E+00    2.846E+00    2.827E+00    2.808E+00    2.789E+00    2.769E+00    2.750E+00    2.730E+00    2.711E+00    2.691E+00
     2.671E+00    2.651E+00    2.631E+00    2.611E+00    2.591E+00    2.571E+00    2.551E+00    2.530E+00    2.510E+00    2.489E+00
     2.468E+00    2.447E+00    2.426E+00    2.405E+00    2.384E+00    2.363E+00    2.342E+00    2.320E+00    2.299E+00    2.277E+00
     2.256E+00    2.234E+00    2.212E+00    2.190E+00    2.168E+00    2.146E+00    2.123E+00    2.101E+00    2.079E+00    2.056E+00
     2.033E+00    2.011E+00    1.988E+00    1.965E+00    1.942E+00    1.919E+00    1.895E+00    1.872E+00
 Asp      Conc. = 2.90E+01
