 LCModel (Version 6.3-1L) Copyright: S.W. Provencher.          Ref.: Magn. Reson. Med. 30:672-679 (1993).                
 Slice#1 Row#12 Col#1  PD_05_press_1_raw_act
 36 lines in following concentration table = NCONC+1
    Conc.  %SD /Cr+PCr  Metabolite                                         
    0.000 999%   0.000 Ala                                                 
    5.320  98%   0.000 Asp                                                 
    0.000 999%   0.000 Cr                                                  
    0.000 999%   0.000 PCr                                                 
    2.953 106%   0.000 GABA                                                
    3.119 100%   0.000 Glc                                                 
   99.422  82%   0.000 Gln                                                 
  307.249  30%   0.000 Glu                                                 
   12.031  40%   0.000 GPC                                                 
    0.000 999%   0.000 PCh                                                 
   31.323  64%   0.000 GSH                                                 
  228.908  27%   0.000 Ins                                                 
    4.336 883%   0.000 Lac                                                 
   61.146  23%   0.000 NAA                                                 
    0.000 999%   0.000 NAAG                                                
    1.090  95%   0.000 Scyllo                                              
    4.322 120%   0.000 Tau                                                 
    0.000 999%   0.000 -CrCH2                                              
   12.031  40%   0.000 GPC+PCh                                             
   61.146  23%   0.000 NAA+NAAG                                            
    0.000 999%   0.000 Cr+PCr                                              
  406.671  36%   0.000 Glu+Gln                                             
  218.811  53%   0.000 Lip13a                                              
   41.317 119%   0.000 Lip13b                                              
   67.437  40%   0.000 Lip09                                               
    2.927 605%   0.000 MM09                                                
   35.095  55%   0.000 Lip20                                               
    0.000 999%   0.000 MM20                                                
    1.045 905%   0.000 MM12                                                
   24.531 136%   0.000 MM14                                                
    9.528 228%   0.000 MM17                                                
  260.128  31%   0.000 Lip13a+Lip13b                                       
  285.703  27%   0.000 MM14+Lip13a+Lip13b+MM12                             
   70.364  38%   0.000 MM09+Lip09                                          
   35.095  55%   0.000 MM20+Lip20                                          
   6 lines in following misc. output table
  FWHM = 0.084 ppm    S/N =   1                                            
  Data shift = 0.038 ppm                                                   
  Ph:-152 deg       1.3 deg/ppm                                            
  alphaB,S = 1.5E+00,   6.1E+00                                            
   14 spline knots.   Ns = 5(1)                                            
  (10) 6 infls.   ( 9) 5 extrs.                                            
  498 points on ppm-axis = NY
      4.000000     3.992357     3.984714     3.977070     3.969427     3.961784     3.954141     3.946497     3.938854     3.931211
      3.923568     3.915925     3.908281     3.900638     3.892995     3.885352     3.877708     3.870065     3.862422     3.854779
      3.847136     3.839492     3.831849     3.824206     3.816563     3.808919     3.801276     3.793633     3.785990     3.778347
      3.770703     3.763060     3.755417     3.747774     3.740130     3.732487     3.724844     3.717201     3.709558     3.701914
      3.694271     3.686628     3.678985     3.671341     3.663698     3.656055     3.648412     3.640769     3.633125     3.625482
      3.617839     3.610196     3.602552     3.594909     3.587266     3.579623     3.571980     3.564336     3.556693     3.549050
      3.541407     3.533763     3.526120     3.518477     3.510834     3.503191     3.495547     3.487904     3.480261     3.472618
      3.464974     3.457331     3.449688     3.442045     3.434402     3.426758     3.419115     3.411472     3.403829     3.396185
      3.388542     3.380899     3.373256     3.365613     3.357969     3.350326     3.342683     3.335040     3.327396     3.319753
      3.312110     3.304467     3.296824     3.289180     3.281537     3.273894     3.266251     3.258607     3.250964     3.243321
      3.235678     3.228034     3.220391     3.212748     3.205105     3.197462     3.189818     3.182175     3.174532     3.166889
      3.159245     3.151602     3.143959     3.136316     3.128673     3.121029     3.113386     3.105743     3.098100     3.090456
      3.082813     3.075170     3.067527     3.059884     3.052240     3.044597     3.036954     3.029311     3.021667     3.014024
      3.006381     2.998738     2.991095     2.983451     2.975808     2.968165     2.960522     2.952878     2.945235     2.937592
      2.929949     2.922306     2.914662     2.907019     2.899376     2.891733     2.884089     2.876446     2.868803     2.861160
      2.853517     2.845873     2.838230     2.830587     2.822944     2.815300     2.807657     2.800014     2.792371     2.784728
      2.777084     2.769441     2.761798     2.754155     2.746511     2.738868     2.731225     2.723582     2.715939     2.708295
      2.700652     2.693009     2.685366     2.677722     2.670079     2.662436     2.654793     2.647150     2.639506     2.631863
      2.624220     2.616577     2.608933     2.601290     2.593647     2.586004     2.578361     2.570717     2.563074     2.555431
      2.547788     2.540144     2.532501     2.524858     2.517215     2.509572     2.501928     2.494285     2.486642     2.478999
      2.471355     2.463712     2.456069     2.448426     2.440783     2.433139     2.425496     2.417853     2.410210     2.402566
      2.394923     2.387280     2.379637     2.371994     2.364350     2.356707     2.349064     2.341421     2.333777     2.326134
      2.318491     2.310848     2.303205     2.295561     2.287918     2.280275     2.272632     2.264988     2.257345     2.249702
      2.242059     2.234416     2.226772     2.219129     2.211486     2.203843     2.196199     2.188556     2.180913     2.173270
      2.165627     2.157983     2.150340     2.142697     2.135054     2.127410     2.119767     2.112124     2.104481     2.096838
      2.089194     2.081551     2.073908     2.066265     2.058621     2.050978     2.043335     2.035692     2.028049     2.020405
      2.012762     2.005119     1.997476     1.989833     1.982190     1.974546     1.966903     1.959260     1.951617     1.943974
      1.936331     1.928688     1.921045     1.913402     1.905759     1.898115     1.890472     1.882829     1.875186     1.867543
      1.859900     1.852257     1.844614     1.836971     1.829327     1.821684     1.814041     1.806398     1.798755     1.791112
      1.783469     1.775826     1.768183     1.760540     1.752896     1.745253     1.737610     1.729967     1.722324     1.714681
      1.707038     1.699395     1.691752     1.684108     1.676465     1.668822     1.661179     1.653536     1.645893     1.638250
      1.630607     1.622964     1.615321     1.607677     1.600034     1.592391     1.584748     1.577105     1.569462     1.561819
      1.554176     1.546533     1.538890     1.531246     1.523603     1.515960     1.508317     1.500674     1.493031     1.485388
      1.477745     1.470102     1.462458     1.454815     1.447172     1.439529     1.431886     1.424243     1.416600     1.408957
      1.401314     1.393671     1.386027     1.378384     1.370741     1.363098     1.355455     1.347812     1.340169     1.332526
      1.324883     1.317240     1.309596     1.301953     1.294310     1.286667     1.279024     1.271381     1.263738     1.256095
      1.248452     1.240808     1.233165     1.225522     1.217879     1.210236     1.202593     1.194950     1.187307     1.179664
      1.172021     1.164377     1.156734     1.149091     1.141448     1.133805     1.126162     1.118519     1.110876     1.103233
      1.095590     1.087946     1.080303     1.072660     1.065017     1.057374     1.049731     1.042088     1.034445     1.026802
      1.019158     1.011515     1.003872     0.996229     0.988586     0.980943     0.973300     0.965657     0.958014     0.950371
      0.942727     0.935084     0.927441     0.919798     0.912155     0.904512     0.896869     0.889226     0.881583     0.873940
      0.866296     0.858653     0.851010     0.843367     0.835724     0.828081     0.820438     0.812795     0.805152     0.797508
      0.789865     0.782222     0.774579     0.766936     0.759293     0.751650     0.744007     0.736364     0.728721     0.721077
      0.713434     0.705791     0.698148     0.690505     0.682862     0.675219     0.667576     0.659933     0.652290     0.644646
      0.637003     0.629360     0.621717     0.614074     0.606431     0.598788     0.591145     0.583502     0.575858     0.568215
      0.560572     0.552929     0.545286     0.537643     0.530000     0.522357     0.514714     0.507071     0.499427     0.491784
      0.484141     0.476498     0.468855     0.461212     0.453569     0.445925     0.438282     0.430639     0.422996     0.415353
      0.407710     0.400067     0.392424     0.384780     0.377137     0.369494     0.361851     0.354208     0.346565     0.338922
      0.331278     0.323635     0.315992     0.308349     0.300706     0.293063     0.285420     0.277777     0.270133     0.262490
      0.254847     0.247204     0.239561     0.231918     0.224275     0.216631     0.208988     0.201345
 NY phased data points follow
   4.71568E+00  4.51473E+00  3.35771E+00  4.30653E+00  4.67648E+00  4.80441E+00  3.18725E+00  3.82423E+00  5.32789E+00  4.42118E+00
   3.55364E+00  6.86251E+00  3.37265E+00  4.90782E+00  2.10868E+00  3.16975E+00  4.85106E+00  4.26773E+00  5.02624E+00  3.70305E+00
   3.79720E+00  3.99657E+00  3.56391E+00  4.86843E+00  4.32539E+00  5.70428E+00  4.32239E+00  2.47341E+00  4.31475E+00  3.79135E+00
   3.26611E+00  3.83930E+00  3.42115E+00  4.10993E+00  4.57297E+00  3.13471E+00  2.70563E+00  3.50666E+00  5.30083E+00  3.64937E+00
   3.38750E+00  4.73236E+00  4.22863E+00  3.36167E+00  2.19934E+00  3.48614E+00  3.34165E+00  2.66557E+00  1.83083E+00  3.74935E+00
   2.44284E+00  1.86622E+00  4.12074E+00  3.53105E+00  3.93409E+00  2.52021E+00  3.64664E+00  3.32758E+00  1.35743E+00  4.00819E+00
   2.34626E+00  4.21949E+00  2.60369E+00  1.56227E+00  3.84569E+00  3.10929E+00  2.91823E+00  2.92222E+00  2.35796E+00  1.88033E+00
   3.26899E+00  1.99564E+00  2.49995E+00  2.76899E+00  2.60755E+00  1.77722E+00  2.48515E+00  2.23615E+00  2.30822E+00  2.97247E+00
   1.63497E+00  2.36932E+00  2.70357E+00  2.05454E+00  3.38536E+00  3.62572E-01  2.81029E+00  2.10077E+00  1.81396E+00  4.82050E-01
   1.66457E+00  1.26354E+00  2.36647E+00  1.37674E+00  1.06052E+00  8.46417E-01  1.76898E+00  1.70231E+00  2.74993E+00  1.49395E+00
  -1.02686E-01  1.38552E+00  2.37080E+00  3.80225E+00  2.06640E+00  1.98511E+00  2.24434E+00  1.23738E+00  1.70992E+00  1.88391E+00
   1.16972E+00  5.90184E-01  1.47616E+00  5.51423E-01  7.94763E-01  1.30924E+00 -4.89390E-01  5.06724E-01 -7.82064E-01  1.74380E+00
   1.66910E+00  4.04770E-01  5.09161E-01 -2.50753E-01 -1.81820E-01  7.16756E-01  1.13960E+00  8.34018E-01 -1.59267E-01  1.04626E+00
   1.13371E+00  9.00755E-01  9.67247E-01  1.85376E+00  6.45090E-01  1.84124E+00  1.20199E+00 -9.74573E-03  6.11030E-01  2.44295E-01
   1.74519E+00  1.16810E+00  2.41381E-01  7.48044E-01  1.27371E+00  4.16502E-01  5.15272E-01 -7.35574E-02  2.18662E+00  4.88823E-01
   1.70010E+00  9.85193E-01  1.54227E+00  4.04095E-02  4.03258E-01  2.43021E+00  1.37120E+00 -5.59722E-01  5.17566E-01 -1.54723E-01
   4.54975E-01  2.71542E-01  7.36251E-01  5.12578E-01  1.87791E+00  7.69439E-01  2.02054E+00  1.24691E+00  3.46905E+00  1.40671E+00
   1.05592E+00  5.36272E-01  9.80340E-01 -2.42949E-01  1.53621E+00 -1.12692E+00  2.51503E-01 -2.67201E-01 -6.61564E-02  2.23438E-01
   2.15221E+00  1.20606E+00  8.02990E-02  6.86049E-01 -5.12942E-01  1.89207E+00 -6.96164E-01  6.88811E-02 -4.93774E-01  7.16980E-01
  -5.15440E-01  7.78131E-01 -5.50422E-04  1.37667E+00  1.78811E+00  4.70604E-01  1.04840E+00 -4.41635E-01  4.80656E-01  2.04536E-01
   1.34470E+00  1.18294E+00  8.61222E-01  9.77217E-01  9.19544E-01  1.34820E+00  2.52942E+00  1.37810E+00  2.62460E-01  6.67659E-01
   2.10143E+00  1.67476E+00  6.55338E-01  2.52720E+00  1.17648E+00  8.23870E-01  1.87152E+00  7.09266E-01  1.18667E+00  1.08243E+00
   8.94076E-01 -1.78868E-01  6.76364E-01 -7.68659E-02  1.32469E+00  1.05456E+00  2.12028E+00 -3.65034E-02  3.81874E-01  4.74065E-01
   1.29939E+00  2.80359E+00  9.44985E-01  7.67209E-01  2.51891E+00  3.46445E-01  1.82375E-01  9.08036E-02  6.14942E-01 -3.43896E-01
   2.45034E+00  7.50348E-01  4.87433E-01  7.08165E-01  2.06665E-01  1.92139E+00  1.03674E+00  1.71920E+00  7.98872E-01  1.21322E+00
   1.36218E+00  6.50133E-01  2.85627E+00  3.78675E-01  2.20156E-01  1.35357E+00  1.43001E+00  9.13615E-01  2.95929E+00  1.97504E+00
   2.18698E+00  4.27295E+00  3.33686E+00  3.02181E+00  1.99494E+00  1.02755E+00  2.48086E+00  1.68405E+00  1.12297E+00  1.98357E+00
   7.16261E-01  5.36080E-01  1.30259E+00  2.19880E+00  4.84933E-01  1.56444E+00  5.53861E-01  2.05356E+00  1.85814E+00  1.92179E+00
   2.26738E+00  1.85108E+00  1.01864E+00  1.16144E+00  4.62989E-01  1.23687E+00  1.34474E+00  1.46022E+00  2.54984E-01  2.05806E+00
   1.62078E+00  1.13842E+00  1.40113E+00  1.18048E+00  2.26308E+00  8.74482E-01  1.95024E-01  1.18354E-01  1.02635E+00  8.88498E-01
   1.02551E+00  9.87669E-01  2.92078E-01 -4.59193E-01  1.48088E+00  9.81601E-01  2.01330E+00  1.21581E+00  7.61129E-01  2.89191E-01
   4.61794E-01  1.52526E+00  2.18411E+00  1.13194E+00  1.67276E+00  7.93550E-01  1.94013E+00 -1.07274E-01  1.48579E+00  2.77311E+00
   5.29417E-01  1.54517E+00  8.32673E-01  2.16198E-01 -5.62007E-01  1.02313E+00  1.90185E+00  1.54751E+00  2.73787E+00  1.28453E+00
   2.66133E+00  7.28269E-01  1.82381E+00  2.22808E+00  3.81482E-01  1.82162E+00  1.27341E+00  2.28359E+00  1.68353E+00  1.33883E+00
   1.42152E+00 -4.31759E-01  1.85912E+00  2.52331E+00  1.03230E+00  1.14686E+00  2.00560E+00  1.15473E+00  1.91552E+00  2.72230E+00
   1.27539E+00  1.54947E+00  2.23931E+00  2.19468E+00  2.79337E+00  2.40788E+00  2.12261E+00  1.41760E+00  2.36979E+00  1.60265E+00
   2.49094E+00  1.91013E+00  3.32271E+00  3.14649E+00  2.46581E+00  1.07405E+00  1.30328E+00  1.41106E+00  2.09458E+00  1.33961E+00
   1.51792E-01 -1.45788E+00  2.05712E-01  6.71140E-01  2.27910E+00  1.63811E+00  1.39665E+00  8.28589E-01  5.80578E-01  1.31766E+00
   2.36309E+00  8.55216E-01  2.02125E+00  2.31532E+00  2.20086E+00  1.92568E+00  1.44537E+00  8.00277E-01  9.84477E-01  2.66589E+00
   4.73362E-01  1.15050E+00  2.96584E+00  2.90025E+00  3.80193E+00  6.11761E-01  6.67415E-01  7.60310E-02  7.91515E-01  1.99485E+00
   1.20174E+00  9.19623E-01 -1.31147E+00  5.88850E-02 -1.27141E-01  1.94404E+00  9.43193E-01 -2.59691E-01  2.23843E+00  1.38872E+00
  -3.80693E-01  1.61379E+00  1.50663E+00  2.16130E+00  1.53312E+00  1.51223E+00  2.91497E-01  2.84258E+00  7.17806E-01  7.25493E-01
   1.23757E+00  4.78631E-01  2.52412E+00  1.35221E+00  1.45114E+00  2.02265E+00  1.21521E+00  2.71650E-01  2.45511E+00 -3.56093E-01
   1.89426E+00  8.04770E-02  1.79900E+00  1.01065E+00  4.88809E-01  1.99577E+00 -4.79283E-01  1.92016E-01 -5.58218E-01 -1.31406E-01
  -5.57116E-01  1.36310E+00  6.44821E-01  7.50558E-01  5.34176E-01 -3.04036E-01  1.52918E+00  1.93219E+00 -4.13482E-01  7.96531E-01
   1.52572E+00  3.15299E-01  5.72431E-01  1.31112E+00  6.57713E-01  1.68582E+00  1.42598E+00  6.20940E-01  1.09435E+00  1.28002E+00
   3.70098E-01  1.97611E+00  5.88951E-01  2.00165E+00  1.28619E+00  7.16708E-01  1.51689E-01  7.23727E-01  2.07551E+00  1.01728E-01
   1.58397E+00  6.34097E-01 -5.52667E-01  1.86243E+00  1.40305E+00  1.59695E+00  1.63278E+00  8.80395E-01  9.86888E-01  1.53585E+00
   8.01227E-01  1.03957E+00  1.78766E+00  5.17076E-01 -2.64224E-01  6.69584E-01  2.39626E-01  1.18497E+00 -2.21311E-01  8.52637E-02
   3.02214E-01  1.26778E+00  4.45184E-01  7.65928E-01  3.46737E-01  1.12857E+00  1.40859E+00  7.28279E-02
 NY points of the fit to the data follow
   3.69728E+00  3.69708E+00  3.50447E+00  3.37848E+00  3.33331E+00  3.30903E+00  3.30109E+00  3.30049E+00  3.28745E+00  3.27147E+00
   3.27346E+00  3.28349E+00  3.28813E+00  3.28063E+00  3.26932E+00  3.27216E+00  3.30561E+00  3.34138E+00  3.34689E+00  3.35392E+00
   3.43368E+00  3.47714E+00  3.31908E+00  3.13010E+00  3.28875E+00  3.58382E+00  3.52828E+00  3.57486E+00  3.65748E+00  3.81297E+00
   4.07360E+00  4.12628E+00  3.86975E+00  3.70380E+00  3.89213E+00  3.84840E+00  3.41208E+00  3.34612E+00  3.26076E+00  3.04123E+00
   2.83825E+00  2.95417E+00  3.35002E+00  3.60835E+00  3.65432E+00  3.70048E+00  3.83712E+00  4.10307E+00  4.15641E+00  3.77810E+00
   3.22517E+00  3.06838E+00  3.30974E+00  3.22547E+00  2.79865E+00  2.54709E+00  2.55648E+00  2.66044E+00  2.70582E+00  2.79398E+00
   2.91688E+00  2.93586E+00  2.80972E+00  2.68928E+00  2.72038E+00  2.68641E+00  2.63106E+00  2.65594E+00  2.57079E+00  2.52840E+00
   2.54607E+00  2.61735E+00  2.70622E+00  2.71657E+00  2.64814E+00  2.53573E+00  2.53359E+00  2.55258E+00  2.42339E+00  2.32254E+00
   2.27929E+00  2.22390E+00  2.07201E+00  1.94140E+00  1.87033E+00  1.82776E+00  1.75107E+00  1.63256E+00  1.54050E+00  1.56473E+00
   1.65946E+00  1.73299E+00  1.68271E+00  1.64665E+00  1.71917E+00  1.83837E+00  1.90126E+00  2.02722E+00  2.32863E+00  2.20895E+00
   2.04447E+00  2.20436E+00  2.35996E+00  2.44587E+00  2.38715E+00  2.09433E+00  1.88360E+00  2.10825E+00  2.28861E+00  1.83733E+00
   1.56477E+00  1.53144E+00  1.51011E+00  1.50306E+00  1.48610E+00  1.46875E+00  1.45911E+00  1.45054E+00  1.43446E+00  1.42028E+00
   1.40802E+00  1.39623E+00  1.39535E+00  1.39616E+00  1.39146E+00  1.39403E+00  1.41075E+00  1.42930E+00  1.46839E+00  1.48182E+00
   1.42395E+00  1.39258E+00  1.39919E+00  1.38925E+00  1.37788E+00  1.32546E+00  1.27311E+00  1.28952E+00  1.33190E+00  1.31915E+00
   1.28422E+00  1.31001E+00  1.32109E+00  1.32325E+00  1.35003E+00  1.35438E+00  1.35897E+00  1.32885E+00  1.27205E+00  1.24231E+00
   1.22245E+00  1.21109E+00  1.19612E+00  1.18482E+00  1.17508E+00  1.15643E+00  1.13292E+00  1.12193E+00  1.12350E+00  1.11320E+00
   1.10772E+00  1.09194E+00  1.06654E+00  1.06903E+00  1.08240E+00  1.07214E+00  1.03775E+00  1.02019E+00  1.01998E+00  1.02114E+00
   1.01373E+00  9.66175E-01  9.28874E-01  9.41862E-01  9.36386E-01  9.06222E-01  8.69276E-01  8.58622E-01  8.84342E-01  8.96469E-01
   8.57436E-01  8.07013E-01  7.99694E-01  8.52019E-01  8.99928E-01  9.08997E-01  8.98669E-01  9.24683E-01  9.66874E-01  9.80065E-01
   9.98285E-01  9.72592E-01  8.95509E-01  8.65012E-01  8.89067E-01  8.81322E-01  9.02899E-01  9.49007E-01  9.70423E-01  1.04736E+00
   1.23777E+00  1.32888E+00  1.26091E+00  1.30750E+00  1.23520E+00  9.01918E-01  8.74277E-01  9.16236E-01  6.97477E-01  6.02941E-01
   8.19940E-01  1.21086E+00  1.18281E+00  1.34268E+00  1.41438E+00  1.43165E+00  1.60730E+00  1.19534E+00  6.00482E-01  6.01020E-01
   8.31770E-01  5.22036E-01 -3.24019E-01 -3.98640E-01  1.37221E-01  6.50263E-01  5.75549E-01  3.93430E-01  9.31795E-01  1.61435E+00
   1.65320E+00  1.37402E+00  1.36166E+00  1.40262E+00  1.35388E+00  1.16611E+00  1.03247E+00  1.03040E+00  9.94672E-01  1.08466E+00
   1.04394E+00  8.61949E-01  8.83139E-01  9.22713E-01  7.97775E-01  7.56125E-01  8.63347E-01  7.61998E-01  6.99512E-01  9.38535E-01
   9.93148E-01  8.98471E-01  9.60184E-01  1.08255E+00  1.17545E+00  1.60158E+00  2.18747E+00  2.01667E+00  1.98058E+00  2.38116E+00
   2.82012E+00  3.07083E+00  2.80474E+00  2.09424E+00  1.91416E+00  2.46115E+00  2.41400E+00  1.46193E+00  1.16456E+00  1.10087E+00
   9.39696E-01  9.15514E-01  9.64704E-01  9.82324E-01  1.01632E+00  1.02123E+00  9.88475E-01  9.88823E-01  1.03751E+00  1.05169E+00
   1.01503E+00  9.83599E-01  9.71987E-01  9.67197E-01  9.56227E-01  9.38793E-01  9.37235E-01  9.46316E-01  9.47486E-01  9.45979E-01
   9.46705E-01  9.48438E-01  9.46753E-01  9.43872E-01  9.46227E-01  9.49303E-01  9.49429E-01  9.51097E-01  9.55140E-01  9.57804E-01
   9.60002E-01  9.62612E-01  9.65461E-01  9.68408E-01  9.71086E-01  9.72930E-01  9.74218E-01  9.76207E-01  9.78785E-01  9.80229E-01
   9.81561E-01  9.83449E-01  9.85601E-01  9.88202E-01  9.91383E-01  9.95216E-01  9.99739E-01  1.00500E+00  1.01110E+00  1.01815E+00
   1.02623E+00  1.03536E+00  1.04551E+00  1.05671E+00  1.06901E+00  1.08249E+00  1.09713E+00  1.11294E+00  1.12988E+00  1.14799E+00
   1.16736E+00  1.18805E+00  1.21008E+00  1.23349E+00  1.25833E+00  1.28474E+00  1.31288E+00  1.34294E+00  1.37518E+00  1.41003E+00
   1.44847E+00  1.49318E+00  1.54727E+00  1.58554E+00  1.61399E+00  1.66706E+00  1.73026E+00  1.78877E+00  1.83822E+00  1.88356E+00
   1.96190E+00  2.06061E+00  2.13697E+00  2.17402E+00  2.21192E+00  2.26803E+00  2.30038E+00  2.28911E+00  2.23727E+00  2.18140E+00
   2.13544E+00  2.05333E+00  1.94787E+00  1.85104E+00  1.76185E+00  1.68016E+00  1.60640E+00  1.54049E+00  1.48193E+00  1.42994E+00
   1.38367E+00  1.34229E+00  1.30514E+00  1.27169E+00  1.24161E+00  1.21467E+00  1.19070E+00  1.16956E+00  1.15114E+00  1.13536E+00
   1.12216E+00  1.11149E+00  1.10326E+00  1.09738E+00  1.09378E+00  1.09239E+00  1.09318E+00  1.09608E+00  1.10097E+00  1.10777E+00
   1.11634E+00  1.12658E+00  1.13834E+00  1.15141E+00  1.16555E+00  1.18046E+00  1.19585E+00  1.21141E+00  1.22677E+00  1.24153E+00
   1.25528E+00  1.26763E+00  1.27822E+00  1.28674E+00  1.29289E+00  1.29641E+00  1.29714E+00  1.29499E+00  1.28998E+00  1.28218E+00
   1.27173E+00  1.25882E+00  1.24373E+00  1.22679E+00  1.20834E+00  1.18877E+00  1.16842E+00  1.14762E+00  1.12670E+00  1.10598E+00
   1.08573E+00  1.06616E+00  1.04742E+00  1.02964E+00  1.01291E+00  9.97314E-01  9.82865E-01  9.69548E-01  9.57316E-01  9.46127E-01
   9.35934E-01  9.26688E-01  9.18318E-01  9.10736E-01  9.03860E-01  8.97628E-01  8.91992E-01  8.86903E-01  8.82300E-01  8.78112E-01
   8.74286E-01  8.70799E-01  8.67632E-01  8.64752E-01  8.62116E-01  8.59683E-01  8.57434E-01  8.55371E-01  8.53485E-01  8.51749E-01
   8.50135E-01  8.48627E-01  8.47224E-01  8.45929E-01  8.44739E-01  8.43634E-01  8.42593E-01  8.41611E-01  8.40693E-01  8.39849E-01
   8.39070E-01  8.38339E-01  8.37642E-01  8.36978E-01  8.36362E-01  8.35799E-01  8.35279E-01  8.34781E-01  8.34298E-01  8.33844E-01
   8.33430E-01  8.33054E-01  8.32701E-01  8.32357E-01  8.32023E-01  8.31715E-01  8.31443E-01  8.31196E-01  8.30958E-01  8.30723E-01
   8.30498E-01  8.30298E-01  8.30126E-01  8.29969E-01  8.29814E-01  8.29658E-01  8.29515E-01  8.29397E-01  8.29302E-01  8.29214E-01
   8.29123E-01  8.29034E-01  8.28961E-01  8.28912E-01  8.28882E-01  8.28855E-01  8.28825E-01  8.28801E-01
 NY background values follow
     3.118E+00    3.103E+00    3.088E+00    3.073E+00    3.058E+00    3.043E+00    3.028E+00    3.013E+00    2.998E+00    2.983E+00
     2.968E+00    2.952E+00    2.937E+00    2.922E+00    2.907E+00    2.892E+00    2.877E+00    2.862E+00    2.847E+00    2.832E+00
     2.817E+00    2.802E+00    2.787E+00    2.771E+00    2.756E+00    2.741E+00    2.726E+00    2.711E+00    2.696E+00    2.681E+00
     2.667E+00    2.652E+00    2.637E+00    2.622E+00    2.607E+00    2.592E+00    2.577E+00    2.562E+00    2.547E+00    2.533E+00
     2.518E+00    2.503E+00    2.488E+00    2.474E+00    2.459E+00    2.444E+00    2.430E+00    2.415E+00    2.400E+00    2.386E+00
     2.371E+00    2.357E+00    2.342E+00    2.328E+00    2.313E+00    2.299E+00    2.284E+00    2.270E+00    2.256E+00    2.242E+00
     2.227E+00    2.213E+00    2.199E+00    2.185E+00    2.171E+00    2.157E+00    2.143E+00    2.129E+00    2.115E+00    2.101E+00
     2.087E+00    2.074E+00    2.060E+00    2.046E+00    2.033E+00    2.019E+00    2.006E+00    1.992E+00    1.979E+00    1.965E+00
     1.952E+00    1.939E+00    1.926E+00    1.913E+00    1.900E+00    1.887E+00    1.874E+00    1.861E+00    1.848E+00    1.835E+00
     1.823E+00    1.810E+00    1.797E+00    1.785E+00    1.772E+00    1.760E+00    1.748E+00    1.736E+00    1.724E+00    1.711E+00
     1.699E+00    1.688E+00    1.676E+00    1.664E+00    1.652E+00    1.641E+00    1.629E+00    1.618E+00    1.606E+00    1.595E+00
     1.584E+00    1.572E+00    1.561E+00    1.550E+00    1.539E+00    1.529E+00    1.518E+00    1.507E+00    1.496E+00    1.486E+00
     1.475E+00    1.465E+00    1.455E+00    1.445E+00    1.434E+00    1.424E+00    1.414E+00    1.405E+00    1.395E+00    1.385E+00
     1.376E+00    1.366E+00    1.357E+00    1.347E+00    1.338E+00    1.329E+00    1.320E+00    1.311E+00    1.302E+00    1.293E+00
     1.285E+00    1.276E+00    1.267E+00    1.259E+00    1.251E+00    1.242E+00    1.234E+00    1.226E+00    1.218E+00    1.210E+00
     1.202E+00    1.195E+00    1.187E+00    1.180E+00    1.172E+00    1.165E+00    1.157E+00    1.150E+00    1.143E+00    1.136E+00
     1.129E+00    1.122E+00    1.115E+00    1.109E+00    1.102E+00    1.096E+00    1.089E+00    1.083E+00    1.077E+00    1.070E+00
     1.064E+00    1.058E+00    1.052E+00    1.046E+00    1.041E+00    1.035E+00    1.029E+00    1.024E+00    1.018E+00    1.013E+00
     1.008E+00    1.002E+00    9.972E-01    9.921E-01    9.871E-01    9.822E-01    9.774E-01    9.726E-01    9.679E-01    9.633E-01
     9.588E-01    9.543E-01    9.499E-01    9.456E-01    9.413E-01    9.371E-01    9.330E-01    9.290E-01    9.250E-01    9.211E-01
     9.172E-01    9.134E-01    9.097E-01    9.061E-01    9.025E-01    8.990E-01    8.955E-01    8.922E-01    8.888E-01    8.856E-01
     8.824E-01    8.792E-01    8.761E-01    8.731E-01    8.701E-01    8.672E-01    8.644E-01    8.616E-01    8.588E-01    8.561E-01
     8.535E-01    8.509E-01    8.484E-01    8.459E-01    8.435E-01    8.411E-01    8.388E-01    8.365E-01    8.343E-01    8.322E-01
     8.300E-01    8.280E-01    8.259E-01    8.240E-01    8.220E-01    8.201E-01    8.183E-01    8.165E-01    8.147E-01    8.130E-01
     8.113E-01    8.097E-01    8.081E-01    8.066E-01    8.051E-01    8.036E-01    8.022E-01    8.008E-01    7.994E-01    7.981E-01
     7.968E-01    7.955E-01    7.943E-01    7.932E-01    7.920E-01    7.909E-01    7.898E-01    7.888E-01    7.878E-01    7.868E-01
     7.858E-01    7.849E-01    7.840E-01    7.831E-01    7.823E-01    7.815E-01    7.807E-01    7.799E-01    7.792E-01    7.785E-01
     7.778E-01    7.771E-01    7.765E-01    7.759E-01    7.753E-01    7.747E-01    7.742E-01    7.736E-01    7.731E-01    7.726E-01
     7.722E-01    7.717E-01    7.713E-01    7.709E-01    7.705E-01    7.701E-01    7.698E-01    7.694E-01    7.691E-01    7.688E-01
     7.685E-01    7.682E-01    7.680E-01    7.678E-01    7.675E-01    7.673E-01    7.671E-01    7.670E-01    7.668E-01    7.666E-01
     7.665E-01    7.664E-01    7.663E-01    7.662E-01    7.661E-01    7.660E-01    7.660E-01    7.659E-01    7.659E-01    7.658E-01
     7.658E-01    7.658E-01    7.658E-01    7.658E-01    7.658E-01    7.659E-01    7.659E-01    7.659E-01    7.660E-01    7.660E-01
     7.661E-01    7.662E-01    7.662E-01    7.663E-01    7.664E-01    7.665E-01    7.666E-01    7.667E-01    7.668E-01    7.670E-01
     7.671E-01    7.672E-01    7.673E-01    7.675E-01    7.676E-01    7.678E-01    7.680E-01    7.681E-01    7.683E-01    7.685E-01
     7.686E-01    7.688E-01    7.690E-01    7.692E-01    7.694E-01    7.696E-01    7.698E-01    7.700E-01    7.702E-01    7.704E-01
     7.706E-01    7.709E-01    7.711E-01    7.713E-01    7.715E-01    7.718E-01    7.720E-01    7.722E-01    7.725E-01    7.727E-01
     7.729E-01    7.732E-01    7.734E-01    7.737E-01    7.739E-01    7.742E-01    7.744E-01    7.747E-01    7.749E-01    7.752E-01
     7.754E-01    7.757E-01    7.760E-01    7.762E-01    7.765E-01    7.767E-01    7.770E-01    7.773E-01    7.775E-01    7.778E-01
     7.781E-01    7.783E-01    7.786E-01    7.789E-01    7.791E-01    7.794E-01    7.797E-01    7.800E-01    7.802E-01    7.805E-01
     7.808E-01    7.810E-01    7.813E-01    7.816E-01    7.819E-01    7.821E-01    7.824E-01    7.827E-01    7.830E-01    7.832E-01
     7.835E-01    7.838E-01    7.841E-01    7.843E-01    7.846E-01    7.849E-01    7.851E-01    7.854E-01    7.857E-01    7.860E-01
     7.862E-01    7.865E-01    7.868E-01    7.870E-01    7.873E-01    7.876E-01    7.878E-01    7.881E-01    7.884E-01    7.886E-01
     7.889E-01    7.892E-01    7.894E-01    7.897E-01    7.900E-01    7.902E-01    7.905E-01    7.907E-01    7.910E-01    7.913E-01
     7.915E-01    7.918E-01    7.920E-01    7.923E-01    7.926E-01    7.928E-01    7.931E-01    7.933E-01    7.936E-01    7.938E-01
     7.941E-01    7.943E-01    7.946E-01    7.948E-01    7.951E-01    7.953E-01    7.956E-01    7.958E-01    7.961E-01    7.963E-01
     7.966E-01    7.968E-01    7.971E-01    7.973E-01    7.976E-01    7.978E-01    7.980E-01    7.983E-01    7.985E-01    7.988E-01
     7.990E-01    7.992E-01    7.995E-01    7.997E-01    7.999E-01    8.002E-01    8.004E-01    8.006E-01    8.009E-01    8.011E-01
     8.013E-01    8.016E-01    8.018E-01    8.020E-01    8.022E-01    8.025E-01    8.027E-01    8.029E-01    8.031E-01    8.033E-01
     8.036E-01    8.038E-01    8.040E-01    8.042E-01    8.044E-01    8.047E-01    8.049E-01    8.051E-01    8.053E-01    8.055E-01
     8.057E-01    8.059E-01    8.062E-01    8.064E-01    8.066E-01    8.068E-01    8.070E-01    8.072E-01
 Asp      Conc. = 5.32E+00
