 LCModel (Version 6.3-1L) Copyright: S.W. Provencher.          Ref.: Magn. Reson. Med. 30:672-679 (1993).                
 Slice#2 Row#4 Col#1  PD_05_press_1_raw_act
 36 lines in following concentration table = NCONC+1
    Conc.  %SD /Cr+PCr  Metabolite                                         
  144.579  37%   1.312 Ala                                                 
   12.717 126%   0.115 Asp                                                 
    0.000 999%   0.000 Cr                                                  
  110.184  16%   1.000 PCr                                                 
   10.455  93% 9.5E-02 GABA                                                
    6.740 144% 6.1E-02 Glc                                                 
  303.330  40%   2.753 Gln                                                 
  275.800  49%   2.503 Glu                                                 
   19.012  36%   0.173 GPC                                                 
    0.000 999%   0.000 PCh                                                 
    0.000 999%   0.000 GSH                                                 
   26.669 332%   0.242 Ins                                                 
    0.000 999%   0.000 Lac                                                 
  146.894  14%   1.333 NAA                                                 
    0.000 999%   0.000 NAAG                                                
    1.760 179% 1.6E-02 Scyllo                                              
    2.585 618% 2.3E-02 Tau                                                 
    0.000 999%   0.000 -CrCH2                                              
   19.012  36%   0.173 GPC+PCh                                             
  146.894  14%   1.333 NAA+NAAG                                            
  110.184  16%   1.000 Cr+PCr                                              
  579.130  39%   5.256 Glu+Gln                                             
  693.655  22%   6.295 Lip13a                                              
    0.000 999%   0.000 Lip13b                                              
  185.201  22%   1.681 Lip09                                               
    0.000 999%   0.000 MM09                                                
  104.049  22%   0.944 Lip20                                               
    0.000 999%   0.000 MM20                                                
    0.000 999%   0.000 MM12                                                
  165.019  53%   1.498 MM14                                                
   84.386  63%   0.766 MM17                                                
  693.655  22%   6.295 Lip13a+Lip13b                                       
  858.675  16%   7.793 MM14+Lip13a+Lip13b+MM12                             
  185.201  22%   1.681 MM09+Lip09                                          
  104.049  22%   0.944 MM20+Lip20                                          
   6 lines in following misc. output table
  FWHM = 0.076 ppm    S/N =   2                                            
  Data shift =-0.023 ppm                                                   
  Ph: 138 deg      -4.9 deg/ppm                                            
  alphaB,S = 7.3E-01,   4.7E+01                                            
   14 spline knots.   Ns = 8(1)                                            
  (12) 2 infls.   (13) 1 extrs.                                            
  498 points on ppm-axis = NY
      4.000000     3.992357     3.984714     3.977070     3.969427     3.961784     3.954141     3.946497     3.938854     3.931211
      3.923568     3.915925     3.908281     3.900638     3.892995     3.885352     3.877708     3.870065     3.862422     3.854779
      3.847136     3.839492     3.831849     3.824206     3.816563     3.808919     3.801276     3.793633     3.785990     3.778347
      3.770703     3.763060     3.755417     3.747774     3.740130     3.732487     3.724844     3.717201     3.709558     3.701914
      3.694271     3.686628     3.678985     3.671341     3.663698     3.656055     3.648412     3.640769     3.633125     3.625482
      3.617839     3.610196     3.602552     3.594909     3.587266     3.579623     3.571980     3.564336     3.556693     3.549050
      3.541407     3.533763     3.526120     3.518477     3.510834     3.503191     3.495547     3.487904     3.480261     3.472618
      3.464974     3.457331     3.449688     3.442045     3.434402     3.426758     3.419115     3.411472     3.403829     3.396185
      3.388542     3.380899     3.373256     3.365613     3.357969     3.350326     3.342683     3.335040     3.327396     3.319753
      3.312110     3.304467     3.296824     3.289180     3.281537     3.273894     3.266251     3.258607     3.250964     3.243321
      3.235678     3.228034     3.220391     3.212748     3.205105     3.197462     3.189818     3.182175     3.174532     3.166889
      3.159245     3.151602     3.143959     3.136316     3.128673     3.121029     3.113386     3.105743     3.098100     3.090456
      3.082813     3.075170     3.067527     3.059884     3.052240     3.044597     3.036954     3.029311     3.021667     3.014024
      3.006381     2.998738     2.991095     2.983451     2.975808     2.968165     2.960522     2.952878     2.945235     2.937592
      2.929949     2.922306     2.914662     2.907019     2.899376     2.891733     2.884089     2.876446     2.868803     2.861160
      2.853517     2.845873     2.838230     2.830587     2.822944     2.815300     2.807657     2.800014     2.792371     2.784728
      2.777084     2.769441     2.761798     2.754155     2.746511     2.738868     2.731225     2.723582     2.715939     2.708295
      2.700652     2.693009     2.685366     2.677722     2.670079     2.662436     2.654793     2.647150     2.639506     2.631863
      2.624220     2.616577     2.608933     2.601290     2.593647     2.586004     2.578361     2.570717     2.563074     2.555431
      2.547788     2.540144     2.532501     2.524858     2.517215     2.509572     2.501928     2.494285     2.486642     2.478999
      2.471355     2.463712     2.456069     2.448426     2.440783     2.433139     2.425496     2.417853     2.410210     2.402566
      2.394923     2.387280     2.379637     2.371994     2.364350     2.356707     2.349064     2.341421     2.333777     2.326134
      2.318491     2.310848     2.303205     2.295561     2.287918     2.280275     2.272632     2.264988     2.257345     2.249702
      2.242059     2.234416     2.226772     2.219129     2.211486     2.203843     2.196199     2.188556     2.180913     2.173270
      2.165627     2.157983     2.150340     2.142697     2.135054     2.127410     2.119767     2.112124     2.104481     2.096838
      2.089194     2.081551     2.073908     2.066265     2.058621     2.050978     2.043335     2.035692     2.028049     2.020405
      2.012762     2.005119     1.997476     1.989833     1.982190     1.974546     1.966903     1.959260     1.951617     1.943974
      1.936331     1.928688     1.921045     1.913402     1.905759     1.898115     1.890472     1.882829     1.875186     1.867543
      1.859900     1.852257     1.844614     1.836971     1.829327     1.821684     1.814041     1.806398     1.798755     1.791112
      1.783469     1.775826     1.768183     1.760540     1.752896     1.745253     1.737610     1.729967     1.722324     1.714681
      1.707038     1.699395     1.691752     1.684108     1.676465     1.668822     1.661179     1.653536     1.645893     1.638250
      1.630607     1.622964     1.615321     1.607677     1.600034     1.592391     1.584748     1.577105     1.569462     1.561819
      1.554176     1.546533     1.538890     1.531246     1.523603     1.515960     1.508317     1.500674     1.493031     1.485388
      1.477745     1.470102     1.462458     1.454815     1.447172     1.439529     1.431886     1.424243     1.416600     1.408957
      1.401314     1.393671     1.386027     1.378384     1.370741     1.363098     1.355455     1.347812     1.340169     1.332526
      1.324883     1.317240     1.309596     1.301953     1.294310     1.286667     1.279024     1.271381     1.263738     1.256095
      1.248452     1.240808     1.233165     1.225522     1.217879     1.210236     1.202593     1.194950     1.187307     1.179664
      1.172021     1.164377     1.156734     1.149091     1.141448     1.133805     1.126162     1.118519     1.110876     1.103233
      1.095590     1.087946     1.080303     1.072660     1.065017     1.057374     1.049731     1.042088     1.034445     1.026802
      1.019158     1.011515     1.003872     0.996229     0.988586     0.980943     0.973300     0.965657     0.958014     0.950371
      0.942727     0.935084     0.927441     0.919798     0.912155     0.904512     0.896869     0.889226     0.881583     0.873940
      0.866296     0.858653     0.851010     0.843367     0.835724     0.828081     0.820438     0.812795     0.805152     0.797508
      0.789865     0.782222     0.774579     0.766936     0.759293     0.751650     0.744007     0.736364     0.728721     0.721077
      0.713434     0.705791     0.698148     0.690505     0.682862     0.675219     0.667576     0.659933     0.652290     0.644646
      0.637003     0.629360     0.621717     0.614074     0.606431     0.598788     0.591145     0.583502     0.575858     0.568215
      0.560572     0.552929     0.545286     0.537643     0.530000     0.522357     0.514714     0.507071     0.499427     0.491784
      0.484141     0.476498     0.468855     0.461212     0.453569     0.445925     0.438282     0.430639     0.422996     0.415353
      0.407710     0.400067     0.392424     0.384780     0.377137     0.369494     0.361851     0.354208     0.346565     0.338922
      0.331278     0.323635     0.315992     0.308349     0.300706     0.293063     0.285420     0.277777     0.270133     0.262490
      0.254847     0.247204     0.239561     0.231918     0.224275     0.216631     0.208988     0.201345
 NY phased data points follow
   2.64012E+01  2.87346E+01  2.68593E+01  2.66904E+01  2.49669E+01  2.75148E+01  2.72010E+01  2.59324E+01  2.56557E+01  2.66543E+01
   2.51506E+01  2.58647E+01  2.48550E+01  2.43068E+01  2.41684E+01  2.59777E+01  2.50499E+01  2.26344E+01  2.36520E+01  2.43148E+01
   2.13138E+01  2.29536E+01  2.23675E+01  2.09923E+01  2.26225E+01  2.10943E+01  2.14710E+01  1.84782E+01  2.14537E+01  1.95942E+01
   2.00051E+01  2.14298E+01  1.98322E+01  2.07565E+01  2.01474E+01  2.15480E+01  2.00577E+01  2.05373E+01  2.01303E+01  2.06881E+01
   2.02491E+01  1.93386E+01  2.00931E+01  1.92764E+01  1.94309E+01  1.89933E+01  1.71113E+01  1.98307E+01  1.88313E+01  1.75186E+01
   1.77602E+01  1.67013E+01  1.94632E+01  1.84026E+01  1.87919E+01  1.67627E+01  1.71122E+01  1.66984E+01  1.56457E+01  1.64677E+01
   1.68893E+01  1.47624E+01  1.73071E+01  1.59014E+01  1.71659E+01  1.55007E+01  1.49706E+01  1.41757E+01  1.69146E+01  1.48662E+01
   1.64875E+01  1.51411E+01  1.40867E+01  1.52269E+01  1.31024E+01  1.45570E+01  1.57783E+01  1.14906E+01  1.46956E+01  1.33700E+01
   1.43334E+01  1.34802E+01  1.33441E+01  1.45529E+01  1.43450E+01  1.29466E+01  1.33616E+01  1.26784E+01  1.46701E+01  1.42051E+01
   1.30961E+01  1.11743E+01  1.31710E+01  1.29818E+01  1.28597E+01  1.13578E+01  1.14294E+01  1.02736E+01  1.30052E+01  1.26178E+01
   1.17124E+01  1.47745E+01  1.45400E+01  1.25084E+01  1.27778E+01  1.27009E+01  1.39468E+01  1.32506E+01  1.46498E+01  1.24762E+01
   1.26011E+01  1.18778E+01  1.06431E+01  1.00182E+01  1.09882E+01  1.24314E+01  1.25889E+01  9.31382E+00  1.27586E+01  9.64832E+00
   1.14155E+01  1.03627E+01  8.70589E+00  9.59271E+00  1.29922E+01  1.02468E+01  1.25156E+01  1.22146E+01  1.34105E+01  1.34285E+01
   1.37077E+01  1.16769E+01  1.30067E+01  1.14795E+01  1.17410E+01  1.13415E+01  8.36846E+00  9.12962E+00  9.54841E+00  9.97169E+00
   9.94420E+00  1.07593E+01  1.02141E+01  1.04016E+01  8.99838E+00  1.05844E+01  8.59038E+00  9.63879E+00  1.08570E+01  1.07785E+01
   8.39453E+00  1.06478E+01  8.90148E+00  9.34096E+00  1.00245E+01  8.80650E+00  1.12712E+01  8.67946E+00  9.14660E+00  8.91906E+00
   8.24606E+00  7.92487E+00  9.26661E+00  1.02284E+01  9.38487E+00  8.36878E+00  9.19022E+00  7.17638E+00  8.48846E+00  8.33261E+00
   8.01280E+00  8.72902E+00  8.67489E+00  9.41124E+00  8.84489E+00  9.02599E+00  7.51544E+00  7.50801E+00  7.40583E+00  7.21200E+00
   8.88947E+00  9.07059E+00  6.89056E+00  7.04029E+00  9.09013E+00  6.43957E+00  7.83678E+00  5.32720E+00  5.97329E+00  5.70784E+00
   6.03496E+00  5.77476E+00  7.88268E+00  8.01885E+00  7.80492E+00  7.51070E+00  9.00254E+00  7.52319E+00  7.67334E+00  6.46009E+00
   7.96235E+00  7.49757E+00  8.74265E+00  8.26806E+00  8.70165E+00  7.63182E+00  9.36418E+00  5.23273E+00  7.84370E+00  7.22661E+00
   4.25123E+00  6.52721E+00  5.10219E+00  8.83723E+00  7.05030E+00  5.61988E+00  6.20469E+00  7.53507E+00  5.55792E+00  6.36542E+00
   7.13276E+00  6.17884E+00  7.82636E+00  6.21170E+00  6.52706E+00  8.07993E+00  6.83289E+00  5.95726E+00  6.64882E+00  6.31939E+00
   7.90937E+00  5.91242E+00  9.18267E+00  7.98881E+00  5.25132E+00  7.28630E+00  8.25483E+00  7.73413E+00  6.05409E+00  8.12346E+00
   7.98404E+00  7.10463E+00  6.54039E+00  5.83362E+00  6.29600E+00  5.51881E+00  6.76045E+00  3.86248E+00  5.80050E+00  6.74283E+00
   5.37214E+00  5.61378E+00  6.45906E+00  5.40663E+00  6.24597E+00  7.10528E+00  7.86212E+00  8.19518E+00  6.81785E+00  8.54462E+00
   1.11362E+01  9.33044E+00  9.15841E+00  1.09447E+01  1.04315E+01  1.01136E+01  8.19378E+00  1.03017E+01  7.26060E+00  5.60433E+00
   5.57435E+00  7.75133E+00  7.70126E+00  5.80905E+00  7.48779E+00  7.33905E+00  6.86079E+00  4.13503E+00  6.89736E+00  5.69881E+00
   6.92029E+00  6.21306E+00  5.35698E+00  5.12310E+00  6.98245E+00  6.49141E+00  6.45707E+00  5.44913E+00  7.31185E+00  6.31185E+00
   4.72840E+00  6.62914E+00  6.13841E+00  5.65798E+00  5.70524E+00  6.59575E+00  5.20385E+00  5.48410E+00  4.94311E+00  5.68509E+00
   7.19657E+00  5.81301E+00  6.63459E+00  6.68120E+00  4.76313E+00  5.70111E+00  6.77543E+00  5.64826E+00  6.51979E+00  4.80347E+00
   5.25027E+00  5.46686E+00  4.98525E+00  7.17412E+00  7.04646E+00  6.26655E+00  4.12675E+00  7.06059E+00  5.82412E+00  4.70661E+00
   6.31656E+00  5.32157E+00  5.85183E+00  5.61277E+00  6.74346E+00  5.78816E+00  8.51779E+00  4.97580E+00  3.86873E+00  5.35459E+00
   5.17021E+00  6.31516E+00  3.83870E+00  5.69142E+00  5.33494E+00  6.22541E+00  6.41977E+00  5.93795E+00  8.31505E+00  9.90076E+00
   6.97322E+00  6.93801E+00  8.06447E+00  8.79949E+00  9.26017E+00  8.22162E+00  8.20303E+00  8.68805E+00  8.55310E+00  8.99505E+00
   8.53571E+00  1.04261E+01  1.00548E+01  1.04997E+01  9.68703E+00  8.16144E+00  7.34428E+00  7.87515E+00  6.95232E+00  6.53064E+00
   6.07991E+00  4.73984E+00  4.18740E+00  6.27936E+00  7.26060E+00  7.67010E+00  7.04260E+00  4.98657E+00  6.89613E+00  8.63464E+00
   5.85483E+00  4.85718E+00  5.97650E+00  4.89295E+00  5.03869E+00  3.86699E+00  4.18450E+00  3.86571E+00  4.00096E+00  5.06322E+00
   3.83699E+00  4.76495E+00  3.93325E+00  1.85840E+00  2.89755E+00  2.34355E+00  3.76200E+00  4.66394E+00  3.60354E+00  2.39176E+00
   3.59442E+00  4.23238E+00  3.48336E+00  3.59627E+00  2.16046E+00  1.36762E+00  2.96761E+00  1.81835E+00  3.17593E+00  3.99600E+00
   1.65040E+00  5.48957E+00  3.08657E+00  3.00769E+00  5.25786E+00  4.04666E+00  4.69176E+00  2.86715E+00  3.20919E+00  5.96414E+00
   3.78786E+00  3.19566E+00  4.00109E+00  4.31305E+00  4.42683E+00  4.09629E+00  5.47004E+00  1.81006E+00  4.91681E+00  3.54041E+00
   3.24456E+00  5.09586E+00  3.13566E+00  2.28627E+00  4.39073E+00  4.72389E+00  5.00985E+00  2.97300E+00  4.56586E+00  3.55327E+00
   5.27674E+00  3.94725E+00  4.63049E+00  6.56341E+00  4.44311E+00  2.58588E+00  4.93544E+00  4.03436E+00  3.73596E+00  4.24654E+00
   4.49797E+00  4.06019E+00  3.99038E+00  5.11114E+00  3.32407E+00  3.14389E+00  2.83887E+00  4.19524E+00  4.79833E+00  3.53548E+00
   2.98156E+00  3.60717E+00  4.74523E+00  2.55666E+00  2.60855E+00  2.94272E+00  4.24294E+00  3.16729E+00  4.27211E+00  3.84771E+00
   4.71442E+00  3.36622E+00  1.49849E+00  4.40129E+00  3.48664E+00  5.66305E+00  3.77749E+00  3.24754E+00  4.31308E+00  2.82924E+00
   4.33468E+00  3.13832E+00  3.75273E+00  2.79230E+00  4.52427E+00  3.50504E+00  2.02798E+00  9.79172E-02  3.67773E+00  3.63357E+00
   3.76405E+00  3.49679E+00  3.05041E+00  3.49348E+00  1.40708E+00  3.47299E+00  3.24204E+00  3.10745E+00  2.56977E+00  3.76483E+00
   3.03836E+00  3.70016E+00  4.82522E+00  3.09511E+00  2.26220E+00  3.21393E+00  2.94220E+00  2.00982E+00
 NY points of the fit to the data follow
   2.48394E+01  2.47008E+01  2.45864E+01  2.45367E+01  2.45830E+01  2.47260E+01  2.49326E+01  2.51574E+01  2.53429E+01  2.54116E+01
   2.53406E+01  2.51818E+01  2.49789E+01  2.47417E+01  2.44706E+01  2.41499E+01  2.37375E+01  2.32369E+01  2.27786E+01  2.25374E+01
   2.24688E+01  2.24283E+01  2.23479E+01  2.21858E+01  2.19222E+01  2.15722E+01  2.12055E+01  2.09172E+01  2.07649E+01  2.07465E+01
   2.08082E+01  2.08707E+01  2.08386E+01  2.06818E+01  2.04960E+01  2.03905E+01  2.03458E+01  2.02989E+01  2.02179E+01  2.00540E+01
   1.97451E+01  1.93410E+01  1.90141E+01  1.88621E+01  1.88399E+01  1.88825E+01  1.89198E+01  1.88798E+01  1.87354E+01  1.85474E+01
   1.83646E+01  1.81826E+01  1.80075E+01  1.78413E+01  1.76758E+01  1.75072E+01  1.73439E+01  1.71941E+01  1.70586E+01  1.69313E+01
   1.68067E+01  1.66811E+01  1.65534E+01  1.64244E+01  1.62959E+01  1.61705E+01  1.60482E+01  1.59264E+01  1.58039E+01  1.56839E+01
   1.55702E+01  1.54631E+01  1.53603E+01  1.52580E+01  1.51542E+01  1.50478E+01  1.49382E+01  1.48271E+01  1.47153E+01  1.46041E+01
   1.44943E+01  1.43879E+01  1.42860E+01  1.41854E+01  1.40834E+01  1.39798E+01  1.38735E+01  1.37644E+01  1.36560E+01  1.35509E+01
   1.34490E+01  1.33493E+01  1.32505E+01  1.31504E+01  1.30493E+01  1.29548E+01  1.28908E+01  1.28835E+01  1.29511E+01  1.30872E+01
   1.32627E+01  1.34449E+01  1.35864E+01  1.36282E+01  1.35678E+01  1.34529E+01  1.33150E+01  1.31596E+01  1.29812E+01  1.27572E+01
   1.24476E+01  1.20635E+01  1.17154E+01  1.15211E+01  1.14185E+01  1.13359E+01  1.12603E+01  1.11889E+01  1.11211E+01  1.10594E+01
   1.10358E+01  1.11095E+01  1.13313E+01  1.16952E+01  1.21444E+01  1.26121E+01  1.30068E+01  1.32128E+01  1.32156E+01  1.31028E+01
   1.29359E+01  1.27283E+01  1.24730E+01  1.21281E+01  1.16189E+01  1.09592E+01  1.03538E+01  1.00396E+01  9.91578E+00  9.83483E+00
   9.76894E+00  9.71287E+00  9.66353E+00  9.61779E+00  9.57270E+00  9.52706E+00  9.48090E+00  9.43280E+00  9.38350E+00  9.33572E+00
   9.29016E+00  9.24559E+00  9.19970E+00  9.15188E+00  9.10241E+00  9.05053E+00  8.99492E+00  8.93385E+00  8.86867E+00  8.80369E+00
   8.74368E+00  8.69255E+00  8.64936E+00  8.60855E+00  8.56415E+00  8.51206E+00  8.45395E+00  8.39634E+00  8.34513E+00  8.30033E+00
   8.25213E+00  8.18699E+00  8.10546E+00  8.02021E+00  7.94446E+00  7.88627E+00  7.83964E+00  7.79800E+00  7.75776E+00  7.71722E+00
   7.67833E+00  7.64425E+00  7.61701E+00  7.59754E+00  7.58585E+00  7.57604E+00  7.56096E+00  7.54616E+00  7.54221E+00  7.53882E+00
   7.51894E+00  7.46791E+00  7.38640E+00  7.28918E+00  7.19392E+00  7.11585E+00  7.06669E+00  7.06220E+00  7.12199E+00  7.25459E+00
   7.44769E+00  7.67072E+00  7.87389E+00  8.00047E+00  7.99718E+00  7.83251E+00  7.51572E+00  7.11217E+00  6.69761E+00  6.33894E+00
   6.12957E+00  6.12365E+00  6.27284E+00  6.49318E+00  6.73983E+00  6.98883E+00  7.19299E+00  7.34334E+00  7.46374E+00  7.47688E+00
   7.28265E+00  6.98292E+00  6.73295E+00  6.53592E+00  6.38508E+00  6.33070E+00  6.41933E+00  6.57486E+00  6.75725E+00  6.96806E+00
   7.17636E+00  7.29271E+00  7.23802E+00  7.05771E+00  6.86714E+00  6.73752E+00  6.69609E+00  6.74147E+00  6.81726E+00  6.87483E+00
   6.88405E+00  6.81394E+00  6.68120E+00  6.56511E+00  6.49955E+00  6.42449E+00  6.27467E+00  6.09168E+00  5.93666E+00  5.83852E+00
   5.84641E+00  5.98779E+00  6.18990E+00  6.35829E+00  6.57217E+00  6.92096E+00  7.42959E+00  8.07070E+00  8.78789E+00  9.46543E+00
   9.92482E+00  1.00686E+01  9.99120E+00  9.82720E+00  9.62663E+00  9.39563E+00  9.09804E+00  8.61986E+00  7.86944E+00  7.00005E+00
   6.38942E+00  6.16420E+00  6.07221E+00  6.02492E+00  6.00292E+00  5.98373E+00  5.96197E+00  5.94475E+00  5.93070E+00  5.91750E+00
   5.90159E+00  5.87803E+00  5.84518E+00  5.81098E+00  5.78271E+00  5.76075E+00  5.74492E+00  5.73593E+00  5.73359E+00  5.73609E+00
   5.74012E+00  5.74400E+00  5.74852E+00  5.75334E+00  5.75801E+00  5.76298E+00  5.76860E+00  5.77418E+00  5.77871E+00  5.78200E+00
   5.78400E+00  5.78402E+00  5.78163E+00  5.77671E+00  5.76891E+00  5.75825E+00  5.74500E+00  5.72959E+00  5.71264E+00  5.69488E+00
   5.67714E+00  5.66033E+00  5.64563E+00  5.63443E+00  5.62816E+00  5.62838E+00  5.63712E+00  5.65699E+00  5.69167E+00  5.74949E+00
   5.85053E+00  6.00937E+00  6.21107E+00  6.40417E+00  6.53151E+00  6.55354E+00  6.43324E+00  6.15368E+00  5.78526E+00  5.43540E+00
   5.17505E+00  5.03691E+00  5.02177E+00  5.11134E+00  5.28005E+00  5.52194E+00  5.88909E+00  6.39569E+00  6.89276E+00  7.32893E+00
   7.73076E+00  8.09556E+00  8.35402E+00  8.42150E+00  8.33399E+00  8.28040E+00  8.31597E+00  8.38508E+00  8.46007E+00  8.52701E+00
   8.57693E+00  8.60350E+00  8.60218E+00  8.56996E+00  8.50522E+00  8.40764E+00  8.27819E+00  8.11898E+00  7.93316E+00  7.72467E+00
   7.49805E+00  7.25816E+00  7.00997E+00  6.75838E+00  6.50794E+00  6.26278E+00  6.02639E+00  5.80161E+00  5.59063E+00  5.39492E+00
   5.21537E+00  5.05230E+00  4.90554E+00  4.77455E+00  4.65851E+00  4.55642E+00  4.46717E+00  4.38960E+00  4.32255E+00  4.26492E+00
   4.21572E+00  4.17403E+00  4.13906E+00  4.11013E+00  4.08665E+00  4.06813E+00  4.05420E+00  4.04454E+00  4.03889E+00  4.03705E+00
   4.03884E+00  4.04410E+00  4.05268E+00  4.06443E+00  4.07917E+00  4.09667E+00  4.11669E+00  4.13891E+00  4.16299E+00  4.18849E+00
   4.21493E+00  4.24177E+00  4.26843E+00  4.29429E+00  4.31870E+00  4.34101E+00  4.36059E+00  4.37682E+00  4.38917E+00  4.39717E+00
   4.40042E+00  4.39867E+00  4.39175E+00  4.37965E+00  4.36246E+00  4.34041E+00  4.31384E+00  4.28318E+00  4.24893E+00  4.21165E+00
   4.17195E+00  4.13045E+00  4.08776E+00  4.04445E+00  4.00106E+00  3.95810E+00  3.91598E+00  3.87508E+00  3.83569E+00  3.79804E+00
   3.76228E+00  3.72853E+00  3.69684E+00  3.66723E+00  3.63966E+00  3.61407E+00  3.59038E+00  3.56850E+00  3.54832E+00  3.52973E+00
   3.51261E+00  3.49683E+00  3.48229E+00  3.46888E+00  3.45649E+00  3.44503E+00  3.43440E+00  3.42451E+00  3.41530E+00  3.40669E+00
   3.39861E+00  3.39100E+00  3.38380E+00  3.37696E+00  3.37046E+00  3.36426E+00  3.35833E+00  3.35264E+00  3.34716E+00  3.34189E+00
   3.33680E+00  3.33187E+00  3.32709E+00  3.32244E+00  3.31792E+00  3.31351E+00  3.30921E+00  3.30500E+00  3.30088E+00  3.29683E+00
   3.29286E+00  3.28896E+00  3.28513E+00  3.28136E+00  3.27764E+00  3.27397E+00  3.27035E+00  3.26679E+00  3.26327E+00  3.25979E+00
   3.25635E+00  3.25295E+00  3.24959E+00  3.24628E+00  3.24300E+00  3.23975E+00  3.23655E+00  3.23338E+00  3.23025E+00  3.22716E+00
   3.22411E+00  3.22109E+00  3.21811E+00  3.21518E+00  3.21229E+00  3.20945E+00  3.20664E+00  3.20388E+00
 NY background values follow
     2.464E+01    2.450E+01    2.436E+01    2.423E+01    2.409E+01    2.395E+01    2.381E+01    2.367E+01    2.353E+01    2.339E+01
     2.325E+01    2.311E+01    2.297E+01    2.283E+01    2.269E+01    2.255E+01    2.241E+01    2.227E+01    2.214E+01    2.200E+01
     2.186E+01    2.172E+01    2.158E+01    2.145E+01    2.131E+01    2.117E+01    2.104E+01    2.090E+01    2.076E+01    2.063E+01
     2.049E+01    2.036E+01    2.022E+01    2.009E+01    1.995E+01    1.982E+01    1.969E+01    1.955E+01    1.942E+01    1.929E+01
     1.916E+01    1.903E+01    1.890E+01    1.877E+01    1.864E+01    1.851E+01    1.838E+01    1.825E+01    1.812E+01    1.800E+01
     1.787E+01    1.775E+01    1.762E+01    1.750E+01    1.737E+01    1.725E+01    1.713E+01    1.700E+01    1.688E+01    1.676E+01
     1.664E+01    1.652E+01    1.640E+01    1.629E+01    1.617E+01    1.605E+01    1.594E+01    1.582E+01    1.571E+01    1.559E+01
     1.548E+01    1.537E+01    1.526E+01    1.515E+01    1.504E+01    1.493E+01    1.482E+01    1.471E+01    1.461E+01    1.450E+01
     1.440E+01    1.429E+01    1.419E+01    1.409E+01    1.399E+01    1.389E+01    1.379E+01    1.369E+01    1.359E+01    1.349E+01
     1.340E+01    1.330E+01    1.321E+01    1.312E+01    1.302E+01    1.293E+01    1.284E+01    1.275E+01    1.267E+01    1.258E+01
     1.249E+01    1.241E+01    1.232E+01    1.224E+01    1.216E+01    1.207E+01    1.199E+01    1.191E+01    1.183E+01    1.175E+01
     1.168E+01    1.160E+01    1.152E+01    1.145E+01    1.137E+01    1.130E+01    1.123E+01    1.115E+01    1.108E+01    1.101E+01
     1.094E+01    1.087E+01    1.081E+01    1.074E+01    1.067E+01    1.061E+01    1.054E+01    1.048E+01    1.041E+01    1.035E+01
     1.029E+01    1.023E+01    1.016E+01    1.010E+01    1.005E+01    9.986E+00    9.928E+00    9.870E+00    9.814E+00    9.757E+00
     9.702E+00    9.647E+00    9.592E+00    9.539E+00    9.485E+00    9.433E+00    9.381E+00    9.330E+00    9.279E+00    9.229E+00
     9.179E+00    9.130E+00    9.082E+00    9.034E+00    8.986E+00    8.939E+00    8.893E+00    8.847E+00    8.802E+00    8.757E+00
     8.713E+00    8.669E+00    8.626E+00    8.583E+00    8.540E+00    8.498E+00    8.457E+00    8.416E+00    8.375E+00    8.335E+00
     8.295E+00    8.256E+00    8.217E+00    8.178E+00    8.140E+00    8.102E+00    8.065E+00    8.028E+00    7.991E+00    7.955E+00
     7.919E+00    7.883E+00    7.848E+00    7.813E+00    7.779E+00    7.744E+00    7.710E+00    7.677E+00    7.643E+00    7.610E+00
     7.578E+00    7.545E+00    7.513E+00    7.481E+00    7.450E+00    7.418E+00    7.388E+00    7.357E+00    7.327E+00    7.296E+00
     7.267E+00    7.237E+00    7.208E+00    7.179E+00    7.150E+00    7.122E+00    7.093E+00    7.065E+00    7.038E+00    7.010E+00
     6.983E+00    6.956E+00    6.929E+00    6.903E+00    6.877E+00    6.851E+00    6.825E+00    6.799E+00    6.774E+00    6.749E+00
     6.724E+00    6.699E+00    6.674E+00    6.650E+00    6.626E+00    6.602E+00    6.578E+00    6.555E+00    6.531E+00    6.508E+00
     6.485E+00    6.462E+00    6.439E+00    6.417E+00    6.395E+00    6.372E+00    6.350E+00    6.328E+00    6.306E+00    6.285E+00
     6.263E+00    6.242E+00    6.221E+00    6.199E+00    6.178E+00    6.157E+00    6.137E+00    6.116E+00    6.095E+00    6.074E+00
     6.054E+00    6.034E+00    6.013E+00    5.993E+00    5.973E+00    5.953E+00    5.932E+00    5.912E+00    5.892E+00    5.872E+00
     5.853E+00    5.833E+00    5.813E+00    5.793E+00    5.773E+00    5.753E+00    5.734E+00    5.714E+00    5.694E+00    5.674E+00
     5.654E+00    5.635E+00    5.615E+00    5.595E+00    5.575E+00    5.555E+00    5.535E+00    5.515E+00    5.495E+00    5.476E+00
     5.456E+00    5.436E+00    5.416E+00    5.396E+00    5.375E+00    5.355E+00    5.335E+00    5.315E+00    5.295E+00    5.275E+00
     5.255E+00    5.234E+00    5.214E+00    5.194E+00    5.174E+00    5.153E+00    5.133E+00    5.113E+00    5.092E+00    5.072E+00
     5.052E+00    5.031E+00    5.011E+00    4.990E+00    4.970E+00    4.949E+00    4.929E+00    4.908E+00    4.888E+00    4.867E+00
     4.846E+00    4.826E+00    4.805E+00    4.784E+00    4.763E+00    4.743E+00    4.722E+00    4.701E+00    4.680E+00    4.659E+00
     4.638E+00    4.618E+00    4.597E+00    4.576E+00    4.555E+00    4.534E+00    4.513E+00    4.492E+00    4.472E+00    4.451E+00
     4.430E+00    4.409E+00    4.389E+00    4.368E+00    4.347E+00    4.327E+00    4.307E+00    4.286E+00    4.266E+00    4.246E+00
     4.226E+00    4.206E+00    4.186E+00    4.166E+00    4.146E+00    4.126E+00    4.107E+00    4.088E+00    4.068E+00    4.049E+00
     4.030E+00    4.011E+00    3.992E+00    3.974E+00    3.955E+00    3.937E+00    3.919E+00    3.901E+00    3.883E+00    3.866E+00
     3.848E+00    3.831E+00    3.814E+00    3.797E+00    3.781E+00    3.764E+00    3.748E+00    3.732E+00    3.716E+00    3.700E+00
     3.685E+00    3.670E+00    3.655E+00    3.640E+00    3.626E+00    3.611E+00    3.597E+00    3.583E+00    3.570E+00    3.556E+00
     3.543E+00    3.530E+00    3.518E+00    3.505E+00    3.493E+00    3.481E+00    3.470E+00    3.458E+00    3.447E+00    3.436E+00
     3.426E+00    3.415E+00    3.405E+00    3.395E+00    3.386E+00    3.377E+00    3.368E+00    3.359E+00    3.351E+00    3.343E+00
     3.335E+00    3.327E+00    3.320E+00    3.313E+00    3.307E+00    3.300E+00    3.294E+00    3.289E+00    3.283E+00    3.278E+00
     3.273E+00    3.269E+00    3.265E+00    3.261E+00    3.257E+00    3.253E+00    3.250E+00    3.247E+00    3.244E+00    3.242E+00
     3.239E+00    3.237E+00    3.235E+00    3.233E+00    3.232E+00    3.230E+00    3.229E+00    3.228E+00    3.227E+00    3.226E+00
     3.225E+00    3.224E+00    3.224E+00    3.223E+00    3.223E+00    3.222E+00    3.222E+00    3.222E+00    3.222E+00    3.222E+00
     3.222E+00    3.221E+00    3.221E+00    3.221E+00    3.221E+00    3.221E+00    3.221E+00    3.221E+00    3.221E+00    3.221E+00
     3.220E+00    3.220E+00    3.220E+00    3.219E+00    3.219E+00    3.218E+00    3.217E+00    3.216E+00    3.216E+00    3.215E+00
     3.214E+00    3.213E+00    3.212E+00    3.210E+00    3.209E+00    3.208E+00    3.207E+00    3.205E+00    3.204E+00    3.202E+00
     3.201E+00    3.199E+00    3.198E+00    3.196E+00    3.195E+00    3.193E+00    3.191E+00    3.189E+00    3.188E+00    3.186E+00
     3.184E+00    3.182E+00    3.180E+00    3.178E+00    3.176E+00    3.175E+00    3.173E+00    3.171E+00    3.169E+00    3.167E+00
     3.165E+00    3.163E+00    3.161E+00    3.159E+00    3.157E+00    3.155E+00    3.153E+00    3.152E+00
 Ala      Conc. = 1.45E+02
