 LCModel (Version 6.3-1L) Copyright: S.W. Provencher.          Ref.: Magn. Reson. Med. 30:672-679 (1993).                
 Slice#1 Row#6 Col#6  PD_05_press_1_raw_act
 36 lines in following concentration table = NCONC+1
    Conc.  %SD /Cr+PCr  Metabolite                                         
   38.912 188% 7.3E-02 Ala                                                 
    0.000 999%   0.000 Asp                                                 
  114.730 136%   0.214 Cr                                                  
  421.240  38%   0.786 PCr                                                 
    0.000 999%   0.000 GABA                                                
   49.217 149% 9.2E-02 Glc                                                 
  267.512  58%   0.499 Gln                                                 
  381.157  45%   0.711 Glu                                                 
  127.989  88%   0.239 GPC                                                 
  121.844  94%   0.227 PCh                                                 
   86.540  59%   0.161 GSH                                                 
  747.336  24%   1.394 Ins                                                 
    0.000 999%   0.000 Lac                                                 
  958.952   8%   1.789 NAA                                                 
   84.965  98%   0.159 NAAG                                                
   53.967  31%   0.101 Scyllo                                              
  162.587  68%   0.303 Tau                                                 
  210.660  36%   0.393 -CrCH2                                              
  249.833   6%   0.466 GPC+PCh                                             
 1.04E+03   6%   1.948 NAA+NAAG                                            
  535.970   7%   1.000 Cr+PCr                                              
  648.669  37%   1.210 Glu+Gln                                             
    0.000 999%   0.000 Lip13a                                              
   64.569 141%   0.120 Lip13b                                              
   19.919 287% 3.7E-02 Lip09                                               
 1.29E+03  11%   2.401 MM09                                                
   17.654 219% 3.3E-02 Lip20                                               
 1.97E+03  12%   3.683 MM20                                                
  439.909  31%   0.821 MM12                                                
    0.000 999%   0.000 MM14                                                
    0.000 999%   0.000 MM17                                                
   64.569 141%   0.120 Lip13a+Lip13b                                       
  504.479  25%   0.941 MM14+Lip13a+Lip13b+MM12                             
 1.31E+03  10%   2.438 MM09+Lip09                                          
 1.99E+03  12%   3.716 MM20+Lip20                                          
   6 lines in following misc. output table
  FWHM = 0.061 ppm    S/N =   7                                            
  Data shift =-0.031 ppm                                                   
  Ph: -20 deg       5.0 deg/ppm                                            
  alphaB,S = 1.1E+01,   5.0E+01                                            
   14 spline knots.   Ns = 7(1)                                            
  ( 6) 3 infls.   ( 2) 2 extrs.                                            
  498 points on ppm-axis = NY
      4.000000     3.992357     3.984714     3.977070     3.969427     3.961784     3.954141     3.946497     3.938854     3.931211
      3.923568     3.915925     3.908281     3.900638     3.892995     3.885352     3.877708     3.870065     3.862422     3.854779
      3.847136     3.839492     3.831849     3.824206     3.816563     3.808919     3.801276     3.793633     3.785990     3.778347
      3.770703     3.763060     3.755417     3.747774     3.740130     3.732487     3.724844     3.717201     3.709558     3.701914
      3.694271     3.686628     3.678985     3.671341     3.663698     3.656055     3.648412     3.640769     3.633125     3.625482
      3.617839     3.610196     3.602552     3.594909     3.587266     3.579623     3.571980     3.564336     3.556693     3.549050
      3.541407     3.533763     3.526120     3.518477     3.510834     3.503191     3.495547     3.487904     3.480261     3.472618
      3.464974     3.457331     3.449688     3.442045     3.434402     3.426758     3.419115     3.411472     3.403829     3.396185
      3.388542     3.380899     3.373256     3.365613     3.357969     3.350326     3.342683     3.335040     3.327396     3.319753
      3.312110     3.304467     3.296824     3.289180     3.281537     3.273894     3.266251     3.258607     3.250964     3.243321
      3.235678     3.228034     3.220391     3.212748     3.205105     3.197462     3.189818     3.182175     3.174532     3.166889
      3.159245     3.151602     3.143959     3.136316     3.128673     3.121029     3.113386     3.105743     3.098100     3.090456
      3.082813     3.075170     3.067527     3.059884     3.052240     3.044597     3.036954     3.029311     3.021667     3.014024
      3.006381     2.998738     2.991095     2.983451     2.975808     2.968165     2.960522     2.952878     2.945235     2.937592
      2.929949     2.922306     2.914662     2.907019     2.899376     2.891733     2.884089     2.876446     2.868803     2.861160
      2.853517     2.845873     2.838230     2.830587     2.822944     2.815300     2.807657     2.800014     2.792371     2.784728
      2.777084     2.769441     2.761798     2.754155     2.746511     2.738868     2.731225     2.723582     2.715939     2.708295
      2.700652     2.693009     2.685366     2.677722     2.670079     2.662436     2.654793     2.647150     2.639506     2.631863
      2.624220     2.616577     2.608933     2.601290     2.593647     2.586004     2.578361     2.570717     2.563074     2.555431
      2.547788     2.540144     2.532501     2.524858     2.517215     2.509572     2.501928     2.494285     2.486642     2.478999
      2.471355     2.463712     2.456069     2.448426     2.440783     2.433139     2.425496     2.417853     2.410210     2.402566
      2.394923     2.387280     2.379637     2.371994     2.364350     2.356707     2.349064     2.341421     2.333777     2.326134
      2.318491     2.310848     2.303205     2.295561     2.287918     2.280275     2.272632     2.264988     2.257345     2.249702
      2.242059     2.234416     2.226772     2.219129     2.211486     2.203843     2.196199     2.188556     2.180913     2.173270
      2.165627     2.157983     2.150340     2.142697     2.135054     2.127410     2.119767     2.112124     2.104481     2.096838
      2.089194     2.081551     2.073908     2.066265     2.058621     2.050978     2.043335     2.035692     2.028049     2.020405
      2.012762     2.005119     1.997476     1.989833     1.982190     1.974546     1.966903     1.959260     1.951617     1.943974
      1.936331     1.928688     1.921045     1.913402     1.905759     1.898115     1.890472     1.882829     1.875186     1.867543
      1.859900     1.852257     1.844614     1.836971     1.829327     1.821684     1.814041     1.806398     1.798755     1.791112
      1.783469     1.775826     1.768183     1.760540     1.752896     1.745253     1.737610     1.729967     1.722324     1.714681
      1.707038     1.699395     1.691752     1.684108     1.676465     1.668822     1.661179     1.653536     1.645893     1.638250
      1.630607     1.622964     1.615321     1.607677     1.600034     1.592391     1.584748     1.577105     1.569462     1.561819
      1.554176     1.546533     1.538890     1.531246     1.523603     1.515960     1.508317     1.500674     1.493031     1.485388
      1.477745     1.470102     1.462458     1.454815     1.447172     1.439529     1.431886     1.424243     1.416600     1.408957
      1.401314     1.393671     1.386027     1.378384     1.370741     1.363098     1.355455     1.347812     1.340169     1.332526
      1.324883     1.317240     1.309596     1.301953     1.294310     1.286667     1.279024     1.271381     1.263738     1.256095
      1.248452     1.240808     1.233165     1.225522     1.217879     1.210236     1.202593     1.194950     1.187307     1.179664
      1.172021     1.164377     1.156734     1.149091     1.141448     1.133805     1.126162     1.118519     1.110876     1.103233
      1.095590     1.087946     1.080303     1.072660     1.065017     1.057374     1.049731     1.042088     1.034445     1.026802
      1.019158     1.011515     1.003872     0.996229     0.988586     0.980943     0.973300     0.965657     0.958014     0.950371
      0.942727     0.935084     0.927441     0.919798     0.912155     0.904512     0.896869     0.889226     0.881583     0.873940
      0.866296     0.858653     0.851010     0.843367     0.835724     0.828081     0.820438     0.812795     0.805152     0.797508
      0.789865     0.782222     0.774579     0.766936     0.759293     0.751650     0.744007     0.736364     0.728721     0.721077
      0.713434     0.705791     0.698148     0.690505     0.682862     0.675219     0.667576     0.659933     0.652290     0.644646
      0.637003     0.629360     0.621717     0.614074     0.606431     0.598788     0.591145     0.583502     0.575858     0.568215
      0.560572     0.552929     0.545286     0.537643     0.530000     0.522357     0.514714     0.507071     0.499427     0.491784
      0.484141     0.476498     0.468855     0.461212     0.453569     0.445925     0.438282     0.430639     0.422996     0.415353
      0.407710     0.400067     0.392424     0.384780     0.377137     0.369494     0.361851     0.354208     0.346565     0.338922
      0.331278     0.323635     0.315992     0.308349     0.300706     0.293063     0.285420     0.277777     0.270133     0.262490
      0.254847     0.247204     0.239561     0.231918     0.224275     0.216631     0.208988     0.201345
 NY phased data points follow
  -1.40047E+01 -1.88621E+01 -1.69533E+01 -1.52278E+01 -1.04201E+01 -1.10777E+01 -9.65354E+00 -8.83638E+00 -6.99295E+00 -5.72805E+00
  -5.05306E+00 -1.41142E+00 -4.34083E+00 -5.69610E+00 -5.64517E+00 -8.33270E+00 -1.65638E+01 -1.62843E+01 -1.37246E+01 -1.17351E+01
  -1.51693E+01 -1.36860E+01 -8.85502E+00 -1.28366E+01 -9.47827E+00 -1.38523E+01 -8.12160E+00 -1.03888E+01 -1.13260E+01 -1.41283E+01
  -6.76321E+00 -9.16916E+00 -1.12368E+01 -8.63933E+00 -8.14609E+00 -9.32467E+00 -6.66943E+00 -1.01037E+01 -1.01416E+01 -1.08404E+01
  -1.08230E+01 -6.75739E+00 -8.13488E+00 -9.83046E+00 -9.08546E+00 -6.57651E+00 -8.67236E+00 -2.20610E+00 -3.96337E+00 -5.14166E+00
  -9.47169E+00 -9.10535E+00 -9.86086E+00 -9.82088E+00 -1.29752E+01 -1.17060E+01 -7.16890E+00 -8.73594E+00 -1.08507E+01 -7.85632E+00
  -1.16598E+01 -9.98258E+00 -9.75821E+00 -1.12659E+01 -1.03771E+01 -9.97926E+00 -1.07179E+01 -1.28528E+01 -1.02734E+01 -1.58293E+01
  -1.13926E+01 -1.02070E+01 -1.10001E+01 -1.06377E+01 -9.56417E+00 -7.27639E+00 -7.83704E+00 -1.20376E+01 -1.00682E+01 -8.97019E+00
  -6.79821E+00 -9.78931E+00 -7.50245E+00 -1.04267E+01 -6.09908E+00 -6.46634E+00 -9.96835E+00 -6.50733E+00 -1.37772E+01 -8.59478E+00
  -7.44293E+00 -8.16914E+00 -9.30572E+00 -1.03240E+01 -8.53796E+00 -7.70050E+00 -3.20103E+00 -1.88938E+00 -6.29098E+00  4.57531E-01
   4.21085E+00  7.75606E+00  1.26274E+01  1.08595E+01  1.27172E+01  9.98622E+00  3.23493E+00 -6.12362E-01 -1.45567E+00 -1.08566E+01
  -9.24889E+00 -9.39678E+00 -1.12670E+01 -3.99214E+00 -1.15956E+01 -8.88072E+00 -8.39475E+00 -8.99152E+00 -1.21132E+01 -1.22493E+01
  -7.41792E+00 -8.30945E+00 -3.39501E+00 -7.66852E-01  2.70910E+00 -5.97068E-01  1.01312E+01  2.16969E+00  6.77603E+00  4.00957E+00
   7.34756E+00  1.75062E+00 -4.58126E+00 -8.06532E+00 -1.16779E+01 -1.28292E+01 -9.68854E+00 -7.88339E+00 -5.83823E+00 -1.03607E+01
  -8.12622E+00 -8.74774E+00 -1.09746E+01 -9.29796E+00 -1.23581E+01 -1.05895E+01 -9.14029E+00 -9.49224E+00 -1.22664E+01 -1.19128E+01
  -1.08066E+01 -9.58640E+00 -5.74188E+00 -1.32590E+01 -1.22382E+01 -1.13041E+01 -1.00784E+01 -8.86432E+00 -5.79077E+00 -1.03532E+01
  -1.06270E+01 -4.07869E+00 -1.06046E+01 -9.29354E+00 -1.14481E+01 -1.16240E+01 -1.27298E+01 -8.93147E+00 -1.11107E+01 -8.24286E+00
  -8.16499E+00 -1.00064E+01 -1.36053E+01 -1.53256E+01 -1.52601E+01 -1.46232E+01 -1.23214E+01 -1.25125E+01 -1.46357E+01 -1.66656E+01
  -1.41793E+01 -1.14541E+01 -1.37446E+01 -1.30040E+01 -1.29809E+01 -1.49615E+01 -1.50164E+01 -1.34345E+01 -1.20571E+01 -9.67153E+00
  -6.30337E+00 -7.11507E+00 -1.01034E+01 -6.96829E+00 -1.30242E+01 -1.29774E+01 -8.79533E+00 -7.49221E+00 -8.36019E+00 -1.21395E+01
  -1.33041E+01 -8.13107E+00 -8.03449E+00 -8.36977E+00 -8.60926E+00 -4.45564E+00 -7.54900E+00 -7.20901E+00 -1.16197E+01 -4.93531E+00
  -9.92433E+00 -8.82181E+00 -8.02889E+00 -3.84663E+00 -4.13619E+00 -5.53266E+00 -2.25526E+00 -4.13933E+00 -5.76773E+00 -5.23245E+00
  -5.23502E+00 -7.93528E+00 -9.02119E+00 -8.59360E+00 -7.18875E+00 -4.30294E+00 -6.85804E+00 -9.30992E+00 -1.16075E+00  1.01633E+00
  -4.75782E+00 -6.55877E+00 -3.77668E+00 -7.03804E+00 -6.77189E+00 -7.60767E+00 -3.40547E+00 -5.10592E+00 -6.18282E+00 -5.17572E+00
  -6.72167E+00 -3.69003E+00 -6.64058E+00 -3.29159E+00 -4.25421E+00 -9.02123E+00 -2.79653E+00 -2.41869E+00 -3.52085E+00 -4.67530E-01
  -1.75566E+00  3.23694E+00  3.27546E+00  6.59869E+00  4.11825E+00  1.14112E+01  1.10878E+01  2.22691E+01  2.43923E+01  2.63315E+01
   2.56355E+01  2.64994E+01  2.65395E+01  2.35278E+01  1.99184E+01  6.83399E+00 -3.29856E+00 -7.41488E+00 -1.06818E+01 -2.60501E+00
  -3.90588E+00 -1.46239E+00 -1.32079E+00 -3.78041E+00 -4.41901E+00 -3.51486E+00 -8.88313E+00 -5.05658E+00 -1.07414E+01 -6.74336E+00
  -9.62752E+00 -7.88440E+00 -8.57606E+00 -8.21091E+00 -7.31795E+00 -8.23848E+00 -9.27992E+00 -8.86213E+00 -5.65456E+00 -1.01147E+01
  -9.89496E+00 -9.65357E+00 -8.22008E+00 -8.05253E+00 -9.66698E+00 -1.16600E+01 -7.37891E+00 -8.61753E+00 -8.39040E+00 -1.28280E+01
  -9.47949E+00 -9.54489E+00 -5.75259E+00 -7.18335E+00 -8.61808E+00 -1.00427E+01 -1.00260E+01 -6.54027E+00 -4.23194E+00 -9.06457E+00
  -5.07838E+00 -1.04743E+01 -3.95640E+00 -1.00025E+01 -7.68746E+00 -7.83367E+00 -8.71544E+00 -1.05253E+01 -1.02764E+01 -7.91173E+00
  -8.85363E+00 -8.70232E+00 -7.76532E+00 -1.04811E+01 -8.18251E+00 -8.53078E+00 -1.26638E+01 -1.31702E+01 -1.20488E+01 -9.78283E+00
  -1.45827E+01 -9.73375E+00 -9.91063E+00 -1.13138E+01 -9.83477E+00 -7.81509E+00 -1.27058E+01 -9.67757E+00 -9.73261E+00 -6.91847E+00
  -9.22409E+00 -6.09945E+00 -8.76301E+00 -6.36273E+00 -3.78770E+00 -6.38109E+00 -1.04630E+01 -7.37658E+00 -6.18454E+00 -7.45690E+00
  -1.54325E+00 -5.50093E+00 -6.62550E+00 -4.43640E+00 -3.66254E+00 -3.76499E+00 -4.24533E+00 -6.50451E+00 -8.45915E+00 -3.54020E+00
  -3.12650E+00 -4.16315E+00 -4.45656E+00 -5.81806E+00 -3.74039E+00 -3.86718E+00 -5.53727E+00 -4.40398E+00 -2.62424E+00 -2.27347E+00
  -3.79771E+00 -6.23296E+00 -5.52422E+00 -5.35107E+00 -5.00188E+00 -4.05393E+00 -4.36702E+00 -4.26215E+00 -6.20458E+00 -2.46791E+00
  -3.95506E+00 -4.63003E+00  2.86118E-02  7.70704E-02 -1.25586E+00 -3.03627E+00 -9.62861E-01 -3.24994E+00 -2.29718E-01 -2.71801E+00
  -5.77004E-01 -4.71717E+00  1.50225E+00  2.87738E-01 -2.62042E+00 -2.45039E+00  2.76102E-01  1.54169E+00 -1.09352E+00 -1.24346E+00
  -1.26020E+00 -4.81093E+00  2.50600E-01 -2.47581E-01 -5.76936E-02  2.13872E+00  2.33901E+00 -2.54264E-01  3.63515E+00  4.90383E-01
   1.65136E+00  1.42034E+00  3.56824E+00  6.05587E+00  5.95387E+00  2.83418E+00  2.47514E+00 -1.29013E+00  2.78943E+00  1.93085E+00
  -2.11724E+00 -4.33760E+00 -2.15812E+00 -3.29976E+00 -2.26610E+00 -2.12935E+00 -4.35094E+00 -2.97473E+00 -5.11782E+00 -4.08269E+00
  -2.57000E+00 -4.32341E+00 -5.61961E+00 -3.53691E+00 -7.99641E+00 -4.62866E+00 -1.70554E+00 -4.38876E+00 -2.59870E+00 -4.45313E+00
  -3.14546E+00 -8.17218E+00  1.33571E+00 -6.89260E+00 -2.91854E+00 -4.22030E+00 -7.61667E+00 -6.64033E+00 -5.49246E+00 -7.77679E+00
  -6.65627E+00 -6.29743E+00 -4.63513E+00 -2.57634E+00 -2.88144E+00 -4.21586E+00 -3.58046E+00 -3.50799E+00 -5.71083E+00  2.40051E+00
  -5.29053E+00  2.24477E-01 -6.77399E+00 -7.89635E+00 -8.33713E-01 -5.64320E+00 -8.79866E-01 -4.16262E+00 -1.68384E+00 -6.28267E+00
  -4.14862E+00 -4.84084E+00 -4.00854E+00 -4.11836E+00 -6.13789E+00 -5.90899E-02 -2.23016E+00 -2.83128E+00 -3.96986E+00 -4.18320E+00
  -6.28035E+00 -3.76883E+00 -1.37606E+00 -3.01345E+00 -4.76402E+00 -4.64721E+00 -3.40722E+00 -7.66461E+00 -6.78221E+00 -9.75637E+00
  -9.66163E+00 -6.24578E+00 -8.99910E+00 -9.63197E+00 -2.20251E+00 -9.48411E+00 -7.66669E+00 -8.41648E-01
 NY points of the fit to the data follow
  -1.18388E+01 -1.22043E+01 -1.24052E+01 -1.19339E+01 -1.12210E+01 -1.04131E+01 -9.26460E+00 -7.85290E+00 -6.56190E+00 -5.66543E+00
  -5.06294E+00 -4.61462E+00 -4.49822E+00 -5.07665E+00 -6.71051E+00 -9.17117E+00 -1.14517E+01 -1.23735E+01 -1.21195E+01 -1.18147E+01
  -1.16772E+01 -1.16861E+01 -1.17065E+01 -1.16418E+01 -1.15388E+01 -1.13987E+01 -1.11425E+01 -1.07661E+01 -1.03223E+01 -9.88089E+00
  -9.42558E+00 -8.95427E+00 -8.56969E+00 -8.41031E+00 -8.64142E+00 -9.28991E+00 -1.01679E+01 -1.09570E+01 -1.14505E+01 -1.16035E+01
  -1.13233E+01 -1.07097E+01 -9.97232E+00 -9.14783E+00 -8.24413E+00 -7.40383E+00 -6.86027E+00 -6.68717E+00 -6.77220E+00 -7.10189E+00
  -7.83388E+00 -9.08960E+00 -1.06211E+01 -1.18597E+01 -1.22700E+01 -1.17851E+01 -1.09250E+01 -1.01934E+01 -9.72690E+00 -9.47745E+00
  -9.36319E+00 -9.38078E+00 -9.50437E+00 -9.75610E+00 -1.01426E+01 -1.05413E+01 -1.07844E+01 -1.07258E+01 -1.03695E+01 -9.85359E+00
  -9.39652E+00 -9.12077E+00 -8.98628E+00 -8.96280E+00 -9.02795E+00 -9.15881E+00 -9.35816E+00 -9.59478E+00 -9.81569E+00 -9.85499E+00
  -9.78216E+00 -9.74560E+00 -9.57490E+00 -9.19536E+00 -8.83018E+00 -8.68317E+00 -8.73502E+00 -8.91520E+00 -9.22516E+00 -9.66669E+00
  -1.02350E+01 -1.08004E+01 -1.10372E+01 -1.07463E+01 -1.00288E+01 -8.96323E+00 -7.14687E+00 -4.82819E+00 -2.18285E+00  1.19745E+00
   4.93889E+00  8.08674E+00  1.00928E+01  1.10862E+01  1.11843E+01  9.85703E+00  6.46554E+00  9.68487E-01 -5.43796E+00 -1.04041E+01
  -1.21928E+01 -1.15455E+01 -1.07887E+01 -1.05913E+01 -1.05236E+01 -1.04513E+01 -1.03434E+01 -1.02135E+01 -1.00243E+01 -9.63869E+00
  -8.55465E+00 -6.71300E+00 -4.71148E+00 -2.28830E+00  6.42758E-01  3.40612E+00  5.38942E+00  6.51151E+00  6.95784E+00  6.52391E+00
   4.64316E+00  1.00648E+00 -3.89276E+00 -8.48470E+00 -1.09779E+01 -1.10083E+01 -1.03022E+01 -1.01887E+01 -1.02544E+01 -1.02852E+01
  -1.02231E+01 -1.00750E+01 -9.91895E+00 -9.84382E+00 -9.86949E+00 -9.97840E+00 -1.01390E+01 -1.03011E+01 -1.04269E+01 -1.05051E+01
  -1.05466E+01 -1.05849E+01 -1.06173E+01 -1.06502E+01 -1.07196E+01 -1.08072E+01 -1.08874E+01 -1.09753E+01 -1.10486E+01 -1.11105E+01
  -1.11603E+01 -1.11894E+01 -1.12371E+01 -1.13122E+01 -1.13601E+01 -1.13244E+01 -1.12260E+01 -1.11960E+01 -1.13781E+01 -1.17787E+01
  -1.21970E+01 -1.24310E+01 -1.24823E+01 -1.24484E+01 -1.24486E+01 -1.24576E+01 -1.24316E+01 -1.24119E+01 -1.23779E+01 -1.22569E+01
  -1.20561E+01 -1.18301E+01 -1.16800E+01 -1.16807E+01 -1.16922E+01 -1.14725E+01 -1.09934E+01 -1.04844E+01 -1.00809E+01 -9.76888E+00
  -9.42255E+00 -9.06148E+00 -8.79914E+00 -8.74139E+00 -8.93243E+00 -9.25151E+00 -9.46725E+00 -9.45595E+00 -9.25303E+00 -8.90868E+00
  -8.50095E+00 -8.11403E+00 -7.81575E+00 -7.69662E+00 -7.75125E+00 -8.02342E+00 -8.63229E+00 -9.40098E+00 -1.01046E+01 -1.05872E+01
  -1.07947E+01 -1.06322E+01 -9.99857E+00 -9.04328E+00 -8.03242E+00 -7.23220E+00 -6.80391E+00 -6.78527E+00 -7.12590E+00 -7.69702E+00
  -8.42830E+00 -9.11472E+00 -9.40488E+00 -9.17183E+00 -8.55852E+00 -7.79265E+00 -6.92682E+00 -6.05044E+00 -5.40005E+00 -5.17133E+00
  -5.27493E+00 -5.44191E+00 -5.51336E+00 -5.47483E+00 -5.30736E+00 -4.99719E+00 -4.64040E+00 -4.26723E+00 -3.93764E+00 -3.71654E+00
  -3.56299E+00 -3.41467E+00 -3.31593E+00 -3.31276E+00 -3.30717E+00 -3.13890E+00 -2.79205E+00 -2.30415E+00 -1.67835E+00 -9.33562E-01
  -2.68204E-01  3.37239E-01  1.25437E+00  3.35947E+00  6.80043E+00  1.03104E+01  1.43869E+01  1.93153E+01  2.38247E+01  2.66933E+01
   2.77763E+01  2.76805E+01  2.63788E+01  2.29691E+01  1.66400E+01  7.75370E+00 -1.00505E+00 -6.13737E+00 -6.61063E+00 -5.42930E+00
  -5.28185E+00 -5.44783E+00 -5.62094E+00 -5.79871E+00 -5.97056E+00 -6.11979E+00 -6.26652E+00 -6.42434E+00 -6.60082E+00 -6.78901E+00
  -6.96828E+00 -7.11608E+00 -7.23031E+00 -7.32559E+00 -7.41232E+00 -7.49013E+00 -7.55920E+00 -7.62600E+00 -7.69391E+00 -7.75712E+00
  -7.80736E+00 -7.84492E+00 -7.87409E+00 -7.89621E+00 -7.91161E+00 -7.92437E+00 -7.93784E+00 -7.95324E+00 -7.96899E+00 -7.98120E+00
  -7.98699E+00 -7.98743E+00 -7.98314E+00 -7.97440E+00 -7.96235E+00 -7.94924E+00 -7.93714E+00 -7.92611E+00 -7.91431E+00 -7.90148E+00
  -7.88736E+00 -7.87142E+00 -7.85360E+00 -7.83401E+00 -7.81251E+00 -7.78885E+00 -7.76220E+00 -7.73123E+00 -7.69347E+00 -7.64323E+00
  -7.57250E+00 -7.50467E+00 -7.45164E+00 -7.40213E+00 -7.37274E+00 -7.38794E+00 -7.45086E+00 -7.54751E+00 -7.64721E+00 -7.74441E+00
  -7.85498E+00 -7.94392E+00 -7.94839E+00 -7.83089E+00 -7.60954E+00 -7.35645E+00 -7.14025E+00 -6.95816E+00 -6.80520E+00 -6.71549E+00
  -6.71287E+00 -6.77361E+00 -6.82374E+00 -6.79801E+00 -6.71446E+00 -6.61483E+00 -6.49690E+00 -6.35670E+00 -6.19297E+00 -6.00662E+00
  -5.80105E+00 -5.58270E+00 -5.36070E+00 -5.14611E+00 -4.95018E+00 -4.78280E+00 -4.65082E+00 -4.55716E+00 -4.50042E+00 -4.47537E+00
  -4.47408E+00 -4.48759E+00 -4.50762E+00 -4.52782E+00 -4.54430E+00 -4.55558E+00 -4.56196E+00 -4.56499E+00 -4.56669E+00 -4.56908E+00
  -4.57352E+00 -4.58057E+00 -4.58985E+00 -4.60033E+00 -4.61048E+00 -4.61847E+00 -4.62215E+00 -4.61917E+00 -4.60706E+00 -4.58350E+00
  -4.54623E+00 -4.49316E+00 -4.42216E+00 -4.33119E+00 -4.21830E+00 -4.08178E+00 -3.92015E+00 -3.73217E+00 -3.51675E+00 -3.27318E+00
  -3.00122E+00 -2.70135E+00 -2.37468E+00 -2.02316E+00 -1.64946E+00 -1.25729E+00 -8.51347E-01 -4.37457E-01 -2.22880E-02  3.86737E-01
   7.81685E-01  1.15420E+00  1.49585E+00  1.79838E+00  2.05426E+00  2.25695E+00  2.40121E+00  2.48327E+00  2.50100E+00  2.45408E+00
   2.34409E+00  2.17440E+00  1.94993E+00  1.67685E+00  1.36232E+00  1.01420E+00  6.40787E-01  2.50366E-01 -1.49095E-01 -5.50305E-01
  -9.46718E-01 -1.33269E+00 -1.70348E+00 -2.05542E+00 -2.38588E+00 -2.69321E+00 -2.97655E+00 -3.23571E+00 -3.47101E+00 -3.68333E+00
  -3.87387E+00 -4.04414E+00 -4.19567E+00 -4.33005E+00 -4.44880E+00 -4.55351E+00 -4.64567E+00 -4.72671E+00 -4.79784E+00 -4.86014E+00
  -4.91458E+00 -4.96210E+00 -5.00354E+00 -5.03962E+00 -5.07090E+00 -5.09788E+00 -5.12101E+00 -5.14076E+00 -5.15753E+00 -5.17162E+00
  -5.18325E+00 -5.19263E+00 -5.20000E+00 -5.20560E+00 -5.20960E+00 -5.21214E+00 -5.21328E+00 -5.21315E+00 -5.21186E+00 -5.20958E+00
  -5.20638E+00 -5.20229E+00 -5.19734E+00 -5.19161E+00 -5.18520E+00 -5.17819E+00 -5.17060E+00 -5.16242E+00 -5.15368E+00 -5.14444E+00
  -5.13479E+00 -5.12476E+00 -5.11432E+00 -5.10348E+00 -5.09225E+00 -5.08071E+00 -5.06890E+00 -5.05683E+00 -5.04446E+00 -5.03179E+00
  -5.01886E+00 -5.00574E+00 -4.99243E+00 -4.97894E+00 -4.96520E+00 -4.95125E+00 -4.93712E+00 -4.92286E+00 -4.90848E+00 -4.89393E+00
  -4.87919E+00 -4.86429E+00 -4.84927E+00 -4.83417E+00 -4.81896E+00 -4.80360E+00 -4.78807E+00 -4.77244E+00
 NY background values follow
    -1.389E+01   -1.388E+01   -1.386E+01   -1.384E+01   -1.382E+01   -1.381E+01   -1.379E+01   -1.377E+01   -1.375E+01   -1.373E+01
    -1.372E+01   -1.370E+01   -1.368E+01   -1.366E+01   -1.365E+01   -1.363E+01   -1.361E+01   -1.359E+01   -1.357E+01   -1.356E+01
    -1.354E+01   -1.352E+01   -1.350E+01   -1.349E+01   -1.347E+01   -1.345E+01   -1.343E+01   -1.341E+01   -1.340E+01   -1.338E+01
    -1.336E+01   -1.334E+01   -1.333E+01   -1.331E+01   -1.329E+01   -1.327E+01   -1.325E+01   -1.324E+01   -1.322E+01   -1.320E+01
    -1.318E+01   -1.317E+01   -1.315E+01   -1.313E+01   -1.311E+01   -1.310E+01   -1.308E+01   -1.306E+01   -1.304E+01   -1.302E+01
    -1.301E+01   -1.299E+01   -1.297E+01   -1.295E+01   -1.294E+01   -1.292E+01   -1.290E+01   -1.288E+01   -1.286E+01   -1.285E+01
    -1.283E+01   -1.281E+01   -1.279E+01   -1.278E+01   -1.276E+01   -1.274E+01   -1.272E+01   -1.271E+01   -1.269E+01   -1.267E+01
    -1.265E+01   -1.263E+01   -1.262E+01   -1.260E+01   -1.258E+01   -1.256E+01   -1.255E+01   -1.253E+01   -1.251E+01   -1.249E+01
    -1.248E+01   -1.246E+01   -1.244E+01   -1.242E+01   -1.240E+01   -1.239E+01   -1.237E+01   -1.235E+01   -1.233E+01   -1.232E+01
    -1.230E+01   -1.228E+01   -1.226E+01   -1.225E+01   -1.223E+01   -1.221E+01   -1.219E+01   -1.218E+01   -1.216E+01   -1.214E+01
    -1.212E+01   -1.211E+01   -1.209E+01   -1.207E+01   -1.205E+01   -1.203E+01   -1.202E+01   -1.200E+01   -1.198E+01   -1.196E+01
    -1.195E+01   -1.193E+01   -1.191E+01   -1.189E+01   -1.188E+01   -1.186E+01   -1.184E+01   -1.182E+01   -1.181E+01   -1.179E+01
    -1.177E+01   -1.175E+01   -1.174E+01   -1.172E+01   -1.170E+01   -1.168E+01   -1.167E+01   -1.165E+01   -1.163E+01   -1.161E+01
    -1.160E+01   -1.158E+01   -1.156E+01   -1.154E+01   -1.153E+01   -1.151E+01   -1.149E+01   -1.147E+01   -1.146E+01   -1.144E+01
    -1.142E+01   -1.140E+01   -1.139E+01   -1.137E+01   -1.135E+01   -1.134E+01   -1.132E+01   -1.130E+01   -1.128E+01   -1.127E+01
    -1.125E+01   -1.123E+01   -1.121E+01   -1.120E+01   -1.118E+01   -1.116E+01   -1.114E+01   -1.113E+01   -1.111E+01   -1.109E+01
    -1.107E+01   -1.106E+01   -1.104E+01   -1.102E+01   -1.100E+01   -1.099E+01   -1.097E+01   -1.095E+01   -1.093E+01   -1.092E+01
    -1.090E+01   -1.088E+01   -1.087E+01   -1.085E+01   -1.083E+01   -1.081E+01   -1.080E+01   -1.078E+01   -1.076E+01   -1.074E+01
    -1.073E+01   -1.071E+01   -1.069E+01   -1.067E+01   -1.066E+01   -1.064E+01   -1.062E+01   -1.060E+01   -1.059E+01   -1.057E+01
    -1.055E+01   -1.054E+01   -1.052E+01   -1.050E+01   -1.048E+01   -1.047E+01   -1.045E+01   -1.043E+01   -1.041E+01   -1.040E+01
    -1.038E+01   -1.036E+01   -1.034E+01   -1.033E+01   -1.031E+01   -1.029E+01   -1.028E+01   -1.026E+01   -1.024E+01   -1.022E+01
    -1.021E+01   -1.019E+01   -1.017E+01   -1.015E+01   -1.014E+01   -1.012E+01   -1.010E+01   -1.008E+01   -1.007E+01   -1.005E+01
    -1.003E+01   -1.001E+01   -9.997E+00   -9.980E+00   -9.962E+00   -9.945E+00   -9.928E+00   -9.910E+00   -9.893E+00   -9.875E+00
    -9.858E+00   -9.841E+00   -9.823E+00   -9.806E+00   -9.788E+00   -9.771E+00   -9.754E+00   -9.736E+00   -9.719E+00   -9.701E+00
    -9.684E+00   -9.667E+00   -9.649E+00   -9.632E+00   -9.614E+00   -9.597E+00   -9.579E+00   -9.562E+00   -9.544E+00   -9.527E+00
    -9.509E+00   -9.492E+00   -9.475E+00   -9.457E+00   -9.440E+00   -9.422E+00   -9.405E+00   -9.387E+00   -9.370E+00   -9.352E+00
    -9.335E+00   -9.317E+00   -9.300E+00   -9.282E+00   -9.264E+00   -9.247E+00   -9.229E+00   -9.212E+00   -9.194E+00   -9.177E+00
    -9.159E+00   -9.142E+00   -9.124E+00   -9.106E+00   -9.089E+00   -9.071E+00   -9.053E+00   -9.036E+00   -9.018E+00   -9.001E+00
    -8.983E+00   -8.965E+00   -8.948E+00   -8.930E+00   -8.912E+00   -8.895E+00   -8.877E+00   -8.859E+00   -8.841E+00   -8.824E+00
    -8.806E+00   -8.788E+00   -8.770E+00   -8.753E+00   -8.735E+00   -8.717E+00   -8.699E+00   -8.681E+00   -8.664E+00   -8.646E+00
    -8.628E+00   -8.610E+00   -8.592E+00   -8.574E+00   -8.557E+00   -8.539E+00   -8.521E+00   -8.503E+00   -8.485E+00   -8.467E+00
    -8.449E+00   -8.431E+00   -8.413E+00   -8.395E+00   -8.377E+00   -8.359E+00   -8.341E+00   -8.323E+00   -8.305E+00   -8.287E+00
    -8.269E+00   -8.251E+00   -8.233E+00   -8.215E+00   -8.197E+00   -8.179E+00   -8.161E+00   -8.143E+00   -8.124E+00   -8.106E+00
    -8.088E+00   -8.070E+00   -8.052E+00   -8.034E+00   -8.015E+00   -7.997E+00   -7.979E+00   -7.961E+00   -7.943E+00   -7.924E+00
    -7.906E+00   -7.888E+00   -7.869E+00   -7.851E+00   -7.833E+00   -7.815E+00   -7.796E+00   -7.778E+00   -7.760E+00   -7.741E+00
    -7.723E+00   -7.705E+00   -7.686E+00   -7.668E+00   -7.650E+00   -7.631E+00   -7.613E+00   -7.594E+00   -7.576E+00   -7.558E+00
    -7.539E+00   -7.521E+00   -7.502E+00   -7.484E+00   -7.465E+00   -7.447E+00   -7.429E+00   -7.410E+00   -7.392E+00   -7.373E+00
    -7.355E+00   -7.336E+00   -7.318E+00   -7.299E+00   -7.281E+00   -7.262E+00   -7.244E+00   -7.225E+00   -7.207E+00   -7.188E+00
    -7.170E+00   -7.151E+00   -7.132E+00   -7.114E+00   -7.095E+00   -7.077E+00   -7.058E+00   -7.040E+00   -7.021E+00   -7.002E+00
    -6.984E+00   -6.965E+00   -6.947E+00   -6.928E+00   -6.909E+00   -6.891E+00   -6.872E+00   -6.854E+00   -6.835E+00   -6.816E+00
    -6.798E+00   -6.779E+00   -6.760E+00   -6.742E+00   -6.723E+00   -6.704E+00   -6.686E+00   -6.667E+00   -6.648E+00   -6.630E+00
    -6.611E+00   -6.592E+00   -6.574E+00   -6.555E+00   -6.536E+00   -6.518E+00   -6.499E+00   -6.480E+00   -6.462E+00   -6.443E+00
    -6.424E+00   -6.406E+00   -6.387E+00   -6.368E+00   -6.350E+00   -6.331E+00   -6.312E+00   -6.294E+00   -6.275E+00   -6.256E+00
    -6.238E+00   -6.219E+00   -6.200E+00   -6.181E+00   -6.163E+00   -6.144E+00   -6.125E+00   -6.107E+00   -6.088E+00   -6.069E+00
    -6.051E+00   -6.032E+00   -6.013E+00   -5.994E+00   -5.976E+00   -5.957E+00   -5.938E+00   -5.920E+00   -5.901E+00   -5.882E+00
    -5.864E+00   -5.845E+00   -5.826E+00   -5.807E+00   -5.789E+00   -5.770E+00   -5.751E+00   -5.733E+00   -5.714E+00   -5.695E+00
    -5.677E+00   -5.658E+00   -5.639E+00   -5.620E+00   -5.602E+00   -5.583E+00   -5.564E+00   -5.546E+00   -5.527E+00   -5.508E+00
    -5.490E+00   -5.471E+00   -5.452E+00   -5.434E+00   -5.415E+00   -5.396E+00   -5.377E+00   -5.359E+00   -5.340E+00   -5.321E+00
    -5.303E+00   -5.284E+00   -5.265E+00   -5.247E+00   -5.228E+00   -5.209E+00   -5.191E+00   -5.172E+00   -5.153E+00   -5.134E+00
    -5.116E+00   -5.097E+00   -5.078E+00   -5.060E+00   -5.041E+00   -5.022E+00   -5.004E+00   -4.985E+00
 Ala      Conc. = 3.89E+01
