 LCModel (Version 6.3-1L) Copyright: S.W. Provencher.          Ref.: Magn. Reson. Med. 30:672-679 (1993).                
 Slice#2 Row#9 Col#8  PD_05_press_1_raw_act
 36 lines in following concentration table = NCONC+1
    Conc.  %SD /Cr+PCr  Metabolite                                         
  382.855  45%   0.241 Ala                                                 
  122.480 221% 7.7E-02 Asp                                                 
  160.368 168%   0.101 Cr                                                  
 1.43E+03  19%   0.899 PCr                                                 
   79.824 227% 5.0E-02 GABA                                                
    0.000 999%   0.000 Glc                                                 
 1.25E+03  25%   0.788 Gln                                                 
 2.25E+03  17%   1.412 Glu                                                 
  478.564   5%   0.301 GPC                                                 
    0.000 999%   0.000 PCh                                                 
  646.515  14%   0.407 GSH                                                 
 1.93E+03  15%   1.211 Ins                                                 
  831.986  22%   0.523 Lac                                                 
 2.24E+03   4%   1.407 NAA                                                 
    0.000 999%   0.000 NAAG                                                
   61.471  50% 3.9E-02 Scyllo                                              
    0.000 999%   0.000 Tau                                                 
    0.000 999%   0.000 -CrCH2                                              
  478.564   5%   0.301 GPC+PCh                                             
 2.24E+03   4%   1.407 NAA+NAAG                                            
 1.59E+03   4%   1.000 Cr+PCr                                              
 3.50E+03  15%   2.200 Glu+Gln                                             
 1.35E+04   6%   8.486 Lip13a                                              
    0.000 999%   0.000 Lip13b                                              
 3.60E+03   6%   2.266 Lip09                                               
    0.000 999%   0.000 MM09                                                
 2.02E+03   6%   1.273 Lip20                                               
  307.743 120%   0.194 MM20                                                
   42.049 372% 2.6E-02 MM12                                                
 2.47E+03  26%   1.555+MM14                                                
 1.16E+03  32%   0.730 MM17                                                
 1.35E+04   6%   8.486 Lip13a+Lip13b                                       
 1.60E+04   3%  10.068 MM14+Lip13a+Lip13b+MM12                             
 3.60E+03   6%   2.266 MM09+Lip09                                          
 2.33E+03  15%   1.466 MM20+Lip20                                          
   6 lines in following misc. output table
  FWHM = 0.061 ppm    S/N =  13                                            
  Data shift = 0.008 ppm                                                   
  Ph: -30 deg     -12.2 deg/ppm                                            
  alphaB,S = 8.5E+01,   3.4E+02                                            
   14 spline knots.   Ns = 7(1)                                            
   4 inflections.     1 extrema                                            
  498 points on ppm-axis = NY
      4.000000     3.992357     3.984714     3.977070     3.969427     3.961784     3.954141     3.946497     3.938854     3.931211
      3.923568     3.915925     3.908281     3.900638     3.892995     3.885352     3.877708     3.870065     3.862422     3.854779
      3.847136     3.839492     3.831849     3.824206     3.816563     3.808919     3.801276     3.793633     3.785990     3.778347
      3.770703     3.763060     3.755417     3.747774     3.740130     3.732487     3.724844     3.717201     3.709558     3.701914
      3.694271     3.686628     3.678985     3.671341     3.663698     3.656055     3.648412     3.640769     3.633125     3.625482
      3.617839     3.610196     3.602552     3.594909     3.587266     3.579623     3.571980     3.564336     3.556693     3.549050
      3.541407     3.533763     3.526120     3.518477     3.510834     3.503191     3.495547     3.487904     3.480261     3.472618
      3.464974     3.457331     3.449688     3.442045     3.434402     3.426758     3.419115     3.411472     3.403829     3.396185
      3.388542     3.380899     3.373256     3.365613     3.357969     3.350326     3.342683     3.335040     3.327396     3.319753
      3.312110     3.304467     3.296824     3.289180     3.281537     3.273894     3.266251     3.258607     3.250964     3.243321
      3.235678     3.228034     3.220391     3.212748     3.205105     3.197462     3.189818     3.182175     3.174532     3.166889
      3.159245     3.151602     3.143959     3.136316     3.128673     3.121029     3.113386     3.105743     3.098100     3.090456
      3.082813     3.075170     3.067527     3.059884     3.052240     3.044597     3.036954     3.029311     3.021667     3.014024
      3.006381     2.998738     2.991095     2.983451     2.975808     2.968165     2.960522     2.952878     2.945235     2.937592
      2.929949     2.922306     2.914662     2.907019     2.899376     2.891733     2.884089     2.876446     2.868803     2.861160
      2.853517     2.845873     2.838230     2.830587     2.822944     2.815300     2.807657     2.800014     2.792371     2.784728
      2.777084     2.769441     2.761798     2.754155     2.746511     2.738868     2.731225     2.723582     2.715939     2.708295
      2.700652     2.693009     2.685366     2.677722     2.670079     2.662436     2.654793     2.647150     2.639506     2.631863
      2.624220     2.616577     2.608933     2.601290     2.593647     2.586004     2.578361     2.570717     2.563074     2.555431
      2.547788     2.540144     2.532501     2.524858     2.517215     2.509572     2.501928     2.494285     2.486642     2.478999
      2.471355     2.463712     2.456069     2.448426     2.440783     2.433139     2.425496     2.417853     2.410210     2.402566
      2.394923     2.387280     2.379637     2.371994     2.364350     2.356707     2.349064     2.341421     2.333777     2.326134
      2.318491     2.310848     2.303205     2.295561     2.287918     2.280275     2.272632     2.264988     2.257345     2.249702
      2.242059     2.234416     2.226772     2.219129     2.211486     2.203843     2.196199     2.188556     2.180913     2.173270
      2.165627     2.157983     2.150340     2.142697     2.135054     2.127410     2.119767     2.112124     2.104481     2.096838
      2.089194     2.081551     2.073908     2.066265     2.058621     2.050978     2.043335     2.035692     2.028049     2.020405
      2.012762     2.005119     1.997476     1.989833     1.982190     1.974546     1.966903     1.959260     1.951617     1.943974
      1.936331     1.928688     1.921045     1.913402     1.905759     1.898115     1.890472     1.882829     1.875186     1.867543
      1.859900     1.852257     1.844614     1.836971     1.829327     1.821684     1.814041     1.806398     1.798755     1.791112
      1.783469     1.775826     1.768183     1.760540     1.752896     1.745253     1.737610     1.729967     1.722324     1.714681
      1.707038     1.699395     1.691752     1.684108     1.676465     1.668822     1.661179     1.653536     1.645893     1.638250
      1.630607     1.622964     1.615321     1.607677     1.600034     1.592391     1.584748     1.577105     1.569462     1.561819
      1.554176     1.546533     1.538890     1.531246     1.523603     1.515960     1.508317     1.500674     1.493031     1.485388
      1.477745     1.470102     1.462458     1.454815     1.447172     1.439529     1.431886     1.424243     1.416600     1.408957
      1.401314     1.393671     1.386027     1.378384     1.370741     1.363098     1.355455     1.347812     1.340169     1.332526
      1.324883     1.317240     1.309596     1.301953     1.294310     1.286667     1.279024     1.271381     1.263738     1.256095
      1.248452     1.240808     1.233165     1.225522     1.217879     1.210236     1.202593     1.194950     1.187307     1.179664
      1.172021     1.164377     1.156734     1.149091     1.141448     1.133805     1.126162     1.118519     1.110876     1.103233
      1.095590     1.087946     1.080303     1.072660     1.065017     1.057374     1.049731     1.042088     1.034445     1.026802
      1.019158     1.011515     1.003872     0.996229     0.988586     0.980943     0.973300     0.965657     0.958014     0.950371
      0.942727     0.935084     0.927441     0.919798     0.912155     0.904512     0.896869     0.889226     0.881583     0.873940
      0.866296     0.858653     0.851010     0.843367     0.835724     0.828081     0.820438     0.812795     0.805152     0.797508
      0.789865     0.782222     0.774579     0.766936     0.759293     0.751650     0.744007     0.736364     0.728721     0.721077
      0.713434     0.705791     0.698148     0.690505     0.682862     0.675219     0.667576     0.659933     0.652290     0.644646
      0.637003     0.629360     0.621717     0.614074     0.606431     0.598788     0.591145     0.583502     0.575858     0.568215
      0.560572     0.552929     0.545286     0.537643     0.530000     0.522357     0.514714     0.507071     0.499427     0.491784
      0.484141     0.476498     0.468855     0.461212     0.453569     0.445925     0.438282     0.430639     0.422996     0.415353
      0.407710     0.400067     0.392424     0.384780     0.377137     0.369494     0.361851     0.354208     0.346565     0.338922
      0.331278     0.323635     0.315992     0.308349     0.300706     0.293063     0.285420     0.277777     0.270133     0.262490
      0.254847     0.247204     0.239561     0.231918     0.224275     0.216631     0.208988     0.201345
 NY phased data points follow
   2.02930E+01  2.28188E+01  2.19945E+01  2.15370E+01  1.98118E+01  2.37935E+01  3.12535E+01  2.85874E+01  4.30490E+01  4.38413E+01
   5.57074E+01  5.30223E+01  5.59048E+01  4.54511E+01  4.69331E+01  4.09954E+01  3.45664E+01  3.28149E+01  2.97832E+01  2.81687E+01
   2.60302E+01  2.62874E+01  2.63954E+01  2.40118E+01  2.44632E+01  2.12751E+01  2.60785E+01  2.56423E+01  3.13578E+01  2.80730E+01
   2.60013E+01  2.92844E+01  3.10178E+01  2.89523E+01  2.77121E+01  2.46229E+01  2.17363E+01  2.29432E+01  2.25979E+01  2.67864E+01
   2.17150E+01  2.13492E+01  1.98813E+01  2.17120E+01  2.11530E+01  2.45418E+01  2.87434E+01  2.71167E+01  3.19863E+01  2.93955E+01
   2.84891E+01  2.38584E+01  2.23319E+01  1.89050E+01  1.65142E+01  2.19268E+01  2.50595E+01  2.28069E+01  2.35722E+01  2.41354E+01
   2.34294E+01  1.99998E+01  2.14495E+01  1.99599E+01  1.51353E+01  1.46659E+01  1.17839E+01  1.46269E+01  1.14396E+01  1.23093E+01
   1.13318E+01  1.13773E+01  1.55513E+01  1.11930E+01  1.25149E+01  1.34923E+01  1.31985E+01  1.50314E+01  1.39840E+01  1.36334E+01
   1.28947E+01  1.26296E+01  1.19605E+01  1.42738E+01  1.55571E+01  1.12528E+01  1.53915E+01  1.24374E+01  1.10129E+01  1.45550E+01
   1.63316E+01  1.51547E+01  1.66620E+01  1.63459E+01  1.84510E+01  1.51883E+01  1.30399E+01  1.59182E+01  1.34035E+01  1.42062E+01
   2.30800E+01  3.10423E+01  5.07565E+01  5.70026E+01  5.39215E+01  5.10406E+01  4.39184E+01  3.73274E+01  3.18072E+01  2.90038E+01
   2.80505E+01  2.42840E+01  2.11134E+01  2.12865E+01  2.12188E+01  1.97155E+01  1.73558E+01  1.60464E+01  1.73705E+01  1.52369E+01
   1.00321E+01  1.05325E+01  1.11198E+01  1.06833E+01  2.25783E+01  3.34276E+01  5.22505E+01  5.91027E+01  6.76209E+01  5.80626E+01
   4.98802E+01  4.67646E+01  3.83308E+01  3.51815E+01  3.19669E+01  2.08747E+01  2.57447E+01  1.77256E+01  1.95794E+01  1.33812E+01
   1.55847E+01  1.51724E+01  1.57738E+01  1.50573E+01  1.39817E+01  1.47064E+01  1.20441E+01  2.12759E+01  1.59501E+01  1.59496E+01
   1.42260E+01  1.12336E+01  1.14158E+01  1.26249E+01  9.88368E+00  1.15338E+01  1.37590E+01  1.12347E+01  1.40093E+01  1.20032E+01
   1.13422E+01  8.88511E+00  4.33272E+00  8.71016E+00  1.12029E+01  1.23319E+01  1.37233E+01  9.26232E+00  1.20224E+01  8.70150E+00
   8.29859E+00  7.27929E+00  6.23778E+00  2.29203E+00  6.41921E+00  3.43371E+00  1.03859E+00  1.37288E+00  5.15917E+00  1.82564E+00
   1.63199E-02  1.82826E-01  8.18196E-01 -3.68579E+00 -1.58150E+00  7.51703E+00  4.96430E+00  4.28857E+00  8.54388E+00  8.93734E+00
   8.43440E+00  9.83814E+00  1.17310E+01  1.22331E+01  1.14836E+01  1.78618E+01  1.07917E+01  7.61519E+00  8.58393E+00  1.01351E+01
   9.46886E+00  1.23171E+01  1.73396E+01  1.46937E+01  1.93662E+01  2.02411E+01  1.66085E+01  1.21996E+01  8.90257E+00  1.26930E+01
   5.82788E+00  4.28901E+00  5.09014E+00  1.29924E+01  1.73699E+01  1.93247E+01  2.55014E+01  2.40859E+01  2.09510E+01  1.55792E+01
   1.46018E+01  1.25653E+01  6.42723E+00  1.05877E+01  8.73716E+00  1.50116E+01  1.82322E+01  1.30443E+01  1.83158E+01  2.15685E+01
   1.90423E+01  1.79569E+01  1.74126E+01  2.23265E+01  1.94125E+01  1.88662E+01  1.94772E+01  1.97042E+01  1.77912E+01  1.43804E+01
   1.43967E+01  1.42645E+01  1.28221E+01  1.11102E+01  1.25180E+01  2.13614E+01  1.90675E+01  1.91621E+01  2.16519E+01  2.33696E+01
   2.30210E+01  2.64066E+01  2.78087E+01  2.25291E+01  2.42533E+01  2.24312E+01  3.19288E+01  3.36552E+01  5.04464E+01  6.85798E+01
   9.23072E+01  1.01574E+02  8.77918E+01  7.34832E+01  6.09654E+01  5.61853E+01  4.83263E+01  3.90190E+01  3.25206E+01  2.26508E+01
   2.10280E+01  1.62379E+01  1.92253E+01  1.64971E+01  2.21695E+01  1.23374E+01  1.28050E+01  1.59162E+01  9.71211E+00  1.17712E+01
   1.40926E+01  1.38457E+01  1.72081E+01  1.36354E+01  1.58355E+01  1.29511E+01  8.44348E+00  1.31934E+01  1.59520E+01  1.61809E+01
   1.37773E+01  1.69177E+01  1.23233E+01  1.49351E+01  1.54453E+01  9.76772E+00  1.97178E+01  1.44027E+01  1.53716E+01  1.72741E+01
   1.57770E+01  1.51886E+01  1.68138E+01  1.63287E+01  1.74353E+01  1.96709E+01  2.38191E+01  1.94427E+01  2.23604E+01  2.62940E+01
   2.12923E+01  2.74070E+01  2.80248E+01  2.94394E+01  2.99476E+01  3.22503E+01  2.95962E+01  3.14422E+01  3.23960E+01  3.49655E+01
   3.85300E+01  3.58612E+01  3.61211E+01  3.94176E+01  4.16071E+01  5.03269E+01  5.25691E+01  4.96453E+01  5.42804E+01  5.57452E+01
   6.09020E+01  6.57137E+01  7.05069E+01  8.04962E+01  8.36802E+01  9.33010E+01  9.81950E+01  1.03037E+02  1.11544E+02  1.14169E+02
   1.20960E+02  1.24267E+02  1.26051E+02  1.27831E+02  1.28571E+02  1.26153E+02  1.16784E+02  1.13824E+02  1.06252E+02  9.37309E+01
   8.17857E+01  7.59015E+01  6.59003E+01  6.18634E+01  5.06584E+01  4.73744E+01  4.36989E+01  4.12059E+01  3.12985E+01  3.18042E+01
   2.80097E+01  2.48325E+01  1.99355E+01  2.07331E+01  2.03713E+01  1.29816E+01  1.87038E+01  1.44279E+01  1.07239E+01  1.42214E+01
   7.01295E+00  1.02257E+01  9.36955E+00  9.19203E+00  5.87936E+00  1.09798E+01  1.15477E+01  8.00806E+00  9.22427E+00  8.12959E+00
   7.52229E+00  6.78392E+00  8.88146E+00  9.48881E+00  8.51465E+00  4.66410E+00  4.30953E+00  8.13104E+00  1.16275E+01  8.78095E+00
   7.32997E+00  7.08910E+00  5.39859E+00  5.92956E+00  1.32726E+01  1.44630E+01  1.34959E+01  1.28249E+01  8.10363E+00  1.17039E+01
   1.44713E+01  1.14166E+01  1.23632E+01  1.16866E+01  1.41234E+01  1.29422E+01  1.54706E+01  1.30617E+01  1.37322E+01  1.28944E+01
   1.50501E+01  1.37643E+01  1.32397E+01  1.68117E+01  1.20646E+01  1.32430E+01  1.52249E+01  9.57145E+00  1.73607E+01  9.72422E+00
   6.67337E+00  9.34938E+00  1.47522E+01  9.58481E+00  1.09743E+01  6.69645E+00  1.28461E+01  8.29415E+00  6.74024E+00  7.24184E+00
   6.78747E+00  9.79578E+00  8.19126E+00  9.11248E+00  1.16672E+01  6.17417E+00  5.01734E+00  7.14438E+00  6.13771E+00  7.80393E+00
   4.28474E+00  2.61305E+00  5.08600E+00  5.34319E+00  9.82366E+00  6.85088E+00  8.21932E+00  6.11862E+00  5.21985E+00  1.92247E+00
   6.09506E+00  1.00482E+01  5.84290E+00  5.48983E+00  7.60985E+00  3.14480E+00  7.90793E+00  6.76831E+00  6.03636E+00  6.81969E+00
   5.21763E+00  4.02074E+00  4.79350E+00  6.16578E+00  2.63018E+00  2.45035E+00  4.81731E+00  5.47920E+00  6.66279E+00  3.90861E+00
   3.91016E+00  5.51185E+00  2.62152E+00  2.15238E+00  4.19566E+00  7.05944E+00  5.21222E+00  8.17614E+00  7.42216E+00  6.47720E+00
   6.27518E+00  6.68891E+00  1.00653E+01  3.55074E+00  3.14507E+00  6.86814E+00  5.42197E+00  4.38432E+00  8.87849E+00  3.49552E+00
   6.04105E+00  3.99855E+00  7.67913E+00  9.27767E+00  3.68545E+00  8.48495E+00  1.09557E+01  7.65565E+00
 NY points of the fit to the data follow
   1.91961E+01  1.80937E+01  1.75831E+01  1.76098E+01  1.84953E+01  2.09247E+01  2.53044E+01  3.14758E+01  3.85577E+01  4.50454E+01
   4.93181E+01  5.04727E+01  4.87920E+01  4.53941E+01  4.14142E+01  3.74188E+01  3.34121E+01  2.92448E+01  2.51278E+01  2.19747E+01
   2.06897E+01  2.04295E+01  2.04639E+01  2.07231E+01  2.13031E+01  2.23335E+01  2.38380E+01  2.56693E+01  2.75397E+01  2.91715E+01
   3.04165E+01  3.11752E+01  3.12540E+01  3.04916E+01  2.88612E+01  2.64396E+01  2.35696E+01  2.08957E+01  1.91139E+01  1.81592E+01
   1.76363E+01  1.77534E+01  1.88325E+01  2.09244E+01  2.38123E+01  2.68775E+01  2.93054E+01  3.03668E+01  2.97751E+01  2.79205E+01
   2.55802E+01  2.32397E+01  2.11484E+01  1.93747E+01  1.78801E+01  1.68019E+01  1.65969E+01  1.73814E+01  1.85494E+01  1.94286E+01
   1.97456E+01  1.94715E+01  1.87420E+01  1.78204E+01  1.69762E+01  1.63950E+01  1.60985E+01  1.60214E+01  1.61880E+01  1.66007E+01
   1.71321E+01  1.76380E+01  1.79417E+01  1.79792E+01  1.77869E+01  1.74489E+01  1.70663E+01  1.66929E+01  1.63373E+01  1.60089E+01
   1.57598E+01  1.56884E+01  1.57304E+01  1.57345E+01  1.55429E+01  1.50516E+01  1.42831E+01  1.34070E+01  1.26812E+01  1.23081E+01
   1.23372E+01  1.26641E+01  1.31115E+01  1.35248E+01  1.38371E+01  1.40971E+01  1.43979E+01  1.50702E+01  1.69815E+01  2.11149E+01
   2.78445E+01  3.64356E+01  4.50299E+01  5.13226E+01  5.36862E+01  5.20792E+01  4.78212E+01  4.24984E+01  3.70902E+01  3.17448E+01
   2.62232E+01  2.05670E+01  1.57153E+01  1.32862E+01  1.27447E+01  1.26271E+01  1.25908E+01  1.25964E+01  1.26724E+01  1.28844E+01
   1.33545E+01  1.44185E+01  1.68032E+01  2.14023E+01  2.87470E+01  3.84232E+01  4.88178E+01  5.74963E+01  6.22627E+01  6.22913E+01
   5.84122E+01  5.22726E+01  4.52488E+01  3.79837E+01  3.06397E+01  2.34711E+01  1.73403E+01  1.37597E+01  1.31469E+01  1.35606E+01
   1.40704E+01  1.45610E+01  1.50438E+01  1.54022E+01  1.55655E+01  1.55374E+01  1.53037E+01  1.49277E+01  1.45320E+01  1.41887E+01
   1.39774E+01  1.38483E+01  1.37763E+01  1.37578E+01  1.37775E+01  1.37969E+01  1.37507E+01  1.35803E+01  1.32583E+01  1.28289E+01
   1.24149E+01  1.21553E+01  1.21209E+01  1.22575E+01  1.24177E+01  1.24406E+01  1.22485E+01  1.18965E+01  1.15044E+01  1.11487E+01
   1.07845E+01  1.02479E+01  9.51575E+00  8.69723E+00  7.95944E+00  7.48653E+00  7.27249E+00  7.21762E+00  7.22301E+00  7.17940E+00
   7.05416E+00  6.91050E+00  6.84694E+00  6.93817E+00  7.23550E+00  7.77574E+00  8.57414E+00  9.66174E+00  1.10055E+01  1.22576E+01
   1.30033E+01  1.29965E+01  1.23797E+01  1.15154E+01  1.07535E+01  1.03524E+01  1.03962E+01  1.08507E+01  1.17728E+01  1.31902E+01
   1.49525E+01  1.68217E+01  1.84669E+01  1.94825E+01  1.94477E+01  1.80611E+01  1.54439E+01  1.22898E+01  9.31630E+00  7.21096E+00
   6.57196E+00  7.62252E+00  1.01036E+01  1.34914E+01  1.71850E+01  2.02935E+01  2.19603E+01  2.16881E+01  1.95574E+01  1.60147E+01
   1.20939E+01  8.98653E+00  7.25574E+00  7.00430E+00  8.12480E+00  1.02634E+01  1.28718E+01  1.51376E+01  1.68813E+01  1.82478E+01
   1.93288E+01  1.99936E+01  2.00675E+01  1.97790E+01  1.95312E+01  1.94266E+01  1.93930E+01  1.93567E+01  1.91434E+01  1.85907E+01
   1.76962E+01  1.67095E+01  1.59890E+01  1.57668E+01  1.59862E+01  1.64041E+01  1.69072E+01  1.73932E+01  1.78627E+01  1.84834E+01
   1.93704E+01  2.04669E+01  2.15083E+01  2.25439E+01  2.41356E+01  2.74105E+01  3.38037E+01  4.42566E+01  5.81435E+01  7.27462E+01
   8.40987E+01  8.89468E+01  8.65816E+01  7.90169E+01  6.92277E+01  5.92817E+01  4.96466E+01  3.98601E+01  2.96578E+01  2.02790E+01
   1.46159E+01  1.31760E+01  1.28981E+01  1.29338E+01  1.31100E+01  1.32476E+01  1.33023E+01  1.32949E+01  1.32247E+01  1.31061E+01
   1.29625E+01  1.28030E+01  1.26490E+01  1.25455E+01  1.25114E+01  1.25330E+01  1.25955E+01  1.26900E+01  1.28134E+01  1.29606E+01
   1.31182E+01  1.32878E+01  1.34808E+01  1.37041E+01  1.39660E+01  1.42735E+01  1.46299E+01  1.50368E+01  1.54956E+01  1.60083E+01
   1.65749E+01  1.71932E+01  1.78605E+01  1.85717E+01  1.93209E+01  2.01014E+01  2.09064E+01  2.17291E+01  2.25636E+01  2.34048E+01
   2.42492E+01  2.50954E+01  2.59458E+01  2.68073E+01  2.76903E+01  2.86100E+01  2.95873E+01  3.06490E+01  3.18306E+01  3.31815E+01
   3.47748E+01  3.66884E+01  3.89459E+01  4.14719E+01  4.40936E+01  4.66081E+01  4.88994E+01  5.10373E+01  5.32924E+01  5.60478E+01
   5.96412E+01  6.42634E+01  6.99371E+01  7.65251E+01  8.37466E+01  9.12429E+01  9.86447E+01  1.05481E+02  1.11412E+02  1.16443E+02
   1.20577E+02  1.23776E+02  1.25932E+02  1.26853E+02  1.26366E+02  1.24177E+02  1.19731E+02  1.12823E+02  1.03826E+02  9.36381E+01
   8.33559E+01  7.38882E+01  6.57521E+01  5.90607E+01  5.35968E+01  4.89816E+01  4.49140E+01  4.11664E+01  3.72341E+01  3.31461E+01
   2.92315E+01  2.55753E+01  2.20718E+01  1.86256E+01  1.54776E+01  1.31733E+01  1.15906E+01  1.04637E+01  9.66253E+00  9.10703E+00
   8.73954E+00  8.51597E+00  8.40216E+00  8.37180E+00  8.40488E+00  8.48623E+00  8.60431E+00  8.75037E+00  8.91792E+00  9.10234E+00
   9.30034E+00  9.50947E+00  9.72771E+00  9.95337E+00  1.01851E+01  1.04217E+01  1.06624E+01  1.09060E+01  1.11515E+01  1.13974E+01
   1.16426E+01  1.18858E+01  1.21258E+01  1.23610E+01  1.25898E+01  1.28105E+01  1.30214E+01  1.32210E+01  1.34076E+01  1.35796E+01
   1.37351E+01  1.38726E+01  1.39908E+01  1.40883E+01  1.41641E+01  1.42172E+01  1.42467E+01  1.42520E+01  1.42330E+01  1.41897E+01
   1.41224E+01  1.40314E+01  1.39173E+01  1.37812E+01  1.36243E+01  1.34481E+01  1.32539E+01  1.30432E+01  1.28179E+01  1.25798E+01
   1.23309E+01  1.20730E+01  1.18078E+01  1.15370E+01  1.12625E+01  1.09859E+01  1.07088E+01  1.04326E+01  1.01584E+01  9.88732E+00
   9.62049E+00  9.35885E+00  9.10314E+00  8.85390E+00  8.61153E+00  8.37645E+00  8.14904E+00  7.92953E+00  7.71800E+00  7.51439E+00
   7.31863E+00  7.13072E+00  6.95060E+00  6.77814E+00  6.61307E+00  6.45508E+00  6.30394E+00  6.15949E+00  6.02154E+00  5.88979E+00
   5.76389E+00  5.64353E+00  5.52851E+00  5.41866E+00  5.31376E+00  5.21350E+00  5.11758E+00  5.02576E+00  4.93790E+00  4.85386E+00
   4.77342E+00  4.69634E+00  4.62238E+00  4.55140E+00  4.48332E+00  4.41804E+00  4.35535E+00  4.29505E+00  4.23698E+00  4.18110E+00
   4.12736E+00  4.07566E+00  4.02582E+00  3.97771E+00  3.93124E+00  3.88642E+00  3.84321E+00  3.80150E+00  3.76116E+00  3.72208E+00
   3.68426E+00  3.64772E+00  3.61241E+00  3.57824E+00  3.54509E+00  3.51294E+00  3.48182E+00  3.45176E+00  3.42269E+00  3.39453E+00
   3.36722E+00  3.34079E+00  3.31529E+00  3.29074E+00  3.26709E+00  3.24428E+00  3.22231E+00  3.20128E+00
 NY background values follow
     1.296E+01    1.294E+01    1.292E+01    1.290E+01    1.288E+01    1.287E+01    1.285E+01    1.283E+01    1.281E+01    1.280E+01
     1.278E+01    1.276E+01    1.274E+01    1.272E+01    1.271E+01    1.269E+01    1.267E+01    1.265E+01    1.264E+01    1.262E+01
     1.260E+01    1.258E+01    1.256E+01    1.255E+01    1.253E+01    1.251E+01    1.249E+01    1.248E+01    1.246E+01    1.244E+01
     1.242E+01    1.240E+01    1.239E+01    1.237E+01    1.235E+01    1.233E+01    1.232E+01    1.230E+01    1.228E+01    1.226E+01
     1.224E+01    1.223E+01    1.221E+01    1.219E+01    1.217E+01    1.216E+01    1.214E+01    1.212E+01    1.210E+01    1.208E+01
     1.207E+01    1.205E+01    1.203E+01    1.201E+01    1.199E+01    1.198E+01    1.196E+01    1.194E+01    1.192E+01    1.191E+01
     1.189E+01    1.187E+01    1.185E+01    1.183E+01    1.182E+01    1.180E+01    1.178E+01    1.176E+01    1.174E+01    1.173E+01
     1.171E+01    1.169E+01    1.167E+01    1.166E+01    1.164E+01    1.162E+01    1.160E+01    1.158E+01    1.157E+01    1.155E+01
     1.153E+01    1.151E+01    1.149E+01    1.148E+01    1.146E+01    1.144E+01    1.142E+01    1.141E+01    1.139E+01    1.137E+01
     1.135E+01    1.133E+01    1.132E+01    1.130E+01    1.128E+01    1.126E+01    1.124E+01    1.123E+01    1.121E+01    1.119E+01
     1.117E+01    1.115E+01    1.114E+01    1.112E+01    1.110E+01    1.108E+01    1.107E+01    1.105E+01    1.103E+01    1.101E+01
     1.099E+01    1.098E+01    1.096E+01    1.094E+01    1.092E+01    1.090E+01    1.089E+01    1.087E+01    1.085E+01    1.083E+01
     1.081E+01    1.080E+01    1.078E+01    1.076E+01    1.074E+01    1.073E+01    1.071E+01    1.069E+01    1.067E+01    1.065E+01
     1.064E+01    1.062E+01    1.060E+01    1.058E+01    1.056E+01    1.055E+01    1.053E+01    1.051E+01    1.049E+01    1.047E+01
     1.046E+01    1.044E+01    1.042E+01    1.040E+01    1.039E+01    1.037E+01    1.035E+01    1.033E+01    1.031E+01    1.030E+01
     1.028E+01    1.026E+01    1.024E+01    1.022E+01    1.021E+01    1.019E+01    1.017E+01    1.015E+01    1.013E+01    1.012E+01
     1.010E+01    1.008E+01    1.006E+01    1.005E+01    1.003E+01    1.001E+01    9.992E+00    9.974E+00    9.956E+00    9.938E+00
     9.920E+00    9.902E+00    9.884E+00    9.867E+00    9.849E+00    9.831E+00    9.813E+00    9.795E+00    9.777E+00    9.759E+00
     9.741E+00    9.723E+00    9.706E+00    9.688E+00    9.670E+00    9.652E+00    9.634E+00    9.616E+00    9.598E+00    9.580E+00
     9.563E+00    9.545E+00    9.527E+00    9.509E+00    9.491E+00    9.473E+00    9.455E+00    9.437E+00    9.420E+00    9.402E+00
     9.384E+00    9.366E+00    9.348E+00    9.330E+00    9.312E+00    9.294E+00    9.277E+00    9.259E+00    9.241E+00    9.223E+00
     9.205E+00    9.187E+00    9.169E+00    9.151E+00    9.134E+00    9.116E+00    9.098E+00    9.080E+00    9.062E+00    9.044E+00
     9.026E+00    9.009E+00    8.991E+00    8.973E+00    8.955E+00    8.937E+00    8.919E+00    8.901E+00    8.884E+00    8.866E+00
     8.848E+00    8.830E+00    8.812E+00    8.794E+00    8.776E+00    8.759E+00    8.741E+00    8.723E+00    8.705E+00    8.687E+00
     8.669E+00    8.652E+00    8.634E+00    8.616E+00    8.598E+00    8.580E+00    8.562E+00    8.544E+00    8.527E+00    8.509E+00
     8.491E+00    8.473E+00    8.455E+00    8.437E+00    8.420E+00    8.402E+00    8.384E+00    8.366E+00    8.348E+00    8.330E+00
     8.313E+00    8.295E+00    8.277E+00    8.259E+00    8.241E+00    8.223E+00    8.206E+00    8.188E+00    8.170E+00    8.152E+00
     8.134E+00    8.117E+00    8.099E+00    8.081E+00    8.063E+00    8.045E+00    8.027E+00    8.010E+00    7.992E+00    7.974E+00
     7.956E+00    7.938E+00    7.921E+00    7.903E+00    7.885E+00    7.867E+00    7.849E+00    7.831E+00    7.814E+00    7.796E+00
     7.778E+00    7.760E+00    7.742E+00    7.725E+00    7.707E+00    7.689E+00    7.671E+00    7.653E+00    7.636E+00    7.618E+00
     7.600E+00    7.582E+00    7.564E+00    7.547E+00    7.529E+00    7.511E+00    7.493E+00    7.476E+00    7.458E+00    7.440E+00
     7.422E+00    7.404E+00    7.387E+00    7.369E+00    7.351E+00    7.333E+00    7.316E+00    7.298E+00    7.280E+00    7.262E+00
     7.244E+00    7.227E+00    7.209E+00    7.191E+00    7.173E+00    7.156E+00    7.138E+00    7.120E+00    7.102E+00    7.085E+00
     7.067E+00    7.049E+00    7.031E+00    7.014E+00    6.996E+00    6.978E+00    6.960E+00    6.943E+00    6.925E+00    6.907E+00
     6.889E+00    6.872E+00    6.854E+00    6.836E+00    6.818E+00    6.801E+00    6.783E+00    6.765E+00    6.747E+00    6.730E+00
     6.712E+00    6.694E+00    6.676E+00    6.659E+00    6.641E+00    6.623E+00    6.606E+00    6.588E+00    6.570E+00    6.552E+00
     6.535E+00    6.517E+00    6.499E+00    6.482E+00    6.464E+00    6.446E+00    6.428E+00    6.411E+00    6.393E+00    6.375E+00
     6.358E+00    6.340E+00    6.322E+00    6.304E+00    6.287E+00    6.269E+00    6.251E+00    6.234E+00    6.216E+00    6.198E+00
     6.181E+00    6.163E+00    6.145E+00    6.128E+00    6.110E+00    6.092E+00    6.075E+00    6.057E+00    6.039E+00    6.022E+00
     6.004E+00    5.986E+00    5.969E+00    5.951E+00    5.933E+00    5.916E+00    5.898E+00    5.880E+00    5.863E+00    5.845E+00
     5.827E+00    5.810E+00    5.792E+00    5.774E+00    5.757E+00    5.739E+00    5.721E+00    5.704E+00    5.686E+00    5.669E+00
     5.651E+00    5.633E+00    5.616E+00    5.598E+00    5.580E+00    5.563E+00    5.545E+00    5.528E+00    5.510E+00    5.492E+00
     5.475E+00    5.457E+00    5.439E+00    5.422E+00    5.404E+00    5.387E+00    5.369E+00    5.351E+00    5.334E+00    5.316E+00
     5.299E+00    5.281E+00    5.264E+00    5.246E+00    5.228E+00    5.211E+00    5.193E+00    5.176E+00    5.158E+00    5.140E+00
     5.123E+00    5.105E+00    5.088E+00    5.070E+00    5.053E+00    5.035E+00    5.018E+00    5.000E+00    4.982E+00    4.965E+00
     4.947E+00    4.930E+00    4.912E+00    4.895E+00    4.877E+00    4.860E+00    4.842E+00    4.824E+00    4.807E+00    4.789E+00
     4.772E+00    4.754E+00    4.737E+00    4.719E+00    4.702E+00    4.684E+00    4.667E+00    4.649E+00    4.632E+00    4.614E+00
     4.597E+00    4.579E+00    4.562E+00    4.544E+00    4.527E+00    4.509E+00    4.492E+00    4.474E+00    4.457E+00    4.439E+00
     4.422E+00    4.404E+00    4.387E+00    4.369E+00    4.352E+00    4.334E+00    4.317E+00    4.299E+00    4.282E+00    4.264E+00
     4.247E+00    4.230E+00    4.212E+00    4.195E+00    4.177E+00    4.160E+00    4.142E+00    4.125E+00
 Ala      Conc. = 3.83E+02
