 LCModel (Version 6.3-1L) Copyright: S.W. Provencher.          Ref.: Magn. Reson. Med. 30:672-679 (1993).                
 Slice#1 Row#6 Col#13  PD_05_press_1_raw_act
 36 lines in following concentration table = NCONC+1
    Conc.  %SD /Cr+PCr  Metabolite                                         
  127.559  70%   0.000 Ala                                                 
    6.077  52%   0.000 Asp                                                 
    0.000 999%   0.000 Cr                                                  
    0.000 999%   0.000 PCr                                                 
    3.607  52%   0.000 GABA                                                
    3.623  52%   0.000 Glc                                                 
    0.000 999%   0.000 Gln                                                 
  492.030  50%   0.000 Glu                                                 
    0.000 999%   0.000 GPC                                                 
    8.459  79%   0.000 PCh                                                 
   36.694  76%   0.000 GSH                                                 
   15.677 516%   0.000 Ins                                                 
    0.000 999%   0.000 Lac                                                 
    0.000 999%   0.000 NAA                                                 
   94.900  42%   0.000 NAAG                                                
    1.235  51%   0.000 Scyllo                                              
    6.052  52%   0.000 Tau                                                 
    0.000 999%   0.000 -CrCH2                                              
    8.459  79%   0.000 GPC+PCh                                             
   94.900  42%   0.000 NAA+NAAG                                            
    0.000 999%   0.000 Cr+PCr                                              
  492.030  50%   0.000 Glu+Gln                                             
 1.36E+04  11%   0.000 Lip13a                                              
    0.000 999%   0.000 Lip13b                                              
 4.32E+03  11%   0.000 Lip09                                               
 2.95E+03  17%   0.000 MM09                                                
 2.00E+03  15%   0.000 Lip20                                               
    0.000 999%   0.000 MM20                                                
 1.74E+03  35%   0.000 MM12                                                
 1.35E+03  32%   0.000 MM14                                                
  777.100  32%   0.000 MM17                                                
 1.36E+04  11%   0.000 Lip13a+Lip13b                                       
 1.67E+04   8%   0.000 MM14+Lip13a+Lip13b+MM12                             
 7.27E+03   6%   0.000 MM09+Lip09                                          
 2.00E+03  15%   0.000 MM20+Lip20                                          
   6 lines in following misc. output table
  FWHM = 0.107 ppm    S/N =  13                                            
  Data shift = 0.092 ppm                                                   
  Ph: -32 deg      -4.2 deg/ppm                                            
  alphaB,S = 2.4E+00,   5.0E+00                                            
   13 spline knots.   Ns = 9(2)                                            
  (14)14 infls.   (17)12 extrs.                                            
  498 points on ppm-axis = NY
      4.000000     3.992357     3.984714     3.977070     3.969427     3.961784     3.954141     3.946497     3.938854     3.931211
      3.923568     3.915925     3.908281     3.900638     3.892995     3.885352     3.877708     3.870065     3.862422     3.854779
      3.847136     3.839492     3.831849     3.824206     3.816563     3.808919     3.801276     3.793633     3.785990     3.778347
      3.770703     3.763060     3.755417     3.747774     3.740130     3.732487     3.724844     3.717201     3.709558     3.701914
      3.694271     3.686628     3.678985     3.671341     3.663698     3.656055     3.648412     3.640769     3.633125     3.625482
      3.617839     3.610196     3.602552     3.594909     3.587266     3.579623     3.571980     3.564336     3.556693     3.549050
      3.541407     3.533763     3.526120     3.518477     3.510834     3.503191     3.495547     3.487904     3.480261     3.472618
      3.464974     3.457331     3.449688     3.442045     3.434402     3.426758     3.419115     3.411472     3.403829     3.396185
      3.388542     3.380899     3.373256     3.365613     3.357969     3.350326     3.342683     3.335040     3.327396     3.319753
      3.312110     3.304467     3.296824     3.289180     3.281537     3.273894     3.266251     3.258607     3.250964     3.243321
      3.235678     3.228034     3.220391     3.212748     3.205105     3.197462     3.189818     3.182175     3.174532     3.166889
      3.159245     3.151602     3.143959     3.136316     3.128673     3.121029     3.113386     3.105743     3.098100     3.090456
      3.082813     3.075170     3.067527     3.059884     3.052240     3.044597     3.036954     3.029311     3.021667     3.014024
      3.006381     2.998738     2.991095     2.983451     2.975808     2.968165     2.960522     2.952878     2.945235     2.937592
      2.929949     2.922306     2.914662     2.907019     2.899376     2.891733     2.884089     2.876446     2.868803     2.861160
      2.853517     2.845873     2.838230     2.830587     2.822944     2.815300     2.807657     2.800014     2.792371     2.784728
      2.777084     2.769441     2.761798     2.754155     2.746511     2.738868     2.731225     2.723582     2.715939     2.708295
      2.700652     2.693009     2.685366     2.677722     2.670079     2.662436     2.654793     2.647150     2.639506     2.631863
      2.624220     2.616577     2.608933     2.601290     2.593647     2.586004     2.578361     2.570717     2.563074     2.555431
      2.547788     2.540144     2.532501     2.524858     2.517215     2.509572     2.501928     2.494285     2.486642     2.478999
      2.471355     2.463712     2.456069     2.448426     2.440783     2.433139     2.425496     2.417853     2.410210     2.402566
      2.394923     2.387280     2.379637     2.371994     2.364350     2.356707     2.349064     2.341421     2.333777     2.326134
      2.318491     2.310848     2.303205     2.295561     2.287918     2.280275     2.272632     2.264988     2.257345     2.249702
      2.242059     2.234416     2.226772     2.219129     2.211486     2.203843     2.196199     2.188556     2.180913     2.173270
      2.165627     2.157983     2.150340     2.142697     2.135054     2.127410     2.119767     2.112124     2.104481     2.096838
      2.089194     2.081551     2.073908     2.066265     2.058621     2.050978     2.043335     2.035692     2.028049     2.020405
      2.012762     2.005119     1.997476     1.989833     1.982190     1.974546     1.966903     1.959260     1.951617     1.943974
      1.936331     1.928688     1.921045     1.913402     1.905759     1.898115     1.890472     1.882829     1.875186     1.867543
      1.859900     1.852257     1.844614     1.836971     1.829327     1.821684     1.814041     1.806398     1.798755     1.791112
      1.783469     1.775826     1.768183     1.760540     1.752896     1.745253     1.737610     1.729967     1.722324     1.714681
      1.707038     1.699395     1.691752     1.684108     1.676465     1.668822     1.661179     1.653536     1.645893     1.638250
      1.630607     1.622964     1.615321     1.607677     1.600034     1.592391     1.584748     1.577105     1.569462     1.561819
      1.554176     1.546533     1.538890     1.531246     1.523603     1.515960     1.508317     1.500674     1.493031     1.485388
      1.477745     1.470102     1.462458     1.454815     1.447172     1.439529     1.431886     1.424243     1.416600     1.408957
      1.401314     1.393671     1.386027     1.378384     1.370741     1.363098     1.355455     1.347812     1.340169     1.332526
      1.324883     1.317240     1.309596     1.301953     1.294310     1.286667     1.279024     1.271381     1.263738     1.256095
      1.248452     1.240808     1.233165     1.225522     1.217879     1.210236     1.202593     1.194950     1.187307     1.179664
      1.172021     1.164377     1.156734     1.149091     1.141448     1.133805     1.126162     1.118519     1.110876     1.103233
      1.095590     1.087946     1.080303     1.072660     1.065017     1.057374     1.049731     1.042088     1.034445     1.026802
      1.019158     1.011515     1.003872     0.996229     0.988586     0.980943     0.973300     0.965657     0.958014     0.950371
      0.942727     0.935084     0.927441     0.919798     0.912155     0.904512     0.896869     0.889226     0.881583     0.873940
      0.866296     0.858653     0.851010     0.843367     0.835724     0.828081     0.820438     0.812795     0.805152     0.797508
      0.789865     0.782222     0.774579     0.766936     0.759293     0.751650     0.744007     0.736364     0.728721     0.721077
      0.713434     0.705791     0.698148     0.690505     0.682862     0.675219     0.667576     0.659933     0.652290     0.644646
      0.637003     0.629360     0.621717     0.614074     0.606431     0.598788     0.591145     0.583502     0.575858     0.568215
      0.560572     0.552929     0.545286     0.537643     0.530000     0.522357     0.514714     0.507071     0.499427     0.491784
      0.484141     0.476498     0.468855     0.461212     0.453569     0.445925     0.438282     0.430639     0.422996     0.415353
      0.407710     0.400067     0.392424     0.384780     0.377137     0.369494     0.361851     0.354208     0.346565     0.338922
      0.331278     0.323635     0.315992     0.308349     0.300706     0.293063     0.285420     0.277777     0.270133     0.262490
      0.254847     0.247204     0.239561     0.231918     0.224275     0.216631     0.208988     0.201345
 NY phased data points follow
   6.18390E+00  5.21927E+00  5.16645E+00  4.51812E+00  2.99016E+00  5.31411E+00  3.63409E+00  4.03239E+00  5.87036E+00  2.53281E+00
   2.42493E+00  8.37244E+00  4.86906E+00  4.16968E+00  4.49106E+00  4.28952E+00  5.50716E+00  3.81866E+00  5.20593E+00  4.72035E+00
   3.25268E+00  5.72594E+00  6.72311E+00  2.84251E+00  3.67460E+00  4.96046E+00  6.21857E+00  5.74171E+00  3.67587E+00  4.47890E+00
   8.02278E+00  5.24575E+00  4.18601E+00  6.38273E+00  4.89592E+00  3.58421E+00  3.85277E+00  5.21757E+00  3.47420E+00  4.66749E+00
   2.64759E+00  2.72920E+00  4.97665E+00  2.63061E+00  4.85769E+00  4.93661E+00  3.84377E+00  3.70153E+00  4.24199E+00  4.18676E+00
   5.34733E+00  3.67204E+00  4.05070E+00  2.56732E+00  4.20326E+00  5.03530E+00  4.44624E+00  2.94654E+00  3.27550E+00  6.02849E+00
   4.19288E+00  4.38606E+00  4.89784E+00  3.19488E+00  5.72689E+00  3.01752E+00  5.30674E+00  3.17068E+00  4.28448E+00  3.85213E+00
   5.67227E+00  5.32549E+00  4.02258E+00  4.21784E+00  7.18466E+00  6.87648E+00  5.71499E+00  3.10310E+00  4.89458E+00  5.80500E+00
   4.90825E+00  4.33066E+00  5.61631E+00  3.55045E+00  2.84455E+00  4.67915E+00  5.83272E+00  4.48597E+00  3.30543E+00  3.82408E+00
   5.09945E+00  5.09133E+00  5.64762E+00  5.51437E+00  4.77138E+00  3.16016E+00  3.97884E+00  4.41358E+00  4.87623E+00  5.54581E+00
   6.07688E+00  3.40110E+00  2.71172E+00  4.51071E+00  4.57360E+00  3.82761E+00  4.41955E+00  4.17959E+00  5.84601E+00  2.86311E+00
   3.87077E+00  4.54313E+00  3.10989E+00  4.76533E+00  5.23134E+00  3.88585E+00  4.48423E+00  4.88614E+00  3.51058E+00  1.69417E+00
   3.61684E+00  4.22029E+00  3.71508E+00  4.58423E+00  3.96460E+00  4.94842E+00  5.43422E+00  2.77314E+00  4.99227E+00  5.22724E+00
   3.21814E+00  5.42968E+00  3.91206E+00  5.20948E+00  3.76667E+00  5.94202E+00  3.64397E+00  5.02385E+00  3.16139E+00  3.02238E+00
   2.94168E+00  6.32856E+00  7.44977E+00  7.36098E+00  6.70240E+00  5.63398E+00  7.14243E+00  6.73147E+00  5.88837E+00  5.90995E+00
   5.24971E+00  6.55409E+00  5.26571E+00  6.59153E+00  7.21729E+00  6.51418E+00  6.90173E+00  6.32194E+00  5.51118E+00  3.71360E+00
   5.19740E+00  6.87035E+00  6.85094E+00  4.26597E+00  7.18058E+00  5.46155E+00  4.60641E+00  6.21092E+00  7.21113E+00  6.39413E+00
   6.99910E+00  5.29339E+00  6.17868E+00  8.08175E+00  6.83012E+00  6.22532E+00  7.37708E+00  7.96057E+00  8.37442E+00  7.76472E+00
   4.07039E+00  5.51859E+00  4.89770E+00  6.44518E+00  6.60765E+00  5.12728E+00  5.30786E+00  4.99970E+00  3.67873E+00  6.10789E+00
   6.77488E+00  6.72122E+00  6.42838E+00  4.73085E+00  7.70111E+00  6.60004E+00  9.17882E+00  7.30434E+00  3.80145E+00  6.10293E+00
   5.16891E+00  4.58089E+00  5.98662E+00  7.40523E+00  8.03289E+00  5.46985E+00  7.59286E+00  8.03595E+00  5.55344E+00  5.00990E+00
   5.22383E+00  6.75698E+00  7.05259E+00  8.02714E+00  6.11111E+00  5.31731E+00  7.46803E+00  6.08823E+00  6.62454E+00  8.19126E+00
   5.55425E+00  7.54233E+00  5.65647E+00  5.96152E+00  6.15934E+00  8.69162E+00  4.09736E+00  8.42576E+00  8.73680E+00  8.56645E+00
   9.98581E+00  8.23963E+00  6.85467E+00  1.06056E+01  1.24305E+01  7.66045E+00  1.04159E+01  1.08652E+01  9.88943E+00  8.59574E+00
   8.57930E+00  1.16868E+01  9.85816E+00  1.05072E+01  8.58530E+00  1.01716E+01  1.02157E+01  9.36461E+00  1.27805E+01  1.17348E+01
   1.10245E+01  1.29487E+01  1.27047E+01  1.07026E+01  1.17722E+01  1.21184E+01  1.43952E+01  1.11756E+01  8.33538E+00  1.01158E+01
   9.82506E+00  1.02043E+01  7.94263E+00  9.86050E+00  9.86353E+00  8.24674E+00  6.76036E+00  8.48671E+00  7.46535E+00  7.28537E+00
   9.08354E+00  7.16220E+00  7.06504E+00  7.97170E+00  9.18923E+00  8.86906E+00  7.74925E+00  5.73799E+00  8.53349E+00  8.02782E+00
   7.49882E+00  9.07284E+00  7.39046E+00  5.87694E+00  7.69688E+00  7.54363E+00  8.32349E+00  8.12127E+00  8.29309E+00  8.67137E+00
   8.65887E+00  7.90111E+00  1.00026E+01  8.65020E+00  1.03743E+01  1.00519E+01  1.16940E+01  1.23184E+01  1.21103E+01  1.11578E+01
   1.22861E+01  1.39365E+01  1.39534E+01  1.14911E+01  1.07138E+01  1.22632E+01  1.26534E+01  1.29941E+01  1.36347E+01  1.34332E+01
   1.72182E+01  1.41232E+01  1.40629E+01  1.53461E+01  1.50628E+01  1.53850E+01  1.63718E+01  1.53198E+01  1.69429E+01  1.67799E+01
   1.59947E+01  1.81587E+01  1.73507E+01  1.77318E+01  1.75274E+01  2.03929E+01  2.02777E+01  2.28544E+01  2.29379E+01  2.09903E+01
   2.16790E+01  2.19544E+01  2.14045E+01  2.56070E+01  2.68081E+01  2.46636E+01  2.57289E+01  2.79388E+01  2.88524E+01  2.89961E+01
   3.00690E+01  3.05575E+01  2.92809E+01  3.24379E+01  3.12219E+01  3.24841E+01  3.35708E+01  3.27867E+01  3.46893E+01  3.44138E+01
   3.39837E+01  3.53193E+01  3.44406E+01  3.49925E+01  3.61566E+01  3.56784E+01  3.50165E+01  3.44069E+01  3.56847E+01  3.76972E+01
   3.74368E+01  3.66086E+01  3.67916E+01  3.94785E+01  3.82149E+01  3.90945E+01  3.73721E+01  3.85751E+01  3.85637E+01  3.88222E+01
   3.87691E+01  3.85546E+01  3.92690E+01  3.81800E+01  3.77965E+01  3.63565E+01  3.83688E+01  3.84862E+01  3.54335E+01  3.53481E+01
   3.63538E+01  3.49570E+01  3.51765E+01  3.83564E+01  3.68131E+01  3.70843E+01  3.78019E+01  3.71818E+01  3.57958E+01  3.89427E+01
   3.85382E+01  3.75522E+01  3.93694E+01  3.79801E+01  3.57786E+01  3.63904E+01  3.70030E+01  3.71229E+01  3.47766E+01  3.63422E+01
   3.52860E+01  3.35403E+01  3.43381E+01  3.46975E+01  3.35001E+01  3.36688E+01  3.26007E+01  3.39750E+01  3.08931E+01  3.19398E+01
   3.14436E+01  2.90204E+01  2.97827E+01  2.84344E+01  2.66919E+01  2.92317E+01  2.63082E+01  2.39330E+01  2.45325E+01  2.46390E+01
   2.52569E+01  2.53615E+01  2.28276E+01  2.31455E+01  2.40062E+01  2.06327E+01  2.00138E+01  2.06202E+01  2.20830E+01  2.12123E+01
   1.93567E+01  1.77034E+01  1.66363E+01  1.65758E+01  1.70548E+01  1.72750E+01  1.55094E+01  1.65423E+01  1.49665E+01  1.50487E+01
   1.45710E+01  1.35618E+01  1.28780E+01  1.36395E+01  1.13372E+01  9.67965E+00  1.03470E+01  1.16321E+01  8.64095E+00  1.00293E+01
   8.61325E+00  1.08023E+01  1.04587E+01  6.34456E+00  6.94990E+00  6.42403E+00  5.92926E+00  6.43761E+00  5.52739E+00  4.46188E+00
   6.69831E+00  5.60578E+00  2.99302E+00  2.75256E+00  5.11056E+00  3.04776E+00  8.70384E-01  2.92534E+00  2.03361E+00  3.27540E+00
   2.78295E+00  3.49313E+00  2.35713E+00  2.66686E+00  2.29531E+00  2.23418E+00 -1.11009E+00  2.78271E+00 -6.11267E-02  2.09642E+00
   1.14840E+00 -5.54843E-01  2.56612E+00  6.59327E-01 -1.74272E+00 -1.05527E+00  8.39726E-01  2.79004E+00 -1.88480E+00 -2.08234E+00
  -9.49154E-01 -2.83574E+00 -1.97262E+00 -2.98320E+00 -1.47706E+00 -1.46668E+00 -2.85741E+00 -1.44572E+00
 NY points of the fit to the data follow
   4.32660E+00  4.33823E+00  4.37345E+00  4.38159E+00  4.37287E+00  4.38292E+00  4.40421E+00  4.49685E+00  4.59069E+00  4.49657E+00
   4.43336E+00  4.70370E+00  4.99247E+00  4.85172E+00  4.72531E+00  4.78717E+00  4.90787E+00  4.85310E+00  4.99845E+00  5.02556E+00
   5.31632E+00  5.38972E+00  5.74577E+00  5.28199E+00  5.06351E+00  5.08029E+00  5.48842E+00  4.88615E+00  4.84153E+00  4.84042E+00
   5.29266E+00  4.73484E+00  4.81642E+00  4.75346E+00  5.08563E+00  4.57002E+00  4.49374E+00  4.30446E+00  4.31293E+00  4.03454E+00
   4.06771E+00  3.96830E+00  3.88433E+00  3.97924E+00  4.09648E+00  4.14115E+00  4.00343E+00  4.14433E+00  4.06052E+00  4.07662E+00
   3.88371E+00  4.14404E+00  4.28788E+00  4.37043E+00  4.29955E+00  4.27577E+00  4.04281E+00  4.06961E+00  4.07364E+00  4.11368E+00
   4.15153E+00  4.18315E+00  4.19259E+00  4.19985E+00  4.21010E+00  4.22788E+00  4.23651E+00  4.25069E+00  4.26056E+00  4.25182E+00
   4.23827E+00  4.24601E+00  4.27232E+00  4.26655E+00  4.27408E+00  4.26329E+00  4.26621E+00  4.25047E+00  4.26879E+00  4.25970E+00
   4.26763E+00  4.25794E+00  4.27281E+00  4.26381E+00  4.29157E+00  4.37094E+00  4.43555E+00  4.35060E+00  4.34567E+00  4.49940E+00
   4.63358E+00  4.66970E+00  4.74954E+00  4.66748E+00  4.72283E+00  4.73086E+00  4.81537E+00  4.73949E+00  4.81613E+00  4.82821E+00
   4.91538E+00  4.76285E+00  4.81037E+00  4.87968E+00  5.00051E+00  4.72236E+00  4.67544E+00  4.58370E+00  4.57230E+00  4.41942E+00
   4.36747E+00  4.30403E+00  4.24513E+00  4.20805E+00  4.15936E+00  4.30480E+00  4.32102E+00  4.36886E+00  4.35988E+00  4.45601E+00
   4.47490E+00  4.69396E+00  4.78392E+00  4.82675E+00  4.86957E+00  4.92486E+00  4.98276E+00  5.04684E+00  5.13604E+00  5.19919E+00
   5.28033E+00  5.29448E+00  5.37300E+00  5.44673E+00  5.52814E+00  5.50945E+00  5.56746E+00  5.62739E+00  5.72151E+00  5.77783E+00
   5.85832E+00  5.93315E+00  6.00606E+00  6.06547E+00  6.17133E+00  6.28448E+00  6.33908E+00  6.38653E+00  6.40198E+00  6.44468E+00
   6.44274E+00  6.52124E+00  6.52902E+00  6.59277E+00  6.56321E+00  6.55724E+00  6.50679E+00  6.53915E+00  6.52287E+00  6.59725E+00
   6.55309E+00  6.53171E+00  6.48024E+00  6.45811E+00  6.39385E+00  6.35510E+00  6.29662E+00  6.24254E+00  6.15826E+00  6.09250E+00
   6.05812E+00  6.01957E+00  6.00783E+00  5.93834E+00  5.89846E+00  5.79713E+00  5.82049E+00  5.79661E+00  5.81814E+00  5.72942E+00
   5.74986E+00  5.67495E+00  5.65520E+00  5.56856E+00  5.61811E+00  5.60423E+00  5.64030E+00  5.65935E+00  5.70394E+00  5.63135E+00
   5.65748E+00  5.75053E+00  5.72286E+00  5.61870E+00  5.60818E+00  5.56193E+00  5.53566E+00  5.57056E+00  5.67577E+00  5.53931E+00
   5.49667E+00  5.76998E+00  6.38682E+00  6.16670E+00  6.43768E+00  6.00961E+00  6.37194E+00  5.90286E+00  5.80447E+00  5.11207E+00
   5.25061E+00  5.19363E+00  5.98154E+00  5.74382E+00  5.90378E+00  6.07639E+00  6.92277E+00  6.38284E+00  6.03364E+00  5.95025E+00
   6.31472E+00  6.21720E+00  5.57325E+00  5.94346E+00  6.42656E+00  7.13937E+00  6.95737E+00  7.75465E+00  7.97318E+00  8.45489E+00
   8.51612E+00  8.80963E+00  8.87800E+00  9.30505E+00  9.57656E+00  9.39403E+00  9.60994E+00  9.54342E+00  9.88978E+00  9.13453E+00
   8.71013E+00  8.85189E+00  9.74549E+00  9.59052E+00  1.04450E+01  1.03063E+01  1.07124E+01  1.07195E+01  1.15465E+01  1.14401E+01
   1.16750E+01  1.15514E+01  1.21540E+01  1.18478E+01  1.17380E+01  1.19399E+01  1.26570E+01  1.18758E+01  1.11639E+01  1.09019E+01
   1.07916E+01  1.02510E+01  9.62977E+00  9.32290E+00  8.86984E+00  8.55772E+00  7.96030E+00  8.21093E+00  7.97923E+00  7.84266E+00
   7.42223E+00  7.37381E+00  7.01500E+00  7.51171E+00  7.83973E+00  7.93320E+00  7.88809E+00  7.77640E+00  7.80090E+00  7.81167E+00
   7.81394E+00  7.83075E+00  7.93645E+00  7.92663E+00  7.99785E+00  8.06270E+00  8.19810E+00  8.32863E+00  8.49064E+00  8.64460E+00
   8.83562E+00  9.07745E+00  9.36330E+00  9.65300E+00  9.95580E+00  1.02642E+01  1.05940E+01  1.09195E+01  1.12350E+01  1.15411E+01
   1.18580E+01  1.21623E+01  1.24480E+01  1.27234E+01  1.29858E+01  1.32318E+01  1.34625E+01  1.36928E+01  1.39318E+01  1.42433E+01
   1.44473E+01  1.43716E+01  1.46278E+01  1.51250E+01  1.54972E+01  1.54753E+01  1.57245E+01  1.55774E+01  1.62666E+01  1.63778E+01
   1.66924E+01  1.66708E+01  1.77026E+01  1.80548E+01  1.92659E+01  1.92223E+01  2.01940E+01  2.06445E+01  2.18394E+01  2.14949E+01
   2.23769E+01  2.27732E+01  2.40482E+01  2.42602E+01  2.49983E+01  2.55906E+01  2.70305E+01  2.76788E+01  2.82816E+01  2.91910E+01
   2.99275E+01  3.05560E+01  3.08425E+01  3.14500E+01  3.17011E+01  3.25584E+01  3.25576E+01  3.29984E+01  3.32504E+01  3.37084E+01
   3.39199E+01  3.43387E+01  3.43785E+01  3.48568E+01  3.54108E+01  3.59347E+01  3.64304E+01  3.68656E+01  3.72559E+01  3.76051E+01
   3.79119E+01  3.81733E+01  3.83862E+01  3.85476E+01  3.86551E+01  3.87075E+01  3.87048E+01  3.86486E+01  3.85420E+01  3.83898E+01
   3.81982E+01  3.79753E+01  3.77301E+01  3.74726E+01  3.72138E+01  3.69643E+01  3.67350E+01  3.65356E+01  3.63749E+01  3.62597E+01
   3.61950E+01  3.61831E+01  3.62240E+01  3.63147E+01  3.64497E+01  3.66208E+01  3.68178E+01  3.70285E+01  3.72396E+01  3.74370E+01
   3.76067E+01  3.77355E+01  3.78114E+01  3.78244E+01  3.77667E+01  3.76335E+01  3.74226E+01  3.71348E+01  3.67738E+01  3.63455E+01
   3.58581E+01  3.53210E+01  3.47450E+01  3.41408E+01  3.35194E+01  3.28908E+01  3.22640E+01  3.16466E+01  3.10444E+01  3.04615E+01
   2.99004E+01  2.93617E+01  2.88445E+01  2.83466E+01  2.78650E+01  2.73955E+01  2.69338E+01  2.64754E+01  2.60156E+01  2.55503E+01
   2.50755E+01  2.45883E+01  2.40860E+01  2.35668E+01  2.30299E+01  2.24750E+01  2.19025E+01  2.13135E+01  2.07097E+01  2.00930E+01
   1.94659E+01  1.88312E+01  1.81914E+01  1.75496E+01  1.69084E+01  1.62707E+01  1.56389E+01  1.50153E+01  1.44021E+01  1.38012E+01
   1.32139E+01  1.26417E+01  1.20856E+01  1.15463E+01  1.10243E+01  1.05200E+01  1.00335E+01  9.56476E+00  9.11361E+00  8.67976E+00
   8.26280E+00  7.86226E+00  7.47761E+00  7.10829E+00  6.75369E+00  6.41318E+00  6.08615E+00  5.77196E+00  5.46999E+00  5.17965E+00
   4.90034E+00  4.63149E+00  4.37255E+00  4.12300E+00  3.88235E+00  3.65012E+00  3.42585E+00  3.20911E+00  2.99952E+00  2.79668E+00
   2.60024E+00  2.40985E+00  2.22521E+00  2.04601E+00  1.87197E+00  1.70282E+00  1.53833E+00  1.37825E+00  1.22236E+00  1.07046E+00
   9.22347E-01  7.77846E-01  6.36782E-01  4.98992E-01  3.64319E-01  2.32621E-01  1.03764E-01 -2.23778E-02 -1.45933E-01 -2.67014E-01
  -3.85737E-01 -5.02196E-01 -6.16489E-01 -7.28710E-01 -8.38954E-01 -9.47308E-01 -1.05385E+00 -1.15866E+00
 NY background values follow
     2.786E+00    2.785E+00    2.784E+00    2.783E+00    2.782E+00    2.781E+00    2.780E+00    2.779E+00    2.778E+00    2.777E+00
     2.776E+00    2.775E+00    2.774E+00    2.773E+00    2.772E+00    2.771E+00    2.770E+00    2.769E+00    2.768E+00    2.767E+00
     2.766E+00    2.765E+00    2.764E+00    2.763E+00    2.763E+00    2.762E+00    2.761E+00    2.760E+00    2.759E+00    2.758E+00
     2.757E+00    2.756E+00    2.755E+00    2.754E+00    2.753E+00    2.752E+00    2.751E+00    2.750E+00    2.749E+00    2.748E+00
     2.747E+00    2.746E+00    2.745E+00    2.744E+00    2.743E+00    2.742E+00    2.741E+00    2.740E+00    2.738E+00    2.737E+00
     2.736E+00    2.735E+00    2.734E+00    2.733E+00    2.732E+00    2.730E+00    2.729E+00    2.728E+00    2.727E+00    2.725E+00
     2.724E+00    2.723E+00    2.722E+00    2.721E+00    2.719E+00    2.718E+00    2.717E+00    2.716E+00    2.714E+00    2.713E+00
     2.712E+00    2.711E+00    2.709E+00    2.708E+00    2.707E+00    2.706E+00    2.704E+00    2.703E+00    2.702E+00    2.701E+00
     2.700E+00    2.699E+00    2.697E+00    2.696E+00    2.695E+00    2.694E+00    2.693E+00    2.692E+00    2.691E+00    2.690E+00
     2.689E+00    2.688E+00    2.687E+00    2.686E+00    2.685E+00    2.684E+00    2.684E+00    2.683E+00    2.682E+00    2.681E+00
     2.680E+00    2.680E+00    2.679E+00    2.678E+00    2.678E+00    2.677E+00    2.677E+00    2.676E+00    2.676E+00    2.675E+00
     2.675E+00    2.674E+00    2.674E+00    2.674E+00    2.673E+00    2.673E+00    2.673E+00    2.672E+00    2.672E+00    2.672E+00
     2.671E+00    2.671E+00    2.671E+00    2.671E+00    2.671E+00    2.671E+00    2.671E+00    2.670E+00    2.670E+00    2.670E+00
     2.670E+00    2.670E+00    2.670E+00    2.670E+00    2.670E+00    2.670E+00    2.670E+00    2.670E+00    2.670E+00    2.670E+00
     2.670E+00    2.670E+00    2.671E+00    2.671E+00    2.671E+00    2.671E+00    2.671E+00    2.671E+00    2.671E+00    2.671E+00
     2.671E+00    2.672E+00    2.672E+00    2.672E+00    2.672E+00    2.672E+00    2.672E+00    2.672E+00    2.672E+00    2.672E+00
     2.672E+00    2.672E+00    2.672E+00    2.672E+00    2.671E+00    2.671E+00    2.671E+00    2.670E+00    2.670E+00    2.669E+00
     2.669E+00    2.668E+00    2.667E+00    2.666E+00    2.665E+00    2.664E+00    2.663E+00    2.661E+00    2.660E+00    2.658E+00
     2.656E+00    2.655E+00    2.653E+00    2.651E+00    2.648E+00    2.646E+00    2.643E+00    2.641E+00    2.638E+00    2.635E+00
     2.631E+00    2.628E+00    2.625E+00    2.621E+00    2.617E+00    2.613E+00    2.608E+00    2.604E+00    2.599E+00    2.594E+00
     2.589E+00    2.584E+00    2.578E+00    2.573E+00    2.567E+00    2.560E+00    2.554E+00    2.548E+00    2.541E+00    2.534E+00
     2.527E+00    2.519E+00    2.512E+00    2.504E+00    2.496E+00    2.488E+00    2.479E+00    2.470E+00    2.462E+00    2.453E+00
     2.443E+00    2.434E+00    2.424E+00    2.415E+00    2.405E+00    2.394E+00    2.384E+00    2.373E+00    2.363E+00    2.352E+00
     2.340E+00    2.329E+00    2.317E+00    2.306E+00    2.294E+00    2.282E+00    2.269E+00    2.257E+00    2.244E+00    2.231E+00
     2.218E+00    2.205E+00    2.191E+00    2.177E+00    2.164E+00    2.149E+00    2.135E+00    2.121E+00    2.106E+00    2.091E+00
     2.076E+00    2.061E+00    2.046E+00    2.030E+00    2.015E+00    1.999E+00    1.983E+00    1.966E+00    1.950E+00    1.933E+00
     1.917E+00    1.900E+00    1.883E+00    1.865E+00    1.848E+00    1.830E+00    1.812E+00    1.794E+00    1.776E+00    1.758E+00
     1.739E+00    1.721E+00    1.702E+00    1.683E+00    1.664E+00    1.644E+00    1.625E+00    1.605E+00    1.585E+00    1.565E+00
     1.545E+00    1.525E+00    1.505E+00    1.484E+00    1.463E+00    1.442E+00    1.421E+00    1.400E+00    1.379E+00    1.357E+00
     1.335E+00    1.313E+00    1.291E+00    1.269E+00    1.247E+00    1.225E+00    1.202E+00    1.179E+00    1.156E+00    1.133E+00
     1.110E+00    1.087E+00    1.063E+00    1.040E+00    1.016E+00    9.921E-01    9.681E-01    9.439E-01    9.196E-01    8.951E-01
     8.705E-01    8.458E-01    8.209E-01    7.959E-01    7.708E-01    7.455E-01    7.201E-01    6.945E-01    6.688E-01    6.430E-01
     6.170E-01    5.909E-01    5.646E-01    5.382E-01    5.117E-01    4.851E-01    4.583E-01    4.314E-01    4.044E-01    3.772E-01
     3.499E-01    3.224E-01    2.949E-01    2.672E-01    2.393E-01    2.114E-01    1.833E-01    1.551E-01    1.267E-01    9.828E-02
     6.968E-02    4.096E-02    1.211E-02   -1.687E-02   -4.597E-02   -7.519E-02   -1.045E-01   -1.340E-01   -1.636E-01   -1.933E-01
    -2.232E-01   -2.531E-01   -2.832E-01   -3.134E-01   -3.438E-01   -3.742E-01   -4.048E-01   -4.355E-01   -4.663E-01   -4.972E-01
    -5.282E-01   -5.594E-01   -5.907E-01   -6.221E-01   -6.536E-01   -6.852E-01   -7.170E-01   -7.488E-01   -7.808E-01   -8.129E-01
    -8.451E-01   -8.774E-01   -9.099E-01   -9.424E-01   -9.751E-01   -1.008E+00   -1.041E+00   -1.074E+00   -1.107E+00   -1.140E+00
    -1.173E+00   -1.207E+00   -1.240E+00   -1.274E+00   -1.308E+00   -1.342E+00   -1.376E+00   -1.410E+00   -1.444E+00   -1.478E+00
    -1.512E+00   -1.547E+00   -1.582E+00   -1.616E+00   -1.651E+00   -1.686E+00   -1.721E+00   -1.756E+00   -1.791E+00   -1.827E+00
    -1.862E+00   -1.898E+00   -1.933E+00   -1.969E+00   -2.005E+00   -2.041E+00   -2.077E+00   -2.113E+00   -2.149E+00   -2.185E+00
    -2.222E+00   -2.258E+00   -2.295E+00   -2.332E+00   -2.369E+00   -2.406E+00   -2.443E+00   -2.480E+00   -2.517E+00   -2.554E+00
    -2.592E+00   -2.629E+00   -2.667E+00   -2.704E+00   -2.742E+00   -2.780E+00   -2.818E+00   -2.856E+00   -2.894E+00   -2.932E+00
    -2.971E+00   -3.009E+00   -3.048E+00   -3.086E+00   -3.125E+00   -3.164E+00   -3.203E+00   -3.242E+00   -3.281E+00   -3.320E+00
    -3.359E+00   -3.398E+00   -3.438E+00   -3.477E+00   -3.517E+00   -3.557E+00   -3.596E+00   -3.636E+00   -3.676E+00   -3.716E+00
    -3.756E+00   -3.796E+00   -3.837E+00   -3.877E+00   -3.918E+00   -3.958E+00   -3.999E+00   -4.039E+00   -4.080E+00   -4.121E+00
    -4.162E+00   -4.202E+00   -4.243E+00   -4.284E+00   -4.326E+00   -4.367E+00   -4.408E+00   -4.449E+00   -4.490E+00   -4.532E+00
    -4.573E+00   -4.614E+00   -4.656E+00   -4.697E+00   -4.739E+00   -4.780E+00   -4.822E+00   -4.863E+00   -4.905E+00   -4.946E+00
    -4.988E+00   -5.030E+00   -5.071E+00   -5.113E+00   -5.154E+00   -5.196E+00   -5.238E+00   -5.279E+00   -5.321E+00   -5.363E+00
    -5.405E+00   -5.446E+00   -5.488E+00   -5.529E+00   -5.571E+00   -5.613E+00   -5.654E+00   -5.696E+00
 Ala      Conc. = 1.28E+02
