 LCModel (Version 6.3-1L) Copyright: S.W. Provencher.          Ref.: Magn. Reson. Med. 30:672-679 (1993).                
 Slice#3 Row#13 Col#12  PD_05_press_1_raw_act
 36 lines in following concentration table = NCONC+1
    Conc.  %SD /Cr+PCr  Metabolite                                         
 2.10E+03  21%  31.302 Ala                                                 
    3.506 425% 5.2E-02 Asp                                                 
    0.000 999%   0.000 Cr                                                  
   67.128  34%   1.000 PCr                                                 
    4.525 198% 6.7E-02 GABA                                                
    4.481 201% 6.7E-02 Glc                                                 
    0.000 999%   0.000 Gln                                                 
   87.910 269%   1.310 Glu                                                 
    0.000 999%   0.000 GPC                                                 
   23.381  32%   0.348 PCh                                                 
    0.000 999%   0.000 GSH                                                 
    0.000 999%   0.000 Ins                                                 
 1.93E+03  31%  28.808 Lac                                                 
    0.000 999%   0.000 NAA                                                 
    0.000 999%   0.000 NAAG                                                
    2.783 105% 4.1E-02 Scyllo                                              
   10.283 144%   0.153 Tau                                                 
   37.040  72%   0.552 -CrCH2                                              
   23.381  32%   0.348 GPC+PCh                                             
    0.000 999%   0.000 NAA+NAAG                                            
   67.128  34%   1.000 Cr+PCr                                              
   87.910 269%   1.310 Glu+Gln                                             
 5.60E+03  15%  83.424 Lip13a                                              
    0.000 999%   0.000 Lip13b                                              
 1.57E+03  16%  23.446 Lip09                                               
  628.227  20%   9.359 MM09                                                
  568.844  31%   8.474 Lip20                                               
  154.030  86%   2.295 MM20                                                
  183.052  49%   2.727 MM12                                                
 2.15E+03   7%  32.045+MM14                                                
  985.279  22%  14.678 MM17                                                
 5.60E+03  15%  83.424 Lip13a+Lip13b                                       
 7.93E+03  10% 118.196 MM14+Lip13a+Lip13b+MM12                             
 2.20E+03  11%  32.805 MM09+Lip09                                          
  722.874  18%  10.769 MM20+Lip20                                          
   6 lines in following misc. output table
  FWHM = 0.153 ppm    S/N =  17                                            
  Data shift = 0.214 ppm                                                   
  Ph: 155 deg       0.1 deg/ppm                                            
  alphaB,S = 8.5E+01,   6.2E+02                                            
    6 spline knots.   Ns = 9(2)                                            
  (17)11 infls.   ( 5) 1 extrs.                                            
  498 points on ppm-axis = NY
      4.000000     3.992357     3.984714     3.977070     3.969427     3.961784     3.954141     3.946497     3.938854     3.931211
      3.923568     3.915925     3.908281     3.900638     3.892995     3.885352     3.877708     3.870065     3.862422     3.854779
      3.847136     3.839492     3.831849     3.824206     3.816563     3.808919     3.801276     3.793633     3.785990     3.778347
      3.770703     3.763060     3.755417     3.747774     3.740130     3.732487     3.724844     3.717201     3.709558     3.701914
      3.694271     3.686628     3.678985     3.671341     3.663698     3.656055     3.648412     3.640769     3.633125     3.625482
      3.617839     3.610196     3.602552     3.594909     3.587266     3.579623     3.571980     3.564336     3.556693     3.549050
      3.541407     3.533763     3.526120     3.518477     3.510834     3.503191     3.495547     3.487904     3.480261     3.472618
      3.464974     3.457331     3.449688     3.442045     3.434402     3.426758     3.419115     3.411472     3.403829     3.396185
      3.388542     3.380899     3.373256     3.365613     3.357969     3.350326     3.342683     3.335040     3.327396     3.319753
      3.312110     3.304467     3.296824     3.289180     3.281537     3.273894     3.266251     3.258607     3.250964     3.243321
      3.235678     3.228034     3.220391     3.212748     3.205105     3.197462     3.189818     3.182175     3.174532     3.166889
      3.159245     3.151602     3.143959     3.136316     3.128673     3.121029     3.113386     3.105743     3.098100     3.090456
      3.082813     3.075170     3.067527     3.059884     3.052240     3.044597     3.036954     3.029311     3.021667     3.014024
      3.006381     2.998738     2.991095     2.983451     2.975808     2.968165     2.960522     2.952878     2.945235     2.937592
      2.929949     2.922306     2.914662     2.907019     2.899376     2.891733     2.884089     2.876446     2.868803     2.861160
      2.853517     2.845873     2.838230     2.830587     2.822944     2.815300     2.807657     2.800014     2.792371     2.784728
      2.777084     2.769441     2.761798     2.754155     2.746511     2.738868     2.731225     2.723582     2.715939     2.708295
      2.700652     2.693009     2.685366     2.677722     2.670079     2.662436     2.654793     2.647150     2.639506     2.631863
      2.624220     2.616577     2.608933     2.601290     2.593647     2.586004     2.578361     2.570717     2.563074     2.555431
      2.547788     2.540144     2.532501     2.524858     2.517215     2.509572     2.501928     2.494285     2.486642     2.478999
      2.471355     2.463712     2.456069     2.448426     2.440783     2.433139     2.425496     2.417853     2.410210     2.402566
      2.394923     2.387280     2.379637     2.371994     2.364350     2.356707     2.349064     2.341421     2.333777     2.326134
      2.318491     2.310848     2.303205     2.295561     2.287918     2.280275     2.272632     2.264988     2.257345     2.249702
      2.242059     2.234416     2.226772     2.219129     2.211486     2.203843     2.196199     2.188556     2.180913     2.173270
      2.165627     2.157983     2.150340     2.142697     2.135054     2.127410     2.119767     2.112124     2.104481     2.096838
      2.089194     2.081551     2.073908     2.066265     2.058621     2.050978     2.043335     2.035692     2.028049     2.020405
      2.012762     2.005119     1.997476     1.989833     1.982190     1.974546     1.966903     1.959260     1.951617     1.943974
      1.936331     1.928688     1.921045     1.913402     1.905759     1.898115     1.890472     1.882829     1.875186     1.867543
      1.859900     1.852257     1.844614     1.836971     1.829327     1.821684     1.814041     1.806398     1.798755     1.791112
      1.783469     1.775826     1.768183     1.760540     1.752896     1.745253     1.737610     1.729967     1.722324     1.714681
      1.707038     1.699395     1.691752     1.684108     1.676465     1.668822     1.661179     1.653536     1.645893     1.638250
      1.630607     1.622964     1.615321     1.607677     1.600034     1.592391     1.584748     1.577105     1.569462     1.561819
      1.554176     1.546533     1.538890     1.531246     1.523603     1.515960     1.508317     1.500674     1.493031     1.485388
      1.477745     1.470102     1.462458     1.454815     1.447172     1.439529     1.431886     1.424243     1.416600     1.408957
      1.401314     1.393671     1.386027     1.378384     1.370741     1.363098     1.355455     1.347812     1.340169     1.332526
      1.324883     1.317240     1.309596     1.301953     1.294310     1.286667     1.279024     1.271381     1.263738     1.256095
      1.248452     1.240808     1.233165     1.225522     1.217879     1.210236     1.202593     1.194950     1.187307     1.179664
      1.172021     1.164377     1.156734     1.149091     1.141448     1.133805     1.126162     1.118519     1.110876     1.103233
      1.095590     1.087946     1.080303     1.072660     1.065017     1.057374     1.049731     1.042088     1.034445     1.026802
      1.019158     1.011515     1.003872     0.996229     0.988586     0.980943     0.973300     0.965657     0.958014     0.950371
      0.942727     0.935084     0.927441     0.919798     0.912155     0.904512     0.896869     0.889226     0.881583     0.873940
      0.866296     0.858653     0.851010     0.843367     0.835724     0.828081     0.820438     0.812795     0.805152     0.797508
      0.789865     0.782222     0.774579     0.766936     0.759293     0.751650     0.744007     0.736364     0.728721     0.721077
      0.713434     0.705791     0.698148     0.690505     0.682862     0.675219     0.667576     0.659933     0.652290     0.644646
      0.637003     0.629360     0.621717     0.614074     0.606431     0.598788     0.591145     0.583502     0.575858     0.568215
      0.560572     0.552929     0.545286     0.537643     0.530000     0.522357     0.514714     0.507071     0.499427     0.491784
      0.484141     0.476498     0.468855     0.461212     0.453569     0.445925     0.438282     0.430639     0.422996     0.415353
      0.407710     0.400067     0.392424     0.384780     0.377137     0.369494     0.361851     0.354208     0.346565     0.338922
      0.331278     0.323635     0.315992     0.308349     0.300706     0.293063     0.285420     0.277777     0.270133     0.262490
      0.254847     0.247204     0.239561     0.231918     0.224275     0.216631     0.208988     0.201345
 NY phased data points follow
   1.91582E+00  1.18683E+00  1.57458E+00  2.61747E+00  1.14697E+00  1.33992E+00  1.16732E+00  1.00681E-01  1.65647E+00  1.79526E+00
   9.71847E-01  8.73805E-01  1.15099E+00  9.24030E-01  1.86981E+00  1.89167E+00  1.19075E+00  3.36766E-01  1.44432E+00  3.81767E-01
  -3.17992E-01  5.10873E-01  5.48104E-01  4.10574E-01  1.15617E+00  2.01229E+00  8.69129E-01  1.17774E+00  5.86439E-03  3.46697E-01
   1.60310E+00  1.02747E-01  2.36088E+00 -9.29590E-02  6.00820E-01  9.66626E-01  4.30246E-01  4.54148E-01 -5.91870E-01  1.08217E+00
   9.60619E-01 -9.53324E-03 -4.24105E-01  5.52541E-01 -7.89933E-01  1.28583E+00 -9.52846E-01  2.68092E-01  1.72996E-01  1.29076E+00
   4.37475E-01 -3.53508E-01  1.19531E+00  9.64531E-01  5.06698E-01  1.85945E-01  3.87851E-01  8.28564E-01  4.98152E-01 -2.68896E-01
  -1.43592E-01 -8.63811E-03  5.98272E-01 -2.09746E-01  1.81681E-01  3.80501E-01 -3.60417E-01  1.24164E+00 -5.80697E-01 -8.16548E-01
  -3.15844E-01 -1.84736E-02 -1.71563E-01 -1.91225E-02  2.59253E-02 -3.73934E-02 -4.68561E-02 -8.37004E-01  5.30171E-01  8.65851E-01
   9.62246E-01  3.23621E-01 -1.81203E-01  7.03015E-01  3.66511E-01  8.54647E-01 -4.46690E-01 -1.36497E+00  1.81038E-01 -4.55579E-01
  -3.92513E-01  1.73256E-02 -6.12217E-01  2.22641E-01  3.15178E-01 -1.10455E+00  5.45726E-01 -5.25912E-01 -3.70037E-01 -1.18729E+00
  -7.24930E-01 -2.00141E-01 -6.91999E-01 -9.32451E-01  3.45740E-01 -8.80570E-01 -4.06986E-01 -3.23644E-01 -8.41141E-01  1.20778E-01
  -3.11471E-01 -5.58148E-01 -8.20679E-02 -9.22567E-01 -6.27666E-04 -1.62256E+00 -2.72866E-01 -2.57308E-01 -6.26056E-01 -9.90592E-01
  -4.87014E-01 -2.71405E-01 -1.81526E+00 -2.24532E-01 -3.34398E-01 -6.96645E-01 -1.32301E+00 -1.26581E+00 -9.93934E-01 -1.52388E+00
  -9.62740E-01 -1.44544E+00 -6.82202E-01  1.96356E-01 -1.14356E+00 -5.20350E-01 -1.14145E+00 -1.42420E+00  2.22772E-03 -7.54371E-01
  -1.63287E+00 -8.10894E-01 -1.84035E+00 -2.30940E+00 -1.45949E+00 -1.07807E+00  8.66954E-01 -5.51407E-01 -2.80110E+00 -1.13674E+00
  -2.64132E-01 -3.28269E-01 -3.87704E-01 -2.94415E+00 -1.11677E+00 -2.41979E-01 -8.85243E-01 -6.01997E-02 -1.29240E+00 -1.46142E+00
  -2.79998E+00 -1.39110E+00 -1.83803E+00 -2.35301E+00 -3.97647E-01 -1.73746E+00 -1.49624E+00 -1.42101E+00 -1.55297E+00 -2.14151E+00
  -2.77757E+00 -9.40126E-01 -1.50190E+00 -2.38210E+00 -2.05503E+00 -7.27430E-01 -1.47619E+00 -1.82527E+00 -1.65469E+00 -1.12703E+00
  -2.27524E+00 -1.15951E+00 -2.20003E+00 -2.23384E+00 -1.63772E+00 -6.30950E-01 -1.72813E+00 -2.48548E+00 -1.71491E+00 -5.10277E-01
  -5.97362E-01 -6.58695E-01 -1.18524E+00 -1.97867E+00 -2.14565E-01 -9.19223E-01 -1.40930E+00 -9.16974E-01 -1.57776E+00 -1.42176E+00
  -1.43305E+00 -1.38670E-01 -3.57741E-01 -9.39714E-01 -1.84984E+00  6.08344E-01 -3.42518E-01  3.31492E-01 -3.06254E-01 -7.72784E-01
  -6.58660E-01 -1.16309E+00 -1.36619E+00  6.79554E-01 -7.11520E-02  4.46015E-01  7.13647E-01 -6.98309E-01  9.14410E-01 -9.31894E-02
   1.60613E+00 -4.19471E-01  8.77111E-02  4.37012E-01  3.86440E-03  6.15050E-01  1.63227E+00  1.59548E+00  1.29784E+00  5.32417E-01
   1.30259E+00  1.99849E+00  1.82944E+00  2.16930E+00  2.37117E+00  2.16825E+00  2.20809E+00  2.02860E+00  2.59712E+00  1.16503E+00
   2.33251E+00  1.22664E+00  2.49913E+00  2.49939E+00  2.33198E+00  2.96089E+00  3.52766E+00  2.78322E+00  2.51638E+00  2.02325E+00
   2.11447E+00  2.77963E+00  1.58046E+00  2.11058E+00  1.82336E+00  2.92935E+00  2.21055E+00  3.51084E+00  2.76343E+00  2.74546E+00
   2.52445E+00  1.95345E+00  3.56847E+00  2.21743E+00  2.63928E+00  2.43489E+00  3.61563E+00  1.84354E+00  3.76227E+00  3.20588E+00
   3.33776E+00  3.16307E+00  2.77784E+00  3.69485E+00  4.20492E+00  2.10369E+00  2.98756E+00  3.36276E+00  3.54874E+00  3.84179E+00
   4.16195E+00  4.17536E+00  4.62602E+00  5.49040E+00  3.53908E+00  5.58070E+00  7.15906E+00  6.93780E+00  6.92315E+00  5.47780E+00
   7.03768E+00  7.11307E+00  7.08583E+00  6.85001E+00  7.43655E+00  7.24913E+00  7.54107E+00  9.71075E+00  8.50688E+00  9.83986E+00
   1.04046E+01  1.11930E+01  1.24315E+01  1.32150E+01  1.33553E+01  1.40425E+01  1.51685E+01  1.63259E+01  1.72977E+01  1.92138E+01
   1.85766E+01  1.94823E+01  1.95294E+01  2.09229E+01  2.04936E+01  2.15698E+01  2.13503E+01  2.29406E+01  2.31592E+01  2.26704E+01
   2.39856E+01  2.55786E+01  2.62758E+01  2.54753E+01  2.56866E+01  2.61334E+01  2.71482E+01  2.65035E+01  2.67006E+01  2.72458E+01
   2.66832E+01  2.78704E+01  2.63157E+01  2.67423E+01  2.61626E+01  2.39272E+01  2.41968E+01  2.44053E+01  2.17991E+01  2.14521E+01
   2.18587E+01  2.07954E+01  1.94265E+01  2.00643E+01  1.92470E+01  1.74302E+01  1.80793E+01  1.68489E+01  1.64839E+01  1.64590E+01
   1.62367E+01  1.60318E+01  1.64662E+01  1.60371E+01  1.48512E+01  1.59152E+01  1.51467E+01  1.49650E+01  1.59638E+01  1.58330E+01
   1.56917E+01  1.45150E+01  1.26539E+01  1.44686E+01  1.27943E+01  1.29995E+01  1.28425E+01  1.31786E+01  1.24313E+01  1.25838E+01
   1.13728E+01  1.23294E+01  1.24389E+01  1.14442E+01  1.16999E+01  1.17622E+01  1.15150E+01  1.13973E+01  1.06580E+01  9.89716E+00
   1.03693E+01  8.90844E+00  1.01172E+01  1.00253E+01  1.02915E+01  1.04771E+01  1.05385E+01  9.44447E+00  9.85012E+00  9.12115E+00
   9.57166E+00  8.49441E+00  8.93478E+00  8.35207E+00  9.26540E+00  8.31137E+00  8.12786E+00  7.87042E+00  7.85603E+00  7.06253E+00
   7.43119E+00  8.83623E+00  8.03599E+00  7.71442E+00  8.06921E+00  6.85270E+00  7.71693E+00  7.36460E+00  5.66504E+00  5.89795E+00
   6.90656E+00  7.07697E+00  8.05434E+00  8.82865E+00  7.68419E+00  7.55598E+00  7.33647E+00  7.83408E+00  6.37201E+00  6.44513E+00
   7.37712E+00  7.91339E+00  6.33778E+00  6.42800E+00  6.59309E+00  5.70875E+00  6.21458E+00  6.22403E+00  6.88201E+00  6.77113E+00
   6.29371E+00  5.84271E+00  6.10225E+00  5.04111E+00  6.16375E+00  6.13741E+00  7.02470E+00  5.34513E+00  5.80730E+00  6.15237E+00
   5.60827E+00  5.12340E+00  5.92547E+00  5.99840E+00  4.61666E+00  5.72987E+00  4.71585E+00  5.57797E+00  5.71805E+00  3.99085E+00
   5.72812E+00  4.49092E+00  4.41537E+00  4.59506E+00  6.05992E+00  4.51676E+00  4.41177E+00  5.46538E+00  4.22121E+00  4.86478E+00
   4.16008E+00  3.41278E+00  4.16204E+00  5.55788E+00  5.21219E+00  4.08675E+00  4.82998E+00  4.70450E+00  4.65880E+00  4.39896E+00
   4.20005E+00  5.00142E+00  3.49181E+00  4.15259E+00  3.05009E+00  4.98813E+00  4.29133E+00  3.55451E+00  5.17454E+00  4.12624E+00
   4.86602E+00  4.53394E+00  3.76345E+00  3.72258E+00  4.48273E+00  4.00931E+00  4.64570E+00  5.11644E+00  3.27491E+00  3.45146E+00
   4.20026E+00  4.42303E+00  3.84096E+00  3.63024E+00  3.60183E+00  4.45274E+00  3.71097E+00  4.88154E+00
 NY points of the fit to the data follow
   1.78672E+00  2.17814E+00  1.81863E+00  2.13592E+00  1.86931E+00  2.08330E+00  1.82400E+00  1.92703E+00  1.60376E+00  1.64668E+00
   1.29839E+00  1.36142E+00  1.03611E+00  1.19265E+00  8.61709E-01  1.17409E+00  7.87459E-01  1.19328E+00  7.14566E-01  1.16700E+00
   5.93264E-01  1.09769E+00  4.30022E-01  1.00246E+00  3.00718E-01  9.33384E-01  2.41323E-01  9.19725E-01  2.60258E-01  9.40527E-01
   3.20877E-01  9.48947E-01  3.75663E-01  9.19267E-01  3.94856E-01  8.35690E-01  3.70967E-01  7.03673E-01  3.15297E-01  5.56813E-01
   2.73445E-01  4.74343E-01  2.95871E-01  4.52148E-01  3.64138E-01  4.60448E-01  4.13970E-01  4.15600E-01  3.31284E-01  2.78374E-01
   2.08253E-01  1.32123E-01  9.73826E-02  3.95157E-02  6.06550E-02  6.50469E-02  9.33493E-02  8.75152E-02  1.03205E-01  8.07442E-02
   7.50095E-02  3.66372E-02  5.91175E-03 -2.67943E-02 -5.14616E-02 -7.71890E-02 -9.72786E-02 -1.16826E-01 -1.32717E-01 -1.50188E-01
  -1.63237E-01 -1.80522E-01 -1.90258E-01 -2.07911E-01 -2.13754E-01 -2.31879E-01 -2.33703E-01 -2.51869E-01 -2.48653E-01 -2.65295E-01
  -2.55145E-01 -2.68894E-01 -2.50117E-01 -2.55565E-01 -2.18840E-01 -1.94834E-01 -1.55621E-01 -1.35713E-01 -1.00549E-01 -9.63928E-02
  -6.52401E-02 -7.98615E-02 -5.06361E-02 -8.24853E-02 -5.47936E-02 -1.06116E-01 -7.99534E-02 -1.50973E-01 -1.28601E-01 -2.23604E-01
  -2.04836E-01 -3.21717E-01 -3.03273E-01 -4.32724E-01 -4.10006E-01 -5.39608E-01 -5.04375E-01 -6.11558E-01 -5.41724E-01 -6.45335E-01
  -5.64126E-01 -6.65025E-01 -5.82080E-01 -6.79941E-01 -6.00561E-01 -6.94641E-01 -6.20380E-01 -7.12390E-01 -6.46077E-01 -7.35223E-01
  -6.78321E-01 -7.66183E-01 -7.22419E-01 -8.01308E-01 -7.71735E-01 -8.35392E-01 -8.28262E-01 -9.01339E-01 -9.12742E-01 -9.83464E-01
  -1.00513E+00 -1.06613E+00 -1.09089E+00 -1.13719E+00 -1.15865E+00 -1.19005E+00 -1.20635E+00 -1.22482E+00 -1.23633E+00 -1.24448E+00
  -1.25259E+00 -1.25185E+00 -1.25634E+00 -1.24782E+00 -1.24821E+00 -1.23030E+00 -1.22037E+00 -1.19463E+00 -1.17139E+00 -1.15711E+00
  -1.14601E+00 -1.14128E+00 -1.13893E+00 -1.14169E+00 -1.14663E+00 -1.15549E+00 -1.16634E+00 -1.17995E+00 -1.19524E+00 -1.21229E+00
  -1.23046E+00 -1.24936E+00 -1.26891E+00 -1.28817E+00 -1.30752E+00 -1.32553E+00 -1.34302E+00 -1.35851E+00 -1.37290E+00 -1.38488E+00
  -1.39517E+00 -1.40275E+00 -1.40819E+00 -1.41085E+00 -1.41103E+00 -1.40848E+00 -1.40308E+00 -1.39525E+00 -1.38429E+00 -1.37133E+00
  -1.35502E+00 -1.33726E+00 -1.31598E+00 -1.29364E+00 -1.26774E+00 -1.24113E+00 -1.21088E+00 -1.18016E+00 -1.14644E+00 -1.11345E+00
  -1.07594E+00 -1.04297E+00 -1.00181E+00 -9.67938E-01 -9.21750E-01 -8.84285E-01 -8.30327E-01 -7.86047E-01 -7.23774E-01 -6.82053E-01
  -6.13701E-01 -5.79211E-01 -5.06614E-01 -4.82747E-01 -4.07151E-01 -3.86601E-01 -3.00598E-01 -2.79719E-01 -1.82815E-01 -1.59909E-01
  -5.45448E-02 -3.08688E-02  7.87261E-02  1.02803E-01  2.14787E-01  2.41055E-01  3.53596E-01  3.84463E-01  4.96113E-01  5.32803E-01
   6.40919E-01  6.82987E-01  7.83570E-01  8.30715E-01  9.21342E-01  9.72463E-01  1.05420E+00  1.10807E+00  1.18057E+00  1.23501E+00
   1.30012E+00  1.35481E+00  1.41398E+00  1.47245E+00  1.53187E+00  1.59938E+00  1.66370E+00  1.74029E+00  1.80988E+00  1.88715E+00
   1.95812E+00  2.03571E+00  2.10615E+00  2.18282E+00  2.25069E+00  2.32820E+00  2.39455E+00  2.46748E+00  2.52566E+00  2.58937E+00
   2.63404E+00  2.68410E+00  2.71221E+00  2.74675E+00  2.75898E+00  2.77961E+00  2.77847E+00  2.78715E+00  2.77619E+00  2.77587E+00
   2.75948E+00  2.75463E+00  2.73743E+00  2.73391E+00  2.72250E+00  2.72610E+00  2.72699E+00  2.74299E+00  2.75962E+00  2.79123E+00
   2.82656E+00  2.87583E+00  2.93138E+00  3.00065E+00  3.07919E+00  3.17086E+00  3.27340E+00  3.38837E+00  3.51556E+00  3.65538E+00
   3.80855E+00  3.97674E+00  4.15933E+00  4.35897E+00  4.57393E+00  4.80814E+00  5.05940E+00  5.33120E+00  5.62274E+00  5.93660E+00
   6.27190E+00  6.63093E+00  7.01262E+00  7.41881E+00  7.84784E+00  8.30122E+00  8.77628E+00  9.27406E+00  9.79179E+00  1.03306E+01
   1.08883E+01  1.14673E+01  1.20672E+01  1.26936E+01  1.33506E+01  1.40503E+01  1.48072E+01  1.56533E+01  1.66420E+01  1.77386E+01
   1.85163E+01  1.95475E+01  2.00171E+01  2.09057E+01  2.10673E+01  2.17769E+01  2.17031E+01  2.26871E+01  2.26938E+01  2.38367E+01
   2.39001E+01  2.50148E+01  2.50225E+01  2.59149E+01  2.58253E+01  2.64406E+01  2.63413E+01  2.67205E+01  2.68013E+01  2.71767E+01
   2.71224E+01  2.70872E+01  2.68483E+01  2.62868E+01  2.58628E+01  2.47681E+01  2.42299E+01  2.32425E+01  2.27152E+01  2.18476E+01
   2.12915E+01  2.05252E+01  1.99013E+01  1.92254E+01  1.85895E+01  1.80858E+01  1.75788E+01  1.73531E+01  1.69953E+01  1.70491E+01
   1.65806E+01  1.66135E+01  1.61163E+01  1.61136E+01  1.55880E+01  1.55953E+01  1.50933E+01  1.52555E+01  1.49403E+01  1.49896E+01
   1.46860E+01  1.45492E+01  1.42417E+01  1.39903E+01  1.37099E+01  1.34250E+01  1.32401E+01  1.30469E+01  1.29511E+01  1.28532E+01
   1.26028E+01  1.22598E+01  1.19452E+01  1.14540E+01  1.11192E+01  1.06344E+01  1.03682E+01  1.02201E+01  1.01304E+01  1.00789E+01
   1.00499E+01  1.00359E+01  1.00263E+01  1.00166E+01  9.99829E+00  9.96860E+00  9.92079E+00  9.85445E+00  9.76520E+00  9.65517E+00
   9.52250E+00  9.37174E+00  9.20315E+00  9.02315E+00  8.83342E+00  8.64127E+00  8.44876E+00  8.26307E+00  8.08561E+00  7.92260E+00
   7.77419E+00  7.64508E+00  7.53379E+00  7.44341E+00  7.37088E+00  7.31792E+00  7.28026E+00  7.25861E+00  7.24790E+00  7.24834E+00
   7.25455E+00  7.26664E+00  7.27932E+00  7.29293E+00  7.30250E+00  7.30884E+00  7.30751E+00  7.29990E+00  7.28217E+00  7.25632E+00
   7.21907E+00  7.17301E+00  7.11544E+00  7.04944E+00  6.97274E+00  6.88882E+00  6.79571E+00  6.69718E+00  6.59146E+00  6.48244E+00
   6.36840E+00  6.25328E+00  6.13529E+00  6.01831E+00  5.90044E+00  5.78541E+00  5.67114E+00  5.56116E+00  5.45323E+00  5.35070E+00
   5.25112E+00  5.15765E+00  5.06768E+00  4.98421E+00  4.90447E+00  4.83138E+00  4.76203E+00  4.69924E+00  4.64001E+00  4.58711E+00
   4.53749E+00  4.49389E+00  4.45322E+00  4.41818E+00  4.38569E+00  4.35843E+00  4.33333E+00  4.31308E+00  4.29460E+00  4.28060E+00
   4.26801E+00  4.25955E+00  4.25218E+00  4.24862E+00  4.24585E+00  4.24660E+00  4.24786E+00  4.25241E+00  4.25722E+00  4.26509E+00
   4.27301E+00  4.28379E+00  4.29443E+00  4.30775E+00  4.32078E+00  4.33633E+00  4.35142E+00  4.36890E+00  4.38580E+00  4.40497E+00
   4.42344E+00  4.44406E+00  4.46387E+00  4.48575E+00  4.50672E+00  4.52967E+00  4.55163E+00  4.57546E+00  4.59824E+00  4.62282E+00
   4.64626E+00  4.67143E+00  4.69538E+00  4.72098E+00  4.74529E+00  4.77118E+00  4.79569E+00  4.82168E+00
 NY background values follow
    -1.502E+00   -1.554E+00   -1.606E+00   -1.658E+00   -1.709E+00   -1.761E+00   -1.812E+00   -1.862E+00   -1.912E+00   -1.963E+00
    -2.012E+00   -2.062E+00   -2.111E+00   -2.160E+00   -2.208E+00   -2.257E+00   -2.305E+00   -2.353E+00   -2.400E+00   -2.447E+00
    -2.494E+00   -2.541E+00   -2.587E+00   -2.633E+00   -2.679E+00   -2.724E+00   -2.769E+00   -2.814E+00   -2.858E+00   -2.903E+00
    -2.947E+00   -2.990E+00   -3.034E+00   -3.077E+00   -3.119E+00   -3.162E+00   -3.204E+00   -3.246E+00   -3.287E+00   -3.329E+00
    -3.369E+00   -3.410E+00   -3.450E+00   -3.491E+00   -3.530E+00   -3.570E+00   -3.609E+00   -3.648E+00   -3.686E+00   -3.725E+00
    -3.762E+00   -3.800E+00   -3.837E+00   -3.875E+00   -3.911E+00   -3.948E+00   -3.984E+00   -4.020E+00   -4.055E+00   -4.090E+00
    -4.125E+00   -4.160E+00   -4.194E+00   -4.228E+00   -4.262E+00   -4.296E+00   -4.329E+00   -4.361E+00   -4.394E+00   -4.426E+00
    -4.458E+00   -4.490E+00   -4.521E+00   -4.552E+00   -4.583E+00   -4.613E+00   -4.643E+00   -4.673E+00   -4.702E+00   -4.731E+00
    -4.760E+00   -4.789E+00   -4.817E+00   -4.845E+00   -4.873E+00   -4.900E+00   -4.927E+00   -4.954E+00   -4.980E+00   -5.006E+00
    -5.032E+00   -5.058E+00   -5.083E+00   -5.108E+00   -5.132E+00   -5.157E+00   -5.181E+00   -5.204E+00   -5.228E+00   -5.251E+00
    -5.273E+00   -5.296E+00   -5.318E+00   -5.340E+00   -5.361E+00   -5.383E+00   -5.404E+00   -5.424E+00   -5.445E+00   -5.465E+00
    -5.484E+00   -5.504E+00   -5.523E+00   -5.542E+00   -5.560E+00   -5.579E+00   -5.596E+00   -5.614E+00   -5.631E+00   -5.648E+00
    -5.665E+00   -5.682E+00   -5.698E+00   -5.714E+00   -5.729E+00   -5.744E+00   -5.759E+00   -5.774E+00   -5.788E+00   -5.802E+00
    -5.816E+00   -5.829E+00   -5.843E+00   -5.855E+00   -5.868E+00   -5.880E+00   -5.892E+00   -5.904E+00   -5.915E+00   -5.926E+00
    -5.937E+00   -5.947E+00   -5.958E+00   -5.968E+00   -5.977E+00   -5.986E+00   -5.995E+00   -6.004E+00   -6.013E+00   -6.021E+00
    -6.029E+00   -6.036E+00   -6.043E+00   -6.050E+00   -6.057E+00   -6.063E+00   -6.069E+00   -6.075E+00   -6.081E+00   -6.086E+00
    -6.091E+00   -6.096E+00   -6.100E+00   -6.104E+00   -6.108E+00   -6.111E+00   -6.115E+00   -6.118E+00   -6.120E+00   -6.123E+00
    -6.125E+00   -6.127E+00   -6.128E+00   -6.129E+00   -6.130E+00   -6.131E+00   -6.132E+00   -6.132E+00   -6.132E+00   -6.131E+00
    -6.131E+00   -6.130E+00   -6.128E+00   -6.127E+00   -6.125E+00   -6.123E+00   -6.121E+00   -6.118E+00   -6.115E+00   -6.112E+00
    -6.109E+00   -6.105E+00   -6.101E+00   -6.097E+00   -6.092E+00   -6.088E+00   -6.083E+00   -6.077E+00   -6.072E+00   -6.066E+00
    -6.060E+00   -6.053E+00   -6.047E+00   -6.040E+00   -6.033E+00   -6.025E+00   -6.018E+00   -6.010E+00   -6.002E+00   -5.993E+00
    -5.985E+00   -5.976E+00   -5.967E+00   -5.957E+00   -5.947E+00   -5.937E+00   -5.927E+00   -5.917E+00   -5.906E+00   -5.895E+00
    -5.884E+00   -5.873E+00   -5.861E+00   -5.849E+00   -5.837E+00   -5.824E+00   -5.812E+00   -5.799E+00   -5.786E+00   -5.772E+00
    -5.759E+00   -5.745E+00   -5.731E+00   -5.716E+00   -5.702E+00   -5.687E+00   -5.672E+00   -5.657E+00   -5.641E+00   -5.625E+00
    -5.609E+00   -5.593E+00   -5.577E+00   -5.560E+00   -5.543E+00   -5.526E+00   -5.509E+00   -5.491E+00   -5.473E+00   -5.455E+00
    -5.437E+00   -5.418E+00   -5.400E+00   -5.381E+00   -5.362E+00   -5.342E+00   -5.323E+00   -5.303E+00   -5.283E+00   -5.263E+00
    -5.242E+00   -5.222E+00   -5.201E+00   -5.180E+00   -5.159E+00   -5.137E+00   -5.115E+00   -5.094E+00   -5.072E+00   -5.049E+00
    -5.027E+00   -5.004E+00   -4.981E+00   -4.958E+00   -4.935E+00   -4.911E+00   -4.888E+00   -4.864E+00   -4.840E+00   -4.815E+00
    -4.791E+00   -4.766E+00   -4.742E+00   -4.717E+00   -4.691E+00   -4.666E+00   -4.640E+00   -4.615E+00   -4.589E+00   -4.563E+00
    -4.536E+00   -4.510E+00   -4.483E+00   -4.456E+00   -4.429E+00   -4.402E+00   -4.375E+00   -4.347E+00   -4.319E+00   -4.292E+00
    -4.264E+00   -4.235E+00   -4.207E+00   -4.178E+00   -4.150E+00   -4.121E+00   -4.092E+00   -4.063E+00   -4.033E+00   -4.004E+00
    -3.974E+00   -3.944E+00   -3.914E+00   -3.884E+00   -3.854E+00   -3.823E+00   -3.793E+00   -3.762E+00   -3.731E+00   -3.700E+00
    -3.669E+00   -3.637E+00   -3.606E+00   -3.574E+00   -3.543E+00   -3.511E+00   -3.479E+00   -3.446E+00   -3.414E+00   -3.382E+00
    -3.349E+00   -3.316E+00   -3.284E+00   -3.251E+00   -3.217E+00   -3.184E+00   -3.151E+00   -3.117E+00   -3.084E+00   -3.050E+00
    -3.016E+00   -2.982E+00   -2.948E+00   -2.914E+00   -2.880E+00   -2.845E+00   -2.811E+00   -2.776E+00   -2.741E+00   -2.706E+00
    -2.671E+00   -2.636E+00   -2.601E+00   -2.566E+00   -2.530E+00   -2.495E+00   -2.459E+00   -2.423E+00   -2.388E+00   -2.352E+00
    -2.316E+00   -2.280E+00   -2.243E+00   -2.207E+00   -2.171E+00   -2.134E+00   -2.098E+00   -2.061E+00   -2.024E+00   -1.987E+00
    -1.951E+00   -1.914E+00   -1.876E+00   -1.839E+00   -1.802E+00   -1.765E+00   -1.727E+00   -1.690E+00   -1.652E+00   -1.615E+00
    -1.577E+00   -1.539E+00   -1.502E+00   -1.464E+00   -1.426E+00   -1.388E+00   -1.350E+00   -1.312E+00   -1.274E+00   -1.235E+00
    -1.197E+00   -1.159E+00   -1.120E+00   -1.082E+00   -1.043E+00   -1.005E+00   -9.661E-01   -9.274E-01   -8.887E-01   -8.500E-01
    -8.112E-01   -7.723E-01   -7.335E-01   -6.946E-01   -6.556E-01   -6.166E-01   -5.776E-01   -5.385E-01   -4.994E-01   -4.603E-01
    -4.211E-01   -3.819E-01   -3.427E-01   -3.035E-01   -2.642E-01   -2.249E-01   -1.856E-01   -1.462E-01   -1.069E-01   -6.752E-02
    -2.812E-02    1.129E-02    5.071E-02    9.015E-02    1.296E-01    1.691E-01    2.085E-01    2.480E-01    2.875E-01    3.270E-01
     3.665E-01    4.060E-01    4.455E-01    4.849E-01    5.244E-01    5.639E-01    6.034E-01    6.429E-01    6.824E-01    7.218E-01
     7.613E-01    8.007E-01    8.402E-01    8.796E-01    9.190E-01    9.584E-01    9.978E-01    1.037E+00    1.076E+00    1.116E+00
     1.155E+00    1.194E+00    1.234E+00    1.273E+00    1.312E+00    1.351E+00    1.390E+00    1.429E+00    1.468E+00    1.507E+00
     1.546E+00    1.585E+00    1.624E+00    1.663E+00    1.702E+00    1.741E+00    1.779E+00    1.818E+00    1.857E+00    1.895E+00
     1.934E+00    1.972E+00    2.011E+00    2.049E+00    2.088E+00    2.126E+00    2.164E+00    2.202E+00    2.240E+00    2.278E+00
     2.316E+00    2.354E+00    2.392E+00    2.430E+00    2.468E+00    2.505E+00    2.543E+00    2.580E+00    2.618E+00    2.655E+00
     2.692E+00    2.730E+00    2.767E+00    2.804E+00    2.841E+00    2.878E+00    2.914E+00    2.951E+00
 Ala      Conc. = 2.10E+03
