 LCModel (Version 6.3-1L) Copyright: S.W. Provencher.          Ref.: Magn. Reson. Med. 30:672-679 (1993).                
 Slice#2 Row#14 Col#13  PD_05_press_1_raw_act
 36 lines in following concentration table = NCONC+1
    Conc.  %SD /Cr+PCr  Metabolite                                         
  759.561  26%   0.000 Ala                                                 
    1.777  59%   0.000 Asp                                                 
    0.000 999%   0.000 Cr                                                  
    0.000 999%   0.000 PCr                                                 
    1.066  59%   0.000 GABA                                                
    1.066  58%   0.000 Glc                                                 
  411.998  47%   0.000 Gln                                                 
  159.875 154%   0.000 Glu                                                 
    0.000 999%   0.000 GPC                                                 
   11.847  57%   0.000 PCh                                                 
    4.778 846%   0.000 GSH                                                 
   13.618 598%   0.000 Ins                                                 
  127.740 168%   0.000 Lac                                                 
    0.000 999%   0.000 NAA                                                 
    0.000 999%   0.000 NAAG                                                
    0.356  58%   0.000 Scyllo                                              
    1.777  58%   0.000 Tau                                                 
 7.03E-02 999%   0.000 -CrCH2                                              
   11.847  57%   0.000 GPC+PCh                                             
    0.000 999%   0.000 NAA+NAAG                                            
    0.000 999%   0.000 Cr+PCr                                              
  571.873  68%   0.000 Glu+Gln                                             
    0.000 999%   0.000 Lip13a                                              
    0.000 999%   0.000 Lip13b                                              
    0.000 999%   0.000 Lip09                                               
   36.646  81%   0.000 MM09                                                
    0.000 999%   0.000 Lip20                                               
    0.000 999%   0.000 MM20                                                
  304.481  25%   0.000 MM12                                                
  708.642  23%   0.000 MM14                                                
 1.03E+03  17%   0.000 MM17                                                
    0.000 999%   0.000 Lip13a+Lip13b                                       
 1.01E+03  19%   0.000 MM14+Lip13a+Lip13b+MM12                             
   36.646  81%   0.000 MM09+Lip09                                          
    0.000 999%   0.000 MM20+Lip20                                          
   6 lines in following misc. output table
  FWHM = 0.153 ppm    S/N =   5                                            
  Data shift = 0.161 ppm                                                   
  Ph: -87 deg      29.5 deg/ppm                                            
  alphaB,S = 8.5E+01,   4.1E+02                                            
   12 spline knots.   Ns = 9(2)                                            
   2 inflections.     1 extrema                                            
  498 points on ppm-axis = NY
      4.000000     3.992357     3.984714     3.977070     3.969427     3.961784     3.954141     3.946497     3.938854     3.931211
      3.923568     3.915925     3.908281     3.900638     3.892995     3.885352     3.877708     3.870065     3.862422     3.854779
      3.847136     3.839492     3.831849     3.824206     3.816563     3.808919     3.801276     3.793633     3.785990     3.778347
      3.770703     3.763060     3.755417     3.747774     3.740130     3.732487     3.724844     3.717201     3.709558     3.701914
      3.694271     3.686628     3.678985     3.671341     3.663698     3.656055     3.648412     3.640769     3.633125     3.625482
      3.617839     3.610196     3.602552     3.594909     3.587266     3.579623     3.571980     3.564336     3.556693     3.549050
      3.541407     3.533763     3.526120     3.518477     3.510834     3.503191     3.495547     3.487904     3.480261     3.472618
      3.464974     3.457331     3.449688     3.442045     3.434402     3.426758     3.419115     3.411472     3.403829     3.396185
      3.388542     3.380899     3.373256     3.365613     3.357969     3.350326     3.342683     3.335040     3.327396     3.319753
      3.312110     3.304467     3.296824     3.289180     3.281537     3.273894     3.266251     3.258607     3.250964     3.243321
      3.235678     3.228034     3.220391     3.212748     3.205105     3.197462     3.189818     3.182175     3.174532     3.166889
      3.159245     3.151602     3.143959     3.136316     3.128673     3.121029     3.113386     3.105743     3.098100     3.090456
      3.082813     3.075170     3.067527     3.059884     3.052240     3.044597     3.036954     3.029311     3.021667     3.014024
      3.006381     2.998738     2.991095     2.983451     2.975808     2.968165     2.960522     2.952878     2.945235     2.937592
      2.929949     2.922306     2.914662     2.907019     2.899376     2.891733     2.884089     2.876446     2.868803     2.861160
      2.853517     2.845873     2.838230     2.830587     2.822944     2.815300     2.807657     2.800014     2.792371     2.784728
      2.777084     2.769441     2.761798     2.754155     2.746511     2.738868     2.731225     2.723582     2.715939     2.708295
      2.700652     2.693009     2.685366     2.677722     2.670079     2.662436     2.654793     2.647150     2.639506     2.631863
      2.624220     2.616577     2.608933     2.601290     2.593647     2.586004     2.578361     2.570717     2.563074     2.555431
      2.547788     2.540144     2.532501     2.524858     2.517215     2.509572     2.501928     2.494285     2.486642     2.478999
      2.471355     2.463712     2.456069     2.448426     2.440783     2.433139     2.425496     2.417853     2.410210     2.402566
      2.394923     2.387280     2.379637     2.371994     2.364350     2.356707     2.349064     2.341421     2.333777     2.326134
      2.318491     2.310848     2.303205     2.295561     2.287918     2.280275     2.272632     2.264988     2.257345     2.249702
      2.242059     2.234416     2.226772     2.219129     2.211486     2.203843     2.196199     2.188556     2.180913     2.173270
      2.165627     2.157983     2.150340     2.142697     2.135054     2.127410     2.119767     2.112124     2.104481     2.096838
      2.089194     2.081551     2.073908     2.066265     2.058621     2.050978     2.043335     2.035692     2.028049     2.020405
      2.012762     2.005119     1.997476     1.989833     1.982190     1.974546     1.966903     1.959260     1.951617     1.943974
      1.936331     1.928688     1.921045     1.913402     1.905759     1.898115     1.890472     1.882829     1.875186     1.867543
      1.859900     1.852257     1.844614     1.836971     1.829327     1.821684     1.814041     1.806398     1.798755     1.791112
      1.783469     1.775826     1.768183     1.760540     1.752896     1.745253     1.737610     1.729967     1.722324     1.714681
      1.707038     1.699395     1.691752     1.684108     1.676465     1.668822     1.661179     1.653536     1.645893     1.638250
      1.630607     1.622964     1.615321     1.607677     1.600034     1.592391     1.584748     1.577105     1.569462     1.561819
      1.554176     1.546533     1.538890     1.531246     1.523603     1.515960     1.508317     1.500674     1.493031     1.485388
      1.477745     1.470102     1.462458     1.454815     1.447172     1.439529     1.431886     1.424243     1.416600     1.408957
      1.401314     1.393671     1.386027     1.378384     1.370741     1.363098     1.355455     1.347812     1.340169     1.332526
      1.324883     1.317240     1.309596     1.301953     1.294310     1.286667     1.279024     1.271381     1.263738     1.256095
      1.248452     1.240808     1.233165     1.225522     1.217879     1.210236     1.202593     1.194950     1.187307     1.179664
      1.172021     1.164377     1.156734     1.149091     1.141448     1.133805     1.126162     1.118519     1.110876     1.103233
      1.095590     1.087946     1.080303     1.072660     1.065017     1.057374     1.049731     1.042088     1.034445     1.026802
      1.019158     1.011515     1.003872     0.996229     0.988586     0.980943     0.973300     0.965657     0.958014     0.950371
      0.942727     0.935084     0.927441     0.919798     0.912155     0.904512     0.896869     0.889226     0.881583     0.873940
      0.866296     0.858653     0.851010     0.843367     0.835724     0.828081     0.820438     0.812795     0.805152     0.797508
      0.789865     0.782222     0.774579     0.766936     0.759293     0.751650     0.744007     0.736364     0.728721     0.721077
      0.713434     0.705791     0.698148     0.690505     0.682862     0.675219     0.667576     0.659933     0.652290     0.644646
      0.637003     0.629360     0.621717     0.614074     0.606431     0.598788     0.591145     0.583502     0.575858     0.568215
      0.560572     0.552929     0.545286     0.537643     0.530000     0.522357     0.514714     0.507071     0.499427     0.491784
      0.484141     0.476498     0.468855     0.461212     0.453569     0.445925     0.438282     0.430639     0.422996     0.415353
      0.407710     0.400067     0.392424     0.384780     0.377137     0.369494     0.361851     0.354208     0.346565     0.338922
      0.331278     0.323635     0.315992     0.308349     0.300706     0.293063     0.285420     0.277777     0.270133     0.262490
      0.254847     0.247204     0.239561     0.231918     0.224275     0.216631     0.208988     0.201345
 NY phased data points follow
  -4.10369E-01 -4.84033E-01  9.03090E-02 -4.19556E-01  3.51001E-01 -5.02143E-02  5.75141E-01 -4.69399E-01  1.10293E-01  6.44856E-01
  -2.81748E-01  3.84384E-01 -1.19008E+00 -8.82380E-01  2.64668E-02 -9.22700E-01 -9.62615E-01 -3.37303E-01 -1.16398E-01 -4.56856E-01
   7.03975E-01  1.74090E-01 -3.21854E-01 -2.10272E-01 -3.51594E-01 -3.18929E-01 -6.21044E-02  1.37606E+00 -5.81987E-01  1.68861E-01
   2.63897E-01  1.08554E+00 -2.00187E-02 -6.53590E-01  1.31723E+00 -3.22065E-01 -6.38788E-01 -8.05542E-01  4.83900E-01  4.02721E-01
  -1.14688E-01 -6.16255E-01  2.88246E-01  3.55005E-01 -3.55485E-01  6.57465E-01 -3.46663E-01  3.68802E-01  6.31298E-01  1.61084E-01
  -2.00398E-01  4.68672E-01  7.04252E-01 -1.32353E-01 -1.15611E-01 -7.51491E-01  2.86113E-01 -6.25742E-01  1.16718E-01 -1.62135E+00
  -5.19383E-01 -7.08370E-01 -4.73120E-02 -1.19816E+00 -2.08781E-01 -7.86863E-01  6.66058E-01  4.77843E-01 -6.40693E-01 -3.12199E-01
  -9.59754E-01  5.59908E-01 -1.72621E-01 -1.95783E-01 -2.39751E-02  9.31409E-01 -2.55849E-01 -2.13970E-01 -8.12957E-01 -1.88542E-01
  -7.77888E-01 -3.49225E-01 -2.72947E-01  2.71406E-01 -1.22103E+00  7.27953E-01 -6.03158E-01 -5.76850E-01 -3.73262E-01 -9.17527E-02
   2.07363E-01 -2.34382E-02  2.60901E-01  1.10388E-02  2.53478E-01 -9.21143E-02 -6.89146E-01  2.74430E-02  1.93609E-01  7.18758E-01
   1.98348E-01  1.39980E+00 -7.69607E-01  5.64818E-01  1.91173E-01 -8.84450E-01  7.96745E-02 -2.27253E-01  3.45175E-01 -8.56524E-01
  -1.41534E+00 -3.44452E-02  6.00947E-01 -6.43525E-01 -1.48029E-01  3.57516E-01  4.46582E-01  4.23014E-01 -6.89950E-01 -6.14043E-01
  -9.12369E-01 -1.41198E+00 -1.10160E+00  5.91460E-02 -6.44229E-01 -4.22942E-02 -1.44185E-01  1.39838E-01  1.25272E+00 -4.96752E-01
  -6.97977E-01 -3.66910E-01 -9.21243E-01 -3.27680E-01 -1.01820E+00 -5.10493E-01  6.71404E-01  5.51602E-01 -9.31811E-01 -1.37314E+00
  -1.93583E+00 -1.18434E+00  9.28039E-02 -7.76801E-01 -5.09213E-01  2.74539E-01  1.80567E-01  3.56887E-01  3.27953E-01 -5.93518E-01
  -8.09944E-02 -3.46290E-01 -1.21894E+00 -7.45685E-01 -2.70698E-01  3.57682E-01  2.05114E-01 -1.27917E+00 -1.48295E-03 -1.29552E-01
  -7.39050E-01 -1.27009E+00 -5.75510E-01 -1.49919E+00  5.54454E-01  6.90442E-01 -4.42467E-02 -7.46888E-02 -1.80539E-01 -4.96493E-01
  -1.41681E+00 -1.03612E+00 -7.12640E-01 -8.22065E-02  6.49393E-02 -9.01565E-01 -1.23884E+00 -7.07334E-01  1.47827E-01  3.66412E-01
  -9.04657E-01  3.10502E-01 -9.37342E-01 -1.24378E-01  1.58370E-01 -1.06815E+00 -8.16209E-01 -1.20666E+00  2.54494E-03 -1.38271E+00
  -1.01369E+00  3.52301E-01 -4.19400E-01 -1.60197E-01  1.77408E-01 -2.59555E-01  2.18409E-02 -5.28890E-01 -6.94614E-01 -8.15265E-01
  -1.71969E+00 -1.52573E+00 -5.18574E-03  7.61930E-01 -1.75308E-01 -1.28203E+00 -7.25961E-01  3.44328E-01 -1.65290E-01 -1.99895E+00
  -8.73713E-01  3.67379E-01 -1.32321E+00 -3.96430E-01  1.65826E-01 -8.92357E-01 -8.78224E-01 -2.82558E-01  4.76647E-01  1.99700E-01
   6.58207E-01 -1.19244E+00  1.43878E-01  6.68215E-01 -1.63485E+00  1.62507E-01 -5.17893E-01 -1.61632E-01 -7.64553E-01  4.78700E-01
   6.25054E-02  1.59392E-01  2.31213E-02 -2.61596E-01  1.27967E-01 -2.96461E-01 -3.88174E-01 -6.33725E-01 -9.73889E-01 -1.23257E+00
  -1.35069E+00  4.60602E-02 -1.24094E+00 -4.67694E-01 -6.62286E-01 -9.67916E-01 -8.85942E-01  2.15889E-01 -4.88758E-01 -1.40941E+00
  -9.69235E-01  3.75979E-01 -3.84200E-01 -1.31508E+00 -3.78513E-01  6.09395E-01 -1.15368E+00 -9.52543E-01 -5.77233E-01  1.27797E-01
  -2.78322E-01 -1.24689E+00  4.34342E-02  2.66075E-01 -9.99822E-01  7.47675E-02  4.53935E-01 -2.54445E-01 -1.26498E+00  6.02186E-01
   3.68461E-01  8.74211E-02 -5.87700E-02  3.88384E-01  2.28305E-01  8.29268E-01  1.82206E+00  2.05409E+00  1.08534E+00  1.28996E+00
   1.29333E+00  9.83676E-01  2.05853E+00  2.62901E+00  2.03040E+00  2.28046E+00  9.25411E-01  1.59832E+00  1.96005E+00  2.76739E+00
   1.73696E+00  1.86140E+00  2.36032E+00  4.07302E+00  3.40171E+00  3.88879E+00  3.43820E+00  3.77537E+00  4.01186E+00  4.09226E+00
   4.83792E+00  4.50351E+00  6.09103E+00  4.79209E+00  5.35102E+00  5.91364E+00  4.21859E+00  5.48734E+00  5.90120E+00  5.45082E+00
   5.83040E+00  6.69340E+00  6.45826E+00  5.89897E+00  4.46651E+00  6.26228E+00  5.57986E+00  6.08237E+00  5.36170E+00  5.45122E+00
   4.87624E+00  6.10686E+00  5.68667E+00  5.35923E+00  4.59925E+00  6.07411E+00  5.09882E+00  4.05599E+00  4.88668E+00  4.15104E+00
   3.87216E+00  5.19354E+00  3.95029E+00  3.81590E+00  3.42261E+00  3.44358E+00  3.50904E+00  3.25983E+00  4.22399E+00  3.03995E+00
   4.67520E+00  4.59288E+00  4.10547E+00  5.10208E+00  3.71782E+00  2.42274E+00  2.88902E+00  1.43191E+00  3.18579E+00  3.07334E+00
   2.64274E+00  1.69508E+00  1.01238E+00  2.15902E+00  3.49622E+00  1.17971E+00  2.50500E+00  1.19223E+00  6.59057E-01  2.41210E+00
   1.68029E+00  2.08920E+00  2.43888E+00  1.40998E+00  1.46147E+00  1.44778E+00  1.64977E+00  1.94783E+00  2.17097E+00  1.50348E+00
   1.33692E+00  1.93897E-01  1.48820E+00  9.44468E-01  1.56927E+00  9.44846E-01  1.45026E+00  1.95712E+00  2.59070E-01  1.66183E+00
  -1.70694E-01  8.10588E-01  1.07990E+00 -6.92978E-01  1.48937E+00  1.05979E+00  1.09022E+00  8.20034E-01  1.13501E+00  2.02891E-01
   5.69761E-01  9.26993E-01  1.05075E+00  3.92295E-01  3.61343E-01 -9.15984E-01 -2.00893E-01  5.64962E-01  1.90287E-01 -1.19341E+00
  -6.64693E-01 -4.25458E-01 -5.26033E-01 -6.56491E-01 -6.53757E-01 -4.38471E-01 -3.54739E-01 -1.14588E+00  1.33571E-01 -3.40778E-01
  -3.82931E-02 -4.56295E-01 -6.87000E-02 -1.67456E+00 -2.11032E-01 -7.87480E-01 -1.20422E+00  1.62341E-01  4.06546E-02 -7.36116E-01
  -1.39610E-01  4.66721E-01 -6.39859E-02 -4.00256E-01 -9.34928E-01  1.61438E-01 -3.05679E-01 -9.90850E-01 -2.37493E-01 -1.45512E+00
  -3.71027E-01 -7.39145E-01 -8.90039E-01 -1.03841E+00 -1.02831E+00 -1.20467E+00 -1.06745E+00 -8.21378E-01 -4.45876E-01 -2.12618E-01
  -6.56513E-01  1.34858E+00 -3.19012E-01 -1.21787E+00 -1.52816E+00 -1.72499E-01 -1.22544E+00 -1.46185E+00 -1.41838E+00 -5.93056E-01
  -2.02934E-01 -7.12815E-01 -7.06090E-01 -1.95678E+00 -3.94058E-01  2.30826E-01 -6.84394E-01 -8.70008E-01 -1.47304E+00 -5.96582E-02
  -1.17414E+00 -6.53181E-01 -1.67714E+00 -3.66085E-01 -1.00934E+00 -1.25869E+00  8.26094E-02 -8.14234E-02 -6.71591E-01 -9.61592E-01
  -8.14071E-01 -2.88073E-01 -4.63768E-01 -6.43103E-01 -1.70029E+00  6.69459E-01 -1.24289E+00 -1.19456E+00 -8.98833E-01  1.74022E-01
  -3.54848E-01 -1.17706E+00 -1.32779E-01 -1.69467E+00 -1.42566E+00 -6.94979E-01 -8.25974E-01 -2.55942E-02 -1.32148E+00  4.48646E-02
  -1.43808E+00 -1.58601E+00 -5.06730E-01 -1.03309E-01 -9.80551E-01 -1.56750E+00 -1.93531E+00 -5.19602E-01
 NY points of the fit to the data follow
  -1.12595E-01 -1.11339E-01 -1.37477E-01 -1.21672E-01 -1.45873E-01 -1.02726E-01 -1.09051E-01 -2.40675E-02 -5.63968E-02  4.49895E-02
  -3.85035E-02  6.89766E-02 -6.98843E-02  5.20289E-02 -1.13137E-01  5.22959E-02 -1.14724E-01  8.31511E-02 -8.61019E-02  1.19338E-01
  -5.95228E-02  1.46416E-01 -4.01763E-02  1.50790E-01 -2.71590E-02  1.37322E-01 -1.68728E-02  1.12522E-01 -9.73543E-03  7.85823E-02
  -4.86810E-03  4.22931E-02  7.14368E-03  2.14259E-02  3.90844E-02  2.74297E-02  8.32075E-02  4.21340E-02  1.07303E-01  2.97257E-02
   8.09962E-02 -1.64813E-02  3.49921E-02 -6.18085E-02  3.22747E-03 -7.44127E-02  5.26368E-03 -4.97533E-02 -4.55466E-03 -7.07102E-02
  -5.50753E-02 -1.19663E-01 -1.21516E-01 -1.70904E-01 -1.66298E-01 -1.84296E-01 -1.68953E-01 -1.82095E-01 -1.72061E-01 -1.86113E-01
  -1.83817E-01 -1.90267E-01 -1.96266E-01 -2.05013E-01 -2.10687E-01 -2.18599E-01 -2.23297E-01 -2.30182E-01 -2.33617E-01 -2.39172E-01
  -2.41703E-01 -2.47202E-01 -2.49722E-01 -2.55651E-01 -2.57912E-01 -2.64116E-01 -2.66218E-01 -2.72710E-01 -2.74564E-01 -2.81149E-01
  -2.82726E-01 -2.88883E-01 -2.89810E-01 -2.94750E-01 -2.91467E-01 -2.80989E-01 -2.70393E-01 -2.48844E-01 -2.32975E-01 -2.05606E-01
  -1.86513E-01 -1.56665E-01 -1.35601E-01 -1.04827E-01 -8.25551E-02 -5.30498E-02 -3.08523E-02 -4.53029E-03  1.61008E-02  3.55318E-02
   5.25445E-02  6.19221E-02  7.35892E-02  7.08905E-02  7.61655E-02  6.05811E-02  5.88130E-02  3.00046E-02  2.10546E-02 -1.98425E-02
  -3.52005E-02 -8.33665E-02 -1.02168E-01 -1.49886E-01 -1.68761E-01 -2.10540E-01 -2.27574E-01 -2.62918E-01 -2.78164E-01 -3.08924E-01
  -3.22801E-01 -3.48726E-01 -3.60138E-01 -3.78121E-01 -3.84057E-01 -3.87391E-01 -3.88736E-01 -3.91294E-01 -3.91728E-01 -3.94480E-01
  -3.94359E-01 -3.97525E-01 -3.97049E-01 -4.00675E-01 -3.99941E-01 -4.03978E-01 -4.03098E-01 -4.07512E-01 -4.06587E-01 -4.11247E-01
  -4.10392E-01 -4.15145E-01 -4.14521E-01 -4.19176E-01 -4.18846E-01 -4.23322E-01 -4.23468E-01 -4.27755E-01 -4.28571E-01 -4.32603E-01
  -4.34084E-01 -4.37658E-01 -4.39649E-01 -4.42645E-01 -4.44856E-01 -4.47202E-01 -4.49497E-01 -4.51620E-01 -4.54167E-01 -4.56054E-01
  -4.58813E-01 -4.60322E-01 -4.62943E-01 -4.64104E-01 -4.66396E-01 -4.67376E-01 -4.69175E-01 -4.70027E-01 -4.71387E-01 -4.71909E-01
  -4.72788E-01 -4.73174E-01 -4.73394E-01 -4.73567E-01 -4.73020E-01 -4.74679E-01 -4.78718E-01 -4.82227E-01 -4.99501E-01 -5.05654E-01
  -5.36643E-01 -5.42900E-01 -5.82862E-01 -5.75351E-01 -6.11745E-01 -5.84581E-01 -6.17637E-01 -5.63640E-01 -5.99963E-01 -5.28041E-01
  -5.79864E-01 -5.13941E-01 -6.13636E-01 -5.38108E-01 -6.69445E-01 -5.69807E-01 -7.16365E-01 -5.83383E-01 -7.28556E-01 -5.71347E-01
  -7.14448E-01 -5.45515E-01 -6.87101E-01 -5.21721E-01 -6.69408E-01 -5.15221E-01 -6.58472E-01 -5.15643E-01 -6.44673E-01 -5.11876E-01
  -6.14992E-01 -4.91475E-01 -5.58811E-01 -4.44223E-01 -4.72716E-01 -3.69054E-01 -3.67910E-01 -2.91277E-01 -2.93062E-01 -2.42879E-01
  -2.54815E-01 -2.14600E-01 -2.31682E-01 -1.69400E-01 -1.91859E-01 -1.18229E-01 -1.49810E-01 -7.46245E-02 -1.23223E-01 -6.81496E-02
  -1.43051E-01 -1.19191E-01 -2.26419E-01 -2.03534E-01 -2.99584E-01 -2.74673E-01 -3.49502E-01 -3.24343E-01 -3.70936E-01 -3.59736E-01
  -3.86524E-01 -3.96965E-01 -4.02305E-01 -4.36755E-01 -4.23243E-01 -4.76372E-01 -4.37669E-01 -4.97799E-01 -4.39292E-01 -4.93109E-01
  -4.17365E-01 -4.55182E-01 -3.67131E-01 -3.91399E-01 -3.01038E-01 -3.19113E-01 -2.35532E-01 -2.57139E-01 -1.92006E-01 -2.02773E-01
  -1.39776E-01 -1.33565E-01 -7.04196E-02 -4.62406E-02  7.94372E-03  2.99888E-02  7.86298E-02  1.01224E-01  1.42356E-01  1.68427E-01
   2.09023E-01  2.41582E-01  2.87757E-01  3.34845E-01  3.91987E-01  4.54612E-01  5.23947E-01  6.01454E-01  6.82516E-01  7.74429E-01
   8.70268E-01  9.78880E-01  1.09664E+00  1.22786E+00  1.37042E+00  1.52631E+00  1.69550E+00  1.87599E+00  2.07005E+00  2.27406E+00
   2.48915E+00  2.71129E+00  2.94046E+00  3.17238E+00  3.40589E+00  3.63717E+00  3.86373E+00  4.08170E+00  4.28844E+00  4.48086E+00
   4.65674E+00  4.81443E+00  4.95294E+00  5.07281E+00  5.17553E+00  5.26463E+00  5.34641E+00  5.43308E+00  5.55410E+00  5.72898E+00
   5.78182E+00  5.97163E+00  5.90171E+00  6.06562E+00  5.85100E+00  5.95566E+00  5.57310E+00  5.75127E+00  5.31496E+00  5.57704E+00
   5.12595E+00  5.43898E+00  4.96999E+00  5.28438E+00  4.80018E+00  5.08657E+00  4.61096E+00  4.84835E+00  4.41627E+00  4.61053E+00
   4.25627E+00  4.36369E+00  4.11520E+00  4.11464E+00  4.00218E+00  3.90179E+00  3.93527E+00  3.78051E+00  3.94802E+00  3.73141E+00
   3.96689E+00  3.65100E+00  3.88294E+00  3.45397E+00  3.65602E+00  3.17136E+00  3.36944E+00  2.91338E+00  3.13722E+00  2.76294E+00
   2.91049E+00  2.50719E+00  2.60462E+00  2.20143E+00  2.25398E+00  1.88733E+00  1.91536E+00  1.69874E+00  1.79802E+00  1.64873E+00
   1.75739E+00  1.63938E+00  1.72939E+00  1.62340E+00  1.68019E+00  1.58332E+00  1.60598E+00  1.52203E+00  1.51690E+00  1.44607E+00
   1.41151E+00  1.32191E+00  1.25891E+00  1.15711E+00  1.07203E+00  9.66119E-01  8.68949E-01  7.79088E-01  6.93510E-01  6.11704E-01
   5.33837E-01  4.60272E-01  3.91381E-01  3.27489E-01  2.68826E-01  2.15527E-01  1.67617E-01  1.25027E-01  8.75852E-02  5.50437E-02
   2.70674E-02  3.26254E-03 -1.68278E-02 -3.36996E-02 -4.78897E-02 -5.99504E-02 -7.04487E-02 -7.99387E-02 -8.89587E-02 -9.80030E-02
  -1.07521E-01 -1.17890E-01 -1.29418E-01 -1.42321E-01 -1.56733E-01 -1.72694E-01 -1.90167E-01 -2.09031E-01 -2.29109E-01 -2.50166E-01
  -2.71940E-01 -2.94144E-01 -3.16495E-01 -3.38714E-01 -3.60551E-01 -3.81781E-01 -4.02223E-01 -4.21729E-01 -4.40201E-01 -4.57571E-01
  -4.73815E-01 -4.88930E-01 -5.02947E-01 -5.15910E-01 -5.27884E-01 -5.38934E-01 -5.49140E-01 -5.58574E-01 -5.67314E-01 -5.75429E-01
  -5.82988E-01 -5.90050E-01 -5.96672E-01 -6.02901E-01 -6.08783E-01 -6.14354E-01 -6.19651E-01 -6.24698E-01 -6.29526E-01 -6.34151E-01
  -6.38598E-01 -6.42878E-01 -6.47011E-01 -6.51004E-01 -6.54875E-01 -6.58626E-01 -6.62274E-01 -6.65819E-01 -6.69275E-01 -6.72641E-01
  -6.75929E-01 -6.79139E-01 -6.82282E-01 -6.85354E-01 -6.88367E-01 -6.91316E-01 -6.94213E-01 -6.97053E-01 -6.99845E-01 -7.02587E-01
  -7.05285E-01 -7.07936E-01 -7.10549E-01 -7.13119E-01 -7.15653E-01 -7.18148E-01 -7.20611E-01 -7.23037E-01 -7.25433E-01 -7.27796E-01
  -7.30131E-01 -7.32436E-01 -7.34714E-01 -7.36963E-01 -7.39189E-01 -7.41387E-01 -7.43563E-01 -7.45713E-01 -7.47842E-01 -7.49947E-01
  -7.52031E-01 -7.54093E-01 -7.56135E-01 -7.58154E-01 -7.60155E-01 -7.62133E-01 -7.64094E-01 -7.66032E-01 -7.67951E-01 -7.69847E-01
  -7.71724E-01 -7.73576E-01 -7.75407E-01 -7.77211E-01 -7.78988E-01 -7.80733E-01 -7.82444E-01 -7.84111E-01
 NY background values follow
    -2.264E-01   -2.277E-01   -2.289E-01   -2.301E-01   -2.313E-01   -2.326E-01   -2.338E-01   -2.350E-01   -2.362E-01   -2.374E-01
    -2.387E-01   -2.399E-01   -2.411E-01   -2.423E-01   -2.436E-01   -2.448E-01   -2.460E-01   -2.472E-01   -2.484E-01   -2.497E-01
    -2.509E-01   -2.521E-01   -2.533E-01   -2.545E-01   -2.558E-01   -2.570E-01   -2.582E-01   -2.594E-01   -2.607E-01   -2.619E-01
    -2.631E-01   -2.643E-01   -2.655E-01   -2.668E-01   -2.680E-01   -2.692E-01   -2.704E-01   -2.717E-01   -2.729E-01   -2.741E-01
    -2.753E-01   -2.765E-01   -2.778E-01   -2.790E-01   -2.802E-01   -2.814E-01   -2.827E-01   -2.839E-01   -2.851E-01   -2.863E-01
    -2.875E-01   -2.888E-01   -2.900E-01   -2.912E-01   -2.924E-01   -2.936E-01   -2.949E-01   -2.961E-01   -2.973E-01   -2.985E-01
    -2.998E-01   -3.010E-01   -3.022E-01   -3.034E-01   -3.046E-01   -3.059E-01   -3.071E-01   -3.083E-01   -3.095E-01   -3.108E-01
    -3.120E-01   -3.132E-01   -3.144E-01   -3.156E-01   -3.169E-01   -3.181E-01   -3.193E-01   -3.205E-01   -3.218E-01   -3.230E-01
    -3.242E-01   -3.254E-01   -3.266E-01   -3.279E-01   -3.291E-01   -3.303E-01   -3.315E-01   -3.327E-01   -3.340E-01   -3.352E-01
    -3.364E-01   -3.376E-01   -3.389E-01   -3.401E-01   -3.413E-01   -3.425E-01   -3.437E-01   -3.450E-01   -3.462E-01   -3.474E-01
    -3.486E-01   -3.499E-01   -3.511E-01   -3.523E-01   -3.535E-01   -3.547E-01   -3.560E-01   -3.572E-01   -3.584E-01   -3.596E-01
    -3.609E-01   -3.621E-01   -3.633E-01   -3.645E-01   -3.657E-01   -3.670E-01   -3.682E-01   -3.694E-01   -3.706E-01   -3.718E-01
    -3.731E-01   -3.743E-01   -3.755E-01   -3.767E-01   -3.780E-01   -3.792E-01   -3.804E-01   -3.816E-01   -3.828E-01   -3.841E-01
    -3.853E-01   -3.865E-01   -3.877E-01   -3.890E-01   -3.902E-01   -3.914E-01   -3.926E-01   -3.938E-01   -3.951E-01   -3.963E-01
    -3.975E-01   -3.987E-01   -4.000E-01   -4.012E-01   -4.024E-01   -4.036E-01   -4.048E-01   -4.061E-01   -4.073E-01   -4.085E-01
    -4.097E-01   -4.110E-01   -4.122E-01   -4.134E-01   -4.146E-01   -4.158E-01   -4.171E-01   -4.183E-01   -4.195E-01   -4.207E-01
    -4.220E-01   -4.232E-01   -4.244E-01   -4.256E-01   -4.268E-01   -4.281E-01   -4.293E-01   -4.305E-01   -4.317E-01   -4.330E-01
    -4.342E-01   -4.354E-01   -4.366E-01   -4.378E-01   -4.391E-01   -4.403E-01   -4.415E-01   -4.427E-01   -4.440E-01   -4.452E-01
    -4.464E-01   -4.476E-01   -4.488E-01   -4.501E-01   -4.513E-01   -4.525E-01   -4.537E-01   -4.549E-01   -4.562E-01   -4.574E-01
    -4.586E-01   -4.598E-01   -4.611E-01   -4.623E-01   -4.635E-01   -4.647E-01   -4.660E-01   -4.672E-01   -4.684E-01   -4.696E-01
    -4.708E-01   -4.721E-01   -4.733E-01   -4.745E-01   -4.757E-01   -4.770E-01   -4.782E-01   -4.794E-01   -4.806E-01   -4.818E-01
    -4.831E-01   -4.843E-01   -4.855E-01   -4.867E-01   -4.880E-01   -4.892E-01   -4.904E-01   -4.916E-01   -4.928E-01   -4.941E-01
    -4.953E-01   -4.965E-01   -4.977E-01   -4.990E-01   -5.002E-01   -5.014E-01   -5.026E-01   -5.038E-01   -5.051E-01   -5.063E-01
    -5.075E-01   -5.087E-01   -5.100E-01   -5.112E-01   -5.124E-01   -5.136E-01   -5.148E-01   -5.161E-01   -5.173E-01   -5.185E-01
    -5.197E-01   -5.210E-01   -5.222E-01   -5.234E-01   -5.246E-01   -5.258E-01   -5.271E-01   -5.283E-01   -5.295E-01   -5.307E-01
    -5.320E-01   -5.332E-01   -5.344E-01   -5.356E-01   -5.368E-01   -5.381E-01   -5.393E-01   -5.405E-01   -5.417E-01   -5.430E-01
    -5.442E-01   -5.454E-01   -5.466E-01   -5.478E-01   -5.491E-01   -5.503E-01   -5.515E-01   -5.527E-01   -5.540E-01   -5.552E-01
    -5.564E-01   -5.576E-01   -5.589E-01   -5.601E-01   -5.613E-01   -5.625E-01   -5.637E-01   -5.650E-01   -5.662E-01   -5.674E-01
    -5.686E-01   -5.699E-01   -5.711E-01   -5.723E-01   -5.735E-01   -5.747E-01   -5.760E-01   -5.772E-01   -5.784E-01   -5.796E-01
    -5.809E-01   -5.821E-01   -5.833E-01   -5.845E-01   -5.857E-01   -5.870E-01   -5.882E-01   -5.894E-01   -5.906E-01   -5.919E-01
    -5.931E-01   -5.943E-01   -5.955E-01   -5.967E-01   -5.980E-01   -5.992E-01   -6.004E-01   -6.016E-01   -6.029E-01   -6.041E-01
    -6.053E-01   -6.065E-01   -6.078E-01   -6.090E-01   -6.102E-01   -6.114E-01   -6.126E-01   -6.139E-01   -6.151E-01   -6.163E-01
    -6.175E-01   -6.188E-01   -6.200E-01   -6.212E-01   -6.224E-01   -6.236E-01   -6.249E-01   -6.261E-01   -6.273E-01   -6.285E-01
    -6.298E-01   -6.310E-01   -6.322E-01   -6.334E-01   -6.347E-01   -6.359E-01   -6.371E-01   -6.383E-01   -6.395E-01   -6.408E-01
    -6.420E-01   -6.432E-01   -6.444E-01   -6.457E-01   -6.469E-01   -6.481E-01   -6.493E-01   -6.505E-01   -6.518E-01   -6.530E-01
    -6.542E-01   -6.554E-01   -6.567E-01   -6.579E-01   -6.591E-01   -6.603E-01   -6.616E-01   -6.628E-01   -6.640E-01   -6.652E-01
    -6.664E-01   -6.677E-01   -6.689E-01   -6.701E-01   -6.713E-01   -6.726E-01   -6.738E-01   -6.750E-01   -6.762E-01   -6.775E-01
    -6.787E-01   -6.799E-01   -6.811E-01   -6.823E-01   -6.836E-01   -6.848E-01   -6.860E-01   -6.872E-01   -6.885E-01   -6.897E-01
    -6.909E-01   -6.921E-01   -6.933E-01   -6.946E-01   -6.958E-01   -6.970E-01   -6.982E-01   -6.995E-01   -7.007E-01   -7.019E-01
    -7.031E-01   -7.044E-01   -7.056E-01   -7.068E-01   -7.080E-01   -7.092E-01   -7.105E-01   -7.117E-01   -7.129E-01   -7.141E-01
    -7.154E-01   -7.166E-01   -7.178E-01   -7.190E-01   -7.203E-01   -7.215E-01   -7.227E-01   -7.239E-01   -7.251E-01   -7.264E-01
    -7.276E-01   -7.288E-01   -7.300E-01   -7.313E-01   -7.325E-01   -7.337E-01   -7.349E-01   -7.362E-01   -7.374E-01   -7.386E-01
    -7.398E-01   -7.410E-01   -7.423E-01   -7.435E-01   -7.447E-01   -7.459E-01   -7.472E-01   -7.484E-01   -7.496E-01   -7.508E-01
    -7.521E-01   -7.533E-01   -7.545E-01   -7.557E-01   -7.569E-01   -7.582E-01   -7.594E-01   -7.606E-01   -7.618E-01   -7.631E-01
    -7.643E-01   -7.655E-01   -7.667E-01   -7.680E-01   -7.692E-01   -7.704E-01   -7.716E-01   -7.728E-01   -7.741E-01   -7.753E-01
    -7.765E-01   -7.777E-01   -7.790E-01   -7.802E-01   -7.814E-01   -7.826E-01   -7.839E-01   -7.851E-01   -7.863E-01   -7.875E-01
    -7.887E-01   -7.900E-01   -7.912E-01   -7.924E-01   -7.936E-01   -7.949E-01   -7.961E-01   -7.973E-01   -7.985E-01   -7.998E-01
    -8.010E-01   -8.022E-01   -8.034E-01   -8.046E-01   -8.059E-01   -8.071E-01   -8.083E-01   -8.095E-01   -8.108E-01   -8.120E-01
    -8.132E-01   -8.144E-01   -8.157E-01   -8.169E-01   -8.181E-01   -8.193E-01   -8.205E-01   -8.218E-01   -8.230E-01   -8.242E-01
    -8.254E-01   -8.267E-01   -8.279E-01   -8.291E-01   -8.303E-01   -8.316E-01   -8.328E-01   -8.340E-01
 Ala      Conc. = 7.60E+02
