 LCModel (Version 6.3-1L) Copyright: S.W. Provencher.          Ref.: Magn. Reson. Med. 30:672-679 (1993).                
 Slice#2 Row#2 Col#4  PD_05_press_1_raw_act
 36 lines in following concentration table = NCONC+1
    Conc.  %SD /Cr+PCr  Metabolite                                         
 1.82E+03  19%  14.247 Ala                                                 
   16.188  95%   0.127 Asp                                                 
  127.922  35%   1.000 Cr                                                  
    0.000 999%   0.000 PCr                                                 
   10.375  89% 8.1E-02 GABA                                                
   12.052  77% 9.4E-02 Glc                                                 
  218.023 167%   1.704 Gln                                                 
 1.24E+03  36%   9.700 Glu                                                 
   36.165 213%   0.283 GPC                                                 
   14.138 535%   0.111 PCh                                                 
    0.000 999%   0.000 GSH                                                 
  397.052  46%   3.104 Ins                                                 
 2.29E+03  17%  17.895 Lac                                                 
    5.873 999% 4.6E-02 NAA                                                 
   60.870 169%   0.476 NAAG                                                
    4.832  63% 3.8E-02 Scyllo                                              
   22.950  66%   0.179 Tau                                                 
    1.108 999% 8.7E-03 -CrCH2                                              
   50.303  30%   0.393 GPC+PCh                                             
   66.742  67%   0.522 NAA+NAAG                                            
  127.922  35%   1.000 Cr+PCr                                              
 1.46E+03  41%  11.404 Glu+Gln                                             
    0.000 999%   0.000 Lip13a                                              
  151.903  84%   1.187 Lip13b                                              
   41.790  94%   0.327 Lip09                                               
   81.643  58%   0.638 MM09                                                
   18.846 130%   0.147 Lip20                                               
    0.000 999%   0.000 MM20                                                
   10.826 267% 8.5E-02 MM12                                                
  503.725  20%   3.938+MM14                                                
   58.129 115%   0.454 MM17                                                
  151.903  84%   1.187 Lip13a+Lip13b                                       
  666.453  25%   5.210 MM14+Lip13a+Lip13b+MM12                             
  123.433  44%   0.965 MM09+Lip09                                          
   18.846 130%   0.147 MM20+Lip20                                          
   6 lines in following misc. output table
  FWHM = 0.168 ppm    S/N =   3                                            
  Data shift = 0.122 ppm                                                   
  Ph:-108 deg     -68.8 deg/ppm                                            
  alphaB,S = 4.3E+01,   2.3E+02                                            
    6 spline knots.   Ns = 9(2)                                            
  (12) 2 infls.   ( 5) 1 extrs.                                            
  498 points on ppm-axis = NY
      4.000000     3.992357     3.984714     3.977070     3.969427     3.961784     3.954141     3.946497     3.938854     3.931211
      3.923568     3.915925     3.908281     3.900638     3.892995     3.885352     3.877708     3.870065     3.862422     3.854779
      3.847136     3.839492     3.831849     3.824206     3.816563     3.808919     3.801276     3.793633     3.785990     3.778347
      3.770703     3.763060     3.755417     3.747774     3.740130     3.732487     3.724844     3.717201     3.709558     3.701914
      3.694271     3.686628     3.678985     3.671341     3.663698     3.656055     3.648412     3.640769     3.633125     3.625482
      3.617839     3.610196     3.602552     3.594909     3.587266     3.579623     3.571980     3.564336     3.556693     3.549050
      3.541407     3.533763     3.526120     3.518477     3.510834     3.503191     3.495547     3.487904     3.480261     3.472618
      3.464974     3.457331     3.449688     3.442045     3.434402     3.426758     3.419115     3.411472     3.403829     3.396185
      3.388542     3.380899     3.373256     3.365613     3.357969     3.350326     3.342683     3.335040     3.327396     3.319753
      3.312110     3.304467     3.296824     3.289180     3.281537     3.273894     3.266251     3.258607     3.250964     3.243321
      3.235678     3.228034     3.220391     3.212748     3.205105     3.197462     3.189818     3.182175     3.174532     3.166889
      3.159245     3.151602     3.143959     3.136316     3.128673     3.121029     3.113386     3.105743     3.098100     3.090456
      3.082813     3.075170     3.067527     3.059884     3.052240     3.044597     3.036954     3.029311     3.021667     3.014024
      3.006381     2.998738     2.991095     2.983451     2.975808     2.968165     2.960522     2.952878     2.945235     2.937592
      2.929949     2.922306     2.914662     2.907019     2.899376     2.891733     2.884089     2.876446     2.868803     2.861160
      2.853517     2.845873     2.838230     2.830587     2.822944     2.815300     2.807657     2.800014     2.792371     2.784728
      2.777084     2.769441     2.761798     2.754155     2.746511     2.738868     2.731225     2.723582     2.715939     2.708295
      2.700652     2.693009     2.685366     2.677722     2.670079     2.662436     2.654793     2.647150     2.639506     2.631863
      2.624220     2.616577     2.608933     2.601290     2.593647     2.586004     2.578361     2.570717     2.563074     2.555431
      2.547788     2.540144     2.532501     2.524858     2.517215     2.509572     2.501928     2.494285     2.486642     2.478999
      2.471355     2.463712     2.456069     2.448426     2.440783     2.433139     2.425496     2.417853     2.410210     2.402566
      2.394923     2.387280     2.379637     2.371994     2.364350     2.356707     2.349064     2.341421     2.333777     2.326134
      2.318491     2.310848     2.303205     2.295561     2.287918     2.280275     2.272632     2.264988     2.257345     2.249702
      2.242059     2.234416     2.226772     2.219129     2.211486     2.203843     2.196199     2.188556     2.180913     2.173270
      2.165627     2.157983     2.150340     2.142697     2.135054     2.127410     2.119767     2.112124     2.104481     2.096838
      2.089194     2.081551     2.073908     2.066265     2.058621     2.050978     2.043335     2.035692     2.028049     2.020405
      2.012762     2.005119     1.997476     1.989833     1.982190     1.974546     1.966903     1.959260     1.951617     1.943974
      1.936331     1.928688     1.921045     1.913402     1.905759     1.898115     1.890472     1.882829     1.875186     1.867543
      1.859900     1.852257     1.844614     1.836971     1.829327     1.821684     1.814041     1.806398     1.798755     1.791112
      1.783469     1.775826     1.768183     1.760540     1.752896     1.745253     1.737610     1.729967     1.722324     1.714681
      1.707038     1.699395     1.691752     1.684108     1.676465     1.668822     1.661179     1.653536     1.645893     1.638250
      1.630607     1.622964     1.615321     1.607677     1.600034     1.592391     1.584748     1.577105     1.569462     1.561819
      1.554176     1.546533     1.538890     1.531246     1.523603     1.515960     1.508317     1.500674     1.493031     1.485388
      1.477745     1.470102     1.462458     1.454815     1.447172     1.439529     1.431886     1.424243     1.416600     1.408957
      1.401314     1.393671     1.386027     1.378384     1.370741     1.363098     1.355455     1.347812     1.340169     1.332526
      1.324883     1.317240     1.309596     1.301953     1.294310     1.286667     1.279024     1.271381     1.263738     1.256095
      1.248452     1.240808     1.233165     1.225522     1.217879     1.210236     1.202593     1.194950     1.187307     1.179664
      1.172021     1.164377     1.156734     1.149091     1.141448     1.133805     1.126162     1.118519     1.110876     1.103233
      1.095590     1.087946     1.080303     1.072660     1.065017     1.057374     1.049731     1.042088     1.034445     1.026802
      1.019158     1.011515     1.003872     0.996229     0.988586     0.980943     0.973300     0.965657     0.958014     0.950371
      0.942727     0.935084     0.927441     0.919798     0.912155     0.904512     0.896869     0.889226     0.881583     0.873940
      0.866296     0.858653     0.851010     0.843367     0.835724     0.828081     0.820438     0.812795     0.805152     0.797508
      0.789865     0.782222     0.774579     0.766936     0.759293     0.751650     0.744007     0.736364     0.728721     0.721077
      0.713434     0.705791     0.698148     0.690505     0.682862     0.675219     0.667576     0.659933     0.652290     0.644646
      0.637003     0.629360     0.621717     0.614074     0.606431     0.598788     0.591145     0.583502     0.575858     0.568215
      0.560572     0.552929     0.545286     0.537643     0.530000     0.522357     0.514714     0.507071     0.499427     0.491784
      0.484141     0.476498     0.468855     0.461212     0.453569     0.445925     0.438282     0.430639     0.422996     0.415353
      0.407710     0.400067     0.392424     0.384780     0.377137     0.369494     0.361851     0.354208     0.346565     0.338922
      0.331278     0.323635     0.315992     0.308349     0.300706     0.293063     0.285420     0.277777     0.270133     0.262490
      0.254847     0.247204     0.239561     0.231918     0.224275     0.216631     0.208988     0.201345
 NY phased data points follow
  -4.33353E+00 -2.05853E+00 -5.91298E+00  2.14612E-01 -1.34972E+00 -1.59468E+00 -1.55040E+00 -1.26434E+00 -1.48615E+00 -1.75302E+00
  -1.71006E+00 -6.70392E-01  3.68632E-01 -1.11154E+00 -5.08584E-02  4.56749E-01  1.81712E+00 -3.53064E-01 -2.27966E+00 -1.67689E+00
   1.57954E+00 -1.19908E+00 -1.39928E+00 -3.19529E+00  1.59355E-01  1.69857E+00 -4.41830E-01  1.30630E+00  8.23637E-01 -2.68750E-01
   1.88012E+00 -3.78331E-01  2.70724E+00 -8.77808E-02 -7.94062E-01 -3.11912E+00 -6.90050E-01  1.30776E+00 -6.29328E-01 -3.17262E-01
  -1.35372E-02  5.64213E-01  4.14931E-01 -9.61453E-01 -5.56149E-01 -1.10347E+00 -1.63419E+00 -6.92709E-01 -1.05294E-01 -2.76782E-01
  -2.54672E+00 -2.25428E+00  3.48741E+00  1.41867E+00  4.74086E-01 -8.27663E-01  8.03322E-01 -5.01856E-01  3.90671E-01 -4.10293E-01
  -7.28244E-01  7.65597E-01 -6.53182E-01  2.07696E-01  1.29990E+00  2.40790E+00  4.53264E-01  1.42349E+00  5.26034E-01 -2.57628E+00
   7.36494E-01  3.23648E+00  1.41800E+00 -8.98406E-01  3.49737E-01  9.06268E-01  9.30723E-02  2.70838E-01  2.47329E+00  7.59994E-01
   1.59331E+00  1.77681E+00  1.75844E-01 -1.24310E-01  1.59998E+00  3.28272E-01  2.54441E+00  3.47495E+00  4.96598E+00  3.52557E+00
   4.17658E+00  2.23056E-01  1.87990E+00  4.11682E-02  5.60021E-01 -2.28824E-01  3.40189E-01  1.69968E+00 -7.48925E-02  3.36674E-01
   4.18148E-01  4.13135E-01 -1.86075E-02  1.43007E+00  2.68042E+00  7.17696E-01 -2.45146E-02  5.26337E-02  9.04212E-01  2.98705E+00
   1.76870E+00  5.52535E+00  2.99462E+00  3.08929E+00  4.17093E+00  4.11156E+00  1.32666E+00  1.36854E+00  2.74774E+00  1.08582E+00
   1.74526E+00  1.24614E+00 -9.35307E-01  7.16285E-01  1.95351E+00  6.21960E-01  1.94514E+00  3.86508E+00  4.40953E+00  2.87184E+00
   1.91862E+00  4.32478E+00  1.76465E+00  3.64301E-01  1.43670E+00  8.60511E-01  2.35716E+00  3.20949E+00  1.51855E+00  1.20852E+00
   3.21453E+00  9.75486E-01  6.53389E-01  9.46467E-01  1.44134E+00  1.36949E+00  2.50688E+00  2.19928E+00  5.35947E-01  2.69619E+00
   2.59727E+00  4.87872E+00  2.00859E+00  4.63075E+00  1.46279E+00  1.24419E-01  5.64574E-01  1.01024E+00  2.20632E+00  2.77332E+00
   2.85011E+00  2.85264E-01 -5.89445E-01  4.87454E-01  7.30427E-01  9.79773E-01  3.15827E+00  1.19743E+00  4.78993E-01  5.05431E+00
   1.39809E+00  3.95561E+00  1.80289E+00  1.55667E+00  8.33708E-01  3.57588E+00  3.31002E-01  5.93360E-01  4.38931E+00  3.18813E+00
   2.57183E+00  9.75130E-01  3.67862E+00  3.10674E+00  6.43589E-01  1.71713E+00  3.12493E+00  2.53044E+00  4.04488E+00  1.89355E+00
   2.81145E-01  3.48380E+00  2.04459E+00  3.76535E+00  2.47835E+00  1.70801E+00  1.08069E+00  4.31862E-01  2.21750E+00  2.14298E+00
   2.37978E+00  4.56468E+00  2.42650E+00  5.80406E-01  5.18717E-01  2.72021E+00  3.84837E+00  1.88794E+00  8.12494E-01  2.04754E+00
  -1.18555E-01  2.11296E+00  3.17578E+00  1.86054E+00  3.23858E+00 -4.59685E-01  1.11055E+00  1.83930E+00  1.87393E+00  1.57333E-01
   4.10964E+00 -1.30859E-01  1.05640E+00  2.62438E-01  3.94286E+00  3.59095E+00  2.31144E+00  4.42438E+00  2.51165E-01  3.84037E+00
   2.83001E+00  1.55252E+00 -4.63768E-01  3.81224E+00  8.87416E-01  2.82021E+00  2.79660E+00  3.91155E+00  3.32521E+00  2.71509E+00
   1.74437E+00  7.00888E-01  1.63599E+00  6.46487E+00  3.16533E+00  3.93548E+00  5.54818E+00  7.72280E+00  4.70088E+00  6.84472E+00
   4.56986E+00  4.75327E+00  5.74217E+00  3.80442E+00  4.73327E+00  4.19354E+00  6.91657E+00  5.88261E+00  5.52915E+00  7.62081E+00
   7.77394E+00  5.86883E+00  8.17885E+00  3.49236E+00  6.60391E+00  4.09233E+00  4.75807E+00  5.52643E+00  5.39680E+00  4.40021E+00
   5.20388E+00  4.25505E+00  6.62984E+00  4.12768E+00  6.95549E+00  6.75613E+00  5.43524E+00  6.27850E+00  5.27782E+00  7.87425E+00
   6.67080E+00  6.76920E+00  4.28850E+00  6.00076E+00  6.55164E+00  4.63563E+00  8.96747E+00  6.68674E+00  6.38320E+00  7.78025E+00
   8.51638E+00  5.18837E+00  7.14191E+00  7.63215E+00  8.52884E+00  6.81559E+00  9.29260E+00  6.20150E+00  6.59836E+00  7.69824E+00
   6.62880E+00  6.85593E+00  8.89125E+00  7.87935E+00  1.15660E+01  1.18915E+01  8.42163E+00  9.67035E+00  8.62747E+00  1.07798E+01
   8.75328E+00  1.01484E+01  8.38351E+00  8.82549E+00  9.52706E+00  1.09523E+01  1.13488E+01  1.05096E+01  1.07789E+01  1.10819E+01
   1.19024E+01  1.32495E+01  1.35467E+01  1.15998E+01  1.26760E+01  1.23014E+01  1.67733E+01  1.63172E+01  1.65404E+01  1.57445E+01
   1.50118E+01  1.44691E+01  1.74646E+01  1.78122E+01  1.44112E+01  1.72990E+01  1.45337E+01  1.76143E+01  1.68092E+01  1.63292E+01
   1.68418E+01  1.51490E+01  1.29260E+01  1.33262E+01  1.38525E+01  1.49232E+01  1.36930E+01  1.11578E+01  1.19300E+01  1.20647E+01
   1.10322E+01  9.66758E+00  1.21997E+01  1.15258E+01  1.15579E+01  1.11585E+01  8.22125E+00  9.35781E+00  8.20411E+00  8.13302E+00
   7.86399E+00  5.04796E+00  6.59180E+00  5.42909E+00  5.53161E+00  5.48007E+00  6.03088E+00  3.14949E+00  3.77714E+00  3.21293E+00
   6.54511E+00  5.03349E+00  3.92891E+00  3.61050E+00  4.99146E+00  2.79006E+00  3.35031E+00  4.52956E+00  3.29420E+00  5.99788E+00
   4.73996E+00  4.60617E+00  3.26943E+00  2.91791E+00  1.62843E+00  3.28553E+00  2.58718E+00  6.73295E+00  3.04480E+00  5.99737E+00
   2.40728E+00  3.61396E+00  5.67216E+00  4.95948E+00  2.16265E+00  6.05371E+00  3.33582E+00  5.55591E+00  5.49383E+00  7.62578E+00
   7.21891E+00  3.70651E+00  5.41889E+00  2.08525E+00  2.83240E+00  3.50478E+00  5.31454E+00  3.16363E+00  3.83433E+00  5.26456E+00
   4.72411E+00  1.67358E+00  6.32542E+00  3.80749E+00  3.02042E+00  6.45431E+00  4.37788E+00  4.82832E+00  2.34902E+00  5.62564E+00
   3.68425E+00  5.46948E+00  5.18876E+00  4.57215E+00  6.87382E+00  5.73627E+00  4.90334E+00  3.46420E+00  4.74414E+00  4.17877E+00
   3.79580E+00  4.46065E+00  2.97046E+00  1.40579E+00  3.06666E+00  5.96979E+00  4.07576E+00  2.64147E+00  2.52745E+00  3.89543E+00
   2.31563E+00  3.40283E+00  6.22412E+00  3.45194E+00  3.50205E+00  5.63934E+00  3.43587E+00  3.61706E+00  5.64848E+00  3.04309E+00
   4.03215E+00  4.83720E+00  4.18181E+00  5.61620E+00  2.88987E+00  3.67551E+00  4.63935E+00  3.45586E+00  1.62526E-01  1.59475E+00
   1.73646E+00  2.08198E+00  3.66368E+00  5.06345E+00  3.27480E+00  2.40220E+00  2.96418E+00  3.22111E+00  3.70918E+00  2.38367E+00
   2.78336E+00  3.88963E+00  2.71609E+00  2.60000E+00  3.32735E+00  3.09518E+00  5.41160E+00  3.83131E+00  2.33743E+00  3.25750E+00
   8.60800E-01  1.75304E+00  2.59107E+00  4.11775E+00  5.07300E+00  4.02291E+00  2.05530E+00  2.50190E+00  3.44724E+00  2.76507E+00
   1.58828E+00  3.38291E+00  3.93779E+00  2.93724E+00  2.57061E+00  3.30481E+00  2.97741E+00  3.90348E+00
 NY points of the fit to the data follow
  -1.46347E+00 -1.85944E+00 -1.47656E+00 -1.80526E+00 -1.46898E+00 -1.62214E+00 -1.23138E+00 -1.22965E+00 -7.49540E-01 -8.07462E-01
  -3.99583E-01 -6.08574E-01 -3.91891E-01 -7.22915E-01 -5.12387E-01 -8.84202E-01 -4.56831E-01 -8.79258E-01 -3.11825E-01 -7.90444E-01
  -2.00527E-01 -7.57551E-01 -4.07820E-02 -7.12437E-01  1.08086E-01 -6.97613E-01  1.25519E-01 -8.30505E-01 -2.72068E-02 -1.05028E+00
  -1.51077E-01 -1.12137E+00 -1.17403E-01 -9.84940E-01  8.44499E-02 -7.40777E-01  2.71010E-01 -5.27770E-01  3.77642E-01 -3.72566E-01
   3.90106E-01 -3.07897E-01  3.80589E-01 -2.02481E-01  4.12935E-01 -4.04133E-02  5.01020E-01  2.50059E-01  7.47080E-01  5.17684E-01
   8.54153E-01  6.27148E-01  8.03219E-01  5.70182E-01  6.26659E-01  4.55235E-01  5.71642E-01  4.72574E-01  5.96811E-01  5.22402E-01
   6.11985E-01  5.62837E-01  6.44845E-01  5.68281E-01  6.28697E-01  5.45905E-01  5.94621E-01  5.10446E-01  5.61520E-01  4.93462E-01
   5.69255E-01  5.13882E-01  5.78621E-01  5.13196E-01  5.59504E-01  4.84584E-01  5.11979E-01  4.26622E-01  4.35426E-01  3.48545E-01
   3.29815E-01  2.42218E-01  2.04615E-01  1.13684E-01  7.45229E-02  9.40653E-02  9.00042E-02  1.50232E-01  1.47177E-01  2.26101E-01
   2.24167E-01  3.39496E-01  3.51742E-01  5.09714E-01  5.40859E-01  7.10651E-01  7.37625E-01  9.10391E-01  9.33356E-01  1.10937E+00
   1.13209E+00  1.30696E+00  1.32646E+00  1.47144E+00  1.47373E+00  1.55929E+00  1.52679E+00  1.54183E+00  1.49835E+00  1.57910E+00
   1.55058E+00  1.64356E+00  1.61265E+00  1.70007E+00  1.66345E+00  1.75709E+00  1.72141E+00  1.83736E+00  1.80313E+00  1.91675E+00
   1.87016E+00  1.98183E+00  1.92194E+00  2.03160E+00  1.97687E+00  2.16158E+00  2.12226E+00  2.29522E+00  2.24051E+00  2.36530E+00
   2.28659E+00  2.35212E+00  2.25605E+00  2.28600E+00  2.18697E+00  2.19798E+00  2.10114E+00  2.08982E+00  1.99642E+00  1.96255E+00
   1.87622E+00  1.82839E+00  1.74968E+00  1.68847E+00  1.61940E+00  1.54907E+00  1.48963E+00  1.41018E+00  1.37677E+00  1.36551E+00
   1.35586E+00  1.35558E+00  1.35085E+00  1.35625E+00  1.35594E+00  1.36542E+00  1.36813E+00  1.37973E+00  1.38286E+00  1.39653E+00
   1.39993E+00  1.41574E+00  1.42022E+00  1.43719E+00  1.44166E+00  1.45854E+00  1.46663E+00  1.48617E+00  1.49787E+00  1.51951E+00
   1.53494E+00  1.55796E+00  1.57750E+00  1.60235E+00  1.62753E+00  1.65238E+00  1.67468E+00  1.69914E+00  1.71390E+00  1.73773E+00
   1.75174E+00  1.77859E+00  1.79512E+00  1.83744E+00  1.86711E+00  1.92807E+00  1.96929E+00  2.06369E+00  2.11063E+00  2.19118E+00
   2.24939E+00  2.25822E+00  2.26768E+00  2.24658E+00  2.25567E+00  2.24823E+00  2.32459E+00  2.41934E+00  2.64200E+00  2.67400E+00
   2.95577E+00  2.88717E+00  3.18596E+00  2.94215E+00  3.15935E+00  2.79606E+00  3.09406E+00  2.64608E+00  3.00873E+00  2.53272E+00
   2.94518E+00  2.47695E+00  2.93489E+00  2.47390E+00  2.98923E+00  2.49868E+00  2.99507E+00  2.45813E+00  2.87489E+00  2.35238E+00
   2.72393E+00  2.31227E+00  2.68186E+00  2.44557E+00  2.79137E+00  2.68546E+00  3.01058E+00  3.00748E+00  3.22773E+00  3.27393E+00
   3.39778E+00  3.43009E+00  3.42551E+00  3.49282E+00  3.45186E+00  3.61045E+00  3.56677E+00  3.88381E+00  3.90421E+00  4.17952E+00
   4.15815E+00  4.39251E+00  4.36224E+00  4.52230E+00  4.44381E+00  4.59461E+00  4.58952E+00  4.70430E+00  4.75197E+00  4.85168E+00
   4.95138E+00  5.03502E+00  5.16989E+00  5.20644E+00  5.37173E+00  5.36450E+00  5.54799E+00  5.49219E+00  5.67437E+00  5.58839E+00
   5.77556E+00  5.66634E+00  5.84619E+00  5.72152E+00  5.86585E+00  5.72356E+00  5.86408E+00  5.72909E+00  5.84670E+00  5.73907E+00
   5.84329E+00  5.74633E+00  5.81902E+00  5.73814E+00  5.80687E+00  5.75855E+00  5.81872E+00  5.81237E+00  5.88505E+00  5.87862E+00
   5.93160E+00  5.94843E+00  6.00849E+00  6.05152E+00  6.11249E+00  6.18232E+00  6.24323E+00  6.31529E+00  6.38491E+00  6.46337E+00
   6.53877E+00  6.62274E+00  6.70451E+00  6.79215E+00  6.88544E+00  6.98886E+00  7.09893E+00  7.21635E+00  7.34241E+00  7.47567E+00
   7.62159E+00  7.77595E+00  7.94771E+00  8.13758E+00  8.35579E+00  8.60966E+00  8.91848E+00  9.31380E+00  9.87451E+00  1.06044E+01
   1.07564E+01  1.12102E+01  1.10560E+01  1.13117E+01  1.09574E+01  1.10737E+01  1.04940E+01  1.10851E+01  1.07435E+01  1.13660E+01
   1.11832E+01  1.17768E+01  1.16930E+01  1.23298E+01  1.23701E+01  1.30775E+01  1.32729E+01  1.38976E+01  1.43922E+01  1.52378E+01
   1.54654E+01  1.57302E+01  1.59537E+01  1.58652E+01  1.61355E+01  1.56310E+01  1.58160E+01  1.56296E+01  1.57535E+01  1.52407E+01
   1.51854E+01  1.45268E+01  1.43463E+01  1.38162E+01  1.36165E+01  1.32975E+01  1.30356E+01  1.26637E+01  1.24594E+01  1.22317E+01
   1.17633E+01  1.15431E+01  1.10825E+01  1.11025E+01  1.05326E+01  1.04745E+01  9.63787E+00  9.65672E+00  8.83775E+00  8.59229E+00
   7.79777E+00  7.53558E+00  6.89508E+00  6.75398E+00  6.33104E+00  6.28044E+00  6.04511E+00  6.04388E+00  6.08061E+00  6.25984E+00
   5.99174E+00  5.77451E+00  5.41762E+00  4.99459E+00  4.62012E+00  4.02175E+00  3.78937E+00  3.69744E+00  3.65841E+00  3.64703E+00
   3.65257E+00  3.66949E+00  3.69459E+00  3.72592E+00  3.76217E+00  3.80239E+00  3.84583E+00  3.89184E+00  3.93985E+00  3.98932E+00
   4.03966E+00  4.09019E+00  4.14013E+00  4.18864E+00  4.23486E+00  4.27787E+00  4.31670E+00  4.35038E+00  4.37799E+00  4.39871E+00
   4.41188E+00  4.41701E+00  4.41381E+00  4.40222E+00  4.38242E+00  4.35487E+00  4.32027E+00  4.27951E+00  4.23366E+00  4.18387E+00
   4.13139E+00  4.07747E+00  4.02335E+00  3.97012E+00  3.91880E+00  3.87017E+00  3.82492E+00  3.78350E+00  3.74625E+00  3.71327E+00
   3.68454E+00  3.65990E+00  3.63914E+00  3.62195E+00  3.60799E+00  3.59685E+00  3.58817E+00  3.58153E+00  3.57663E+00  3.57311E+00
   3.57071E+00  3.56913E+00  3.56817E+00  3.56761E+00  3.56733E+00  3.56717E+00  3.56705E+00  3.56684E+00  3.56650E+00  3.56595E+00
   3.56519E+00  3.56415E+00  3.56282E+00  3.56117E+00  3.55919E+00  3.55687E+00  3.55423E+00  3.55123E+00  3.54790E+00  3.54420E+00
   3.54017E+00  3.53579E+00  3.53109E+00  3.52605E+00  3.52068E+00  3.51497E+00  3.50895E+00  3.50261E+00  3.49598E+00  3.48903E+00
   3.48180E+00  3.47426E+00  3.46645E+00  3.45836E+00  3.45002E+00  3.44140E+00  3.43254E+00  3.42342E+00  3.41409E+00  3.40452E+00
   3.39475E+00  3.38475E+00  3.37457E+00  3.36420E+00  3.35368E+00  3.34299E+00  3.33218E+00  3.32122E+00  3.31017E+00  3.29902E+00
   3.28782E+00  3.27657E+00  3.26531E+00  3.25405E+00  3.24285E+00  3.23172E+00  3.22074E+00  3.20992E+00  3.19933E+00  3.18903E+00
   3.17912E+00  3.16966E+00  3.16078E+00  3.15259E+00  3.14527E+00  3.13901E+00  3.13409E+00  3.13082E+00
 NY background values follow
    -8.643E-01   -8.600E-01   -8.555E-01   -8.509E-01   -8.460E-01   -8.410E-01   -8.358E-01   -8.304E-01   -8.248E-01   -8.191E-01
    -8.132E-01   -8.071E-01   -8.008E-01   -7.943E-01   -7.877E-01   -7.809E-01   -7.739E-01   -7.667E-01   -7.594E-01   -7.518E-01
    -7.442E-01   -7.363E-01   -7.283E-01   -7.200E-01   -7.117E-01   -7.031E-01   -6.944E-01   -6.855E-01   -6.765E-01   -6.672E-01
    -6.578E-01   -6.483E-01   -6.386E-01   -6.287E-01   -6.186E-01   -6.084E-01   -5.980E-01   -5.875E-01   -5.768E-01   -5.659E-01
    -5.549E-01   -5.437E-01   -5.323E-01   -5.208E-01   -5.092E-01   -4.974E-01   -4.854E-01   -4.733E-01   -4.610E-01   -4.486E-01
    -4.360E-01   -4.233E-01   -4.104E-01   -3.973E-01   -3.842E-01   -3.708E-01   -3.574E-01   -3.437E-01   -3.300E-01   -3.160E-01
    -3.020E-01   -2.878E-01   -2.734E-01   -2.589E-01   -2.443E-01   -2.296E-01   -2.146E-01   -1.996E-01   -1.844E-01   -1.691E-01
    -1.537E-01   -1.381E-01   -1.223E-01   -1.065E-01   -9.051E-02   -7.440E-02   -5.816E-02   -4.178E-02   -2.528E-02   -8.656E-03
     8.096E-03    2.497E-02    4.198E-02    5.910E-02    7.635E-02    9.372E-02    1.112E-01    1.288E-01    1.465E-01    1.644E-01
     1.823E-01    2.004E-01    2.186E-01    2.369E-01    2.553E-01    2.738E-01    2.925E-01    3.112E-01    3.301E-01    3.490E-01
     3.681E-01    3.873E-01    4.065E-01    4.259E-01    4.454E-01    4.650E-01    4.846E-01    5.044E-01    5.243E-01    5.443E-01
     5.643E-01    5.845E-01    6.047E-01    6.251E-01    6.455E-01    6.660E-01    6.867E-01    7.074E-01    7.281E-01    7.490E-01
     7.700E-01    7.910E-01    8.121E-01    8.334E-01    8.546E-01    8.760E-01    8.974E-01    9.190E-01    9.405E-01    9.622E-01
     9.840E-01    1.006E+00    1.028E+00    1.050E+00    1.072E+00    1.094E+00    1.116E+00    1.138E+00    1.160E+00    1.183E+00
     1.205E+00    1.228E+00    1.250E+00    1.273E+00    1.295E+00    1.318E+00    1.341E+00    1.364E+00    1.386E+00    1.409E+00
     1.432E+00    1.455E+00    1.478E+00    1.501E+00    1.525E+00    1.548E+00    1.571E+00    1.594E+00    1.618E+00    1.641E+00
     1.664E+00    1.688E+00    1.711E+00    1.735E+00    1.758E+00    1.782E+00    1.805E+00    1.829E+00    1.853E+00    1.876E+00
     1.900E+00    1.924E+00    1.947E+00    1.971E+00    1.995E+00    2.019E+00    2.042E+00    2.066E+00    2.090E+00    2.114E+00
     2.138E+00    2.162E+00    2.186E+00    2.210E+00    2.233E+00    2.257E+00    2.281E+00    2.305E+00    2.329E+00    2.353E+00
     2.377E+00    2.401E+00    2.425E+00    2.449E+00    2.473E+00    2.496E+00    2.520E+00    2.544E+00    2.568E+00    2.592E+00
     2.616E+00    2.640E+00    2.663E+00    2.687E+00    2.711E+00    2.735E+00    2.759E+00    2.782E+00    2.806E+00    2.830E+00
     2.853E+00    2.877E+00    2.900E+00    2.924E+00    2.947E+00    2.971E+00    2.994E+00    3.018E+00    3.041E+00    3.065E+00
     3.088E+00    3.111E+00    3.134E+00    3.157E+00    3.181E+00    3.204E+00    3.227E+00    3.250E+00    3.273E+00    3.296E+00
     3.318E+00    3.341E+00    3.364E+00    3.387E+00    3.409E+00    3.432E+00    3.454E+00    3.477E+00    3.499E+00    3.521E+00
     3.544E+00    3.566E+00    3.588E+00    3.610E+00    3.632E+00    3.654E+00    3.676E+00    3.697E+00    3.719E+00    3.741E+00
     3.762E+00    3.784E+00    3.805E+00    3.826E+00    3.847E+00    3.868E+00    3.889E+00    3.910E+00    3.931E+00    3.952E+00
     3.973E+00    3.993E+00    4.014E+00    4.034E+00    4.054E+00    4.075E+00    4.095E+00    4.115E+00    4.135E+00    4.154E+00
     4.174E+00    4.194E+00    4.213E+00    4.232E+00    4.252E+00    4.271E+00    4.290E+00    4.309E+00    4.328E+00    4.346E+00
     4.365E+00    4.383E+00    4.402E+00    4.420E+00    4.438E+00    4.456E+00    4.474E+00    4.492E+00    4.509E+00    4.527E+00
     4.544E+00    4.562E+00    4.579E+00    4.596E+00    4.612E+00    4.629E+00    4.646E+00    4.662E+00    4.679E+00    4.695E+00
     4.711E+00    4.727E+00    4.742E+00    4.758E+00    4.773E+00    4.789E+00    4.804E+00    4.819E+00    4.834E+00    4.849E+00
     4.863E+00    4.878E+00    4.892E+00    4.906E+00    4.920E+00    4.934E+00    4.947E+00    4.961E+00    4.974E+00    4.987E+00
     5.000E+00    5.013E+00    5.026E+00    5.039E+00    5.051E+00    5.063E+00    5.075E+00    5.087E+00    5.099E+00    5.110E+00
     5.122E+00    5.133E+00    5.144E+00    5.155E+00    5.165E+00    5.176E+00    5.186E+00    5.196E+00    5.206E+00    5.216E+00
     5.225E+00    5.235E+00    5.244E+00    5.253E+00    5.262E+00    5.271E+00    5.279E+00    5.287E+00    5.295E+00    5.303E+00
     5.311E+00    5.319E+00    5.326E+00    5.333E+00    5.340E+00    5.347E+00    5.353E+00    5.360E+00    5.366E+00    5.372E+00
     5.377E+00    5.383E+00    5.388E+00    5.393E+00    5.398E+00    5.403E+00    5.408E+00    5.412E+00    5.416E+00    5.420E+00
     5.424E+00    5.427E+00    5.430E+00    5.434E+00    5.436E+00    5.439E+00    5.441E+00    5.444E+00    5.446E+00    5.447E+00
     5.449E+00    5.450E+00    5.451E+00    5.452E+00    5.453E+00    5.454E+00    5.454E+00    5.454E+00    5.454E+00    5.453E+00
     5.453E+00    5.452E+00    5.451E+00    5.449E+00    5.448E+00    5.446E+00    5.444E+00    5.442E+00    5.439E+00    5.437E+00
     5.434E+00    5.431E+00    5.427E+00    5.424E+00    5.420E+00    5.416E+00    5.411E+00    5.407E+00    5.402E+00    5.397E+00
     5.392E+00    5.386E+00    5.380E+00    5.375E+00    5.368E+00    5.362E+00    5.355E+00    5.348E+00    5.341E+00    5.334E+00
     5.326E+00    5.318E+00    5.310E+00    5.302E+00    5.293E+00    5.284E+00    5.275E+00    5.266E+00    5.256E+00    5.246E+00
     5.236E+00    5.226E+00    5.215E+00    5.204E+00    5.193E+00    5.182E+00    5.170E+00    5.159E+00    5.147E+00    5.134E+00
     5.122E+00    5.109E+00    5.096E+00    5.082E+00    5.069E+00    5.055E+00    5.041E+00    5.027E+00    5.012E+00    4.997E+00
     4.982E+00    4.967E+00    4.951E+00    4.935E+00    4.919E+00    4.903E+00    4.886E+00    4.870E+00    4.852E+00    4.835E+00
     4.817E+00    4.800E+00    4.781E+00    4.763E+00    4.744E+00    4.726E+00    4.706E+00    4.687E+00    4.667E+00    4.647E+00
     4.627E+00    4.607E+00    4.586E+00    4.565E+00    4.544E+00    4.523E+00    4.501E+00    4.479E+00    4.457E+00    4.434E+00
     4.411E+00    4.388E+00    4.365E+00    4.342E+00    4.318E+00    4.294E+00    4.270E+00    4.245E+00    4.220E+00    4.195E+00
     4.170E+00    4.145E+00    4.119E+00    4.093E+00    4.066E+00    4.040E+00    4.013E+00    3.986E+00
 Ala      Conc. = 1.82E+03
