 LCModel (Version 6.3-1L) Copyright: S.W. Provencher.          Ref.: Magn. Reson. Med. 30:672-679 (1993).                
 Slice#1 Row#4 Col#5  PD_05_press_1_raw_act
 36 lines in following concentration table = NCONC+1
    Conc.  %SD /Cr+PCr  Metabolite                                         
   22.604 589% 2.7E-02 Ala                                                 
    0.000 999%   0.000 Asp                                                 
  280.863  85%   0.341 Cr                                                  
  543.312  45%   0.659 PCr                                                 
    6.505 999% 7.9E-03 GABA                                                
  153.180  78%   0.186 Glc                                                 
  897.302  31%   1.089 Gln                                                 
 1.13E+03  28%   1.368 Glu                                                 
  449.982   5%   0.546 GPC                                                 
    0.000 999%   0.000 PCh                                                 
  346.872  22%   0.421 GSH                                                 
 1.42E+03  19%   1.723 Ins                                                 
    4.661 999% 5.7E-03 Lac                                                 
 1.77E+03   4%   2.150 NAA                                                 
    0.000 999%   0.000 NAAG                                                
  127.450  20%   0.155 Scyllo                                              
  538.372  31%   0.653 Tau                                                 
  349.380  30%   0.424 -CrCH2                                              
  449.982   5%   0.546 GPC+PCh                                             
 1.77E+03   4%   2.150 NAA+NAAG                                            
  824.175   6%   1.000 Cr+PCr                                              
 2.02E+03  25%   2.457 Glu+Gln                                             
  787.811  79%   0.956 Lip13a                                              
   23.606 642% 2.9E-02 Lip13b                                              
  219.905  97%   0.267 Lip09                                               
 1.46E+03  19%   1.773 MM09                                                
  111.205 121%   0.135 Lip20                                               
 2.07E+03  18%   2.511 MM20                                                
  597.339  43%   0.725 MM12                                                
  811.104  40%   0.984 MM14                                                
  546.627  41%   0.663 MM17                                                
  811.417  64%   0.985 Lip13a+Lip13b                                       
 2.22E+03  20%   2.693 MM14+Lip13a+Lip13b+MM12                             
 1.68E+03  13%   2.039 MM09+Lip09                                          
 2.18E+03  17%   2.646 MM20+Lip20                                          
   6 lines in following misc. output table
  FWHM = 0.061 ppm    S/N =  10                                            
  Data shift =-0.008 ppm                                                   
  Ph: -71 deg     -21.0 deg/ppm                                            
  alphaB,S = 7.4E-01,   8.4E+01                                            
   14 spline knots.   Ns = 9(1)                                            
  (14) 7 infls.   ( 9) 1 extrs.                                            
  498 points on ppm-axis = NY
      4.000000     3.992357     3.984714     3.977070     3.969427     3.961784     3.954141     3.946497     3.938854     3.931211
      3.923568     3.915925     3.908281     3.900638     3.892995     3.885352     3.877708     3.870065     3.862422     3.854779
      3.847136     3.839492     3.831849     3.824206     3.816563     3.808919     3.801276     3.793633     3.785990     3.778347
      3.770703     3.763060     3.755417     3.747774     3.740130     3.732487     3.724844     3.717201     3.709558     3.701914
      3.694271     3.686628     3.678985     3.671341     3.663698     3.656055     3.648412     3.640769     3.633125     3.625482
      3.617839     3.610196     3.602552     3.594909     3.587266     3.579623     3.571980     3.564336     3.556693     3.549050
      3.541407     3.533763     3.526120     3.518477     3.510834     3.503191     3.495547     3.487904     3.480261     3.472618
      3.464974     3.457331     3.449688     3.442045     3.434402     3.426758     3.419115     3.411472     3.403829     3.396185
      3.388542     3.380899     3.373256     3.365613     3.357969     3.350326     3.342683     3.335040     3.327396     3.319753
      3.312110     3.304467     3.296824     3.289180     3.281537     3.273894     3.266251     3.258607     3.250964     3.243321
      3.235678     3.228034     3.220391     3.212748     3.205105     3.197462     3.189818     3.182175     3.174532     3.166889
      3.159245     3.151602     3.143959     3.136316     3.128673     3.121029     3.113386     3.105743     3.098100     3.090456
      3.082813     3.075170     3.067527     3.059884     3.052240     3.044597     3.036954     3.029311     3.021667     3.014024
      3.006381     2.998738     2.991095     2.983451     2.975808     2.968165     2.960522     2.952878     2.945235     2.937592
      2.929949     2.922306     2.914662     2.907019     2.899376     2.891733     2.884089     2.876446     2.868803     2.861160
      2.853517     2.845873     2.838230     2.830587     2.822944     2.815300     2.807657     2.800014     2.792371     2.784728
      2.777084     2.769441     2.761798     2.754155     2.746511     2.738868     2.731225     2.723582     2.715939     2.708295
      2.700652     2.693009     2.685366     2.677722     2.670079     2.662436     2.654793     2.647150     2.639506     2.631863
      2.624220     2.616577     2.608933     2.601290     2.593647     2.586004     2.578361     2.570717     2.563074     2.555431
      2.547788     2.540144     2.532501     2.524858     2.517215     2.509572     2.501928     2.494285     2.486642     2.478999
      2.471355     2.463712     2.456069     2.448426     2.440783     2.433139     2.425496     2.417853     2.410210     2.402566
      2.394923     2.387280     2.379637     2.371994     2.364350     2.356707     2.349064     2.341421     2.333777     2.326134
      2.318491     2.310848     2.303205     2.295561     2.287918     2.280275     2.272632     2.264988     2.257345     2.249702
      2.242059     2.234416     2.226772     2.219129     2.211486     2.203843     2.196199     2.188556     2.180913     2.173270
      2.165627     2.157983     2.150340     2.142697     2.135054     2.127410     2.119767     2.112124     2.104481     2.096838
      2.089194     2.081551     2.073908     2.066265     2.058621     2.050978     2.043335     2.035692     2.028049     2.020405
      2.012762     2.005119     1.997476     1.989833     1.982190     1.974546     1.966903     1.959260     1.951617     1.943974
      1.936331     1.928688     1.921045     1.913402     1.905759     1.898115     1.890472     1.882829     1.875186     1.867543
      1.859900     1.852257     1.844614     1.836971     1.829327     1.821684     1.814041     1.806398     1.798755     1.791112
      1.783469     1.775826     1.768183     1.760540     1.752896     1.745253     1.737610     1.729967     1.722324     1.714681
      1.707038     1.699395     1.691752     1.684108     1.676465     1.668822     1.661179     1.653536     1.645893     1.638250
      1.630607     1.622964     1.615321     1.607677     1.600034     1.592391     1.584748     1.577105     1.569462     1.561819
      1.554176     1.546533     1.538890     1.531246     1.523603     1.515960     1.508317     1.500674     1.493031     1.485388
      1.477745     1.470102     1.462458     1.454815     1.447172     1.439529     1.431886     1.424243     1.416600     1.408957
      1.401314     1.393671     1.386027     1.378384     1.370741     1.363098     1.355455     1.347812     1.340169     1.332526
      1.324883     1.317240     1.309596     1.301953     1.294310     1.286667     1.279024     1.271381     1.263738     1.256095
      1.248452     1.240808     1.233165     1.225522     1.217879     1.210236     1.202593     1.194950     1.187307     1.179664
      1.172021     1.164377     1.156734     1.149091     1.141448     1.133805     1.126162     1.118519     1.110876     1.103233
      1.095590     1.087946     1.080303     1.072660     1.065017     1.057374     1.049731     1.042088     1.034445     1.026802
      1.019158     1.011515     1.003872     0.996229     0.988586     0.980943     0.973300     0.965657     0.958014     0.950371
      0.942727     0.935084     0.927441     0.919798     0.912155     0.904512     0.896869     0.889226     0.881583     0.873940
      0.866296     0.858653     0.851010     0.843367     0.835724     0.828081     0.820438     0.812795     0.805152     0.797508
      0.789865     0.782222     0.774579     0.766936     0.759293     0.751650     0.744007     0.736364     0.728721     0.721077
      0.713434     0.705791     0.698148     0.690505     0.682862     0.675219     0.667576     0.659933     0.652290     0.644646
      0.637003     0.629360     0.621717     0.614074     0.606431     0.598788     0.591145     0.583502     0.575858     0.568215
      0.560572     0.552929     0.545286     0.537643     0.530000     0.522357     0.514714     0.507071     0.499427     0.491784
      0.484141     0.476498     0.468855     0.461212     0.453569     0.445925     0.438282     0.430639     0.422996     0.415353
      0.407710     0.400067     0.392424     0.384780     0.377137     0.369494     0.361851     0.354208     0.346565     0.338922
      0.331278     0.323635     0.315992     0.308349     0.300706     0.293063     0.285420     0.277777     0.270133     0.262490
      0.254847     0.247204     0.239561     0.231918     0.224275     0.216631     0.208988     0.201345
 NY phased data points follow
  -5.82151E+01 -5.76455E+01 -4.96439E+01 -5.41929E+01 -5.06078E+01 -4.37542E+01 -4.47584E+01 -4.24674E+01 -4.21923E+01 -3.76173E+01
  -4.14367E+01 -3.97095E+01 -3.60403E+01 -4.31573E+01 -4.57910E+01 -4.42304E+01 -5.03892E+01 -4.49394E+01 -4.50562E+01 -4.36883E+01
  -4.81732E+01 -4.38487E+01 -4.13428E+01 -4.10033E+01 -4.47821E+01 -3.76059E+01 -3.94869E+01 -3.92304E+01 -3.63075E+01 -3.81185E+01
  -4.07097E+01 -3.86035E+01 -3.58719E+01 -3.45908E+01 -3.87157E+01 -3.74954E+01 -3.53892E+01 -3.74717E+01 -3.42131E+01 -3.62746E+01
  -3.69263E+01 -3.42838E+01 -3.19590E+01 -3.25698E+01 -2.97494E+01 -3.24546E+01 -3.06897E+01 -3.03773E+01 -3.04973E+01 -2.97519E+01
  -3.30845E+01 -2.80784E+01 -3.15602E+01 -3.63199E+01 -3.33825E+01 -3.39927E+01 -3.49195E+01 -3.15278E+01 -3.10743E+01 -3.13209E+01
  -3.34146E+01 -3.08257E+01 -3.38471E+01 -3.48447E+01 -3.46559E+01 -3.23019E+01 -3.48172E+01 -3.10408E+01 -3.29249E+01 -2.88666E+01
  -2.79507E+01 -2.65957E+01 -2.95803E+01 -2.54180E+01 -2.48798E+01 -2.54079E+01 -2.90423E+01 -3.04024E+01 -2.97364E+01 -2.50705E+01
  -2.76117E+01 -1.95827E+01 -2.79568E+01 -2.25005E+01 -2.19882E+01 -2.84085E+01 -2.69611E+01 -2.23978E+01 -2.36181E+01 -2.27738E+01
  -2.61071E+01 -2.74013E+01 -1.91543E+01 -1.77193E+01 -1.65195E+01 -1.45448E+01 -1.48945E+01 -9.69093E+00 -3.56971E+00 -3.43435E-01
   1.55072E+00  9.43827E+00  5.72186E+00  3.71949E+00 -2.41386E+00 -2.01215E+00 -7.87483E+00 -1.36721E+01 -1.04002E+01 -1.52461E+01
  -1.96298E+01 -1.53709E+01 -2.32325E+01 -1.91296E+01 -1.89178E+01 -2.08829E+01 -2.11832E+01 -1.59580E+01 -1.95790E+01 -1.61442E+01
  -1.59737E+01 -1.38005E+01 -1.42110E+01 -9.87919E+00 -6.34557E+00 -1.49693E+00  2.09402E+00  2.03284E+00 -9.55319E-01 -2.81259E+00
  -7.33685E+00 -9.03481E+00 -1.16284E+01 -1.18886E+01 -1.46631E+01 -1.27305E+01 -1.53120E+01 -1.67386E+01 -2.05854E+01 -1.55282E+01
  -1.70494E+01 -1.51182E+01 -1.93509E+01 -1.77959E+01 -1.94590E+01 -1.80601E+01 -2.17121E+01 -1.86373E+01 -1.45640E+01 -1.55911E+01
  -2.08828E+01 -1.49374E+01 -1.55415E+01 -1.97707E+01 -1.49347E+01 -1.80933E+01 -1.90062E+01 -1.50616E+01 -1.70841E+01 -1.53641E+01
  -1.88377E+01 -1.81399E+01 -1.93135E+01 -1.35559E+01 -1.59753E+01 -1.51158E+01 -2.00568E+01 -1.53771E+01 -1.75566E+01 -2.23496E+01
  -1.97792E+01 -2.20286E+01 -2.03541E+01 -2.12636E+01 -2.08786E+01 -2.36671E+01 -2.28076E+01 -2.26445E+01 -2.44701E+01 -2.08650E+01
  -2.22537E+01 -1.91975E+01 -1.81150E+01 -1.81751E+01 -1.48419E+01 -1.83254E+01 -1.53507E+01 -1.19335E+01 -1.36375E+01 -9.23048E+00
  -1.50826E+01 -1.09698E+01 -1.30833E+01 -1.10659E+01 -1.52868E+01 -1.38528E+01 -1.28819E+01 -1.19812E+01 -1.18682E+01 -1.09004E+01
  -1.20777E+01 -8.11165E+00 -1.04168E+01 -8.03021E+00 -8.81599E+00 -9.90953E+00 -1.19203E+01 -7.01154E+00 -1.07349E+01 -1.16540E+01
  -9.02960E+00 -8.10859E+00 -4.07462E+00 -6.40227E+00 -7.44900E+00 -1.68029E+00 -2.76555E+00 -2.56467E+00 -2.54561E+00 -2.90054E+00
  -6.25404E+00 -9.36391E+00 -8.10432E+00 -9.04199E+00 -6.30148E+00 -4.40204E+00 -4.18425E+00 -1.66547E+00 -2.30593E+00 -2.82686E+00
  -1.12828E+00 -4.38666E+00 -3.66817E-01 -4.22145E+00 -4.00571E+00 -9.92649E-01 -3.10192E+00 -2.82613E+00 -2.18967E+00 -1.31424E+00
  -2.42033E+00  1.02013E+00 -5.61479E-01 -4.17146E+00 -1.51083E+00 -1.61642E+00  2.65114E+00  1.13383E+00  9.43566E-01  1.56705E-01
   3.38621E+00  3.85483E+00  8.13882E+00  1.21664E+01  1.43076E+01  2.23208E+01  2.63805E+01  3.21622E+01  3.13762E+01  4.03049E+01
   4.87938E+01  4.94515E+01  4.27432E+01  4.14934E+01  3.20620E+01  1.87654E+01  1.62337E+01  1.65182E+01  9.59036E+00  1.07355E+01
   5.85895E+00 -6.79101E-02  3.29054E+00  2.19855E+00  1.87489E+00 -2.93976E-01  1.26500E+00 -2.06690E+00 -2.83730E-01 -1.42256E-01
  -3.86607E-01 -3.53903E+00 -3.13592E+00 -3.70771E+00 -2.16824E+00 -1.85626E+00 -2.85109E+00 -1.36624E+00  2.15438E+00  1.68696E-01
  -3.23027E+00 -2.55556E-01 -1.74928E-01 -1.65823E+00  1.60413E+00  4.67708E-01 -1.58212E+00  1.34776E+00  2.30400E+00  1.35133E-01
  -1.39550E+00 -1.28914E+00  3.98659E-01  1.23158E+00 -4.50096E+00  2.73886E+00  3.55520E+00  6.45483E+00  6.01483E+00  1.72112E+00
   3.26613E+00 -3.98504E-01  6.25210E+00  6.04352E+00  4.98865E+00  3.77911E+00  3.15534E+00  4.85418E+00  5.66688E+00  6.69274E+00
   5.63684E+00  3.70373E+00  6.73693E+00  6.51363E+00  3.88267E+00  6.22662E+00  4.90730E+00  4.78716E+00  7.41792E+00  6.49442E+00
   3.39148E+00  4.42657E+00  8.78257E+00  8.26291E+00  4.29448E+00  5.71621E+00  6.48457E+00  6.99846E+00  7.30825E+00  2.77866E+00
   4.62392E+00  9.86375E+00  3.33308E+00  8.34664E+00  6.37305E+00  9.19044E+00  8.76335E+00  8.39831E+00  9.07645E+00  9.24127E+00
   8.24294E+00  3.61059E+00  7.74365E+00  9.37272E+00  1.00301E+01  8.06347E+00  6.07616E+00  9.99634E+00  1.32683E+01  6.10221E+00
   9.56589E+00  1.18055E+01  1.05103E+01  6.17373E+00  7.31718E+00  8.03979E+00  6.49925E+00  5.47683E+00  9.89636E+00  7.37516E+00
   6.74732E+00  3.23773E+00  9.93423E+00  9.27492E+00  1.21575E+01  8.10152E+00  9.38078E+00  1.06991E+01  6.41021E+00  6.41004E+00
   9.10169E+00  1.09257E+01  1.01763E+01  8.40344E+00  1.04268E+01  6.74631E+00  8.90501E+00  1.11534E+01  1.01677E+01  1.25173E+01
   9.25439E+00  9.64857E+00  7.27079E+00  1.11188E+01  1.14862E+01  1.42034E+01  1.20028E+01  9.91125E+00  1.28587E+01  1.08199E+01
   1.20558E+01  1.46834E+01  1.16195E+01  1.82712E+01  1.25942E+01  1.26251E+01  1.12217E+01  1.30790E+01  1.69321E+01  1.60508E+01
   1.41022E+01  1.18670E+01  1.07949E+01  1.45702E+01  1.23950E+01  1.26485E+01  1.04925E+01  1.50462E+01  1.15229E+01  1.05469E+01
   1.20772E+01  9.76473E+00  8.62606E+00  8.99346E+00  6.28719E+00  4.98119E+00  9.80827E+00  5.67821E+00  6.58730E+00  6.65224E+00
   6.43990E+00  6.84245E+00  6.93610E+00  7.51415E+00  4.20855E+00  5.19815E+00  3.26826E+00  7.25431E+00  4.58754E+00  3.50866E+00
   5.44890E+00  3.65377E+00  5.27321E+00  3.92856E+00  5.77197E+00  2.39192E+00  6.01534E+00  6.33353E+00  4.50833E+00  3.46835E+00
   5.74097E+00  1.20825E+00  7.25073E+00  5.63046E+00  4.42934E+00  5.21381E+00  6.08395E+00 -5.40005E-01  1.60913E+00  4.42423E+00
   4.26699E+00  7.77108E+00  3.20211E+00  9.85263E-01  2.39312E+00  3.24844E+00  1.17325E+00  7.08679E+00  4.14574E+00  4.44103E+00
   2.58338E+00  2.19537E+00  1.33818E+00  4.70228E+00  3.77521E+00  5.87404E+00  5.70009E+00  4.15478E+00  5.67082E+00  1.31063E+00
   2.33288E+00  4.99327E+00  5.17042E+00  8.58214E+00  4.64288E+00  4.82201E+00  1.11877E+00  3.50918E+00  4.29899E+00  4.84347E+00
   2.38643E+00  3.92887E+00  6.40634E+00  1.23249E+00  4.92173E+00  4.96036E+00  4.05880E+00  9.57422E-01
 NY points of the fit to the data follow
  -5.11304E+01 -5.05463E+01 -4.97169E+01 -4.88008E+01 -4.77515E+01 -4.66206E+01 -4.54731E+01 -4.42057E+01 -4.26922E+01 -4.11703E+01
  -4.01791E+01 -3.99420E+01 -4.03433E+01 -4.12612E+01 -4.24078E+01 -4.32904E+01 -4.36798E+01 -4.38118E+01 -4.39492E+01 -4.43646E+01
  -4.46757E+01 -4.44354E+01 -4.39524E+01 -4.32531E+01 -4.23495E+01 -4.14036E+01 -4.04353E+01 -3.92757E+01 -3.78372E+01 -3.64701E+01
  -3.55511E+01 -3.50538E+01 -3.49496E+01 -3.53787E+01 -3.62309E+01 -3.70803E+01 -3.77005E+01 -3.80708E+01 -3.80016E+01 -3.75671E+01
  -3.68249E+01 -3.58637E+01 -3.49341E+01 -3.39095E+01 -3.28067E+01 -3.17175E+01 -3.07328E+01 -3.01974E+01 -3.04152E+01 -3.12917E+01
  -3.24814E+01 -3.36507E+01 -3.43654E+01 -3.44192E+01 -3.40983E+01 -3.37883E+01 -3.36348E+01 -3.34992E+01 -3.31488E+01 -3.26499E+01
  -3.21712E+01 -3.19419E+01 -3.19419E+01 -3.19999E+01 -3.19630E+01 -3.17291E+01 -3.11996E+01 -3.04425E+01 -2.98168E+01 -2.94176E+01
  -2.90629E+01 -2.87157E+01 -2.83884E+01 -2.79979E+01 -2.75641E+01 -2.73216E+01 -2.73700E+01 -2.73640E+01 -2.72190E+01 -2.72334E+01
  -2.70951E+01 -2.66017E+01 -2.59304E+01 -2.52381E+01 -2.45811E+01 -2.41331E+01 -2.40891E+01 -2.43899E+01 -2.48683E+01 -2.52975E+01
  -2.55329E+01 -2.54192E+01 -2.42329E+01 -2.12525E+01 -1.81851E+01 -1.56753E+01 -1.28450E+01 -9.25048E+00 -5.30861E+00 -1.14137E+00
   3.48163E+00  7.05695E+00  7.56620E+00  5.16457E+00  1.06980E+00 -4.17746E+00 -9.29019E+00 -1.24456E+01 -1.39438E+01 -1.52393E+01
  -1.68977E+01 -1.92806E+01 -2.16945E+01 -2.26300E+01 -2.27309E+01 -2.26579E+01 -2.24219E+01 -2.17227E+01 -1.98890E+01 -1.77152E+01
  -1.58060E+01 -1.37230E+01 -1.12641E+01 -8.66603E+00 -5.83806E+00 -2.57045E+00  2.20262E-01  1.13903E+00 -3.62387E-03 -2.48838E+00
  -5.81170E+00 -9.19670E+00 -1.14523E+01 -1.25969E+01 -1.36016E+01 -1.48679E+01 -1.65237E+01 -1.81632E+01 -1.86908E+01 -1.84003E+01
  -1.79828E+01 -1.76991E+01 -1.76245E+01 -1.77006E+01 -1.77806E+01 -1.78083E+01 -1.77954E+01 -1.77299E+01 -1.76778E+01 -1.76844E+01
  -1.77118E+01 -1.77479E+01 -1.77947E+01 -1.78602E+01 -1.78695E+01 -1.78177E+01 -1.77242E+01 -1.76207E+01 -1.75915E+01 -1.76383E+01
  -1.77312E+01 -1.77919E+01 -1.77387E+01 -1.75599E+01 -1.73209E+01 -1.71569E+01 -1.71874E+01 -1.74233E+01 -1.77924E+01 -1.80915E+01
  -1.82053E+01 -1.81638E+01 -1.81481E+01 -1.82755E+01 -1.84295E+01 -1.85782E+01 -1.86107E+01 -1.84219E+01 -1.81643E+01 -1.79695E+01
  -1.77490E+01 -1.74760E+01 -1.71854E+01 -1.68354E+01 -1.63630E+01 -1.58020E+01 -1.51925E+01 -1.45727E+01 -1.39443E+01 -1.32678E+01
  -1.26547E+01 -1.22193E+01 -1.20486E+01 -1.21272E+01 -1.22290E+01 -1.21188E+01 -1.16654E+01 -1.09231E+01 -1.01050E+01 -9.36550E+00
  -8.68482E+00 -8.32047E+00 -8.18748E+00 -8.10364E+00 -8.32512E+00 -9.00927E+00 -9.85031E+00 -1.06064E+01 -1.12683E+01 -1.17430E+01
  -1.15604E+01 -1.06866E+01 -9.50430E+00 -8.25218E+00 -7.11142E+00 -6.29809E+00 -5.95760E+00 -6.11485E+00 -6.66214E+00 -7.40395E+00
  -8.16898E+00 -8.87338E+00 -9.11130E+00 -8.60801E+00 -7.61477E+00 -6.51119E+00 -5.51332E+00 -4.72187E+00 -4.10877E+00 -3.79594E+00
  -3.64313E+00 -3.36211E+00 -2.81184E+00 -2.20999E+00 -1.93828E+00 -1.78073E+00 -1.44290E+00 -1.12729E+00 -9.79126E-01 -8.39786E-01
  -7.41800E-01 -8.95464E-01 -1.19256E+00 -1.29076E+00 -1.05834E+00 -5.48586E-01  1.49162E-01  8.58290E-01  1.47356E+00  1.97698E+00
   2.56013E+00  4.30530E+00  8.74846E+00  1.34807E+01  1.73306E+01  2.14317E+01  2.61218E+01  3.07638E+01  3.58111E+01  4.20208E+01
   4.71748E+01  4.80663E+01  4.46035E+01  3.83918E+01  3.02539E+01  2.21754E+01  1.69948E+01  1.45051E+01  1.24605E+01  9.87681E+00
   6.19699E+00  2.35896E+00  6.75052E-01  2.17225E-01  5.96361E-03 -1.27496E-01 -2.21981E-01 -3.41676E-01 -4.84221E-01 -6.22024E-01
  -7.35543E-01 -8.14588E-01 -8.62604E-01 -8.98750E-01 -9.29178E-01 -9.42055E-01 -9.36031E-01 -9.16546E-01 -8.81141E-01 -8.26326E-01
  -7.50082E-01 -6.52056E-01 -5.37851E-01 -4.07538E-01 -2.59884E-01 -9.39711E-02  9.04266E-02  2.93033E-01  5.13213E-01  7.49710E-01
   9.99355E-01  1.26047E+00  1.53055E+00  1.80595E+00  2.08259E+00  2.35659E+00  2.62367E+00  2.88017E+00  3.12273E+00  3.34908E+00
   3.55697E+00  3.74499E+00  3.91244E+00  4.05990E+00  4.18888E+00  4.30246E+00  4.40414E+00  4.49987E+00  4.59669E+00  4.68587E+00
   4.76277E+00  4.83967E+00  4.92092E+00  5.00312E+00  5.08581E+00  5.17011E+00  5.25610E+00  5.33848E+00  5.41254E+00  5.49273E+00
   5.59139E+00  5.71426E+00  5.86590E+00  6.04434E+00  6.23686E+00  6.42393E+00  6.58786E+00  6.72935E+00  6.85882E+00  6.96650E+00
   7.05344E+00  7.14226E+00  7.23857E+00  7.33676E+00  7.43195E+00  7.51954E+00  7.60971E+00  7.71228E+00  7.82327E+00  7.94394E+00
   8.07448E+00  8.21269E+00  8.35596E+00  8.50009E+00  8.63616E+00  8.75418E+00  8.84707E+00  8.91293E+00  8.95255E+00  8.96574E+00
   8.95476E+00  8.92508E+00  8.87887E+00  8.81751E+00  8.74176E+00  8.65265E+00  8.55418E+00  8.44932E+00  8.33880E+00  8.22422E+00
   8.10749E+00  7.99111E+00  7.87762E+00  7.77008E+00  7.67146E+00  7.58503E+00  7.51383E+00  7.46100E+00  7.42930E+00  7.42162E+00
   7.44041E+00  7.48819E+00  7.56695E+00  7.67863E+00  7.82465E+00  8.00631E+00  8.22427E+00  8.47888E+00  8.76965E+00  9.09554E+00
   9.45450E+00  9.84380E+00  1.02595E+01  1.06967E+01  1.11493E+01  1.16102E+01  1.20714E+01  1.25242E+01  1.29592E+01  1.33666E+01
   1.37368E+01  1.40608E+01  1.43298E+01  1.45368E+01  1.46759E+01  1.47430E+01  1.47357E+01  1.46541E+01  1.44998E+01  1.42768E+01
   1.39906E+01  1.36480E+01  1.32573E+01  1.28272E+01  1.23672E+01  1.18865E+01  1.13941E+01  1.08985E+01  1.04071E+01  9.92660E+00
   9.46245E+00  9.01909E+00  8.59964E+00  8.20641E+00  7.84055E+00  7.50263E+00  7.19233E+00  6.90893E+00  6.65112E+00  6.41749E+00
   6.20628E+00  6.01582E+00  5.84421E+00  5.68977E+00  5.55069E+00  5.42548E+00  5.31258E+00  5.21074E+00  5.11866E+00  5.03531E+00
   4.95962E+00  4.89084E+00  4.82812E+00  4.77088E+00  4.71844E+00  4.67036E+00  4.62609E+00  4.58533E+00  4.54766E+00  4.51285E+00
   4.48053E+00  4.45055E+00  4.42261E+00  4.39663E+00  4.37235E+00  4.34970E+00  4.32845E+00  4.30854E+00  4.28981E+00  4.27224E+00
   4.25566E+00  4.24006E+00  4.22529E+00  4.21135E+00  4.19813E+00  4.18566E+00  4.17379E+00  4.16256E+00  4.15183E+00  4.14166E+00
   4.13195E+00  4.12276E+00  4.11395E+00  4.10558E+00  4.09755E+00  4.08992E+00  4.08262E+00  4.07568E+00  4.06901E+00  4.06266E+00
   4.05655E+00  4.05077E+00  4.04521E+00  4.03995E+00  4.03489E+00  4.03010E+00  4.02550E+00  4.02118E+00  4.01706E+00  4.01319E+00
   4.00949E+00  4.00605E+00  4.00280E+00  3.99982E+00  3.99704E+00  3.99453E+00  3.99222E+00  3.99020E+00
 NY background values follow
    -5.597E+01   -5.566E+01   -5.535E+01   -5.504E+01   -5.473E+01   -5.442E+01   -5.411E+01   -5.380E+01   -5.349E+01   -5.318E+01
    -5.287E+01   -5.256E+01   -5.225E+01   -5.194E+01   -5.163E+01   -5.132E+01   -5.101E+01   -5.071E+01   -5.040E+01   -5.009E+01
    -4.978E+01   -4.948E+01   -4.917E+01   -4.886E+01   -4.856E+01   -4.825E+01   -4.795E+01   -4.765E+01   -4.734E+01   -4.704E+01
    -4.674E+01   -4.644E+01   -4.613E+01   -4.583E+01   -4.553E+01   -4.524E+01   -4.494E+01   -4.464E+01   -4.434E+01   -4.405E+01
    -4.375E+01   -4.346E+01   -4.317E+01   -4.287E+01   -4.258E+01   -4.229E+01   -4.200E+01   -4.171E+01   -4.143E+01   -4.114E+01
    -4.085E+01   -4.057E+01   -4.029E+01   -4.000E+01   -3.972E+01   -3.944E+01   -3.916E+01   -3.889E+01   -3.861E+01   -3.833E+01
    -3.806E+01   -3.779E+01   -3.752E+01   -3.724E+01   -3.697E+01   -3.671E+01   -3.644E+01   -3.617E+01   -3.591E+01   -3.565E+01
    -3.538E+01   -3.512E+01   -3.487E+01   -3.461E+01   -3.435E+01   -3.410E+01   -3.384E+01   -3.359E+01   -3.334E+01   -3.309E+01
    -3.284E+01   -3.260E+01   -3.235E+01   -3.211E+01   -3.187E+01   -3.163E+01   -3.139E+01   -3.115E+01   -3.091E+01   -3.068E+01
    -3.045E+01   -3.022E+01   -2.999E+01   -2.976E+01   -2.953E+01   -2.931E+01   -2.909E+01   -2.887E+01   -2.865E+01   -2.843E+01
    -2.821E+01   -2.800E+01   -2.778E+01   -2.757E+01   -2.736E+01   -2.715E+01   -2.694E+01   -2.674E+01   -2.653E+01   -2.633E+01
    -2.613E+01   -2.593E+01   -2.573E+01   -2.553E+01   -2.534E+01   -2.514E+01   -2.495E+01   -2.476E+01   -2.457E+01   -2.438E+01
    -2.419E+01   -2.400E+01   -2.382E+01   -2.364E+01   -2.345E+01   -2.327E+01   -2.309E+01   -2.292E+01   -2.274E+01   -2.256E+01
    -2.239E+01   -2.222E+01   -2.204E+01   -2.187E+01   -2.170E+01   -2.154E+01   -2.137E+01   -2.120E+01   -2.104E+01   -2.087E+01
    -2.071E+01   -2.055E+01   -2.039E+01   -2.023E+01   -2.007E+01   -1.992E+01   -1.976E+01   -1.961E+01   -1.945E+01   -1.930E+01
    -1.915E+01   -1.900E+01   -1.885E+01   -1.870E+01   -1.855E+01   -1.840E+01   -1.825E+01   -1.810E+01   -1.796E+01   -1.781E+01
    -1.767E+01   -1.752E+01   -1.738E+01   -1.724E+01   -1.710E+01   -1.695E+01   -1.681E+01   -1.667E+01   -1.653E+01   -1.639E+01
    -1.625E+01   -1.611E+01   -1.598E+01   -1.584E+01   -1.570E+01   -1.556E+01   -1.542E+01   -1.529E+01   -1.515E+01   -1.501E+01
    -1.488E+01   -1.474E+01   -1.460E+01   -1.447E+01   -1.433E+01   -1.420E+01   -1.406E+01   -1.393E+01   -1.379E+01   -1.366E+01
    -1.352E+01   -1.339E+01   -1.325E+01   -1.312E+01   -1.299E+01   -1.285E+01   -1.272E+01   -1.259E+01   -1.246E+01   -1.233E+01
    -1.220E+01   -1.207E+01   -1.194E+01   -1.181E+01   -1.168E+01   -1.155E+01   -1.142E+01   -1.130E+01   -1.117E+01   -1.104E+01
    -1.092E+01   -1.079E+01   -1.067E+01   -1.055E+01   -1.043E+01   -1.030E+01   -1.018E+01   -1.006E+01   -9.943E+00   -9.824E+00
    -9.706E+00   -9.589E+00   -9.473E+00   -9.358E+00   -9.243E+00   -9.130E+00   -9.017E+00   -8.905E+00   -8.794E+00   -8.684E+00
    -8.575E+00   -8.467E+00   -8.360E+00   -8.253E+00   -8.148E+00   -8.043E+00   -7.939E+00   -7.835E+00   -7.733E+00   -7.631E+00
    -7.530E+00   -7.430E+00   -7.330E+00   -7.231E+00   -7.133E+00   -7.035E+00   -6.938E+00   -6.841E+00   -6.746E+00   -6.650E+00
    -6.556E+00   -6.462E+00   -6.368E+00   -6.275E+00   -6.182E+00   -6.090E+00   -5.999E+00   -5.908E+00   -5.817E+00   -5.727E+00
    -5.637E+00   -5.548E+00   -5.459E+00   -5.370E+00   -5.282E+00   -5.194E+00   -5.106E+00   -5.019E+00   -4.932E+00   -4.845E+00
    -4.759E+00   -4.672E+00   -4.586E+00   -4.501E+00   -4.415E+00   -4.330E+00   -4.245E+00   -4.160E+00   -4.076E+00   -3.991E+00
    -3.907E+00   -3.824E+00   -3.740E+00   -3.657E+00   -3.574E+00   -3.491E+00   -3.409E+00   -3.327E+00   -3.245E+00   -3.163E+00
    -3.082E+00   -3.001E+00   -2.921E+00   -2.840E+00   -2.760E+00   -2.680E+00   -2.601E+00   -2.522E+00   -2.443E+00   -2.365E+00
    -2.287E+00   -2.209E+00   -2.131E+00   -2.054E+00   -1.977E+00   -1.901E+00   -1.825E+00   -1.749E+00   -1.674E+00   -1.599E+00
    -1.524E+00   -1.450E+00   -1.376E+00   -1.302E+00   -1.229E+00   -1.156E+00   -1.084E+00   -1.011E+00   -9.397E-01   -8.685E-01
    -7.976E-01   -7.271E-01   -6.570E-01   -5.874E-01   -5.181E-01   -4.493E-01   -3.810E-01   -3.131E-01   -2.456E-01   -1.786E-01
    -1.121E-01   -4.599E-02    1.962E-02    8.474E-02    1.494E-01    2.135E-01    2.772E-01    3.403E-01    4.030E-01    4.651E-01
     5.267E-01    5.877E-01    6.483E-01    7.083E-01    7.677E-01    8.266E-01    8.849E-01    9.427E-01    9.999E-01    1.057E+00
     1.113E+00    1.168E+00    1.223E+00    1.277E+00    1.331E+00    1.384E+00    1.436E+00    1.488E+00    1.539E+00    1.590E+00
     1.640E+00    1.689E+00    1.737E+00    1.785E+00    1.833E+00    1.879E+00    1.925E+00    1.970E+00    2.015E+00    2.059E+00
     2.102E+00    2.145E+00    2.187E+00    2.229E+00    2.269E+00    2.310E+00    2.349E+00    2.388E+00    2.426E+00    2.464E+00
     2.501E+00    2.537E+00    2.573E+00    2.608E+00    2.642E+00    2.676E+00    2.709E+00    2.741E+00    2.773E+00    2.805E+00
     2.835E+00    2.865E+00    2.895E+00    2.924E+00    2.952E+00    2.979E+00    3.006E+00    3.033E+00    3.058E+00    3.083E+00
     3.108E+00    3.132E+00    3.155E+00    3.178E+00    3.200E+00    3.221E+00    3.242E+00    3.263E+00    3.282E+00    3.301E+00
     3.320E+00    3.338E+00    3.355E+00    3.372E+00    3.388E+00    3.404E+00    3.420E+00    3.434E+00    3.449E+00    3.462E+00
     3.476E+00    3.489E+00    3.501E+00    3.513E+00    3.525E+00    3.536E+00    3.547E+00    3.557E+00    3.567E+00    3.577E+00
     3.586E+00    3.595E+00    3.603E+00    3.611E+00    3.619E+00    3.627E+00    3.634E+00    3.641E+00    3.648E+00    3.654E+00
     3.660E+00    3.666E+00    3.672E+00    3.677E+00    3.682E+00    3.687E+00    3.692E+00    3.697E+00    3.701E+00    3.705E+00
     3.709E+00    3.713E+00    3.717E+00    3.721E+00    3.724E+00    3.728E+00    3.731E+00    3.734E+00    3.737E+00    3.740E+00
     3.743E+00    3.746E+00    3.749E+00    3.751E+00    3.754E+00    3.756E+00    3.759E+00    3.761E+00    3.763E+00    3.765E+00
     3.767E+00    3.769E+00    3.771E+00    3.773E+00    3.774E+00    3.776E+00    3.778E+00    3.779E+00    3.781E+00    3.782E+00
     3.784E+00    3.785E+00    3.787E+00    3.788E+00    3.789E+00    3.791E+00    3.792E+00    3.793E+00    3.795E+00    3.796E+00
     3.797E+00    3.799E+00    3.800E+00    3.801E+00    3.802E+00    3.804E+00    3.805E+00    3.806E+00
 Ala      Conc. = 2.26E+01
