 LCModel (Version 6.3-1L) Copyright: S.W. Provencher.          Ref.: Magn. Reson. Med. 30:672-679 (1993).                
 Slice#1 Row#9 Col#6  PD_05_press_1_raw_act
 36 lines in following concentration table = NCONC+1
    Conc.  %SD /Cr+PCr  Metabolite                                         
   15.686 374% 2.3E-02 Ala                                                 
   55.257 244% 8.2E-02 Asp                                                 
   43.917 255% 6.5E-02 Cr                                                  
  633.654  19%   0.935 PCr                                                 
   47.912 179% 7.1E-02 GABA                                                
   55.371 165% 8.2E-02 Glc                                                 
  380.206  32%   0.561 Gln                                                 
 1.05E+03  14%   1.543 Glu                                                 
  305.289  29%   0.451 GPC                                                 
   27.306 323% 4.0E-02 PCh                                                 
  235.023  19%   0.347 GSH                                                 
  940.003  17%   1.387 Ins                                                 
    0.000 999%   0.000 Lac                                                 
 1.38E+03   5%   2.031 NAA                                                 
  307.152  21%   0.453 NAAG                                                
   80.520  22%   0.119 Scyllo                                              
  279.321  44%   0.412 Tau                                                 
  224.202  33%   0.331 -CrCH2                                              
  332.595   5%   0.491 GPC+PCh                                             
 1.68E+03   3%   2.485 NAA+NAAG                                            
  677.571   6%   1.000 Cr+PCr                                              
 1.43E+03  14%   2.104 Glu+Gln                                             
    0.000 999%   0.000 Lip13a                                              
  423.589  18%   0.625 Lip13b                                              
   80.818  72%   0.119 Lip09                                               
  757.554  18%   1.118 MM09                                                
   69.229  58%   0.102 Lip20                                               
 1.70E+03  14%   2.502 MM20                                                
  195.489  41%   0.289 MM12                                                
  253.034  76%   0.373 MM14                                                
  444.798  31%   0.656 MM17                                                
  423.589  18%   0.625 Lip13a+Lip13b                                       
  872.112  26%   1.287 MM14+Lip13a+Lip13b+MM12                             
  838.371  16%   1.237 MM09+Lip09                                          
 1.76E+03  14%   2.604 MM20+Lip20                                          
   6 lines in following misc. output table
  FWHM = 0.031 ppm    S/N =  13                                            
  Data shift = 0.008 ppm                                                   
  Ph: -58 deg     -17.5 deg/ppm                                            
  alphaB,S = 1.0E+00,   4.5E-01                                            
   14 spline knots.   Ns = 5(1)                                            
   4 inflections.     1 extrema                                            
  498 points on ppm-axis = NY
      4.000000     3.992357     3.984714     3.977070     3.969427     3.961784     3.954141     3.946497     3.938854     3.931211
      3.923568     3.915925     3.908281     3.900638     3.892995     3.885352     3.877708     3.870065     3.862422     3.854779
      3.847136     3.839492     3.831849     3.824206     3.816563     3.808919     3.801276     3.793633     3.785990     3.778347
      3.770703     3.763060     3.755417     3.747774     3.740130     3.732487     3.724844     3.717201     3.709558     3.701914
      3.694271     3.686628     3.678985     3.671341     3.663698     3.656055     3.648412     3.640769     3.633125     3.625482
      3.617839     3.610196     3.602552     3.594909     3.587266     3.579623     3.571980     3.564336     3.556693     3.549050
      3.541407     3.533763     3.526120     3.518477     3.510834     3.503191     3.495547     3.487904     3.480261     3.472618
      3.464974     3.457331     3.449688     3.442045     3.434402     3.426758     3.419115     3.411472     3.403829     3.396185
      3.388542     3.380899     3.373256     3.365613     3.357969     3.350326     3.342683     3.335040     3.327396     3.319753
      3.312110     3.304467     3.296824     3.289180     3.281537     3.273894     3.266251     3.258607     3.250964     3.243321
      3.235678     3.228034     3.220391     3.212748     3.205105     3.197462     3.189818     3.182175     3.174532     3.166889
      3.159245     3.151602     3.143959     3.136316     3.128673     3.121029     3.113386     3.105743     3.098100     3.090456
      3.082813     3.075170     3.067527     3.059884     3.052240     3.044597     3.036954     3.029311     3.021667     3.014024
      3.006381     2.998738     2.991095     2.983451     2.975808     2.968165     2.960522     2.952878     2.945235     2.937592
      2.929949     2.922306     2.914662     2.907019     2.899376     2.891733     2.884089     2.876446     2.868803     2.861160
      2.853517     2.845873     2.838230     2.830587     2.822944     2.815300     2.807657     2.800014     2.792371     2.784728
      2.777084     2.769441     2.761798     2.754155     2.746511     2.738868     2.731225     2.723582     2.715939     2.708295
      2.700652     2.693009     2.685366     2.677722     2.670079     2.662436     2.654793     2.647150     2.639506     2.631863
      2.624220     2.616577     2.608933     2.601290     2.593647     2.586004     2.578361     2.570717     2.563074     2.555431
      2.547788     2.540144     2.532501     2.524858     2.517215     2.509572     2.501928     2.494285     2.486642     2.478999
      2.471355     2.463712     2.456069     2.448426     2.440783     2.433139     2.425496     2.417853     2.410210     2.402566
      2.394923     2.387280     2.379637     2.371994     2.364350     2.356707     2.349064     2.341421     2.333777     2.326134
      2.318491     2.310848     2.303205     2.295561     2.287918     2.280275     2.272632     2.264988     2.257345     2.249702
      2.242059     2.234416     2.226772     2.219129     2.211486     2.203843     2.196199     2.188556     2.180913     2.173270
      2.165627     2.157983     2.150340     2.142697     2.135054     2.127410     2.119767     2.112124     2.104481     2.096838
      2.089194     2.081551     2.073908     2.066265     2.058621     2.050978     2.043335     2.035692     2.028049     2.020405
      2.012762     2.005119     1.997476     1.989833     1.982190     1.974546     1.966903     1.959260     1.951617     1.943974
      1.936331     1.928688     1.921045     1.913402     1.905759     1.898115     1.890472     1.882829     1.875186     1.867543
      1.859900     1.852257     1.844614     1.836971     1.829327     1.821684     1.814041     1.806398     1.798755     1.791112
      1.783469     1.775826     1.768183     1.760540     1.752896     1.745253     1.737610     1.729967     1.722324     1.714681
      1.707038     1.699395     1.691752     1.684108     1.676465     1.668822     1.661179     1.653536     1.645893     1.638250
      1.630607     1.622964     1.615321     1.607677     1.600034     1.592391     1.584748     1.577105     1.569462     1.561819
      1.554176     1.546533     1.538890     1.531246     1.523603     1.515960     1.508317     1.500674     1.493031     1.485388
      1.477745     1.470102     1.462458     1.454815     1.447172     1.439529     1.431886     1.424243     1.416600     1.408957
      1.401314     1.393671     1.386027     1.378384     1.370741     1.363098     1.355455     1.347812     1.340169     1.332526
      1.324883     1.317240     1.309596     1.301953     1.294310     1.286667     1.279024     1.271381     1.263738     1.256095
      1.248452     1.240808     1.233165     1.225522     1.217879     1.210236     1.202593     1.194950     1.187307     1.179664
      1.172021     1.164377     1.156734     1.149091     1.141448     1.133805     1.126162     1.118519     1.110876     1.103233
      1.095590     1.087946     1.080303     1.072660     1.065017     1.057374     1.049731     1.042088     1.034445     1.026802
      1.019158     1.011515     1.003872     0.996229     0.988586     0.980943     0.973300     0.965657     0.958014     0.950371
      0.942727     0.935084     0.927441     0.919798     0.912155     0.904512     0.896869     0.889226     0.881583     0.873940
      0.866296     0.858653     0.851010     0.843367     0.835724     0.828081     0.820438     0.812795     0.805152     0.797508
      0.789865     0.782222     0.774579     0.766936     0.759293     0.751650     0.744007     0.736364     0.728721     0.721077
      0.713434     0.705791     0.698148     0.690505     0.682862     0.675219     0.667576     0.659933     0.652290     0.644646
      0.637003     0.629360     0.621717     0.614074     0.606431     0.598788     0.591145     0.583502     0.575858     0.568215
      0.560572     0.552929     0.545286     0.537643     0.530000     0.522357     0.514714     0.507071     0.499427     0.491784
      0.484141     0.476498     0.468855     0.461212     0.453569     0.445925     0.438282     0.430639     0.422996     0.415353
      0.407710     0.400067     0.392424     0.384780     0.377137     0.369494     0.361851     0.354208     0.346565     0.338922
      0.331278     0.323635     0.315992     0.308349     0.300706     0.293063     0.285420     0.277777     0.270133     0.262490
      0.254847     0.247204     0.239561     0.231918     0.224275     0.216631     0.208988     0.201345
 NY phased data points follow
  -2.00588E+01 -2.71233E+01 -2.11488E+01 -2.41618E+01 -2.16218E+01 -2.00861E+01 -2.20486E+01 -1.72938E+01 -5.68416E+00 -6.22807E+00
  -3.20047E+00 -3.94082E+00 -7.56919E+00 -8.22243E+00 -1.18954E+01 -1.53032E+01 -1.49934E+01 -2.29023E+01 -1.71597E+01 -2.19124E+01
  -1.63690E+01 -1.70417E+01 -1.73316E+01 -1.68949E+01 -1.58945E+01 -1.66873E+01 -1.11443E+01 -1.41982E+01 -1.26995E+01 -9.17905E+00
  -1.05738E+01 -9.78795E+00 -9.76389E+00 -7.51677E+00 -6.94907E+00 -1.64086E+01 -1.17961E+01 -1.16070E+01 -1.09858E+01 -1.05567E+01
  -1.15778E+01 -1.23588E+01 -1.17739E+01 -1.20698E+01 -1.02521E+01 -7.87349E+00 -2.98603E+00 -2.66362E+00 -3.46990E+00 -5.45720E+00
  -5.33213E+00 -9.96245E+00 -9.26270E+00 -1.46671E+01 -1.16218E+01 -1.08187E+01 -1.01224E+01 -8.25549E+00 -1.15089E+01 -8.54520E+00
  -9.03708E+00 -9.06253E+00 -9.20758E+00 -1.04988E+01 -1.04861E+01 -1.22734E+01 -1.25227E+01 -6.69604E+00 -1.34398E+01 -9.74048E+00
  -9.72256E+00 -9.17080E+00 -9.69676E+00 -7.51653E+00 -1.09663E+01 -9.13982E+00 -1.00655E+01 -9.68231E+00 -5.67801E+00 -1.08587E+01
  -6.79777E+00 -1.05147E+01 -8.18741E+00 -5.05365E+00 -9.92178E+00 -5.90386E+00 -6.13262E+00 -4.23827E+00 -3.76735E+00 -8.04201E+00
  -7.20826E+00 -5.12054E+00 -3.71146E+00 -2.37946E+00 -3.73642E+00 -4.55230E+00 -5.26965E+00 -3.71770E+00 -1.10390E+00 -6.03296E-01
   8.88908E+00  2.37391E+01  3.32167E+01  3.24450E+01  2.36537E+01  1.24165E+01  1.10448E+01  8.73153E+00  3.67730E+00 -1.28886E+00
  -6.33479E+00 -7.86120E+00 -1.75319E+00 -6.26603E+00 -7.83642E+00 -3.85385E+00 -3.81919E+00 -5.14159E+00 -1.57083E+00 -3.88677E+00
  -3.65796E+00 -5.78928E+00 -8.14283E+00 -3.19853E+00  2.85542E+00  9.41708E+00  1.75043E+01  2.42793E+01  2.28306E+01  1.70067E+01
   1.47228E+01  7.54573E+00  5.57684E+00 -7.11782E-01 -1.64267E+00 -2.45634E+00 -5.82229E+00 -7.89886E+00 -1.66621E+00 -3.92089E+00
  -3.47650E+00 -4.48182E+00 -4.14072E+00 -4.87387E+00 -5.96629E+00 -3.89116E+00 -7.00004E+00 -7.22291E+00 -8.28653E+00 -3.58240E+00
  -6.47982E+00 -7.91743E+00 -1.88466E+00 -7.86052E+00 -4.11652E+00 -5.44491E+00 -2.57304E+00 -6.16879E-01 -2.88983E+00  9.95697E-01
  -9.31216E+00 -6.01544E+00 -4.15228E+00 -7.04463E+00 -2.15386E+00 -5.52202E+00 -6.48107E+00 -7.44019E+00 -8.55352E+00 -1.07126E+01
  -4.78374E+00 -1.05300E+01 -7.52085E+00 -7.78528E+00 -1.13276E+01 -1.11008E+01 -1.45014E+01 -9.21603E+00 -1.08727E+01 -1.28787E+01
  -3.27030E+00 -1.22347E+01 -7.69116E+00 -1.02198E+01 -4.20313E+00 -3.70403E+00 -1.46385E+00 -8.89310E+00 -1.46303E+00  1.82193E+00
  -3.39718E+00 -3.10948E+00 -2.16858E+00 -1.23997E-01 -4.79142E+00 -1.34050E+00 -4.37991E+00 -6.61851E+00 -3.76142E+00 -3.52470E+00
  -3.52282E+00 -3.38489E+00  9.09537E-01  1.88540E+00  5.63100E+00  3.11271E+00  1.71837E+00 -2.41033E+00 -2.37659E+00 -9.19105E-01
  -3.90035E+00 -1.34248E+00 -5.63580E+00  2.27161E+00  2.34389E+00  7.30759E+00  1.07894E+01  1.11181E+01  9.53206E+00  5.45134E+00
   1.35646E+00 -1.75851E+00 -3.97173E+00 -7.46632E+00 -2.59923E+00  1.95868E-01  2.92402E+00  6.72683E+00  4.53670E+00  4.54710E+00
   6.98570E+00  1.17618E+00  2.20595E+00  4.97854E+00  4.52485E+00  6.39143E+00  3.22325E+00  9.71316E+00  6.17841E+00  7.47031E+00
   9.25012E+00  3.82745E+00  6.78295E-01 -7.13335E-01  3.57227E+00  8.23044E+00  5.60618E+00  5.92494E+00  1.14448E+01  8.76272E+00
   7.25323E+00  8.49172E+00  4.63585E+00  1.11037E+01  1.74389E+01  2.05156E+01  2.53001E+01  2.80703E+01  3.41211E+01  5.02799E+01
   6.86649E+01  7.39613E+01  6.19873E+01  4.28355E+01  3.25177E+01  2.64574E+01  1.68053E+01  1.24774E+01  7.54829E+00  6.87526E+00
   3.67348E+00  4.56825E+00  4.67894E+00  7.70237E+00  3.31266E+00  3.63484E+00  2.46664E+00  3.42926E+00  4.29045E+00  5.66739E+00
   3.66869E+00  6.95141E+00  6.99300E+00  3.29451E+00  4.96168E+00  5.24045E+00 -3.26928E-01  2.47972E+00  1.54399E-01  2.81039E+00
   2.22936E+00  4.12355E+00  4.73075E+00  6.08383E-01  2.48348E+00  3.76941E+00  2.08532E+00  2.00145E+00  7.95796E-01 -1.14852E+00
   3.74397E+00  5.35629E-01  4.86745E+00  2.07578E+00  4.61321E-01  3.60973E+00  4.88061E+00  1.99622E+00 -2.17094E-01  7.44164E+00
   3.76656E+00  2.03050E+00  4.35768E+00  1.29658E+00  4.50721E+00  8.92365E+00  6.66762E+00  8.81760E+00  8.39875E+00  9.23974E+00
   4.35597E+00  4.32652E+00  3.90220E+00  3.21015E+00  4.37321E+00  3.70689E+00  5.39826E+00  6.88236E+00  5.71689E+00  5.58719E+00
   2.13189E+00  1.90822E+00  4.81165E+00  3.72202E-01  2.63838E+00  4.89884E+00  2.10477E+00  2.29877E+00 -6.71568E-01  7.62988E-01
   2.52534E+00  6.91269E-01  3.08826E+00  2.03364E+00  2.33583E+00  5.86294E-01  6.89396E+00  7.07497E+00  4.17120E+00  1.19896E+01
   9.85158E+00  8.22536E+00  7.35635E+00  7.51705E+00  7.75539E+00  1.35773E+01  1.06261E+01  5.01743E+00  6.02694E+00  3.94735E+00
   7.63553E+00  4.18510E+00 -1.80341E-01  3.05749E+00  5.91594E+00  4.10240E+00  1.40300E+00  6.61702E+00  5.97398E+00  2.98489E+00
   7.36309E+00  2.89226E+00  1.96590E+00  2.52354E+00  1.89882E+00  6.05018E+00  6.66473E-01  6.48405E+00  1.39515E+00 -1.58963E+00
   2.49866E+00  1.33720E+00 -3.23034E+00  1.07926E+00  4.01293E-01 -2.93377E+00  3.47042E+00  3.03548E+00  1.43163E+00 -1.70455E+00
   2.21177E+00  3.50468E+00  5.40539E+00  2.50478E+00  7.42908E+00  3.98657E+00  8.39886E+00  6.06084E+00  7.54699E+00  7.11698E+00
   5.86161E+00  5.48666E+00  6.83445E+00  5.50922E+00  7.59124E+00  5.92030E+00  7.12069E+00  6.79042E+00  1.11640E+01  1.17194E+01
   9.53133E+00  9.04743E+00  9.98698E+00  9.92499E+00  6.31673E+00  9.30191E+00  5.86119E+00  8.53430E+00  2.58721E+00  9.24968E+00
   9.92738E+00  1.28099E+00  6.70082E+00  7.84798E+00  5.17391E+00  7.69743E+00  3.54918E+00  5.09550E+00  2.75466E+00  5.79563E+00
   8.05205E+00  6.27766E+00  4.27909E+00  5.64282E+00  6.17229E+00  1.96299E+00  4.10221E+00  6.76441E+00  3.54605E+00  5.35270E+00
   5.87713E+00  2.98169E+00  2.99330E+00  7.33011E+00  3.50511E+00  6.55489E+00  2.18747E+00  2.02438E+00  1.88906E+00  3.21893E+00
   6.16797E+00  4.03040E+00  6.83786E+00  1.88704E+00  4.84455E+00  7.27275E+00  5.61349E+00  2.51142E+00  1.96444E+00  5.94806E+00
   2.62925E+00  6.01851E+00  3.09418E+00  1.41111E+00  4.11588E+00  1.58882E+00  8.19759E+00  1.24744E+00  5.47293E+00  5.35355E+00
   4.97250E+00  3.16880E+00  7.33763E+00  4.53761E+00  4.10791E+00  4.61684E+00  4.24505E+00  4.15678E+00  3.68191E-01  3.10441E+00
   6.06943E+00  7.20872E+00  6.91944E+00  6.53418E+00  5.08555E+00  6.03196E+00  4.18655E+00  7.23042E+00  4.55153E+00  3.42545E+00
   3.91833E-01  9.41568E+00 -9.86198E-01  3.80809E+00  1.53496E+00  3.29742E+00  5.62022E+00  5.67368E+00
 NY points of the fit to the data follow
  -1.92055E+01 -1.93764E+01 -1.94307E+01 -1.91936E+01 -1.87492E+01 -1.79123E+01 -1.72716E+01 -1.50937E+01 -9.87382E+00 -4.96763E+00
  -2.76740E+00 -4.88882E+00 -8.76746E+00 -1.05466E+01 -1.12517E+01 -1.29643E+01 -1.48280E+01 -1.56534E+01 -1.61153E+01 -1.62212E+01
  -1.60519E+01 -1.58870E+01 -1.58730E+01 -1.58403E+01 -1.58052E+01 -1.54455E+01 -1.50166E+01 -1.41528E+01 -1.21193E+01 -1.02022E+01
  -8.87650E+00 -8.46392E+00 -8.50328E+00 -8.09489E+00 -8.33874E+00 -9.83576E+00 -1.16023E+01 -1.29966E+01 -1.42542E+01 -1.50048E+01
  -1.49548E+01 -1.40028E+01 -1.28965E+01 -1.21846E+01 -1.09879E+01 -8.31551E+00 -4.96552E+00 -3.06852E+00 -3.70803E+00 -6.15590E+00
  -8.66829E+00 -1.03568E+01 -1.15217E+01 -1.25614E+01 -1.31426E+01 -1.30653E+01 -1.26025E+01 -1.17165E+01 -1.04924E+01 -9.24014E+00
  -8.52151E+00 -8.80241E+00 -9.64220E+00 -1.04484E+01 -1.09713E+01 -1.10551E+01 -1.08969E+01 -1.05048E+01 -1.01198E+01 -9.79583E+00
  -9.24333E+00 -8.65935E+00 -8.25432E+00 -7.98640E+00 -7.60683E+00 -7.27286E+00 -7.26403E+00 -7.94529E+00 -8.98486E+00 -9.55980E+00
  -9.55850E+00 -9.31253E+00 -8.87754E+00 -8.23945E+00 -7.52601E+00 -6.05864E+00 -4.69901E+00 -4.57540E+00 -5.69987E+00 -7.22105E+00
  -7.68701E+00 -7.40790E+00 -7.58564E+00 -8.25890E+00 -8.42969E+00 -8.16433E+00 -7.62563E+00 -6.35435E+00 -3.99418E+00  6.22329E-02
   9.19012E+00  2.29179E+01  3.28227E+01  3.34788E+01  2.49887E+01  1.49389E+01  9.90549E+00  6.22282E+00  5.66367E-01 -4.11624E+00
  -5.82573E+00 -6.34929E+00 -6.50499E+00 -6.55174E+00 -6.60289E+00 -6.59678E+00 -6.55155E+00 -6.51127E+00 -6.49823E+00 -6.45092E+00
  -6.27756E+00 -5.88701E+00 -4.96879E+00 -3.04948E+00  3.18324E-01  8.16234E+00  1.87692E+01  2.51605E+01  2.42191E+01  1.71617E+01
   1.05853E+01  8.05594E+00  5.50053E+00  7.09707E-01 -3.26316E+00 -5.11545E+00 -5.98310E+00 -5.99944E+00 -5.64398E+00 -5.00892E+00
  -4.25678E+00 -3.79424E+00 -3.66761E+00 -3.74481E+00 -3.83496E+00 -3.93970E+00 -4.09420E+00 -4.30325E+00 -4.45924E+00 -4.56618E+00
  -4.67363E+00 -4.78508E+00 -4.92884E+00 -5.09473E+00 -5.15050E+00 -5.03411E+00 -4.77601E+00 -4.53476E+00 -4.52868E+00 -4.91903E+00
  -5.63249E+00 -6.17775E+00 -6.18337E+00 -5.49418E+00 -4.67883E+00 -4.51360E+00 -4.85695E+00 -5.35523E+00 -5.74694E+00 -5.89365E+00
  -5.93266E+00 -5.99362E+00 -6.02902E+00 -6.21715E+00 -6.73507E+00 -7.37728E+00 -7.49234E+00 -6.97127E+00 -6.19369E+00 -5.82912E+00
  -6.28079E+00 -6.69675E+00 -6.43677E+00 -5.80174E+00 -5.37943E+00 -5.45043E+00 -5.58512E+00 -4.83438E+00 -3.27213E+00 -1.53781E+00
  -2.71647E-01  1.85920E-02 -3.37775E-01 -8.51550E-01 -1.55280E+00 -2.22964E+00 -2.56996E+00 -2.57202E+00 -2.11674E+00 -1.26576E+00
  -2.56986E-01  6.73001E-01  1.67503E+00  2.63703E+00  3.16943E+00  2.93196E+00  1.52841E+00 -5.54786E-01 -2.89049E+00 -4.70963E+00
  -5.37521E+00 -5.06085E+00 -4.01439E+00 -2.28539E+00  5.31123E-01  4.62390E+00  7.44535E+00  7.32323E+00  4.97460E+00  1.95029E+00
  -7.19570E-01 -3.84928E+00 -6.84984E+00 -7.55260E+00 -5.19677E+00 -1.65098E+00  1.12066E+00  2.60227E+00  3.72068E+00  4.47720E+00
   4.23312E+00  3.54019E+00  3.35330E+00  3.73497E+00  4.14224E+00  4.71807E+00  5.50436E+00  6.22957E+00  6.47219E+00  5.98880E+00
   5.14054E+00  4.09127E+00  3.02690E+00  2.77499E+00  3.81328E+00  5.33112E+00  6.37390E+00  6.88654E+00  7.34287E+00  7.73116E+00
   7.74599E+00  7.80312E+00  8.78646E+00  1.12035E+01  1.60926E+01  2.14553E+01  2.55129E+01  2.82470E+01  3.42585E+01  5.18814E+01
   6.90230E+01  7.28860E+01  6.09667E+01  4.31621E+01  3.33030E+01  2.81058E+01  1.97191E+01  1.05745E+01  6.77870E+00  5.49753E+00
   4.67322E+00  4.15105E+00  3.98636E+00  4.01491E+00  4.12145E+00  4.15908E+00  3.99655E+00  3.71325E+00  3.48145E+00  3.27496E+00
   3.00780E+00  2.75635E+00  2.62163E+00  2.58663E+00  2.56616E+00  2.50903E+00  2.44801E+00  2.40812E+00  2.34873E+00  2.27373E+00
   2.24981E+00  2.28897E+00  2.35469E+00  2.42029E+00  2.46454E+00  2.50970E+00  2.57363E+00  2.62906E+00  2.67510E+00  2.74685E+00
   2.86133E+00  3.01320E+00  3.17769E+00  3.34545E+00  3.52226E+00  3.70287E+00  3.87349E+00  4.03476E+00  4.18708E+00  4.32521E+00
   4.44579E+00  4.54744E+00  4.62806E+00  4.68578E+00  4.71933E+00  4.72854E+00  4.71487E+00  4.68045E+00  4.62829E+00  4.56193E+00
   4.48513E+00  4.40231E+00  4.32020E+00  4.24523E+00  4.18101E+00  4.14028E+00  4.07417E+00  3.92372E+00  3.71132E+00  3.49573E+00
   3.34723E+00  3.25986E+00  3.16964E+00  3.11600E+00  3.18146E+00  3.30822E+00  3.40451E+00  3.42072E+00  3.38570E+00  3.37744E+00
   3.40065E+00  3.43061E+00  3.49451E+00  3.63955E+00  3.87888E+00  4.22443E+00  4.68471E+00  5.25720E+00  5.92347E+00  6.64706E+00
   7.37484E+00  8.04199E+00  8.58057E+00  8.93041E+00  9.05024E+00  8.92589E+00  8.57313E+00  8.03412E+00  7.36905E+00  6.64510E+00
   5.92583E+00  5.26273E+00  4.69023E+00  4.22453E+00  3.86589E+00  3.60326E+00  3.41973E+00  3.29689E+00  3.21778E+00  3.16817E+00
   3.13714E+00  3.11714E+00  3.10373E+00  3.09480E+00  3.08958E+00  3.08789E+00  3.08989E+00  3.09619E+00  3.10789E+00  3.12628E+00
   3.15255E+00  3.18759E+00  3.23232E+00  3.28795E+00  3.35602E+00  3.43809E+00  3.53553E+00  3.64950E+00  3.78127E+00  3.93234E+00
   4.10427E+00  4.29820E+00  4.51474E+00  4.75390E+00  5.01539E+00  5.29843E+00  5.60147E+00  5.92178E+00  6.25547E+00  6.59767E+00
   6.94286E+00  7.28485E+00  7.61669E+00  7.93071E+00  8.21907E+00  8.47426E+00  8.68962E+00  8.85939E+00  8.97889E+00  9.04465E+00
   9.05491E+00  9.00986E+00  8.91164E+00  8.76392E+00  8.57162E+00  8.34063E+00  8.07787E+00  7.79092E+00  7.48766E+00  7.17551E+00
   6.86128E+00  6.55097E+00  6.24998E+00  5.96285E+00  5.69312E+00  5.44309E+00  5.21402E+00  5.00641E+00  4.82032E+00  4.65534E+00
   4.51054E+00  4.38443E+00  4.27535E+00  4.18168E+00  4.10199E+00  4.03490E+00  3.97893E+00  3.93251E+00  3.89432E+00  3.86332E+00
   3.83875E+00  3.81983E+00  3.80577E+00  3.79572E+00  3.78911E+00  3.78560E+00  3.78498E+00  3.78690E+00  3.79090E+00  3.79658E+00
   3.80379E+00  3.81251E+00  3.82268E+00  3.83408E+00  3.84642E+00  3.85952E+00  3.87344E+00  3.88824E+00  3.90388E+00  3.92013E+00
   3.93682E+00  3.95389E+00  3.97150E+00  3.98969E+00  4.00839E+00  4.02739E+00  4.04659E+00  4.06603E+00  4.08588E+00  4.10614E+00
   4.12669E+00  4.14733E+00  4.16808E+00  4.18904E+00  4.21035E+00  4.23196E+00  4.25369E+00  4.27542E+00  4.29724E+00  4.31928E+00
   4.34161E+00  4.36410E+00  4.38661E+00  4.40910E+00  4.43169E+00  4.45453E+00  4.47759E+00  4.50071E+00  4.52380E+00  4.54688E+00
   4.57012E+00  4.59359E+00  4.61723E+00  4.64084E+00  4.66441E+00  4.68804E+00  4.71189E+00  4.73596E+00
 NY background values follow
    -2.184E+01   -2.171E+01   -2.157E+01   -2.144E+01   -2.130E+01   -2.117E+01   -2.103E+01   -2.090E+01   -2.076E+01   -2.063E+01
    -2.049E+01   -2.036E+01   -2.022E+01   -2.009E+01   -1.995E+01   -1.982E+01   -1.968E+01   -1.955E+01   -1.942E+01   -1.928E+01
    -1.915E+01   -1.901E+01   -1.888E+01   -1.875E+01   -1.861E+01   -1.848E+01   -1.835E+01   -1.821E+01   -1.808E+01   -1.795E+01
    -1.782E+01   -1.768E+01   -1.755E+01   -1.742E+01   -1.729E+01   -1.716E+01   -1.703E+01   -1.690E+01   -1.677E+01   -1.664E+01
    -1.651E+01   -1.638E+01   -1.625E+01   -1.612E+01   -1.599E+01   -1.587E+01   -1.574E+01   -1.561E+01   -1.549E+01   -1.536E+01
    -1.523E+01   -1.511E+01   -1.498E+01   -1.486E+01   -1.474E+01   -1.461E+01   -1.449E+01   -1.437E+01   -1.424E+01   -1.412E+01
    -1.400E+01   -1.388E+01   -1.376E+01   -1.364E+01   -1.352E+01   -1.340E+01   -1.328E+01   -1.317E+01   -1.305E+01   -1.293E+01
    -1.282E+01   -1.270E+01   -1.259E+01   -1.247E+01   -1.236E+01   -1.225E+01   -1.213E+01   -1.202E+01   -1.191E+01   -1.180E+01
    -1.169E+01   -1.158E+01   -1.147E+01   -1.136E+01   -1.125E+01   -1.115E+01   -1.104E+01   -1.094E+01   -1.083E+01   -1.073E+01
    -1.062E+01   -1.052E+01   -1.042E+01   -1.032E+01   -1.021E+01   -1.011E+01   -1.002E+01   -9.917E+00   -9.818E+00   -9.721E+00
    -9.624E+00   -9.528E+00   -9.433E+00   -9.338E+00   -9.244E+00   -9.150E+00   -9.057E+00   -8.965E+00   -8.874E+00   -8.783E+00
    -8.692E+00   -8.603E+00   -8.513E+00   -8.425E+00   -8.337E+00   -8.250E+00   -8.163E+00   -8.077E+00   -7.991E+00   -7.906E+00
    -7.822E+00   -7.738E+00   -7.655E+00   -7.572E+00   -7.490E+00   -7.409E+00   -7.328E+00   -7.247E+00   -7.168E+00   -7.088E+00
    -7.009E+00   -6.931E+00   -6.854E+00   -6.776E+00   -6.700E+00   -6.624E+00   -6.548E+00   -6.473E+00   -6.398E+00   -6.324E+00
    -6.250E+00   -6.177E+00   -6.105E+00   -6.032E+00   -5.961E+00   -5.889E+00   -5.818E+00   -5.748E+00   -5.678E+00   -5.608E+00
    -5.539E+00   -5.470E+00   -5.402E+00   -5.334E+00   -5.266E+00   -5.199E+00   -5.132E+00   -5.066E+00   -5.000E+00   -4.934E+00
    -4.868E+00   -4.803E+00   -4.738E+00   -4.674E+00   -4.610E+00   -4.546E+00   -4.482E+00   -4.419E+00   -4.356E+00   -4.293E+00
    -4.230E+00   -4.168E+00   -4.106E+00   -4.044E+00   -3.983E+00   -3.921E+00   -3.860E+00   -3.799E+00   -3.739E+00   -3.678E+00
    -3.618E+00   -3.558E+00   -3.498E+00   -3.438E+00   -3.378E+00   -3.319E+00   -3.260E+00   -3.201E+00   -3.142E+00   -3.084E+00
    -3.025E+00   -2.967E+00   -2.910E+00   -2.852E+00   -2.795E+00   -2.738E+00   -2.681E+00   -2.625E+00   -2.569E+00   -2.513E+00
    -2.458E+00   -2.403E+00   -2.348E+00   -2.294E+00   -2.240E+00   -2.186E+00   -2.133E+00   -2.080E+00   -2.028E+00   -1.976E+00
    -1.924E+00   -1.873E+00   -1.822E+00   -1.772E+00   -1.722E+00   -1.672E+00   -1.623E+00   -1.575E+00   -1.527E+00   -1.479E+00
    -1.432E+00   -1.386E+00   -1.340E+00   -1.294E+00   -1.249E+00   -1.205E+00   -1.161E+00   -1.118E+00   -1.075E+00   -1.033E+00
    -9.910E-01   -9.499E-01   -9.093E-01   -8.692E-01   -8.296E-01   -7.906E-01   -7.521E-01   -7.141E-01   -6.766E-01   -6.397E-01
    -6.032E-01   -5.672E-01   -5.318E-01   -4.968E-01   -4.623E-01   -4.283E-01   -3.948E-01   -3.617E-01   -3.292E-01   -2.971E-01
    -2.654E-01   -2.342E-01   -2.035E-01   -1.733E-01   -1.435E-01   -1.141E-01   -8.517E-02   -5.669E-02   -2.864E-02   -1.019E-03
     2.617E-02    5.294E-02    7.929E-02    1.052E-01    1.307E-01    1.559E-01    1.806E-01    2.049E-01    2.288E-01    2.523E-01
     2.755E-01    2.982E-01    3.206E-01    3.426E-01    3.642E-01    3.855E-01    4.064E-01    4.269E-01    4.471E-01    4.670E-01
     4.865E-01    5.057E-01    5.246E-01    5.431E-01    5.614E-01    5.793E-01    5.969E-01    6.142E-01    6.313E-01    6.480E-01
     6.645E-01    6.807E-01    6.966E-01    7.123E-01    7.277E-01    7.428E-01    7.578E-01    7.724E-01    7.868E-01    8.010E-01
     8.150E-01    8.288E-01    8.423E-01    8.556E-01    8.688E-01    8.817E-01    8.944E-01    9.070E-01    9.194E-01    9.316E-01
     9.436E-01    9.555E-01    9.672E-01    9.787E-01    9.902E-01    1.001E+00    1.013E+00    1.024E+00    1.034E+00    1.045E+00
     1.056E+00    1.066E+00    1.077E+00    1.087E+00    1.098E+00    1.108E+00    1.118E+00    1.128E+00    1.138E+00    1.148E+00
     1.158E+00    1.168E+00    1.178E+00    1.188E+00    1.198E+00    1.208E+00    1.217E+00    1.227E+00    1.237E+00    1.247E+00
     1.257E+00    1.267E+00    1.277E+00    1.288E+00    1.298E+00    1.308E+00    1.318E+00    1.329E+00    1.339E+00    1.350E+00
     1.361E+00    1.372E+00    1.383E+00    1.394E+00    1.405E+00    1.417E+00    1.428E+00    1.440E+00    1.452E+00    1.464E+00
     1.476E+00    1.488E+00    1.501E+00    1.514E+00    1.527E+00    1.540E+00    1.554E+00    1.567E+00    1.581E+00    1.595E+00
     1.609E+00    1.624E+00    1.638E+00    1.653E+00    1.668E+00    1.684E+00    1.699E+00    1.715E+00    1.731E+00    1.747E+00
     1.763E+00    1.779E+00    1.796E+00    1.813E+00    1.830E+00    1.847E+00    1.865E+00    1.883E+00    1.901E+00    1.919E+00
     1.937E+00    1.956E+00    1.975E+00    1.994E+00    2.013E+00    2.032E+00    2.052E+00    2.072E+00    2.092E+00    2.112E+00
     2.133E+00    2.154E+00    2.175E+00    2.196E+00    2.217E+00    2.239E+00    2.261E+00    2.283E+00    2.305E+00    2.328E+00
     2.350E+00    2.373E+00    2.396E+00    2.420E+00    2.443E+00    2.467E+00    2.491E+00    2.515E+00    2.539E+00    2.563E+00
     2.588E+00    2.612E+00    2.637E+00    2.662E+00    2.687E+00    2.712E+00    2.738E+00    2.763E+00    2.788E+00    2.814E+00
     2.840E+00    2.866E+00    2.892E+00    2.918E+00    2.944E+00    2.970E+00    2.996E+00    3.022E+00    3.048E+00    3.075E+00
     3.101E+00    3.128E+00    3.154E+00    3.181E+00    3.207E+00    3.234E+00    3.260E+00    3.287E+00    3.313E+00    3.340E+00
     3.367E+00    3.393E+00    3.420E+00    3.446E+00    3.473E+00    3.499E+00    3.525E+00    3.552E+00    3.578E+00    3.604E+00
     3.631E+00    3.657E+00    3.683E+00    3.710E+00    3.736E+00    3.762E+00    3.788E+00    3.814E+00    3.841E+00    3.867E+00
     3.893E+00    3.919E+00    3.945E+00    3.971E+00    3.997E+00    4.023E+00    4.049E+00    4.075E+00    4.101E+00    4.127E+00
     4.153E+00    4.179E+00    4.205E+00    4.231E+00    4.257E+00    4.283E+00    4.309E+00    4.335E+00    4.361E+00    4.386E+00
     4.412E+00    4.438E+00    4.464E+00    4.490E+00    4.516E+00    4.542E+00    4.567E+00    4.593E+00
 Ala      Conc. = 1.57E+01
