 LCModel (Version 6.3-1L) Copyright: S.W. Provencher.          Ref.: Magn. Reson. Med. 30:672-679 (1993).                
 Slice#1 Row#9 Col#13  PD_05_press_1_raw_act
 36 lines in following concentration table = NCONC+1
    Conc.  %SD /Cr+PCr  Metabolite                                         
    0.000 999%   0.000 Ala                                                 
    6.374  93%   0.000 Asp                                                 
    0.000 999%   0.000 Cr                                                  
    0.000 999%   0.000 PCr                                                 
    3.499 102%   0.000 GABA                                                
    4.053  88%   0.000 Glc                                                 
   16.871 331%   0.000 Gln                                                 
    0.000 999%   0.000 Glu                                                 
    0.000 999%   0.000 GPC                                                 
    0.000 999%   0.000 PCh                                                 
    0.000 999%   0.000 GSH                                                 
    0.000 999%   0.000 Ins                                                 
    0.000 999%   0.000 Lac                                                 
  119.996  19%   0.000 NAA                                                 
    3.319 741%   0.000 NAAG                                                
    1.435  82%   0.000 Scyllo                                              
    6.301  94%   0.000 Tau                                                 
    0.000 999%   0.000 -CrCH2                                              
    0.000 999%   0.000 GPC+PCh                                             
  123.315  17%   0.000 NAA+NAAG                                            
    0.000 999%   0.000 Cr+PCr                                              
   16.871 331%   0.000 Glu+Gln                                             
    0.000 999%   0.000 Lip13a                                              
    0.000 999%   0.000 Lip13b                                              
 1.92E-02 999%   0.000 Lip09                                               
  304.573  13%   0.000 MM09                                                
    0.000 999%   0.000 Lip20                                               
  277.345  29%   0.000 MM20                                                
   76.893  42%   0.000 MM12                                                
  248.123  25%   0.000 MM14                                                
   95.908  53%   0.000 MM17                                                
    0.000 999%   0.000 Lip13a+Lip13b                                       
  325.016  22%   0.000 MM14+Lip13a+Lip13b+MM12                             
  304.593  13%   0.000 MM09+Lip09                                          
  277.345  29%   0.000 MM20+Lip20                                          
   6 lines in following misc. output table
  FWHM = 0.054 ppm    S/N =   2                                            
  Data shift =-0.015 ppm                                                   
  Ph:  43 deg      15.0 deg/ppm                                            
  alphaB,S = 8.5E+01,   5.1E+01                                            
   14 spline knots.   Ns = 6(1)                                            
   2 inflections.     1 extrema                                            
  498 points on ppm-axis = NY
      4.000000     3.992357     3.984714     3.977070     3.969427     3.961784     3.954141     3.946497     3.938854     3.931211
      3.923568     3.915925     3.908281     3.900638     3.892995     3.885352     3.877708     3.870065     3.862422     3.854779
      3.847136     3.839492     3.831849     3.824206     3.816563     3.808919     3.801276     3.793633     3.785990     3.778347
      3.770703     3.763060     3.755417     3.747774     3.740130     3.732487     3.724844     3.717201     3.709558     3.701914
      3.694271     3.686628     3.678985     3.671341     3.663698     3.656055     3.648412     3.640769     3.633125     3.625482
      3.617839     3.610196     3.602552     3.594909     3.587266     3.579623     3.571980     3.564336     3.556693     3.549050
      3.541407     3.533763     3.526120     3.518477     3.510834     3.503191     3.495547     3.487904     3.480261     3.472618
      3.464974     3.457331     3.449688     3.442045     3.434402     3.426758     3.419115     3.411472     3.403829     3.396185
      3.388542     3.380899     3.373256     3.365613     3.357969     3.350326     3.342683     3.335040     3.327396     3.319753
      3.312110     3.304467     3.296824     3.289180     3.281537     3.273894     3.266251     3.258607     3.250964     3.243321
      3.235678     3.228034     3.220391     3.212748     3.205105     3.197462     3.189818     3.182175     3.174532     3.166889
      3.159245     3.151602     3.143959     3.136316     3.128673     3.121029     3.113386     3.105743     3.098100     3.090456
      3.082813     3.075170     3.067527     3.059884     3.052240     3.044597     3.036954     3.029311     3.021667     3.014024
      3.006381     2.998738     2.991095     2.983451     2.975808     2.968165     2.960522     2.952878     2.945235     2.937592
      2.929949     2.922306     2.914662     2.907019     2.899376     2.891733     2.884089     2.876446     2.868803     2.861160
      2.853517     2.845873     2.838230     2.830587     2.822944     2.815300     2.807657     2.800014     2.792371     2.784728
      2.777084     2.769441     2.761798     2.754155     2.746511     2.738868     2.731225     2.723582     2.715939     2.708295
      2.700652     2.693009     2.685366     2.677722     2.670079     2.662436     2.654793     2.647150     2.639506     2.631863
      2.624220     2.616577     2.608933     2.601290     2.593647     2.586004     2.578361     2.570717     2.563074     2.555431
      2.547788     2.540144     2.532501     2.524858     2.517215     2.509572     2.501928     2.494285     2.486642     2.478999
      2.471355     2.463712     2.456069     2.448426     2.440783     2.433139     2.425496     2.417853     2.410210     2.402566
      2.394923     2.387280     2.379637     2.371994     2.364350     2.356707     2.349064     2.341421     2.333777     2.326134
      2.318491     2.310848     2.303205     2.295561     2.287918     2.280275     2.272632     2.264988     2.257345     2.249702
      2.242059     2.234416     2.226772     2.219129     2.211486     2.203843     2.196199     2.188556     2.180913     2.173270
      2.165627     2.157983     2.150340     2.142697     2.135054     2.127410     2.119767     2.112124     2.104481     2.096838
      2.089194     2.081551     2.073908     2.066265     2.058621     2.050978     2.043335     2.035692     2.028049     2.020405
      2.012762     2.005119     1.997476     1.989833     1.982190     1.974546     1.966903     1.959260     1.951617     1.943974
      1.936331     1.928688     1.921045     1.913402     1.905759     1.898115     1.890472     1.882829     1.875186     1.867543
      1.859900     1.852257     1.844614     1.836971     1.829327     1.821684     1.814041     1.806398     1.798755     1.791112
      1.783469     1.775826     1.768183     1.760540     1.752896     1.745253     1.737610     1.729967     1.722324     1.714681
      1.707038     1.699395     1.691752     1.684108     1.676465     1.668822     1.661179     1.653536     1.645893     1.638250
      1.630607     1.622964     1.615321     1.607677     1.600034     1.592391     1.584748     1.577105     1.569462     1.561819
      1.554176     1.546533     1.538890     1.531246     1.523603     1.515960     1.508317     1.500674     1.493031     1.485388
      1.477745     1.470102     1.462458     1.454815     1.447172     1.439529     1.431886     1.424243     1.416600     1.408957
      1.401314     1.393671     1.386027     1.378384     1.370741     1.363098     1.355455     1.347812     1.340169     1.332526
      1.324883     1.317240     1.309596     1.301953     1.294310     1.286667     1.279024     1.271381     1.263738     1.256095
      1.248452     1.240808     1.233165     1.225522     1.217879     1.210236     1.202593     1.194950     1.187307     1.179664
      1.172021     1.164377     1.156734     1.149091     1.141448     1.133805     1.126162     1.118519     1.110876     1.103233
      1.095590     1.087946     1.080303     1.072660     1.065017     1.057374     1.049731     1.042088     1.034445     1.026802
      1.019158     1.011515     1.003872     0.996229     0.988586     0.980943     0.973300     0.965657     0.958014     0.950371
      0.942727     0.935084     0.927441     0.919798     0.912155     0.904512     0.896869     0.889226     0.881583     0.873940
      0.866296     0.858653     0.851010     0.843367     0.835724     0.828081     0.820438     0.812795     0.805152     0.797508
      0.789865     0.782222     0.774579     0.766936     0.759293     0.751650     0.744007     0.736364     0.728721     0.721077
      0.713434     0.705791     0.698148     0.690505     0.682862     0.675219     0.667576     0.659933     0.652290     0.644646
      0.637003     0.629360     0.621717     0.614074     0.606431     0.598788     0.591145     0.583502     0.575858     0.568215
      0.560572     0.552929     0.545286     0.537643     0.530000     0.522357     0.514714     0.507071     0.499427     0.491784
      0.484141     0.476498     0.468855     0.461212     0.453569     0.445925     0.438282     0.430639     0.422996     0.415353
      0.407710     0.400067     0.392424     0.384780     0.377137     0.369494     0.361851     0.354208     0.346565     0.338922
      0.331278     0.323635     0.315992     0.308349     0.300706     0.293063     0.285420     0.277777     0.270133     0.262490
      0.254847     0.247204     0.239561     0.231918     0.224275     0.216631     0.208988     0.201345
 NY phased data points follow
  -1.42074E-01  3.37680E-01  4.98995E-01  1.12436E-01  2.48435E-01  8.26818E-01  4.32227E-01  4.53074E-01 -1.14931E+00  4.33365E-01
   1.43458E+00  6.28586E-01 -2.65164E-01 -1.09916E-01  4.17524E-01 -2.27657E+00  4.95780E-01 -1.31355E+00  1.30052E+00  6.98522E-02
   1.36555E-01  1.18609E-01  6.78639E-01  1.75124E-01  8.14043E-01  8.52225E-01  7.51757E-01 -2.74492E-01 -3.61073E-01 -3.00948E-01
   1.29205E+00 -1.34852E+00 -1.49074E+00  7.20712E-01  1.59079E+00  1.92801E+00  4.12000E-01 -5.00706E-01 -2.00631E-01 -1.84478E-01
  -2.50241E+00 -2.00834E-01 -1.79670E+00  5.58231E-01 -1.14111E+00 -7.96058E-01 -8.46534E-02 -9.42834E-01  2.05704E-01  3.71427E-01
  -6.64662E-01 -2.06774E-01  1.05029E+00  1.76706E+00 -4.16135E-01  6.45952E-02 -4.59416E-01  1.12945E+00  1.99923E-01 -4.60571E-01
   9.13268E-01  6.93515E-01  4.73258E-01 -1.52776E+00  2.51837E-01  9.23595E-01 -4.52114E-01 -8.15299E-01  7.18781E-01  5.22496E-01
   1.57630E+00  5.44920E-01  8.27262E-01 -1.08007E-01  7.13175E-01 -5.53585E-01 -1.51113E-01  6.26219E-01  1.55320E+00  1.71682E+00
   1.64846E+00  1.01553E+00  5.84340E-01 -1.12456E+00  7.96309E-01  1.51163E+00  9.62263E-01  7.08401E-02  5.08955E-01 -3.60896E-01
   1.07783E+00  1.61941E-01  8.96145E-01 -7.80355E-01  4.44446E-02  1.73915E+00 -2.21939E-01  7.47774E-01  6.74009E-01  1.13929E+00
   2.51872E-01 -3.51363E-01 -6.25775E-01  8.80211E-01  5.68216E-01 -1.78811E+00 -8.14520E-01  2.42140E-01 -1.53970E+00  8.67912E-02
  -2.24285E-01  1.09763E+00 -1.51874E+00  1.43881E-01 -8.85789E-01 -1.02647E+00 -9.22261E-02 -2.60671E-01  1.48192E-02  1.60071E+00
   1.31031E+00 -3.59385E-01  2.27673E+00  1.76863E-01  1.22682E+00  2.12297E-01 -4.62918E-01  3.86868E-01 -1.56646E+00  2.92349E-02
   3.24370E-01  4.05496E-01  1.38736E+00  1.27012E+00  1.19023E+00 -9.64600E-01  2.68841E-01 -8.59034E-01  8.78517E-01  7.19492E-01
   5.49015E-01  1.52946E+00  1.17187E+00  5.12693E-01 -2.52907E+00  5.20846E-01  2.15578E-01 -3.24935E-02  2.97641E-01  3.03368E-01
  -5.04614E-02 -5.73230E-01 -1.51887E+00 -3.64335E-01 -1.93223E-01 -1.04784E+00 -3.05975E-01  1.29224E+00  6.03362E-01  4.95421E-01
   1.66345E+00 -8.67020E-02 -8.64616E-01 -2.05706E-01  6.94990E-01  2.35121E+00  6.86595E-02  2.88713E+00 -5.83007E-01  9.13410E-02
  -1.02490E+00  8.93237E-02  3.00161E-01 -7.32096E-01 -1.14951E+00 -1.12363E+00  1.38600E+00  7.96653E-01 -8.68492E-01  1.90403E+00
   2.07914E+00 -3.15668E-01 -1.26579E+00  6.42047E-01  6.15873E-01  2.61239E+00  7.34530E-01 -6.52640E-01 -1.81190E-01 -1.18649E+00
   1.95841E+00 -7.63085E-01 -4.49229E-01 -1.11926E+00  9.62267E-02 -2.87256E-01 -1.26204E-01  2.46453E-01  3.89039E-02 -7.80815E-01
   1.66158E+00  2.05149E+00  8.52730E-01 -3.21039E-03 -6.60760E-01 -1.27865E+00 -2.99998E-01  2.20952E-01  6.58921E-02  1.24219E+00
   7.47771E-01 -1.00699E-01 -1.15658E+00  6.58438E-01 -3.03711E-02 -7.81263E-01  7.31075E-01  1.60063E+00  1.81880E+00  6.31751E-02
   1.46048E-01  6.81687E-01  1.99016E-01  2.08585E+00 -1.24018E+00  1.61076E+00  1.84732E+00 -2.19338E-01  7.85403E-01  6.59775E-01
   1.51654E+00  5.10466E-01  1.34904E+00 -2.13254E+00  1.76818E-01 -9.02324E-01  1.29256E+00  7.25837E-01  1.43102E+00 -8.71350E-01
  -4.73505E-01 -9.44523E-02  1.28965E+00  4.19441E-01  1.34198E+00  6.16439E-01  1.61718E+00 -6.59256E-01  3.82562E+00  4.16325E-01
   8.69151E-01  2.74084E-01  6.70626E-01  2.26666E+00  2.09392E+00  3.71968E+00  3.15417E+00  3.08245E+00  4.59848E+00  5.37274E+00
   5.14355E+00  4.97042E+00  5.58080E+00  2.64307E+00  2.04713E+00 -4.24495E-01 -4.29981E-01  3.57290E-01  1.05050E+00  7.94240E-01
  -4.73420E-01  5.24051E-01  4.50600E-01  1.58795E+00  8.42501E-01  1.69634E+00  2.67859E+00  2.04647E+00  5.69455E-01  1.24797E+00
   4.50453E-01 -8.29381E-01  7.96305E-01 -7.63548E-01 -6.71199E-01 -3.49203E-01 -1.40522E+00  1.29919E+00  3.40429E-01 -5.88912E-01
   7.58244E-01  3.15582E-01  9.77391E-02  4.82114E-01  2.76343E-01 -4.06834E-02  1.18262E+00 -4.68922E-01  3.88295E-01 -1.18251E+00
   5.14621E-01  2.17014E+00  8.82523E-01  1.39049E+00 -1.12818E+00  2.57784E-01  1.30573E+00  1.24639E+00  6.19384E-01  1.09832E+00
   1.93145E+00 -4.45973E-01  1.11208E+00  2.04697E+00  2.80361E+00  3.06033E-01 -6.06774E-01  7.56574E-01 -2.55005E-01  1.49708E+00
   1.05876E+00  1.42507E-01  2.26150E-01 -2.95507E-01  9.37819E-01 -6.16849E-01  2.11366E+00  1.19947E+00  1.64946E+00  2.34779E+00
   3.70351E+00  2.42054E+00  1.03176E+00  2.28164E+00  2.50658E+00 -1.23798E+00  1.32502E+00  1.72306E+00  5.13178E-01 -8.30050E-01
   1.90637E+00  2.17231E-01  5.88150E-01  1.26221E+00  1.02492E+00  2.70488E-01  1.18401E+00  9.64730E-01  5.21225E-01  2.21991E+00
   1.37870E+00  2.06243E+00  7.78822E-01 -4.24361E-01 -6.76033E-01  2.39333E-01  2.46603E-01  1.49046E+00  1.22055E+00  7.77173E-01
   4.57488E-01  4.24948E-01  1.43216E+00  4.55501E-01 -8.34011E-01  9.94260E-01  7.13203E-01 -4.28356E-01 -1.82244E+00  9.87386E-01
   6.21152E-01 -3.19560E-01  1.01654E+00  2.46317E+00 -3.65555E-01 -2.77063E-01  1.92923E+00 -5.39245E-01 -1.46423E-01 -2.76361E-01
  -6.11475E-01  3.42565E-02  2.42694E+00  4.48077E-01 -1.48100E+00  1.25805E+00  1.00882E+00  1.74898E+00  2.63223E+00  2.21598E-01
   1.49828E+00  2.30927E+00  2.63794E+00  2.39224E+00  2.04373E+00  2.09473E+00  2.74729E+00  4.13449E+00  3.39011E+00  4.30749E+00
   3.12684E+00  2.46125E+00  1.09524E+00  1.89498E+00  1.48153E+00  4.18123E+00  1.20372E+00  1.59106E+00  2.80921E+00  2.98315E+00
   6.84702E-01  1.42175E+00  4.20335E+00  1.76538E+00  9.53475E-01  1.27990E-01  4.53061E-01  7.44114E-01  1.87303E+00 -1.18701E+00
  -1.05514E+00  4.59540E-01  7.76002E-01  6.21094E-01 -4.33239E-01 -1.32511E+00  1.26210E+00  3.22879E+00  7.42962E-01  1.17918E+00
  -8.39515E-01  1.23055E-01  1.51556E-01  1.79572E+00  1.96495E+00  9.54849E-01  9.82304E-01  1.24266E+00  3.09959E+00  1.14874E+00
  -1.41179E-01  1.86759E+00  2.85169E-01 -2.67414E-01 -3.67323E-01  8.88407E-01  1.68356E+00 -1.19012E+00  1.43735E+00 -1.57796E+00
   8.11958E-01 -1.04657E+00  2.46333E-01 -4.18444E-01 -5.63799E-01 -8.47562E-01  1.21438E+00 -1.37672E+00 -9.12439E-01  8.40814E-01
   1.56450E+00 -4.01453E-01 -7.08362E-01 -1.30533E+00 -3.80317E-01 -6.54959E-01 -3.20397E-01 -9.82080E-01  1.55523E+00  1.19979E+00
  -1.28659E+00 -6.58308E-01  1.19076E-01 -1.83768E+00 -2.47165E+00  1.03593E-01 -1.05642E+00 -6.41555E-01  5.27211E-01  1.36864E+00
   8.41575E-01  5.13183E-02 -8.58293E-02 -3.31235E-01 -3.72508E-01  3.31199E-01 -5.64839E-01 -9.37409E-01 -1.51647E+00  1.77089E-01
   1.17777E-01  5.05133E-01  4.00495E-01 -1.24450E+00  1.47630E-01  2.54084E+00 -1.63797E+00  7.57010E-01
 NY points of the fit to the data follow
   1.66013E-01  1.67706E-01  1.68127E-01  1.66776E-01  1.63873E-01  1.60169E-01  1.56631E-01  1.53261E-01  1.50312E-01  1.48638E-01
   1.49337E-01  1.52017E-01  1.54846E-01  1.55804E-01  1.53729E-01  1.50246E-01  1.47862E-01  1.47771E-01  1.50529E-01  1.56210E-01
   1.62405E-01  1.67106E-01  1.69775E-01  1.69438E-01  1.65289E-01  1.59388E-01  1.57942E-01  1.63108E-01  1.72779E-01  1.84683E-01
   1.95563E-01  2.00746E-01  1.96662E-01  1.84178E-01  1.66536E-01  1.47903E-01  1.33432E-01  1.27517E-01  1.31073E-01  1.40556E-01
   1.50051E-01  1.55769E-01  1.56943E-01  1.54657E-01  1.51057E-01  1.48295E-01  1.47245E-01  1.47333E-01  1.48144E-01  1.49567E-01
   1.51323E-01  1.52722E-01  1.53092E-01  1.52428E-01  1.51244E-01  1.50159E-01  1.49334E-01  1.48820E-01  1.48827E-01  1.49632E-01
   1.51677E-01  1.54888E-01  1.58089E-01  1.61057E-01  1.62879E-01  1.63036E-01  1.62101E-01  1.60541E-01  1.58676E-01  1.58972E-01
   1.63553E-01  1.70963E-01  1.79209E-01  1.86486E-01  1.90538E-01  1.90031E-01  1.85540E-01  1.77932E-01  1.69227E-01  1.63611E-01
   1.68462E-01  1.84978E-01  2.07257E-01  2.28963E-01  2.45208E-01  2.53327E-01  2.52297E-01  2.41546E-01  2.21565E-01  1.95729E-01
   1.69698E-01  1.49287E-01  1.38812E-01  1.38436E-01  1.42858E-01  1.49624E-01  1.59248E-01  1.70216E-01  1.79797E-01  1.86073E-01
   1.87646E-01  1.85116E-01  1.81726E-01  1.80198E-01  1.82064E-01  1.87333E-01  1.94338E-01  2.01276E-01  2.07646E-01  2.13173E-01
   2.17879E-01  2.22514E-01  2.27767E-01  2.33687E-01  2.39996E-01  2.46618E-01  2.53362E-01  2.59831E-01  2.65972E-01  2.72106E-01
   2.78726E-01  2.86303E-01  2.94960E-01  3.04348E-01  3.14232E-01  3.24159E-01  3.33071E-01  3.39831E-01  3.43460E-01  3.43294E-01
   3.39897E-01  3.33984E-01  3.26291E-01  3.18099E-01  3.10348E-01  3.03422E-01  2.96877E-01  2.90288E-01  2.83400E-01  2.76027E-01
   2.68561E-01  2.60911E-01  2.52731E-01  2.44173E-01  2.35415E-01  2.26585E-01  2.17380E-01  2.07224E-01  1.95949E-01  1.84330E-01
   1.73909E-01  1.65675E-01  1.59686E-01  1.55099E-01  1.48266E-01  1.31620E-01  1.06247E-01  7.83755E-02  5.43181E-02  4.15449E-02
   3.77040E-02  3.96900E-02  4.78137E-02  6.05483E-02  7.19801E-02  7.39393E-02  6.00548E-02  3.01161E-02 -7.47188E-03 -4.17231E-02
  -7.12771E-02 -9.57155E-02 -1.10121E-01 -1.16549E-01 -1.16710E-01 -1.15002E-01 -1.10035E-01 -9.73912E-02 -7.76032E-02 -5.60421E-02
  -4.16499E-02 -4.18812E-02 -4.71647E-02 -4.11219E-02 -1.73023E-02  1.97363E-02  6.08220E-02  1.01035E-01  1.40380E-01  1.80819E-01
   2.18906E-01  2.49188E-01  2.63016E-01  2.59571E-01  2.47618E-01  2.36433E-01  2.27790E-01  2.23502E-01  2.29007E-01  2.43327E-01
   2.64689E-01  2.91315E-01  3.17935E-01  3.33273E-01  3.23138E-01  2.85077E-01  2.28082E-01  1.58586E-01  9.26465E-02  4.86350E-02
   3.45651E-02  4.85617E-02  8.39551E-02  1.33616E-01  1.89219E-01  2.43461E-01  2.91260E-01  3.30751E-01  3.62209E-01  3.85387E-01
   4.02696E-01  4.19454E-01  4.36190E-01  4.51065E-01  4.62759E-01  4.70671E-01  4.76070E-01  4.81568E-01  4.89765E-01  5.01595E-01
   5.15060E-01  5.31169E-01  5.52490E-01  5.80203E-01  6.15167E-01  6.58478E-01  7.08321E-01  7.59811E-01  8.11181E-01  8.59514E-01
   8.99519E-01  9.27861E-01  9.45537E-01  9.57558E-01  9.71973E-01  9.95672E-01  1.03131E+00  1.07707E+00  1.12840E+00  1.18213E+00
   1.24123E+00  1.30521E+00  1.37676E+00  1.49644E+00  1.84989E+00  2.51373E+00  3.29597E+00  4.04934E+00  4.67796E+00  5.08058E+00
   5.16103E+00  4.85924E+00  4.17631E+00  3.21790E+00  2.20393E+00  1.38316E+00  9.02749E-01  7.26653E-01  6.75991E-01  6.30908E-01
   5.90398E-01  5.55887E-01  5.25948E-01  4.99128E-01  4.74258E-01  4.50327E-01  4.26814E-01  4.03943E-01  3.82262E-01  3.62363E-01
   3.45054E-01  3.30984E-01  3.20462E-01  3.13588E-01  3.10205E-01  3.10020E-01  3.12908E-01  3.18758E-01  3.27340E-01  3.38591E-01
   3.52560E-01  3.69282E-01  3.88720E-01  4.10657E-01  4.34778E-01  4.60767E-01  4.88251E-01  5.16778E-01  5.45853E-01  5.74927E-01
   6.03361E-01  6.30509E-01  6.55787E-01  6.78672E-01  6.98746E-01  7.15748E-01  7.29591E-01  7.40359E-01  7.48277E-01  7.53727E-01
   7.57244E-01  7.59479E-01  7.61160E-01  7.63056E-01  7.65950E-01  7.70613E-01  7.77754E-01  7.87973E-01  8.01723E-01  8.19296E-01
   8.40815E-01  8.66230E-01  8.95302E-01  9.27605E-01  9.62535E-01  9.99344E-01  1.03717E+00  1.07508E+00  1.11206E+00  1.14708E+00
   1.17914E+00  1.20730E+00  1.23070E+00  1.24864E+00  1.26055E+00  1.26603E+00  1.26487E+00  1.25706E+00  1.24279E+00  1.22242E+00
   1.19648E+00  1.16562E+00  1.13062E+00  1.09235E+00  1.05171E+00  1.00961E+00  9.66961E-01  9.24589E-01  8.83263E-01  8.43661E-01
   8.06342E-01  7.71732E-01  7.40126E-01  7.11689E-01  6.86471E-01  6.64412E-01  6.45350E-01  6.29032E-01  6.15143E-01  6.03331E-01
   5.93226E-01  5.84464E-01  5.76689E-01  5.69582E-01  5.62877E-01  5.56384E-01  5.49991E-01  5.43672E-01  5.37482E-01  5.31569E-01
   5.26178E-01  5.21653E-01  5.18431E-01  5.17032E-01  5.18055E-01  5.22186E-01  5.30190E-01  5.42908E-01  5.61242E-01  5.86132E-01
   6.18544E-01  6.59446E-01  7.09771E-01  7.70366E-01  8.41930E-01  9.24948E-01  1.01962E+00  1.12579E+00  1.24287E+00  1.36981E+00
   1.50500E+00  1.64629E+00  1.79099E+00  1.93597E+00  2.07770E+00  2.21237E+00  2.33612E+00  2.44515E+00  2.53594E+00  2.60547E+00
   2.65135E+00  2.67197E+00  2.66660E+00  2.63540E+00  2.57947E+00  2.50073E+00  2.40179E+00  2.28582E+00  2.15637E+00  2.01715E+00
   1.87188E+00  1.72411E+00  1.57706E+00  1.43353E+00  1.29582E+00  1.16573E+00  1.04455E+00  9.33057E-01  8.31621E-01  7.40227E-01
   6.58576E-01  5.86151E-01  5.22288E-01  4.66227E-01  4.17170E-01  3.74317E-01  3.36905E-01  3.04227E-01  2.75638E-01  2.50560E-01
   2.28482E-01  2.08964E-01  1.91634E-01  1.76176E-01  1.62320E-01  1.49837E-01  1.38534E-01  1.28250E-01  1.18856E-01  1.10241E-01
   1.02308E-01  9.49747E-02  8.81695E-02  8.18360E-02  7.59272E-02  7.04008E-02  6.52167E-02  6.03388E-02  5.57380E-02  5.13919E-02
   4.72810E-02  4.33848E-02  3.96827E-02  3.61566E-02  3.27937E-02  2.95847E-02  2.65196E-02  2.35861E-02  2.07717E-02  1.80671E-02
   1.54671E-02  1.29677E-02  1.05624E-02  8.24233E-03  5.99969E-03  3.83030E-03  1.73268E-03 -2.95601E-04 -2.25998E-03 -4.16721E-03
  -6.02180E-03 -7.82470E-03 -9.57581E-03 -1.12775E-02 -1.29347E-02 -1.45526E-02 -1.61329E-02 -1.76747E-02 -1.91779E-02 -2.06453E-02
  -2.20816E-02 -2.34901E-02 -2.48704E-02 -2.62209E-02 -2.75422E-02 -2.88378E-02 -3.01117E-02 -3.13651E-02 -3.25964E-02 -3.38043E-02
  -3.49903E-02 -3.61585E-02 -3.73116E-02 -3.84492E-02 -3.95691E-02 -4.06708E-02 -4.17572E-02 -4.28320E-02
 NY background values follow
     8.674E-02    8.635E-02    8.595E-02    8.556E-02    8.516E-02    8.477E-02    8.437E-02    8.398E-02    8.359E-02    8.319E-02
     8.279E-02    8.240E-02    8.200E-02    8.161E-02    8.121E-02    8.082E-02    8.042E-02    8.003E-02    7.963E-02    7.923E-02
     7.884E-02    7.844E-02    7.804E-02    7.765E-02    7.725E-02    7.685E-02    7.646E-02    7.606E-02    7.566E-02    7.526E-02
     7.487E-02    7.447E-02    7.407E-02    7.367E-02    7.328E-02    7.288E-02    7.248E-02    7.208E-02    7.168E-02    7.128E-02
     7.089E-02    7.049E-02    7.009E-02    6.969E-02    6.929E-02    6.889E-02    6.849E-02    6.809E-02    6.769E-02    6.729E-02
     6.689E-02    6.649E-02    6.610E-02    6.570E-02    6.530E-02    6.490E-02    6.450E-02    6.409E-02    6.369E-02    6.329E-02
     6.289E-02    6.249E-02    6.209E-02    6.169E-02    6.129E-02    6.089E-02    6.049E-02    6.009E-02    5.969E-02    5.928E-02
     5.888E-02    5.848E-02    5.808E-02    5.768E-02    5.728E-02    5.687E-02    5.647E-02    5.607E-02    5.567E-02    5.526E-02
     5.486E-02    5.446E-02    5.406E-02    5.365E-02    5.325E-02    5.285E-02    5.245E-02    5.204E-02    5.164E-02    5.124E-02
     5.083E-02    5.043E-02    5.003E-02    4.962E-02    4.922E-02    4.882E-02    4.841E-02    4.801E-02    4.760E-02    4.720E-02
     4.680E-02    4.639E-02    4.599E-02    4.558E-02    4.518E-02    4.477E-02    4.437E-02    4.397E-02    4.356E-02    4.316E-02
     4.275E-02    4.235E-02    4.194E-02    4.154E-02    4.113E-02    4.073E-02    4.032E-02    3.991E-02    3.951E-02    3.910E-02
     3.870E-02    3.829E-02    3.789E-02    3.748E-02    3.708E-02    3.667E-02    3.626E-02    3.586E-02    3.545E-02    3.505E-02
     3.464E-02    3.423E-02    3.383E-02    3.342E-02    3.301E-02    3.261E-02    3.220E-02    3.179E-02    3.139E-02    3.098E-02
     3.057E-02    3.017E-02    2.976E-02    2.935E-02    2.894E-02    2.854E-02    2.813E-02    2.772E-02    2.731E-02    2.691E-02
     2.650E-02    2.609E-02    2.568E-02    2.528E-02    2.487E-02    2.446E-02    2.405E-02    2.365E-02    2.324E-02    2.283E-02
     2.242E-02    2.201E-02    2.161E-02    2.120E-02    2.079E-02    2.038E-02    1.997E-02    1.956E-02    1.916E-02    1.875E-02
     1.834E-02    1.793E-02    1.752E-02    1.711E-02    1.670E-02    1.629E-02    1.589E-02    1.548E-02    1.507E-02    1.466E-02
     1.425E-02    1.384E-02    1.343E-02    1.302E-02    1.261E-02    1.220E-02    1.179E-02    1.139E-02    1.098E-02    1.057E-02
     1.016E-02    9.747E-03    9.338E-03    8.928E-03    8.518E-03    8.109E-03    7.699E-03    7.289E-03    6.879E-03    6.470E-03
     6.060E-03    5.650E-03    5.240E-03    4.830E-03    4.420E-03    4.010E-03    3.600E-03    3.190E-03    2.780E-03    2.369E-03
     1.959E-03    1.549E-03    1.139E-03    7.285E-04    3.182E-04   -9.219E-05   -5.026E-04   -9.130E-04   -1.323E-03   -1.734E-03
    -2.144E-03   -2.555E-03   -2.965E-03   -3.376E-03   -3.787E-03   -4.197E-03   -4.608E-03   -5.019E-03   -5.429E-03   -5.840E-03
    -6.251E-03   -6.661E-03   -7.072E-03   -7.483E-03   -7.894E-03   -8.305E-03   -8.716E-03   -9.126E-03   -9.537E-03   -9.948E-03
    -1.036E-02   -1.077E-02   -1.118E-02   -1.159E-02   -1.200E-02   -1.241E-02   -1.283E-02   -1.324E-02   -1.365E-02   -1.406E-02
    -1.447E-02   -1.488E-02   -1.529E-02   -1.570E-02   -1.611E-02   -1.653E-02   -1.694E-02   -1.735E-02   -1.776E-02   -1.817E-02
    -1.858E-02   -1.899E-02   -1.940E-02   -1.981E-02   -2.023E-02   -2.064E-02   -2.105E-02   -2.146E-02   -2.187E-02   -2.228E-02
    -2.269E-02   -2.311E-02   -2.352E-02   -2.393E-02   -2.434E-02   -2.475E-02   -2.516E-02   -2.557E-02   -2.598E-02   -2.640E-02
    -2.681E-02   -2.722E-02   -2.763E-02   -2.804E-02   -2.845E-02   -2.886E-02   -2.927E-02   -2.969E-02   -3.010E-02   -3.051E-02
    -3.092E-02   -3.133E-02   -3.174E-02   -3.215E-02   -3.257E-02   -3.298E-02   -3.339E-02   -3.380E-02   -3.421E-02   -3.462E-02
    -3.503E-02   -3.544E-02   -3.586E-02   -3.627E-02   -3.668E-02   -3.709E-02   -3.750E-02   -3.791E-02   -3.832E-02   -3.873E-02
    -3.914E-02   -3.956E-02   -3.997E-02   -4.038E-02   -4.079E-02   -4.120E-02   -4.161E-02   -4.202E-02   -4.243E-02   -4.284E-02
    -4.326E-02   -4.367E-02   -4.408E-02   -4.449E-02   -4.490E-02   -4.531E-02   -4.572E-02   -4.613E-02   -4.654E-02   -4.695E-02
    -4.736E-02   -4.777E-02   -4.819E-02   -4.860E-02   -4.901E-02   -4.942E-02   -4.983E-02   -5.024E-02   -5.065E-02   -5.106E-02
    -5.147E-02   -5.188E-02   -5.229E-02   -5.270E-02   -5.311E-02   -5.352E-02   -5.393E-02   -5.434E-02   -5.475E-02   -5.516E-02
    -5.558E-02   -5.599E-02   -5.640E-02   -5.681E-02   -5.722E-02   -5.763E-02   -5.804E-02   -5.845E-02   -5.886E-02   -5.927E-02
    -5.968E-02   -6.009E-02   -6.050E-02   -6.091E-02   -6.132E-02   -6.173E-02   -6.214E-02   -6.255E-02   -6.295E-02   -6.336E-02
    -6.377E-02   -6.418E-02   -6.459E-02   -6.500E-02   -6.541E-02   -6.582E-02   -6.623E-02   -6.664E-02   -6.705E-02   -6.746E-02
    -6.787E-02   -6.828E-02   -6.869E-02   -6.910E-02   -6.950E-02   -6.991E-02   -7.032E-02   -7.073E-02   -7.114E-02   -7.155E-02
    -7.196E-02   -7.237E-02   -7.277E-02   -7.318E-02   -7.359E-02   -7.400E-02   -7.441E-02   -7.482E-02   -7.523E-02   -7.563E-02
    -7.604E-02   -7.645E-02   -7.686E-02   -7.727E-02   -7.767E-02   -7.808E-02   -7.849E-02   -7.890E-02   -7.931E-02   -7.971E-02
    -8.012E-02   -8.053E-02   -8.094E-02   -8.134E-02   -8.175E-02   -8.216E-02   -8.257E-02   -8.297E-02   -8.338E-02   -8.379E-02
    -8.420E-02   -8.460E-02   -8.501E-02   -8.542E-02   -8.582E-02   -8.623E-02   -8.664E-02   -8.704E-02   -8.745E-02   -8.786E-02
    -8.826E-02   -8.867E-02   -8.908E-02   -8.948E-02   -8.989E-02   -9.029E-02   -9.070E-02   -9.111E-02   -9.151E-02   -9.192E-02
    -9.232E-02   -9.273E-02   -9.314E-02   -9.354E-02   -9.395E-02   -9.435E-02   -9.476E-02   -9.516E-02   -9.557E-02   -9.597E-02
    -9.638E-02   -9.678E-02   -9.719E-02   -9.759E-02   -9.800E-02   -9.840E-02   -9.881E-02   -9.921E-02   -9.962E-02   -1.000E-01
    -1.004E-01   -1.008E-01   -1.012E-01   -1.016E-01   -1.020E-01   -1.024E-01   -1.029E-01   -1.033E-01   -1.037E-01   -1.041E-01
    -1.045E-01   -1.049E-01   -1.053E-01   -1.057E-01   -1.061E-01   -1.065E-01   -1.069E-01   -1.073E-01   -1.077E-01   -1.081E-01
    -1.085E-01   -1.089E-01   -1.093E-01   -1.097E-01   -1.101E-01   -1.105E-01   -1.109E-01   -1.113E-01   -1.117E-01   -1.121E-01
    -1.125E-01   -1.129E-01   -1.133E-01   -1.137E-01   -1.141E-01   -1.145E-01   -1.149E-01   -1.153E-01
 Asp      Conc. = 6.37E+00
