 LCModel (Version 6.3-1L) Copyright: S.W. Provencher.          Ref.: Magn. Reson. Med. 30:672-679 (1993).                
 Slice#2 Row#13 Col#9  PD_05_press_1_raw_act
 36 lines in following concentration table = NCONC+1
    Conc.  %SD /Cr+PCr  Metabolite                                         
   92.190  57%   0.338 Ala                                                 
   41.063 125%   0.150 Asp                                                 
  142.007  67%   0.520 Cr                                                  
  130.924  73%   0.480 PCr                                                 
   38.659  84%   0.142 GABA                                                
   36.447  88%   0.134 Glc                                                 
   82.373 141%   0.302 Gln                                                 
  248.480  53%   0.910 Glu                                                 
    0.000 999%   0.000 GPC                                                 
   93.611   9%   0.343 PCh                                                 
   52.412  62%   0.192 GSH                                                 
  492.954  24%   1.806 Ins                                                 
    0.000 999%   0.000 Lac                                                 
  517.961   5%   1.898 NAA                                                 
    0.000 999%   0.000 NAAG                                                
   39.108  22%   0.143 Scyllo                                              
  120.550  42%   0.442 Tau                                                 
  115.415  36%   0.423 -CrCH2                                              
   93.611   9%   0.343 GPC+PCh                                             
  517.961   5%   1.898 NAA+NAAG                                            
  272.932   8%   1.000 Cr+PCr                                              
  330.854  61%   1.212 Glu+Gln                                             
   10.504 415% 3.8E-02 Lip13a                                              
    0.000 999%   0.000 Lip13b                                              
    0.000 999%   0.000 Lip09                                               
  105.940  54%   0.388 MM09                                                
    1.917 583% 7.0E-03 Lip20                                               
  163.337  53%   0.598 MM20                                                
   31.846  56%   0.117 MM12                                                
   88.907  53%   0.326 MM14                                                
   41.649  62%   0.153 MM17                                                
   10.504 415% 3.8E-02 Lip13a+Lip13b                                       
  131.258  60%   0.481 MM14+Lip13a+Lip13b+MM12                             
  105.940  54%   0.388 MM09+Lip09                                          
  165.254  53%   0.605 MM20+Lip20                                          
   6 lines in following misc. output table
  FWHM = 0.054 ppm    S/N =   6                                            
  Data shift = 0.038 ppm                                                   
  Ph: -87 deg     -32.7 deg/ppm                                            
  alphaB,S = 7.1E-01,   4.8E+01                                            
   14 spline knots.   Ns = 8(1)                                            
  (15) 8 infls.   (12) 1 extrs.                                            
  498 points on ppm-axis = NY
      4.000000     3.992357     3.984714     3.977070     3.969427     3.961784     3.954141     3.946497     3.938854     3.931211
      3.923568     3.915925     3.908281     3.900638     3.892995     3.885352     3.877708     3.870065     3.862422     3.854779
      3.847136     3.839492     3.831849     3.824206     3.816563     3.808919     3.801276     3.793633     3.785990     3.778347
      3.770703     3.763060     3.755417     3.747774     3.740130     3.732487     3.724844     3.717201     3.709558     3.701914
      3.694271     3.686628     3.678985     3.671341     3.663698     3.656055     3.648412     3.640769     3.633125     3.625482
      3.617839     3.610196     3.602552     3.594909     3.587266     3.579623     3.571980     3.564336     3.556693     3.549050
      3.541407     3.533763     3.526120     3.518477     3.510834     3.503191     3.495547     3.487904     3.480261     3.472618
      3.464974     3.457331     3.449688     3.442045     3.434402     3.426758     3.419115     3.411472     3.403829     3.396185
      3.388542     3.380899     3.373256     3.365613     3.357969     3.350326     3.342683     3.335040     3.327396     3.319753
      3.312110     3.304467     3.296824     3.289180     3.281537     3.273894     3.266251     3.258607     3.250964     3.243321
      3.235678     3.228034     3.220391     3.212748     3.205105     3.197462     3.189818     3.182175     3.174532     3.166889
      3.159245     3.151602     3.143959     3.136316     3.128673     3.121029     3.113386     3.105743     3.098100     3.090456
      3.082813     3.075170     3.067527     3.059884     3.052240     3.044597     3.036954     3.029311     3.021667     3.014024
      3.006381     2.998738     2.991095     2.983451     2.975808     2.968165     2.960522     2.952878     2.945235     2.937592
      2.929949     2.922306     2.914662     2.907019     2.899376     2.891733     2.884089     2.876446     2.868803     2.861160
      2.853517     2.845873     2.838230     2.830587     2.822944     2.815300     2.807657     2.800014     2.792371     2.784728
      2.777084     2.769441     2.761798     2.754155     2.746511     2.738868     2.731225     2.723582     2.715939     2.708295
      2.700652     2.693009     2.685366     2.677722     2.670079     2.662436     2.654793     2.647150     2.639506     2.631863
      2.624220     2.616577     2.608933     2.601290     2.593647     2.586004     2.578361     2.570717     2.563074     2.555431
      2.547788     2.540144     2.532501     2.524858     2.517215     2.509572     2.501928     2.494285     2.486642     2.478999
      2.471355     2.463712     2.456069     2.448426     2.440783     2.433139     2.425496     2.417853     2.410210     2.402566
      2.394923     2.387280     2.379637     2.371994     2.364350     2.356707     2.349064     2.341421     2.333777     2.326134
      2.318491     2.310848     2.303205     2.295561     2.287918     2.280275     2.272632     2.264988     2.257345     2.249702
      2.242059     2.234416     2.226772     2.219129     2.211486     2.203843     2.196199     2.188556     2.180913     2.173270
      2.165627     2.157983     2.150340     2.142697     2.135054     2.127410     2.119767     2.112124     2.104481     2.096838
      2.089194     2.081551     2.073908     2.066265     2.058621     2.050978     2.043335     2.035692     2.028049     2.020405
      2.012762     2.005119     1.997476     1.989833     1.982190     1.974546     1.966903     1.959260     1.951617     1.943974
      1.936331     1.928688     1.921045     1.913402     1.905759     1.898115     1.890472     1.882829     1.875186     1.867543
      1.859900     1.852257     1.844614     1.836971     1.829327     1.821684     1.814041     1.806398     1.798755     1.791112
      1.783469     1.775826     1.768183     1.760540     1.752896     1.745253     1.737610     1.729967     1.722324     1.714681
      1.707038     1.699395     1.691752     1.684108     1.676465     1.668822     1.661179     1.653536     1.645893     1.638250
      1.630607     1.622964     1.615321     1.607677     1.600034     1.592391     1.584748     1.577105     1.569462     1.561819
      1.554176     1.546533     1.538890     1.531246     1.523603     1.515960     1.508317     1.500674     1.493031     1.485388
      1.477745     1.470102     1.462458     1.454815     1.447172     1.439529     1.431886     1.424243     1.416600     1.408957
      1.401314     1.393671     1.386027     1.378384     1.370741     1.363098     1.355455     1.347812     1.340169     1.332526
      1.324883     1.317240     1.309596     1.301953     1.294310     1.286667     1.279024     1.271381     1.263738     1.256095
      1.248452     1.240808     1.233165     1.225522     1.217879     1.210236     1.202593     1.194950     1.187307     1.179664
      1.172021     1.164377     1.156734     1.149091     1.141448     1.133805     1.126162     1.118519     1.110876     1.103233
      1.095590     1.087946     1.080303     1.072660     1.065017     1.057374     1.049731     1.042088     1.034445     1.026802
      1.019158     1.011515     1.003872     0.996229     0.988586     0.980943     0.973300     0.965657     0.958014     0.950371
      0.942727     0.935084     0.927441     0.919798     0.912155     0.904512     0.896869     0.889226     0.881583     0.873940
      0.866296     0.858653     0.851010     0.843367     0.835724     0.828081     0.820438     0.812795     0.805152     0.797508
      0.789865     0.782222     0.774579     0.766936     0.759293     0.751650     0.744007     0.736364     0.728721     0.721077
      0.713434     0.705791     0.698148     0.690505     0.682862     0.675219     0.667576     0.659933     0.652290     0.644646
      0.637003     0.629360     0.621717     0.614074     0.606431     0.598788     0.591145     0.583502     0.575858     0.568215
      0.560572     0.552929     0.545286     0.537643     0.530000     0.522357     0.514714     0.507071     0.499427     0.491784
      0.484141     0.476498     0.468855     0.461212     0.453569     0.445925     0.438282     0.430639     0.422996     0.415353
      0.407710     0.400067     0.392424     0.384780     0.377137     0.369494     0.361851     0.354208     0.346565     0.338922
      0.331278     0.323635     0.315992     0.308349     0.300706     0.293063     0.285420     0.277777     0.270133     0.262490
      0.254847     0.247204     0.239561     0.231918     0.224275     0.216631     0.208988     0.201345
 NY phased data points follow
  -3.20524E+01 -3.19625E+01 -3.27004E+01 -2.89460E+01 -2.96918E+01 -2.89587E+01 -2.92979E+01 -2.51064E+01 -2.54959E+01 -2.48351E+01
  -2.52188E+01 -2.37230E+01 -2.56129E+01 -2.36537E+01 -2.44128E+01 -2.72190E+01 -2.72332E+01 -2.82076E+01 -2.66802E+01 -2.54521E+01
  -2.71965E+01 -2.62805E+01 -2.52175E+01 -2.56936E+01 -2.59957E+01 -2.51816E+01 -2.61405E+01 -2.27410E+01 -2.28689E+01 -2.44077E+01
  -2.12607E+01 -2.15669E+01 -2.20302E+01 -2.18679E+01 -2.30995E+01 -2.07297E+01 -2.10910E+01 -2.18752E+01 -2.30426E+01 -2.14201E+01
  -2.15985E+01 -2.03863E+01 -2.23093E+01 -2.07669E+01 -1.93059E+01 -2.04935E+01 -1.98710E+01 -1.84257E+01 -1.85833E+01 -1.79467E+01
  -1.63709E+01 -1.77642E+01 -1.92737E+01 -1.89692E+01 -1.82598E+01 -1.90075E+01 -1.91794E+01 -1.77577E+01 -1.81808E+01 -1.52282E+01
  -1.51884E+01 -1.68406E+01 -1.74991E+01 -1.59167E+01 -1.52212E+01 -1.66592E+01 -1.66962E+01 -1.58297E+01 -1.82375E+01 -1.73155E+01
  -1.64289E+01 -1.85002E+01 -1.69991E+01 -1.48682E+01 -1.53259E+01 -1.43902E+01 -1.49459E+01 -1.77766E+01 -1.67785E+01 -1.53337E+01
  -1.14629E+01 -1.44284E+01 -1.40693E+01 -1.37114E+01 -1.34853E+01 -1.35592E+01 -1.29930E+01 -1.29143E+01 -1.23777E+01 -1.24346E+01
  -1.21011E+01 -1.21348E+01 -1.22530E+01 -1.38476E+01 -1.28841E+01 -1.35429E+01 -1.21400E+01 -1.19873E+01 -1.24795E+01 -9.66189E+00
  -9.15333E+00 -7.09985E+00 -6.43743E+00 -5.20984E+00 -5.72209E+00 -5.59640E+00 -9.16945E+00 -9.93479E+00 -8.79839E+00 -8.65207E+00
  -1.03697E+01 -8.75396E+00 -7.79296E+00 -1.19182E+01 -1.08587E+01 -1.38213E+01 -1.26330E+01 -1.25761E+01 -1.05287E+01 -6.66236E+00
  -1.07639E+01 -8.59255E+00 -7.81355E+00 -7.32207E+00 -5.77852E+00 -3.57680E+00 -1.70508E+00 -2.85747E+00 -4.05479E+00 -4.58390E+00
  -6.72178E+00 -4.48943E+00 -5.47723E+00 -7.01181E+00 -8.27768E+00 -9.63967E+00 -7.01151E+00 -7.64102E+00 -8.59390E+00 -9.77616E+00
  -1.10919E+01 -1.01846E+01 -7.47276E+00 -8.56148E+00 -9.12489E+00 -1.00629E+01 -9.51930E+00 -7.62575E+00 -9.33138E+00 -6.08793E+00
  -7.41566E+00 -9.41955E+00 -7.33319E+00 -9.27196E+00 -9.35655E+00 -8.73000E+00 -7.47754E+00 -7.53159E+00 -6.37123E+00 -9.94087E+00
  -7.20326E+00 -6.91618E+00 -7.65075E+00 -9.09046E+00 -8.40296E+00 -7.47386E+00 -8.22858E+00 -6.42266E+00 -7.65284E+00 -8.28101E+00
  -6.77603E+00 -8.20347E+00 -7.79858E+00 -8.99027E+00 -8.36958E+00 -8.36085E+00 -7.76742E+00 -8.54200E+00 -7.26621E+00 -7.12913E+00
  -6.87099E+00 -6.43193E+00 -6.21210E+00 -7.47291E+00 -6.38636E+00 -5.93940E+00 -5.87803E+00 -5.82800E+00 -8.09362E+00 -5.46672E+00
  -6.00464E+00 -4.29410E+00 -6.20481E+00 -4.51062E+00 -5.07745E+00 -2.92341E+00 -3.70497E+00 -5.44732E+00 -1.99527E+00 -4.11590E+00
  -5.52794E-01 -4.38355E+00 -4.41705E+00 -3.66713E+00 -5.49608E+00 -3.25004E+00 -2.10094E+00 -6.76091E+00 -2.75752E+00 -2.14363E+00
  -3.65515E+00 -4.83367E+00 -2.45353E+00 -2.23588E+00 -1.15711E-01 -2.91538E+00 -1.51747E+00 -1.25687E+00 -1.66415E+00 -3.14141E+00
  -2.51395E+00 -3.50683E+00 -2.69971E+00 -2.54936E+00 -1.82017E+00 -9.41070E-01 -7.12578E-01 -3.49040E+00 -1.55715E+00 -1.21041E+00
  -3.28188E+00 -1.05169E+00 -8.42950E-01 -2.17290E-01 -6.37273E-01 -1.62333E+00 -1.11757E+00 -1.69183E+00 -7.46639E-01  3.45697E-01
   5.17268E-01 -1.23488E-01 -6.95867E-01  1.16661E+00  1.69050E+00 -4.60402E-01  4.29114E+00 -5.74150E-01 -1.11526E+00  3.10159E-01
  -4.03274E-01  2.32770E+00  1.01539E+00 -2.01903E+00  3.27144E+00  7.91758E+00  7.00712E+00  8.09680E+00  8.90226E+00  1.13490E+01
   1.52245E+01  1.66700E+01  1.46851E+01  1.22465E+01  8.56610E+00  7.16907E+00  6.57257E+00  4.08263E+00  2.60461E+00  2.27434E+00
   1.39886E+00  1.17501E+00  2.22694E+00  8.80517E-01  7.07210E-01 -1.01811E+00  1.79307E+00  2.44307E+00  2.73509E+00 -1.42310E-02
  -1.37514E-01  8.36167E-01  5.48201E-01  2.29073E-01  3.16526E-02 -3.81127E-01 -8.53764E-02  1.35682E+00 -2.67509E-02  2.33859E+00
   2.59088E-01  1.74371E+00 -5.12992E-01 -6.57863E-01  1.15476E+00  1.20788E+00  1.54947E+00  1.05799E+00 -3.62150E-01  2.59914E+00
   1.36601E+00  1.27801E+00  2.74511E-01  2.27267E+00  1.42626E+00  2.44229E+00  1.59936E+00  1.22463E+00  2.80690E+00  5.10007E+00
   2.80181E+00  9.71733E-01  2.71537E+00  2.58754E+00  2.07377E+00  1.94364E+00  2.85090E+00  3.05325E+00  3.10980E+00  2.20149E+00
   3.34007E+00  3.27260E+00  2.24031E+00  3.58831E+00  2.03232E+00  2.05028E+00  5.31984E+00  3.18049E+00  2.41800E+00 -4.86784E-01
   2.24831E+00  2.54601E+00  4.18892E+00  1.26682E+00  4.07342E+00  2.21507E+00  3.72729E+00  4.10036E+00  1.94497E+00  3.25457E+00
   2.81386E+00  3.34471E+00  2.24199E+00  3.14210E+00  2.76790E+00  3.60292E+00  2.41797E+00  2.15969E+00  3.52692E+00  3.33850E+00
   1.87608E+00  4.10576E+00  2.85341E+00  2.89979E+00  1.08213E+00  2.48625E+00  7.60308E-01  1.77845E+00  3.17196E+00  1.96636E+00
   1.37625E+00  2.08528E+00  2.68646E+00  3.62566E+00  3.03407E-01  3.63539E+00  5.08126E+00  9.29256E-01  3.44079E+00  3.54393E+00
   3.31834E+00  3.89549E+00  3.20497E+00  3.46537E+00  2.50382E+00  7.80102E-01  4.54781E+00  2.61916E+00  4.33997E+00  3.80782E-01
   2.65123E+00  2.90731E+00  3.41264E+00  2.36400E+00 -9.47454E-01  1.81338E+00  3.32583E+00  3.97924E+00  4.53126E-01  1.06786E+00
   5.97913E-01  1.84246E+00  2.15495E+00  2.48130E+00  3.57234E+00  1.95296E+00  1.40783E+00  2.14505E+00  2.27621E+00  1.91752E+00
   2.55736E+00  2.33338E+00  2.52874E+00  3.88423E+00  2.48962E+00  7.89191E-01  3.34434E+00  5.24678E+00  1.86112E+00  2.88559E+00
   2.59949E+00  2.32760E+00  4.15519E+00  2.51221E+00  3.54937E+00  5.68864E+00  3.53310E+00  2.03107E+00  4.05361E+00  3.37135E+00
   2.71263E+00  3.60380E+00  2.47551E+00  8.77099E-01  1.38219E+00  3.95748E+00  1.78280E+00  4.02611E+00  1.89481E+00  2.24269E+00
   1.14642E+00  2.44342E+00  3.37232E+00  3.66576E+00  3.84138E+00  7.86153E-01  3.14997E+00  2.17192E+00  4.10569E+00  2.33121E+00
   1.86165E+00  4.79210E+00  2.62611E+00  3.61674E+00  2.44961E+00  2.59213E+00  2.63246E+00  3.82934E+00  4.26789E+00  3.36475E+00
   3.32457E+00  3.92153E+00  2.10261E+00  2.58254E+00  4.22687E+00  4.30977E+00  3.83304E+00  1.91193E+00  5.18337E+00  1.91635E+00
   4.08286E+00  1.80643E+00  3.07757E+00  2.72740E+00  3.34019E+00  4.14644E+00  2.81165E+00  2.92938E+00  2.27713E+00  4.42003E-01
   3.35628E+00  3.18866E+00  1.91468E+00  3.42838E+00  1.31943E+00  4.12640E+00  2.81475E+00  4.01165E+00  2.40586E+00  2.10525E+00
   3.54332E+00  3.33557E+00  3.58335E+00  2.09467E+00  2.48117E+00  1.78262E+00  2.26507E+00  2.59713E+00  3.97004E+00  1.65252E+00
   2.14975E+00  2.80672E+00  3.21504E+00  2.68730E+00  3.74413E+00  6.00530E+00  2.82500E+00  1.88065E+00
 NY points of the fit to the data follow
  -2.85645E+01 -2.86248E+01 -2.86482E+01 -2.84971E+01 -2.81386E+01 -2.76824E+01 -2.72454E+01 -2.68136E+01 -2.62786E+01 -2.56094E+01
  -2.49637E+01 -2.46001E+01 -2.46520E+01 -2.49769E+01 -2.52993E+01 -2.54463E+01 -2.54895E+01 -2.55408E+01 -2.56053E+01 -2.56288E+01
  -2.56066E+01 -2.54718E+01 -2.52708E+01 -2.50192E+01 -2.47307E+01 -2.44755E+01 -2.42539E+01 -2.39990E+01 -2.36519E+01 -2.32063E+01
  -2.27303E+01 -2.23225E+01 -2.20597E+01 -2.19442E+01 -2.19119E+01 -2.19239E+01 -2.19788E+01 -2.20370E+01 -2.20906E+01 -2.21253E+01
  -2.19978E+01 -2.16288E+01 -2.11449E+01 -2.07001E+01 -2.02707E+01 -1.97234E+01 -1.90553E+01 -1.84733E+01 -1.82428E+01 -1.84745E+01
  -1.89752E+01 -1.93982E+01 -1.95352E+01 -1.94571E+01 -1.93224E+01 -1.92023E+01 -1.90957E+01 -1.89204E+01 -1.85967E+01 -1.81834E+01
  -1.78107E+01 -1.75863E+01 -1.75218E+01 -1.75346E+01 -1.75266E+01 -1.74270E+01 -1.72293E+01 -1.69995E+01 -1.67833E+01 -1.65510E+01
  -1.62929E+01 -1.60322E+01 -1.57788E+01 -1.55613E+01 -1.53935E+01 -1.52773E+01 -1.52111E+01 -1.52052E+01 -1.52320E+01 -1.51351E+01
  -1.48687E+01 -1.45959E+01 -1.43907E+01 -1.41915E+01 -1.39425E+01 -1.36512E+01 -1.34420E+01 -1.34733E+01 -1.37198E+01 -1.39705E+01
  -1.40365E+01 -1.39366E+01 -1.38279E+01 -1.37882E+01 -1.37550E+01 -1.35993E+01 -1.30081E+01 -1.19071E+01 -1.08072E+01 -9.97773E+00
  -9.14522E+00 -7.99389E+00 -6.59064E+00 -5.48542E+00 -5.29339E+00 -6.10232E+00 -7.35422E+00 -8.35290E+00 -8.92605E+00 -9.42243E+00
  -1.00280E+01 -1.06413E+01 -1.12488E+01 -1.16465E+01 -1.16991E+01 -1.16458E+01 -1.15593E+01 -1.14512E+01 -1.12691E+01 -1.08336E+01
  -9.91167E+00 -8.76786E+00 -7.80639E+00 -6.92177E+00 -5.78727E+00 -4.33669E+00 -2.98276E+00 -2.39129E+00 -2.88832E+00 -4.12400E+00
  -5.35514E+00 -6.12039E+00 -6.66894E+00 -7.32834E+00 -8.04103E+00 -8.75731E+00 -9.38254E+00 -9.57342E+00 -9.51986E+00 -9.38821E+00
  -9.23452E+00 -9.09196E+00 -8.97789E+00 -8.88109E+00 -8.77936E+00 -8.67973E+00 -8.59063E+00 -8.51782E+00 -8.46373E+00 -8.41484E+00
  -8.35694E+00 -8.29228E+00 -8.22123E+00 -8.15147E+00 -8.09600E+00 -8.06201E+00 -8.02516E+00 -7.96848E+00 -7.89964E+00 -7.84054E+00
  -7.81382E+00 -7.79285E+00 -7.71933E+00 -7.57313E+00 -7.39738E+00 -7.26898E+00 -7.22521E+00 -7.23189E+00 -7.23864E+00 -7.22594E+00
  -7.20459E+00 -7.18404E+00 -7.15821E+00 -7.13068E+00 -7.13293E+00 -7.14773E+00 -7.11008E+00 -6.98688E+00 -6.80823E+00 -6.65581E+00
  -6.58851E+00 -6.57077E+00 -6.48417E+00 -6.28753E+00 -6.05769E+00 -5.86431E+00 -5.70913E+00 -5.54002E+00 -5.28465E+00 -4.96731E+00
  -4.66500E+00 -4.45775E+00 -4.36598E+00 -4.31038E+00 -4.23440E+00 -4.13524E+00 -4.02574E+00 -3.91890E+00 -3.81585E+00 -3.68981E+00
  -3.54287E+00 -3.37814E+00 -3.21475E+00 -3.10451E+00 -3.06846E+00 -3.10201E+00 -3.22575E+00 -3.40561E+00 -3.54902E+00 -3.57080E+00
  -3.48233E+00 -3.34552E+00 -3.16964E+00 -2.94778E+00 -2.69758E+00 -2.49418E+00 -2.42796E+00 -2.52587E+00 -2.70493E+00 -2.86694E+00
  -2.99182E+00 -3.05908E+00 -3.01369E+00 -2.81381E+00 -2.50898E+00 -2.20981E+00 -1.95915E+00 -1.77451E+00 -1.63017E+00 -1.51115E+00
  -1.41199E+00 -1.29385E+00 -1.15945E+00 -1.04423E+00 -9.46646E-01 -8.56896E-01 -7.89402E-01 -7.23880E-01 -6.55912E-01 -6.13418E-01
  -6.08732E-01 -6.18458E-01 -6.06824E-01 -5.53350E-01 -4.53853E-01 -3.14770E-01 -1.71231E-01 -4.79525E-02  6.59956E-02  1.88071E-01
   3.26751E-01  5.15167E-01  8.57272E-01  1.68037E+00  3.38537E+00  5.40991E+00  7.00419E+00  8.42926E+00  1.03312E+01  1.28070E+01
   1.50313E+01  1.57406E+01  1.43799E+01  1.16922E+01  9.11836E+00  7.49075E+00  6.28106E+00  4.89664E+00  3.47709E+00  2.09207E+00
   9.00747E-01  5.03929E-01  4.69481E-01  5.08055E-01  5.69837E-01  6.30010E-01  6.72665E-01  7.01054E-01  7.21190E-01  7.36847E-01
   7.49763E-01  7.64523E-01  7.80946E-01  8.01851E-01  8.32195E-01  8.69852E-01  9.12509E-01  9.58511E-01  1.00436E+00  1.04997E+00
   1.09679E+00  1.14253E+00  1.18631E+00  1.22887E+00  1.27063E+00  1.31224E+00  1.35520E+00  1.39983E+00  1.44471E+00  1.48907E+00
   1.53335E+00  1.57724E+00  1.62035E+00  1.66275E+00  1.70357E+00  1.74242E+00  1.77946E+00  1.81510E+00  1.84974E+00  1.88357E+00
   1.91684E+00  1.94997E+00  1.98369E+00  2.01903E+00  2.05712E+00  2.09920E+00  2.14716E+00  2.20430E+00  2.27738E+00  2.38069E+00
   2.52352E+00  2.64868E+00  2.69758E+00  2.70335E+00  2.71406E+00  2.70992E+00  2.61085E+00  2.35434E+00  2.01847E+00  1.76307E+00
   1.65774E+00  1.67528E+00  1.75572E+00  1.89898E+00  2.15863E+00  2.49413E+00  2.78278E+00  2.96642E+00  3.02080E+00  3.01915E+00
   3.03363E+00  3.03700E+00  3.00567E+00  2.94668E+00  2.84640E+00  2.74895E+00  2.69199E+00  2.65546E+00  2.62927E+00  2.60943E+00
   2.59405E+00  2.58208E+00  2.57296E+00  2.56620E+00  2.56139E+00  2.55811E+00  2.55610E+00  2.55515E+00  2.55511E+00  2.55573E+00
   2.55672E+00  2.55785E+00  2.55900E+00  2.56013E+00  2.56116E+00  2.56199E+00  2.56252E+00  2.56273E+00  2.56272E+00  2.56262E+00
   2.56252E+00  2.56246E+00  2.56252E+00  2.56286E+00  2.56372E+00  2.56529E+00  2.56770E+00  2.57106E+00  2.57552E+00  2.58129E+00
   2.58862E+00  2.59769E+00  2.60861E+00  2.62151E+00  2.63658E+00  2.65401E+00  2.67403E+00  2.69672E+00  2.72211E+00  2.75022E+00
   2.78110E+00  2.81470E+00  2.85088E+00  2.88933E+00  2.92961E+00  2.97122E+00  3.01363E+00  3.05616E+00  3.09799E+00  3.13819E+00
   3.17582E+00  3.20998E+00  3.23987E+00  3.26470E+00  3.28377E+00  3.29649E+00  3.30255E+00  3.30186E+00  3.29457E+00  3.28095E+00
   3.26147E+00  3.23673E+00  3.20756E+00  3.17491E+00  3.13975E+00  3.10301E+00  3.06554E+00  3.02820E+00  2.99177E+00  2.95696E+00
   2.92427E+00  2.89404E+00  2.86651E+00  2.84183E+00  2.82010E+00  2.80131E+00  2.78533E+00  2.77195E+00  2.76098E+00  2.75221E+00
   2.74550E+00  2.74061E+00  2.73732E+00  2.73536E+00  2.73459E+00  2.73485E+00  2.73606E+00  2.73806E+00  2.74069E+00  2.74384E+00
   2.74745E+00  2.75148E+00  2.75590E+00  2.76060E+00  2.76552E+00  2.77059E+00  2.77584E+00  2.78126E+00  2.78682E+00  2.79245E+00
   2.79812E+00  2.80380E+00  2.80955E+00  2.81535E+00  2.82118E+00  2.82698E+00  2.83276E+00  2.83852E+00  2.84432E+00  2.85014E+00
   2.85594E+00  2.86170E+00  2.86742E+00  2.87313E+00  2.87888E+00  2.88463E+00  2.89035E+00  2.89601E+00  2.90165E+00  2.90731E+00
   2.91300E+00  2.91867E+00  2.92431E+00  2.92991E+00  2.93552E+00  2.94115E+00  2.94681E+00  2.95246E+00  2.95808E+00  2.96368E+00
   2.96932E+00  2.97500E+00  2.98070E+00  2.98639E+00  2.99207E+00  2.99778E+00  3.00354E+00  3.00936E+00  3.01521E+00  3.02106E+00
   3.02694E+00  3.03288E+00  3.03891E+00  3.04501E+00  3.05116E+00  3.05735E+00  3.06362E+00  3.07002E+00
 NY background values follow
    -2.998E+01   -2.980E+01   -2.962E+01   -2.944E+01   -2.926E+01   -2.908E+01   -2.890E+01   -2.873E+01   -2.855E+01   -2.837E+01
    -2.819E+01   -2.801E+01   -2.783E+01   -2.765E+01   -2.747E+01   -2.729E+01   -2.711E+01   -2.693E+01   -2.676E+01   -2.658E+01
    -2.640E+01   -2.622E+01   -2.604E+01   -2.587E+01   -2.569E+01   -2.551E+01   -2.534E+01   -2.516E+01   -2.499E+01   -2.481E+01
    -2.463E+01   -2.446E+01   -2.429E+01   -2.411E+01   -2.394E+01   -2.376E+01   -2.359E+01   -2.342E+01   -2.325E+01   -2.308E+01
    -2.291E+01   -2.273E+01   -2.256E+01   -2.240E+01   -2.223E+01   -2.206E+01   -2.189E+01   -2.172E+01   -2.156E+01   -2.139E+01
    -2.123E+01   -2.106E+01   -2.090E+01   -2.073E+01   -2.057E+01   -2.041E+01   -2.025E+01   -2.009E+01   -1.993E+01   -1.977E+01
    -1.961E+01   -1.945E+01   -1.929E+01   -1.914E+01   -1.898E+01   -1.882E+01   -1.867E+01   -1.852E+01   -1.836E+01   -1.821E+01
    -1.806E+01   -1.791E+01   -1.776E+01   -1.761E+01   -1.746E+01   -1.731E+01   -1.716E+01   -1.702E+01   -1.687E+01   -1.673E+01
    -1.658E+01   -1.644E+01   -1.630E+01   -1.615E+01   -1.601E+01   -1.587E+01   -1.573E+01   -1.560E+01   -1.546E+01   -1.532E+01
    -1.519E+01   -1.505E+01   -1.492E+01   -1.478E+01   -1.465E+01   -1.452E+01   -1.439E+01   -1.426E+01   -1.413E+01   -1.400E+01
    -1.388E+01   -1.375E+01   -1.362E+01   -1.350E+01   -1.337E+01   -1.325E+01   -1.313E+01   -1.301E+01   -1.289E+01   -1.277E+01
    -1.265E+01   -1.253E+01   -1.241E+01   -1.229E+01   -1.218E+01   -1.206E+01   -1.194E+01   -1.183E+01   -1.172E+01   -1.160E+01
    -1.149E+01   -1.138E+01   -1.127E+01   -1.116E+01   -1.105E+01   -1.094E+01   -1.083E+01   -1.072E+01   -1.062E+01   -1.051E+01
    -1.041E+01   -1.030E+01   -1.020E+01   -1.009E+01   -9.989E+00   -9.886E+00   -9.784E+00   -9.683E+00   -9.582E+00   -9.482E+00
    -9.382E+00   -9.283E+00   -9.184E+00   -9.086E+00   -8.989E+00   -8.892E+00   -8.796E+00   -8.700E+00   -8.604E+00   -8.509E+00
    -8.415E+00   -8.321E+00   -8.227E+00   -8.134E+00   -8.042E+00   -7.950E+00   -7.858E+00   -7.767E+00   -7.676E+00   -7.586E+00
    -7.496E+00   -7.406E+00   -7.317E+00   -7.228E+00   -7.140E+00   -7.051E+00   -6.964E+00   -6.876E+00   -6.789E+00   -6.703E+00
    -6.616E+00   -6.530E+00   -6.445E+00   -6.359E+00   -6.274E+00   -6.189E+00   -6.105E+00   -6.020E+00   -5.936E+00   -5.853E+00
    -5.769E+00   -5.686E+00   -5.603E+00   -5.520E+00   -5.437E+00   -5.355E+00   -5.273E+00   -5.191E+00   -5.110E+00   -5.029E+00
    -4.948E+00   -4.867E+00   -4.787E+00   -4.707E+00   -4.627E+00   -4.548E+00   -4.469E+00   -4.390E+00   -4.312E+00   -4.233E+00
    -4.156E+00   -4.078E+00   -4.001E+00   -3.925E+00   -3.849E+00   -3.773E+00   -3.697E+00   -3.622E+00   -3.548E+00   -3.473E+00
    -3.399E+00   -3.326E+00   -3.253E+00   -3.180E+00   -3.108E+00   -3.036E+00   -2.965E+00   -2.894E+00   -2.824E+00   -2.754E+00
    -2.685E+00   -2.616E+00   -2.547E+00   -2.479E+00   -2.412E+00   -2.345E+00   -2.279E+00   -2.213E+00   -2.147E+00   -2.082E+00
    -2.018E+00   -1.954E+00   -1.891E+00   -1.828E+00   -1.766E+00   -1.704E+00   -1.643E+00   -1.582E+00   -1.522E+00   -1.462E+00
    -1.403E+00   -1.344E+00   -1.286E+00   -1.228E+00   -1.171E+00   -1.114E+00   -1.058E+00   -1.002E+00   -9.465E-01   -8.918E-01
    -8.375E-01   -7.838E-01   -7.305E-01   -6.777E-01   -6.254E-01   -5.737E-01   -5.224E-01   -4.715E-01   -4.212E-01   -3.714E-01
    -3.221E-01   -2.732E-01   -2.248E-01   -1.769E-01   -1.295E-01   -8.263E-02   -3.619E-02    9.762E-03    5.524E-02    1.002E-01
     1.447E-01    1.888E-01    2.323E-01    2.754E-01    3.180E-01    3.602E-01    4.018E-01    4.430E-01    4.837E-01    5.239E-01
     5.637E-01    6.029E-01    6.417E-01    6.800E-01    7.179E-01    7.552E-01    7.921E-01    8.285E-01    8.644E-01    8.999E-01
     9.348E-01    9.693E-01    1.003E+00    1.037E+00    1.070E+00    1.102E+00    1.135E+00    1.166E+00    1.197E+00    1.228E+00
     1.258E+00    1.288E+00    1.317E+00    1.346E+00    1.374E+00    1.402E+00    1.429E+00    1.456E+00    1.482E+00    1.508E+00
     1.534E+00    1.559E+00    1.583E+00    1.607E+00    1.631E+00    1.654E+00    1.676E+00    1.698E+00    1.720E+00    1.741E+00
     1.761E+00    1.782E+00    1.801E+00    1.821E+00    1.840E+00    1.858E+00    1.876E+00    1.894E+00    1.911E+00    1.928E+00
     1.944E+00    1.960E+00    1.976E+00    1.991E+00    2.006E+00    2.020E+00    2.034E+00    2.048E+00    2.062E+00    2.075E+00
     2.088E+00    2.100E+00    2.112E+00    2.124E+00    2.136E+00    2.147E+00    2.158E+00    2.169E+00    2.179E+00    2.189E+00
     2.199E+00    2.209E+00    2.218E+00    2.227E+00    2.236E+00    2.245E+00    2.253E+00    2.261E+00    2.269E+00    2.277E+00
     2.285E+00    2.292E+00    2.299E+00    2.307E+00    2.313E+00    2.320E+00    2.327E+00    2.333E+00    2.339E+00    2.346E+00
     2.352E+00    2.357E+00    2.363E+00    2.369E+00    2.374E+00    2.380E+00    2.385E+00    2.391E+00    2.396E+00    2.401E+00
     2.406E+00    2.411E+00    2.416E+00    2.421E+00    2.426E+00    2.431E+00    2.435E+00    2.440E+00    2.445E+00    2.450E+00
     2.454E+00    2.459E+00    2.464E+00    2.469E+00    2.474E+00    2.479E+00    2.483E+00    2.488E+00    2.493E+00    2.498E+00
     2.504E+00    2.509E+00    2.514E+00    2.520E+00    2.525E+00    2.531E+00    2.536E+00    2.542E+00    2.548E+00    2.554E+00
     2.560E+00    2.566E+00    2.573E+00    2.579E+00    2.585E+00    2.592E+00    2.599E+00    2.605E+00    2.612E+00    2.619E+00
     2.626E+00    2.633E+00    2.640E+00    2.647E+00    2.654E+00    2.662E+00    2.669E+00    2.676E+00    2.683E+00    2.691E+00
     2.698E+00    2.705E+00    2.713E+00    2.720E+00    2.728E+00    2.735E+00    2.742E+00    2.750E+00    2.757E+00    2.764E+00
     2.772E+00    2.779E+00    2.786E+00    2.794E+00    2.801E+00    2.808E+00    2.815E+00    2.822E+00    2.829E+00    2.836E+00
     2.843E+00    2.850E+00    2.857E+00    2.863E+00    2.870E+00    2.876E+00    2.883E+00    2.889E+00    2.896E+00    2.902E+00
     2.908E+00    2.914E+00    2.920E+00    2.927E+00    2.933E+00    2.938E+00    2.944E+00    2.950E+00    2.956E+00    2.962E+00
     2.968E+00    2.973E+00    2.979E+00    2.985E+00    2.990E+00    2.996E+00    3.002E+00    3.007E+00    3.013E+00    3.018E+00
     3.024E+00    3.029E+00    3.035E+00    3.040E+00    3.046E+00    3.051E+00    3.057E+00    3.062E+00    3.068E+00    3.073E+00
     3.079E+00    3.084E+00    3.090E+00    3.095E+00    3.101E+00    3.106E+00    3.112E+00    3.117E+00
 Ala      Conc. = 9.22E+01
