 LCModel (Version 6.3-1L) Copyright: S.W. Provencher.          Ref.: Magn. Reson. Med. 30:672-679 (1993).                
 Slice#1 Row#14 Col#4  PD_05_press_1_raw_act
 36 lines in following concentration table = NCONC+1
    Conc.  %SD /Cr+PCr  Metabolite                                         
    0.000 999%   0.000 Ala                                                 
    2.971 106%   0.570 Asp                                                 
    0.000 999%   0.000 Cr                                                  
    5.208 358%   1.000 PCr                                                 
    1.797 105%   0.345 GABA                                                
    1.824 104%   0.350 Glc                                                 
    0.000 999%   0.000 Gln                                                 
  225.981  74%  43.392 Glu                                                 
    0.000 999%   0.000 GPC                                                 
   18.535  37%   3.559 PCh                                                 
   54.543  54%  10.473 GSH                                                 
  351.995  26%  67.588 Ins                                                 
  136.237  88%  26.159 Lac                                                 
    0.000 999%   0.000 NAA                                                 
    0.000 999%   0.000 NAAG                                                
    0.677  94%   0.130 Scyllo                                              
    3.174  99%   0.609 Tau                                                 
    0.759 371%   0.146 -CrCH2                                              
   18.535  37%   3.559 GPC+PCh                                             
    0.000 999%   0.000 NAA+NAAG                                            
    5.208 358%   1.000 Cr+PCr                                              
  225.981  74%  43.392 Glu+Gln                                             
   11.174 999%   2.146 Lip13a                                              
  160.010 115%  30.724 Lip13b                                              
   46.573  65%   8.943 Lip09                                               
    0.000 999%   0.000 MM09                                                
   22.322  90%   4.286 Lip20                                               
    0.000 999%   0.000 MM20                                                
    0.000 999%   0.000 MM12                                                
   15.392 379%   2.956 MM14                                                
    0.000 999%   0.000 MM17                                                
  171.184  58%  32.870 Lip13a+Lip13b                                       
  186.577  61%  35.825 MM14+Lip13a+Lip13b+MM12                             
   46.573  66%   8.943 MM09+Lip09                                          
   22.322  90%   4.286 MM20+Lip20                                          
   6 lines in following misc. output table
  FWHM = 0.122 ppm    S/N =   1                                            
  Data shift = 0.138 ppm                                                   
  Ph: 169 deg     -31.5 deg/ppm                                            
  alphaB,S = 8.5E+01,   5.1E+01                                            
   14 spline knots.   Ns = 6(2)                                            
  ( 7) 6 infls.   ( 9) 7 extrs.                                            
  498 points on ppm-axis = NY
      4.000000     3.992357     3.984714     3.977070     3.969427     3.961784     3.954141     3.946497     3.938854     3.931211
      3.923568     3.915925     3.908281     3.900638     3.892995     3.885352     3.877708     3.870065     3.862422     3.854779
      3.847136     3.839492     3.831849     3.824206     3.816563     3.808919     3.801276     3.793633     3.785990     3.778347
      3.770703     3.763060     3.755417     3.747774     3.740130     3.732487     3.724844     3.717201     3.709558     3.701914
      3.694271     3.686628     3.678985     3.671341     3.663698     3.656055     3.648412     3.640769     3.633125     3.625482
      3.617839     3.610196     3.602552     3.594909     3.587266     3.579623     3.571980     3.564336     3.556693     3.549050
      3.541407     3.533763     3.526120     3.518477     3.510834     3.503191     3.495547     3.487904     3.480261     3.472618
      3.464974     3.457331     3.449688     3.442045     3.434402     3.426758     3.419115     3.411472     3.403829     3.396185
      3.388542     3.380899     3.373256     3.365613     3.357969     3.350326     3.342683     3.335040     3.327396     3.319753
      3.312110     3.304467     3.296824     3.289180     3.281537     3.273894     3.266251     3.258607     3.250964     3.243321
      3.235678     3.228034     3.220391     3.212748     3.205105     3.197462     3.189818     3.182175     3.174532     3.166889
      3.159245     3.151602     3.143959     3.136316     3.128673     3.121029     3.113386     3.105743     3.098100     3.090456
      3.082813     3.075170     3.067527     3.059884     3.052240     3.044597     3.036954     3.029311     3.021667     3.014024
      3.006381     2.998738     2.991095     2.983451     2.975808     2.968165     2.960522     2.952878     2.945235     2.937592
      2.929949     2.922306     2.914662     2.907019     2.899376     2.891733     2.884089     2.876446     2.868803     2.861160
      2.853517     2.845873     2.838230     2.830587     2.822944     2.815300     2.807657     2.800014     2.792371     2.784728
      2.777084     2.769441     2.761798     2.754155     2.746511     2.738868     2.731225     2.723582     2.715939     2.708295
      2.700652     2.693009     2.685366     2.677722     2.670079     2.662436     2.654793     2.647150     2.639506     2.631863
      2.624220     2.616577     2.608933     2.601290     2.593647     2.586004     2.578361     2.570717     2.563074     2.555431
      2.547788     2.540144     2.532501     2.524858     2.517215     2.509572     2.501928     2.494285     2.486642     2.478999
      2.471355     2.463712     2.456069     2.448426     2.440783     2.433139     2.425496     2.417853     2.410210     2.402566
      2.394923     2.387280     2.379637     2.371994     2.364350     2.356707     2.349064     2.341421     2.333777     2.326134
      2.318491     2.310848     2.303205     2.295561     2.287918     2.280275     2.272632     2.264988     2.257345     2.249702
      2.242059     2.234416     2.226772     2.219129     2.211486     2.203843     2.196199     2.188556     2.180913     2.173270
      2.165627     2.157983     2.150340     2.142697     2.135054     2.127410     2.119767     2.112124     2.104481     2.096838
      2.089194     2.081551     2.073908     2.066265     2.058621     2.050978     2.043335     2.035692     2.028049     2.020405
      2.012762     2.005119     1.997476     1.989833     1.982190     1.974546     1.966903     1.959260     1.951617     1.943974
      1.936331     1.928688     1.921045     1.913402     1.905759     1.898115     1.890472     1.882829     1.875186     1.867543
      1.859900     1.852257     1.844614     1.836971     1.829327     1.821684     1.814041     1.806398     1.798755     1.791112
      1.783469     1.775826     1.768183     1.760540     1.752896     1.745253     1.737610     1.729967     1.722324     1.714681
      1.707038     1.699395     1.691752     1.684108     1.676465     1.668822     1.661179     1.653536     1.645893     1.638250
      1.630607     1.622964     1.615321     1.607677     1.600034     1.592391     1.584748     1.577105     1.569462     1.561819
      1.554176     1.546533     1.538890     1.531246     1.523603     1.515960     1.508317     1.500674     1.493031     1.485388
      1.477745     1.470102     1.462458     1.454815     1.447172     1.439529     1.431886     1.424243     1.416600     1.408957
      1.401314     1.393671     1.386027     1.378384     1.370741     1.363098     1.355455     1.347812     1.340169     1.332526
      1.324883     1.317240     1.309596     1.301953     1.294310     1.286667     1.279024     1.271381     1.263738     1.256095
      1.248452     1.240808     1.233165     1.225522     1.217879     1.210236     1.202593     1.194950     1.187307     1.179664
      1.172021     1.164377     1.156734     1.149091     1.141448     1.133805     1.126162     1.118519     1.110876     1.103233
      1.095590     1.087946     1.080303     1.072660     1.065017     1.057374     1.049731     1.042088     1.034445     1.026802
      1.019158     1.011515     1.003872     0.996229     0.988586     0.980943     0.973300     0.965657     0.958014     0.950371
      0.942727     0.935084     0.927441     0.919798     0.912155     0.904512     0.896869     0.889226     0.881583     0.873940
      0.866296     0.858653     0.851010     0.843367     0.835724     0.828081     0.820438     0.812795     0.805152     0.797508
      0.789865     0.782222     0.774579     0.766936     0.759293     0.751650     0.744007     0.736364     0.728721     0.721077
      0.713434     0.705791     0.698148     0.690505     0.682862     0.675219     0.667576     0.659933     0.652290     0.644646
      0.637003     0.629360     0.621717     0.614074     0.606431     0.598788     0.591145     0.583502     0.575858     0.568215
      0.560572     0.552929     0.545286     0.537643     0.530000     0.522357     0.514714     0.507071     0.499427     0.491784
      0.484141     0.476498     0.468855     0.461212     0.453569     0.445925     0.438282     0.430639     0.422996     0.415353
      0.407710     0.400067     0.392424     0.384780     0.377137     0.369494     0.361851     0.354208     0.346565     0.338922
      0.331278     0.323635     0.315992     0.308349     0.300706     0.293063     0.285420     0.277777     0.270133     0.262490
      0.254847     0.247204     0.239561     0.231918     0.224275     0.216631     0.208988     0.201345
 NY phased data points follow
  -2.48467E+00 -2.99891E+00 -2.23250E+00 -2.53627E+00 -2.36437E+00 -3.10121E+00 -2.08016E+00 -2.64014E+00 -3.86611E+00 -3.81659E+00
  -4.77904E+00 -3.13366E+00 -3.22777E+00 -3.75518E+00 -3.06150E+00 -4.40971E+00 -3.93358E+00 -3.29672E+00 -3.90941E+00 -2.92090E+00
  -2.26723E+00 -3.59319E+00 -4.78790E+00 -3.47157E+00 -3.25342E+00 -3.14330E+00 -3.15159E+00 -1.42806E+00 -3.71580E+00 -2.09780E+00
  -2.35341E+00 -3.06611E+00 -1.94246E+00 -3.81709E+00 -2.76470E+00 -1.73023E+00 -2.38748E+00 -1.21708E+00 -3.68113E+00 -2.21091E+00
  -2.13346E+00 -1.41994E+00 -1.97631E+00  2.29397E-02 -1.58588E+00 -1.05506E+00 -3.18780E+00 -3.99296E+00 -2.89753E+00 -9.66157E-01
  -6.23797E-01  8.05505E-02 -1.36816E+00 -2.66112E+00 -3.64487E-01 -2.62100E+00 -2.59897E+00 -2.62393E+00 -2.38856E+00 -3.18396E+00
  -2.65607E+00 -2.40454E+00 -9.11139E-01 -1.19662E+00 -2.07152E+00 -2.75158E+00 -1.98562E+00 -2.27326E+00 -3.25794E+00 -1.89875E+00
  -9.48438E-01 -8.62926E-01 -2.72200E+00 -2.76798E+00 -1.20459E+00 -2.30798E+00 -3.12652E+00 -2.61250E+00 -1.57168E+00 -2.12968E+00
  -2.46512E+00 -2.26668E+00 -2.80221E+00 -2.17783E+00 -2.76287E+00 -1.86716E+00 -3.12966E+00 -2.23831E+00 -2.77793E+00 -2.53769E+00
  -1.86168E+00 -8.60530E-01 -9.01566E-01 -1.49952E+00 -3.42853E+00 -2.22623E+00 -3.37471E+00 -1.64599E+00 -4.87706E-01 -2.64752E+00
  -3.10964E+00 -1.67605E+00 -2.73393E+00 -3.57213E+00 -4.39696E-01 -2.48229E+00 -3.07661E-01 -9.76805E-01 -3.79816E+00 -1.94030E+00
  -1.68615E+00 -2.36990E+00 -5.00639E+00 -1.78874E+00 -2.98688E+00 -2.25441E+00 -1.15001E+00 -3.14718E+00 -2.46587E+00 -3.63707E+00
  -1.48076E+00 -2.65679E+00 -1.85813E+00 -2.52712E-01 -2.36505E+00 -3.01356E+00 -9.53391E-01 -1.75634E+00 -2.87404E+00 -2.35557E+00
  -2.44899E+00 -1.93280E+00 -2.23208E+00 -2.01080E+00 -2.57500E+00 -2.61734E+00 -2.01865E+00 -3.10681E+00 -3.13041E+00 -1.66175E+00
  -2.15294E+00 -1.71800E+00 -2.66263E+00 -1.86055E+00 -2.24421E+00 -1.17480E+00 -2.15751E+00 -2.30842E+00  2.92727E-01 -2.62348E+00
  -2.15557E+00 -2.17686E+00 -2.96089E+00 -1.35734E+00 -2.77005E+00 -1.28300E+00 -2.20613E+00 -1.25235E+00 -2.75071E+00 -1.00297E+00
  -1.17764E+00 -5.79234E-01 -1.29137E+00 -1.89341E+00 -2.81275E+00 -2.06607E+00 -1.52964E+00  1.81425E-02 -1.53270E-01 -1.18052E+00
  -3.68456E+00 -2.09300E+00 -1.89035E+00 -9.81708E-01 -1.75672E+00 -1.88157E+00 -3.78971E+00 -4.70921E-01 -7.32892E-01 -1.17090E+00
  -1.19135E+00 -1.46422E+00 -1.32381E+00 -4.33342E+00 -2.29487E+00 -5.01698E-01 -7.31823E-01 -3.05770E+00 -2.35867E+00 -1.20173E+00
  -1.89788E+00 -1.98575E+00 -3.08623E+00 -2.58883E+00 -7.86673E-01 -1.68069E+00 -1.63807E+00 -3.67139E-01 -2.29957E+00 -2.32461E+00
  -1.13606E+00 -1.05859E+00 -2.69686E+00 -1.74871E+00 -9.35049E-01 -2.09070E+00  8.87787E-01 -1.55215E+00 -8.73379E-01 -6.16076E-01
  -9.76249E-01 -2.55721E-01 -1.50058E+00 -7.27494E-01 -2.39278E+00 -6.19759E-01 -1.66733E+00 -1.95060E+00 -9.84743E-01 -1.74290E+00
  -2.78761E+00 -2.28164E+00 -2.89252E+00 -6.89805E-01 -1.70107E+00 -2.41885E+00 -7.99735E-01 -2.20392E-01 -8.08185E-01 -2.62696E+00
   4.48561E-01  4.39514E-01 -1.06663E+00  1.74224E+00  2.70879E-01 -1.25811E+00 -6.78787E-01 -4.17433E-01 -1.32933E+00 -6.99583E-01
  -9.36737E-01 -8.95520E-01 -1.62549E+00 -7.55545E-01 -1.54381E+00 -6.94306E-01 -3.41606E+00 -2.86396E+00 -6.62957E-01 -1.47660E+00
  -2.40790E+00 -5.21215E-01 -5.83393E-01 -1.85493E+00 -9.13685E-01 -1.46054E+00 -1.31628E+00 -1.32911E+00 -4.25614E-01 -5.00063E-01
  -1.83970E-01 -1.16878E+00 -1.54085E-01 -8.88211E-01 -1.44691E+00 -1.25577E+00 -2.44875E+00 -4.60303E-01  2.61795E-01 -1.16553E+00
  -1.08864E+00 -2.29288E+00 -9.98931E-01 -1.09704E+00 -1.58648E+00  8.54836E-02  2.91849E-01 -2.93573E-01  5.61283E-02  1.26428E-01
  -1.24418E+00 -2.04260E-01 -1.52707E+00  6.69164E-01 -3.07831E-02  1.00540E+00 -3.61738E-01  5.07336E-01  3.25609E-01  1.45255E-01
  -5.71939E-01 -9.32903E-01  6.40919E-01 -8.90243E-01  1.26009E+00 -1.49412E+00  3.90009E-01 -2.13368E-01 -1.95122E-01  4.75288E-01
  -7.06388E-01 -1.17206E+00  7.12909E-02  4.70534E-01 -1.10070E-01 -1.00467E+00  1.01997E+00  3.91360E-01 -1.03314E-01 -3.05832E-01
  -6.26628E-01  9.51167E-02 -1.64506E-01  3.02652E-02  2.10935E-01 -1.30966E+00  4.92319E-01 -5.68617E-01 -4.75656E-01  9.46793E-01
   4.18544E-01  1.43942E+00  1.74002E+00  1.04032E+00  1.08032E+00  1.64880E-01  9.47100E-01 -2.81195E-01  3.90563E-02 -1.07048E-01
   5.45939E-01  1.08621E+00  2.84744E+00  1.57253E-01  1.19477E+00  1.41378E+00  2.55915E+00  7.91392E-01  1.98878E-01  1.03506E+00
   6.80590E-01  2.87305E+00  1.44867E+00  5.70296E-01  2.54575E+00  9.81867E-01  2.07169E-01  1.67608E+00  1.66579E+00  2.04803E+00
   1.02886E-01  6.76989E-01  1.53113E+00  2.48066E+00  2.24691E+00  5.90962E-01  1.16714E+00  3.73661E-01  8.36913E-01  7.16041E-01
   9.07063E-01  1.25700E+00  4.69207E-01 -3.83138E-01  4.78403E-02 -1.75962E+00  1.90408E-02  1.29749E+00 -1.43479E+00 -5.25559E-01
   2.38228E-01 -1.29859E-01  2.45920E-01 -1.07159E+00 -5.10778E-01  1.83939E+00 -8.50337E-01  4.23826E-01 -1.84429E+00 -4.66668E-01
  -6.02180E-01 -1.51295E+00  4.26996E-01 -1.01859E+00  1.16119E+00  1.66449E+00 -3.46023E-02 -8.63284E-01  1.40566E+00 -1.29098E+00
   6.73393E-01  1.25122E+00 -3.80172E-01  3.41870E-01 -3.89664E-01  7.45082E-01  1.06191E+00  1.76664E+00  1.09522E-01  2.90680E-01
  -5.23826E-02  2.62830E-01 -6.00722E-02 -2.80797E-01  4.73078E-02 -1.11770E+00  9.12279E-01  8.51233E-01  2.66112E-02  7.85828E-01
   1.04984E+00  8.01867E-01 -4.55920E-02  7.15357E-01  2.29990E-01  7.09555E-01 -4.12835E-01 -1.25744E-01  2.98160E+00  1.01288E-01
  -1.50445E-01  7.67987E-01  8.13844E-02 -1.00260E+00 -6.80325E-01  6.16788E-01  6.95251E-02 -3.57941E-01 -8.49482E-01 -9.80849E-01
  -2.93163E-02 -1.35202E+00 -2.86251E-01  1.45307E+00  1.20756E+00 -4.27393E-01 -3.99050E-01 -5.80647E-01 -4.37267E-01  6.44985E-01
   1.53780E+00  9.91001E-01  1.54590E+00  5.16199E-01  4.55448E-02 -4.83144E-01  1.53203E+00  4.98654E-01  3.64001E-01 -1.08018E+00
   1.12440E+00  7.72922E-01 -1.05404E+00 -1.07642E+00  1.43308E+00 -1.90245E-01  2.01244E+00  7.99569E-01 -6.46552E-01  1.17715E-02
  -8.73503E-01 -3.30180E-01 -1.09860E+00 -2.91917E-01  5.11498E-02  1.67355E-01  2.22336E-01  1.71448E-01  3.64427E-02  1.08715E-01
   5.14613E-01  1.91363E+00  6.98583E-01  3.54987E-01 -1.38559E+00  9.35481E-01 -1.13756E-02 -1.13563E-01 -3.95335E-01  8.88368E-02
  -2.07739E+00 -2.19257E+00 -1.12449E+00 -7.89933E-01 -9.52690E-02  2.40574E-01 -1.78739E-01 -1.00552E+00 -5.04244E-02 -1.95923E+00
  -7.83359E-02 -4.49834E-01 -1.47819E+00  7.57717E-01 -4.45182E-01 -9.71030E-01  1.62802E-01 -1.01426E+00
 NY points of the fit to the data follow
  -2.30559E+00 -2.42313E+00 -2.52106E+00 -2.64922E+00 -2.75446E+00 -2.86192E+00 -2.94473E+00 -3.01834E+00 -3.07258E+00 -3.11435E+00
  -3.14631E+00 -3.16866E+00 -3.18899E+00 -3.20459E+00 -3.21629E+00 -3.22202E+00 -3.25324E+00 -3.26337E+00 -3.26400E+00 -3.23015E+00
  -3.22238E+00 -3.12995E+00 -3.10875E+00 -2.95290E+00 -2.93621E+00 -2.72204E+00 -2.73044E+00 -2.51256E+00 -2.56279E+00 -2.35746E+00
  -2.44876E+00 -2.27400E+00 -2.38671E+00 -2.24846E+00 -2.39926E+00 -2.24825E+00 -2.32221E+00 -2.16772E+00 -2.22202E+00 -2.11424E+00
  -2.12328E+00 -2.05080E+00 -2.02252E+00 -1.98783E+00 -1.95948E+00 -1.95620E+00 -1.93225E+00 -1.90693E+00 -1.85219E+00 -1.80772E+00
  -1.73703E+00 -1.74362E+00 -1.73011E+00 -1.80823E+00 -1.83296E+00 -1.96764E+00 -2.01929E+00 -2.15366E+00 -2.17122E+00 -2.25630E+00
  -2.19665E+00 -2.23481E+00 -2.11597E+00 -2.14940E+00 -2.01783E+00 -2.08166E+00 -1.97235E+00 -2.06097E+00 -1.98191E+00 -2.06668E+00
  -1.99874E+00 -2.05907E+00 -1.98642E+00 -2.02508E+00 -1.95582E+00 -2.01282E+00 -1.98707E+00 -2.08553E+00 -2.10191E+00 -2.23200E+00
  -2.27948E+00 -2.42471E+00 -2.46850E+00 -2.60451E+00 -2.61385E+00 -2.72740E+00 -2.71684E+00 -2.82011E+00 -2.80293E+00 -2.89852E+00
  -2.87309E+00 -2.87327E+00 -2.80802E+00 -2.74870E+00 -2.65035E+00 -2.54299E+00 -2.41976E+00 -2.29995E+00 -2.18506E+00 -2.11976E+00
  -2.04076E+00 -2.02978E+00 -1.97283E+00 -1.99081E+00 -1.93892E+00 -1.97986E+00 -1.92962E+00 -2.02533E+00 -1.99742E+00 -2.12600E+00
  -2.12636E+00 -2.27410E+00 -2.29675E+00 -2.40709E+00 -2.42894E+00 -2.47806E+00 -2.49046E+00 -2.49239E+00 -2.49556E+00 -2.46551E+00
  -2.46220E+00 -2.41574E+00 -2.40332E+00 -2.35954E+00 -2.34977E+00 -2.31490E+00 -2.31059E+00 -2.28490E+00 -2.27897E+00 -2.26668E+00
  -2.25510E+00 -2.25970E+00 -2.23587E+00 -2.25410E+00 -2.21248E+00 -2.24622E+00 -2.19269E+00 -2.24034E+00 -2.18713E+00 -2.23622E+00
  -2.17943E+00 -2.22172E+00 -2.16043E+00 -2.19133E+00 -2.12943E+00 -2.15341E+00 -2.10393E+00 -2.12499E+00 -2.09638E+00 -2.11369E+00
  -2.10386E+00 -2.11400E+00 -2.11351E+00 -2.11560E+00 -2.11556E+00 -2.11042E+00 -2.10635E+00 -2.09663E+00 -2.08857E+00 -2.07579E+00
  -2.06589E+00 -2.05114E+00 -2.04004E+00 -2.02523E+00 -2.01460E+00 -2.00119E+00 -1.99120E+00 -1.97938E+00 -1.96997E+00 -1.95985E+00
  -1.95090E+00 -1.94231E+00 -1.93270E+00 -1.92843E+00 -1.91966E+00 -1.91816E+00 -1.90902E+00 -1.90701E+00 -1.89050E+00 -1.88067E+00
  -1.85464E+00 -1.83807E+00 -1.80780E+00 -1.78779E+00 -1.75832E+00 -1.74422E+00 -1.72677E+00 -1.70888E+00 -1.69812E+00 -1.67205E+00
  -1.66456E+00 -1.62693E+00 -1.61900E+00 -1.56760E+00 -1.55848E+00 -1.51404E+00 -1.51203E+00 -1.47576E+00 -1.49428E+00 -1.45898E+00
  -1.48632E+00 -1.43440E+00 -1.44682E+00 -1.36175E+00 -1.32147E+00 -1.24102E+00 -1.18093E+00 -1.13701E+00 -1.07982E+00 -1.10421E+00
  -1.09831E+00 -1.19143E+00 -1.20583E+00 -1.30907E+00 -1.31457E+00 -1.39566E+00 -1.36934E+00 -1.42347E+00 -1.37061E+00 -1.42016E+00
  -1.40130E+00 -1.43221E+00 -1.44010E+00 -1.43146E+00 -1.43693E+00 -1.34488E+00 -1.29985E+00 -1.14945E+00 -1.09208E+00 -9.47234E-01
  -9.02269E-01 -8.22126E-01 -8.13061E-01 -8.05983E-01 -8.12177E-01 -8.47507E-01 -8.27652E-01 -8.81172E-01 -8.35900E-01 -8.99545E-01
  -8.35095E-01 -9.09859E-01 -8.40674E-01 -9.14877E-01 -8.38638E-01 -8.95757E-01 -8.19170E-01 -8.37131E-01 -7.64350E-01 -7.52449E-01
  -7.08307E-01 -6.76546E-01 -6.67932E-01 -6.26859E-01 -6.38436E-01 -5.79650E-01 -6.02498E-01 -5.35153E-01 -5.61134E-01 -4.94398E-01
  -5.24550E-01 -4.60525E-01 -4.86338E-01 -4.33077E-01 -4.55715E-01 -4.15202E-01 -4.32669E-01 -4.03736E-01 -4.21729E-01 -3.99079E-01
  -4.15295E-01 -3.95908E-01 -4.06719E-01 -3.85342E-01 -3.86499E-01 -3.65122E-01 -3.56146E-01 -3.38720E-01 -3.26516E-01 -3.14609E-01
  -3.02769E-01 -2.96562E-01 -2.86931E-01 -2.82028E-01 -2.71813E-01 -2.65192E-01 -2.53270E-01 -2.43816E-01 -2.30161E-01 -2.18093E-01
  -2.03834E-01 -1.90503E-01 -1.76366E-01 -1.62413E-01 -1.48261E-01 -1.33745E-01 -1.19219E-01 -1.04135E-01 -8.90210E-02 -7.33717E-02
  -5.77167E-02 -4.15865E-02 -2.54091E-02 -8.79147E-03  7.94446E-03  2.51199E-02  4.25006E-02  6.02791E-02  7.83830E-02  9.69068E-02
   1.15871E-01  1.35273E-01  1.55230E-01  1.75690E-01  1.96794E-01  2.18495E-01  2.40910E-01  2.64016E-01  2.87911E-01  3.12610E-01
   3.38213E-01  3.64772E-01  3.92412E-01  4.21218E-01  4.51371E-01  4.83036E-01  5.16506E-01  5.52088E-01  5.90259E-01  6.31601E-01
   6.77020E-01  7.27792E-01  7.86024E-01  8.55334E-01  9.42617E-01  1.03768E+00  1.04614E+00  1.11170E+00  1.05993E+00  1.10569E+00
   9.96554E-01  1.02640E+00  9.02442E-01  1.02728E+00  9.30443E-01  1.14067E+00  1.06031E+00  1.34324E+00  1.23808E+00  1.54284E+00
   1.36423E+00  1.60075E+00  1.39065E+00  1.55765E+00  1.32106E+00  1.42656E+00  1.18853E+00  1.24232E+00  9.65363E-01  9.20564E-01
   6.28214E-01  5.19658E-01  2.56449E-01  1.11758E-01 -7.42985E-02 -1.85499E-01 -2.73886E-01 -3.23900E-01 -3.42187E-01 -3.44490E-01
  -3.25305E-01 -2.98963E-01 -2.69980E-01 -2.40230E-01 -2.10641E-01 -1.81743E-01 -1.53734E-01 -1.26715E-01 -1.00634E-01 -7.54584E-02
  -5.10774E-02 -2.74459E-02 -4.45789E-03  1.79154E-02  3.97572E-02  6.10640E-02  8.18782E-02  1.02150E-01  1.21875E-01  1.40956E-01
   1.59342E-01  1.76879E-01  1.93460E-01  2.08880E-01  2.22991E-01  2.35557E-01  2.46410E-01  2.55311E-01  2.62102E-01  2.66579E-01
   2.68647E-01  2.68182E-01  2.65188E-01  2.59658E-01  2.51717E-01  2.41491E-01  2.29239E-01  2.15208E-01  1.99762E-01  1.83227E-01
   1.66025E-01  1.48510E-01  1.31101E-01  1.14118E-01  9.79194E-02  8.27395E-02  6.88345E-02  5.63298E-02  4.53672E-02  3.59572E-02
   2.81328E-02  2.18074E-02  1.69336E-02  1.33617E-02  1.09977E-02  9.65857E-03  9.23315E-03  9.53442E-03  1.04609E-02  1.18422E-02
   1.35994E-02  1.55858E-02  1.77490E-02  1.99696E-02  2.22236E-02  2.44167E-02  2.65465E-02  2.85371E-02  3.04021E-02  3.20807E-02
   3.36000E-02  3.49089E-02  3.60412E-02  3.69508E-02  3.76764E-02  3.81769E-02  3.84943E-02  3.85894E-02  3.85044E-02  3.82007E-02
   3.77216E-02  3.70304E-02  3.61708E-02  3.51057E-02  3.38779E-02  3.24499E-02  3.08655E-02  2.90879E-02  2.71605E-02  2.50457E-02
   2.27859E-02  2.03437E-02  1.77626E-02  1.50052E-02  1.21146E-02  9.05218E-03  5.86124E-03  2.50309E-03 -9.77634E-04 -4.62031E-03
  -8.38055E-03 -1.22987E-02 -1.63299E-02 -2.05139E-02 -2.48051E-02 -2.92439E-02 -3.37848E-02 -3.84686E-02 -4.32491E-02 -4.81662E-02
  -5.31734E-02 -5.83108E-02 -6.35319E-02 -6.88761E-02 -7.42959E-02 -7.98296E-02 -8.54294E-02 -9.11332E-02 -9.68921E-02 -1.02743E-01
  -1.08634E-01 -1.14600E-01 -1.20590E-01 -1.26635E-01 -1.32680E-01 -1.38753E-01 -1.44793E-01 -1.50823E-01
 NY background values follow
    -3.240E+00   -3.241E+00   -3.242E+00   -3.242E+00   -3.243E+00   -3.243E+00   -3.243E+00   -3.243E+00   -3.243E+00   -3.243E+00
    -3.243E+00   -3.242E+00   -3.242E+00   -3.241E+00   -3.240E+00   -3.239E+00   -3.238E+00   -3.237E+00   -3.236E+00   -3.234E+00
    -3.233E+00   -3.231E+00   -3.229E+00   -3.227E+00   -3.225E+00   -3.223E+00   -3.221E+00   -3.219E+00   -3.216E+00   -3.213E+00
    -3.211E+00   -3.208E+00   -3.205E+00   -3.202E+00   -3.198E+00   -3.195E+00   -3.192E+00   -3.188E+00   -3.184E+00   -3.181E+00
    -3.177E+00   -3.173E+00   -3.168E+00   -3.164E+00   -3.160E+00   -3.155E+00   -3.151E+00   -3.146E+00   -3.141E+00   -3.136E+00
    -3.131E+00   -3.126E+00   -3.121E+00   -3.116E+00   -3.110E+00   -3.104E+00   -3.099E+00   -3.093E+00   -3.087E+00   -3.081E+00
    -3.075E+00   -3.069E+00   -3.063E+00   -3.056E+00   -3.050E+00   -3.043E+00   -3.037E+00   -3.030E+00   -3.023E+00   -3.016E+00
    -3.009E+00   -3.002E+00   -2.994E+00   -2.987E+00   -2.980E+00   -2.972E+00   -2.964E+00   -2.957E+00   -2.949E+00   -2.941E+00
    -2.933E+00   -2.925E+00   -2.917E+00   -2.908E+00   -2.900E+00   -2.891E+00   -2.883E+00   -2.874E+00   -2.866E+00   -2.857E+00
    -2.848E+00   -2.839E+00   -2.830E+00   -2.821E+00   -2.812E+00   -2.802E+00   -2.793E+00   -2.783E+00   -2.774E+00   -2.764E+00
    -2.755E+00   -2.745E+00   -2.735E+00   -2.725E+00   -2.715E+00   -2.705E+00   -2.695E+00   -2.685E+00   -2.674E+00   -2.664E+00
    -2.654E+00   -2.643E+00   -2.633E+00   -2.622E+00   -2.611E+00   -2.601E+00   -2.590E+00   -2.579E+00   -2.568E+00   -2.557E+00
    -2.546E+00   -2.535E+00   -2.523E+00   -2.512E+00   -2.501E+00   -2.489E+00   -2.478E+00   -2.466E+00   -2.455E+00   -2.443E+00
    -2.432E+00   -2.420E+00   -2.408E+00   -2.396E+00   -2.384E+00   -2.372E+00   -2.360E+00   -2.348E+00   -2.336E+00   -2.324E+00
    -2.312E+00   -2.299E+00   -2.287E+00   -2.275E+00   -2.262E+00   -2.250E+00   -2.237E+00   -2.225E+00   -2.212E+00   -2.200E+00
    -2.187E+00   -2.174E+00   -2.162E+00   -2.149E+00   -2.136E+00   -2.123E+00   -2.110E+00   -2.097E+00   -2.084E+00   -2.071E+00
    -2.058E+00   -2.045E+00   -2.032E+00   -2.019E+00   -2.006E+00   -1.993E+00   -1.979E+00   -1.966E+00   -1.953E+00   -1.940E+00
    -1.926E+00   -1.913E+00   -1.899E+00   -1.886E+00   -1.873E+00   -1.859E+00   -1.846E+00   -1.832E+00   -1.819E+00   -1.805E+00
    -1.792E+00   -1.778E+00   -1.764E+00   -1.751E+00   -1.737E+00   -1.723E+00   -1.710E+00   -1.696E+00   -1.682E+00   -1.669E+00
    -1.655E+00   -1.641E+00   -1.628E+00   -1.614E+00   -1.600E+00   -1.586E+00   -1.572E+00   -1.559E+00   -1.545E+00   -1.531E+00
    -1.517E+00   -1.504E+00   -1.490E+00   -1.476E+00   -1.462E+00   -1.448E+00   -1.435E+00   -1.421E+00   -1.407E+00   -1.393E+00
    -1.379E+00   -1.366E+00   -1.352E+00   -1.338E+00   -1.324E+00   -1.311E+00   -1.297E+00   -1.283E+00   -1.269E+00   -1.256E+00
    -1.242E+00   -1.228E+00   -1.214E+00   -1.201E+00   -1.187E+00   -1.173E+00   -1.160E+00   -1.146E+00   -1.133E+00   -1.119E+00
    -1.105E+00   -1.092E+00   -1.078E+00   -1.065E+00   -1.051E+00   -1.038E+00   -1.025E+00   -1.011E+00   -9.977E-01   -9.843E-01
    -9.710E-01   -9.577E-01   -9.444E-01   -9.311E-01   -9.179E-01   -9.047E-01   -8.915E-01   -8.784E-01   -8.653E-01   -8.522E-01
    -8.391E-01   -8.261E-01   -8.132E-01   -8.002E-01   -7.873E-01   -7.744E-01   -7.616E-01   -7.488E-01   -7.360E-01   -7.233E-01
    -7.106E-01   -6.980E-01   -6.854E-01   -6.728E-01   -6.603E-01   -6.478E-01   -6.354E-01   -6.230E-01   -6.106E-01   -5.983E-01
    -5.861E-01   -5.739E-01   -5.617E-01   -5.496E-01   -5.376E-01   -5.255E-01   -5.136E-01   -5.017E-01   -4.898E-01   -4.780E-01
    -4.663E-01   -4.546E-01   -4.429E-01   -4.313E-01   -4.198E-01   -4.083E-01   -3.969E-01   -3.855E-01   -3.742E-01   -3.629E-01
    -3.518E-01   -3.406E-01   -3.296E-01   -3.185E-01   -3.076E-01   -2.967E-01   -2.859E-01   -2.751E-01   -2.644E-01   -2.538E-01
    -2.432E-01   -2.327E-01   -2.223E-01   -2.119E-01   -2.016E-01   -1.914E-01   -1.812E-01   -1.711E-01   -1.611E-01   -1.512E-01
    -1.413E-01   -1.315E-01   -1.217E-01   -1.121E-01   -1.025E-01   -9.294E-02   -8.349E-02   -7.412E-02   -6.483E-02   -5.561E-02
    -4.646E-02   -3.740E-02   -2.841E-02   -1.950E-02   -1.066E-02   -1.910E-03    6.763E-03    1.536E-02    2.387E-02    3.230E-02
     4.065E-02    4.892E-02    5.710E-02    6.521E-02    7.322E-02    8.116E-02    8.901E-02    9.677E-02    1.045E-01    1.120E-01
     1.196E-01    1.270E-01    1.343E-01    1.415E-01    1.487E-01    1.558E-01    1.627E-01    1.696E-01    1.764E-01    1.831E-01
     1.898E-01    1.963E-01    2.027E-01    2.090E-01    2.153E-01    2.214E-01    2.275E-01    2.335E-01    2.393E-01    2.451E-01
     2.508E-01    2.564E-01    2.619E-01    2.673E-01    2.726E-01    2.778E-01    2.829E-01    2.879E-01    2.928E-01    2.976E-01
     3.023E-01    3.069E-01    3.114E-01    3.158E-01    3.201E-01    3.243E-01    3.284E-01    3.324E-01    3.363E-01    3.401E-01
     3.438E-01    3.474E-01    3.509E-01    3.543E-01    3.576E-01    3.608E-01    3.639E-01    3.668E-01    3.697E-01    3.724E-01
     3.751E-01    3.777E-01    3.801E-01    3.824E-01    3.847E-01    3.868E-01    3.888E-01    3.907E-01    3.925E-01    3.942E-01
     3.958E-01    3.973E-01    3.986E-01    3.999E-01    4.010E-01    4.021E-01    4.030E-01    4.038E-01    4.045E-01    4.051E-01
     4.056E-01    4.060E-01    4.063E-01    4.064E-01    4.065E-01    4.064E-01    4.062E-01    4.059E-01    4.055E-01    4.050E-01
     4.044E-01    4.037E-01    4.028E-01    4.018E-01    4.008E-01    3.996E-01    3.983E-01    3.969E-01    3.953E-01    3.937E-01
     3.919E-01    3.901E-01    3.881E-01    3.860E-01    3.838E-01    3.814E-01    3.790E-01    3.764E-01    3.738E-01    3.710E-01
     3.681E-01    3.651E-01    3.619E-01    3.587E-01    3.553E-01    3.519E-01    3.483E-01    3.446E-01    3.408E-01    3.368E-01
     3.328E-01    3.286E-01    3.243E-01    3.199E-01    3.154E-01    3.108E-01    3.061E-01    3.012E-01    2.962E-01    2.912E-01
     2.860E-01    2.806E-01    2.752E-01    2.697E-01    2.640E-01    2.582E-01    2.523E-01    2.463E-01    2.402E-01    2.340E-01
     2.276E-01    2.212E-01    2.146E-01    2.079E-01    2.011E-01    1.942E-01    1.871E-01    1.800E-01    1.727E-01    1.653E-01
     1.578E-01    1.502E-01    1.425E-01    1.347E-01    1.267E-01    1.187E-01    1.105E-01    1.022E-01    9.379E-02    8.528E-02
     7.665E-02    6.791E-02    5.906E-02    5.009E-02    4.102E-02    3.183E-02    2.253E-02    1.312E-02
 Asp      Conc. = 2.97E+00
