 LCModel (Version 6.3-1L) Copyright: S.W. Provencher.          Ref.: Magn. Reson. Med. 30:672-679 (1993).                
 Slice#1 Row#10 Col#3  PD_05_press_1_raw_act
 36 lines in following concentration table = NCONC+1
    Conc.  %SD /Cr+PCr  Metabolite                                         
    1.310 999% 3.5E-03 Ala                                                 
   53.270 129%   0.144 Asp                                                 
    0.000 999%   0.000 Cr                                                  
  369.100   7%   1.000 PCr                                                 
   46.319  93%   0.125 GABA                                                
   57.609  74%   0.156 Glc                                                 
  316.839  32%   0.858 Gln                                                 
  449.691  25%   1.218 Glu                                                 
   71.626  43%   0.194 GPC                                                 
   17.427 177% 4.7E-02 PCh                                                 
  108.409  31%   0.294 GSH                                                 
  374.071  30%   1.013 Ins                                                 
    0.000 999%   0.000 Lac                                                 
  768.598   6%   2.082 NAA                                                 
   91.103  50%   0.247 NAAG                                                
   29.438  35% 8.0E-02 Scyllo                                              
  137.493  48%   0.373 Tau                                                 
  230.024  19%   0.623 -CrCH2                                              
   89.053  11%   0.241 GPC+PCh                                             
  859.701   4%   2.329 NAA+NAAG                                            
  369.100   7%   1.000 Cr+PCr                                              
  766.530  20%   2.077 Glu+Gln                                             
  618.046  19%   1.674 Lip13a                                              
    0.000 999%   0.000 Lip13b                                              
    0.000 999%   0.000 Lip09                                               
  455.400  18%   1.234 MM09                                                
  130.663  41%   0.354 Lip20                                               
  838.831  16%   2.273 MM20                                                
  137.703  25%   0.373 MM12                                                
  538.005  17%   1.458 MM14                                                
  211.413  32%   0.573 MM17                                                
  618.046  19%   1.674 Lip13a+Lip13b                                       
 1.29E+03  11%   3.505 MM14+Lip13a+Lip13b+MM12                             
  455.400  18%   1.234 MM09+Lip09                                          
  969.494  14%   2.627 MM20+Lip20                                          
   6 lines in following misc. output table
  FWHM = 0.054 ppm    S/N =   9                                            
  Data shift =-0.015 ppm                                                   
  Ph: -32 deg      -8.9 deg/ppm                                            
  alphaB,S = 1.2E+00,   4.3E+01                                            
   14 spline knots.   Ns = 6(1)                                            
  ( 9) 2 infls.   ( 5) 1 extrs.                                            
  498 points on ppm-axis = NY
      4.000000     3.992357     3.984714     3.977070     3.969427     3.961784     3.954141     3.946497     3.938854     3.931211
      3.923568     3.915925     3.908281     3.900638     3.892995     3.885352     3.877708     3.870065     3.862422     3.854779
      3.847136     3.839492     3.831849     3.824206     3.816563     3.808919     3.801276     3.793633     3.785990     3.778347
      3.770703     3.763060     3.755417     3.747774     3.740130     3.732487     3.724844     3.717201     3.709558     3.701914
      3.694271     3.686628     3.678985     3.671341     3.663698     3.656055     3.648412     3.640769     3.633125     3.625482
      3.617839     3.610196     3.602552     3.594909     3.587266     3.579623     3.571980     3.564336     3.556693     3.549050
      3.541407     3.533763     3.526120     3.518477     3.510834     3.503191     3.495547     3.487904     3.480261     3.472618
      3.464974     3.457331     3.449688     3.442045     3.434402     3.426758     3.419115     3.411472     3.403829     3.396185
      3.388542     3.380899     3.373256     3.365613     3.357969     3.350326     3.342683     3.335040     3.327396     3.319753
      3.312110     3.304467     3.296824     3.289180     3.281537     3.273894     3.266251     3.258607     3.250964     3.243321
      3.235678     3.228034     3.220391     3.212748     3.205105     3.197462     3.189818     3.182175     3.174532     3.166889
      3.159245     3.151602     3.143959     3.136316     3.128673     3.121029     3.113386     3.105743     3.098100     3.090456
      3.082813     3.075170     3.067527     3.059884     3.052240     3.044597     3.036954     3.029311     3.021667     3.014024
      3.006381     2.998738     2.991095     2.983451     2.975808     2.968165     2.960522     2.952878     2.945235     2.937592
      2.929949     2.922306     2.914662     2.907019     2.899376     2.891733     2.884089     2.876446     2.868803     2.861160
      2.853517     2.845873     2.838230     2.830587     2.822944     2.815300     2.807657     2.800014     2.792371     2.784728
      2.777084     2.769441     2.761798     2.754155     2.746511     2.738868     2.731225     2.723582     2.715939     2.708295
      2.700652     2.693009     2.685366     2.677722     2.670079     2.662436     2.654793     2.647150     2.639506     2.631863
      2.624220     2.616577     2.608933     2.601290     2.593647     2.586004     2.578361     2.570717     2.563074     2.555431
      2.547788     2.540144     2.532501     2.524858     2.517215     2.509572     2.501928     2.494285     2.486642     2.478999
      2.471355     2.463712     2.456069     2.448426     2.440783     2.433139     2.425496     2.417853     2.410210     2.402566
      2.394923     2.387280     2.379637     2.371994     2.364350     2.356707     2.349064     2.341421     2.333777     2.326134
      2.318491     2.310848     2.303205     2.295561     2.287918     2.280275     2.272632     2.264988     2.257345     2.249702
      2.242059     2.234416     2.226772     2.219129     2.211486     2.203843     2.196199     2.188556     2.180913     2.173270
      2.165627     2.157983     2.150340     2.142697     2.135054     2.127410     2.119767     2.112124     2.104481     2.096838
      2.089194     2.081551     2.073908     2.066265     2.058621     2.050978     2.043335     2.035692     2.028049     2.020405
      2.012762     2.005119     1.997476     1.989833     1.982190     1.974546     1.966903     1.959260     1.951617     1.943974
      1.936331     1.928688     1.921045     1.913402     1.905759     1.898115     1.890472     1.882829     1.875186     1.867543
      1.859900     1.852257     1.844614     1.836971     1.829327     1.821684     1.814041     1.806398     1.798755     1.791112
      1.783469     1.775826     1.768183     1.760540     1.752896     1.745253     1.737610     1.729967     1.722324     1.714681
      1.707038     1.699395     1.691752     1.684108     1.676465     1.668822     1.661179     1.653536     1.645893     1.638250
      1.630607     1.622964     1.615321     1.607677     1.600034     1.592391     1.584748     1.577105     1.569462     1.561819
      1.554176     1.546533     1.538890     1.531246     1.523603     1.515960     1.508317     1.500674     1.493031     1.485388
      1.477745     1.470102     1.462458     1.454815     1.447172     1.439529     1.431886     1.424243     1.416600     1.408957
      1.401314     1.393671     1.386027     1.378384     1.370741     1.363098     1.355455     1.347812     1.340169     1.332526
      1.324883     1.317240     1.309596     1.301953     1.294310     1.286667     1.279024     1.271381     1.263738     1.256095
      1.248452     1.240808     1.233165     1.225522     1.217879     1.210236     1.202593     1.194950     1.187307     1.179664
      1.172021     1.164377     1.156734     1.149091     1.141448     1.133805     1.126162     1.118519     1.110876     1.103233
      1.095590     1.087946     1.080303     1.072660     1.065017     1.057374     1.049731     1.042088     1.034445     1.026802
      1.019158     1.011515     1.003872     0.996229     0.988586     0.980943     0.973300     0.965657     0.958014     0.950371
      0.942727     0.935084     0.927441     0.919798     0.912155     0.904512     0.896869     0.889226     0.881583     0.873940
      0.866296     0.858653     0.851010     0.843367     0.835724     0.828081     0.820438     0.812795     0.805152     0.797508
      0.789865     0.782222     0.774579     0.766936     0.759293     0.751650     0.744007     0.736364     0.728721     0.721077
      0.713434     0.705791     0.698148     0.690505     0.682862     0.675219     0.667576     0.659933     0.652290     0.644646
      0.637003     0.629360     0.621717     0.614074     0.606431     0.598788     0.591145     0.583502     0.575858     0.568215
      0.560572     0.552929     0.545286     0.537643     0.530000     0.522357     0.514714     0.507071     0.499427     0.491784
      0.484141     0.476498     0.468855     0.461212     0.453569     0.445925     0.438282     0.430639     0.422996     0.415353
      0.407710     0.400067     0.392424     0.384780     0.377137     0.369494     0.361851     0.354208     0.346565     0.338922
      0.331278     0.323635     0.315992     0.308349     0.300706     0.293063     0.285420     0.277777     0.270133     0.262490
      0.254847     0.247204     0.239561     0.231918     0.224275     0.216631     0.208988     0.201345
 NY phased data points follow
  -1.82491E+01 -1.94233E+01 -1.92883E+01 -2.24579E+01 -1.79897E+01 -1.75191E+01 -1.63054E+01 -1.60482E+01 -1.22407E+01 -1.52182E+01
  -1.18489E+01 -1.32244E+01 -1.32863E+01 -1.54169E+01 -1.55433E+01 -1.74594E+01 -1.67158E+01 -1.66788E+01 -1.67777E+01 -1.79472E+01
  -1.69313E+01 -1.62533E+01 -1.54607E+01 -1.67225E+01 -1.40349E+01 -1.68209E+01 -1.31978E+01 -1.50500E+01 -1.19865E+01 -1.34049E+01
  -1.16570E+01 -1.16951E+01 -1.10440E+01 -1.30996E+01 -1.38436E+01 -1.52304E+01 -1.24764E+01 -1.28664E+01 -1.11464E+01 -1.54601E+01
  -1.41621E+01 -1.43256E+01 -1.23522E+01 -1.25786E+01 -1.21010E+01 -1.02630E+01 -9.55699E+00 -1.03097E+01 -1.22970E+01 -1.19173E+01
  -1.08189E+01 -1.33705E+01 -1.29016E+01 -1.15981E+01 -1.12095E+01 -1.26961E+01 -1.09089E+01 -9.21875E+00 -9.18245E+00 -1.40856E+01
  -1.31158E+01 -1.22013E+01 -1.18006E+01 -1.27777E+01 -1.21995E+01 -1.26773E+01 -1.21947E+01 -1.36086E+01 -1.08329E+01 -1.08100E+01
  -1.15860E+01 -1.33042E+01 -9.93409E+00 -1.24106E+01 -8.39437E+00 -1.08436E+01 -1.18368E+01 -1.30397E+01 -1.03948E+01 -9.24912E+00
  -1.01463E+01 -1.17378E+01 -9.18356E+00 -1.08215E+01 -1.11946E+01 -1.14366E+01 -7.43207E+00 -1.22546E+01 -8.85409E+00 -1.09851E+01
  -7.67097E+00 -1.09723E+01 -1.04079E+01 -1.08259E+01 -7.75322E+00 -8.69539E+00 -4.81939E+00 -8.54714E+00 -9.65427E+00 -7.34064E+00
  -2.38409E+00 -2.34447E+00 -4.34326E+00 -1.27344E+00 -1.44541E+00 -4.33104E+00 -4.36377E+00 -8.72731E+00 -8.54659E+00 -1.04576E+01
  -1.03695E+01 -1.24524E+01 -6.10636E+00 -9.74041E+00 -8.92935E+00 -7.18060E+00 -4.05646E+00 -7.12548E+00 -5.82245E+00 -7.71323E+00
  -9.63725E+00 -6.04683E+00 -7.28699E+00 -5.97397E+00 -3.97978E+00  7.71881E-01  4.31520E+00  6.71766E+00  3.65545E+00  3.01089E+00
   9.12111E-01 -2.85104E+00 -3.16649E+00 -6.84700E+00 -5.10293E+00 -9.46328E+00 -9.23423E+00 -6.58195E+00 -5.43024E+00 -8.69193E+00
  -5.98525E+00 -6.84749E+00 -5.34949E+00 -8.96409E+00 -9.37892E+00 -8.43727E+00 -8.02825E+00 -7.49207E+00 -6.02309E+00 -8.12592E+00
  -8.32847E+00 -7.10307E+00 -6.91153E+00 -7.88900E+00 -6.53145E+00 -9.83480E+00 -4.77335E+00 -9.42376E+00 -7.39372E+00 -7.59411E+00
  -9.89176E+00 -8.31030E+00 -7.68065E+00 -8.34781E+00 -6.70660E+00 -7.50905E+00 -7.90275E+00 -8.03840E+00 -6.75539E+00 -7.11929E+00
  -8.11876E+00 -9.15013E+00 -9.47432E+00 -1.10512E+01 -1.12240E+01 -1.11827E+01 -1.10137E+01 -1.10204E+01 -1.03242E+01 -1.27355E+01
  -8.21718E+00 -1.13772E+01 -9.30227E+00 -8.09594E+00 -8.18173E+00 -7.09383E+00 -7.80104E+00 -8.21215E+00 -8.28070E+00 -8.89598E+00
  -5.77958E+00 -9.76378E+00 -8.34983E+00 -7.50059E+00 -9.08887E+00 -8.91806E+00 -9.94414E+00 -1.29210E+01 -1.02894E+01 -6.73610E+00
  -8.96985E+00 -9.02042E+00 -8.24241E+00 -5.58546E+00 -5.29233E+00 -5.85224E+00 -6.82279E+00 -8.56267E+00 -9.52567E+00 -1.10859E+01
  -7.46471E+00 -6.37865E+00 -3.00277E+00 -2.20249E+00 -1.27575E+00 -1.55456E+00 -9.86515E-01 -2.62065E+00 -2.37127E+00 -3.18028E+00
  -4.47977E+00 -6.59303E+00 -5.69677E+00 -6.41286E+00 -4.68612E+00 -2.46832E+00 -3.92617E+00 -4.46846E+00 -4.12860E+00 -3.86482E+00
  -1.10032E+00 -1.98512E+00 -3.23160E+00 -2.39319E+00 -2.41144E+00 -2.67903E+00 -2.24743E+00 -2.46976E+00 -1.54416E+00 -1.09461E+00
  -5.22979E+00 -3.12854E+00 -1.80224E+00 -1.34743E+00 -1.79216E+00 -2.00132E+00 -5.81745E-01  1.23191E+00  3.23017E-01  2.76297E+00
  -3.74564E-01 -2.46239E+00  1.56011E+00  4.05515E+00  4.18548E+00  7.50152E+00  1.16367E+01  1.34420E+01  1.88319E+01  2.62350E+01
   2.64652E+01  2.84293E+01  2.06084E+01  1.77604E+01  1.59111E+01  7.69652E+00  1.94886E+00 -6.52528E-01 -2.49641E+00 -1.27097E-01
  -9.20578E-02 -1.68781E+00  6.41840E-01 -1.94864E+00 -1.18936E+00 -1.34620E+00  1.13085E+00 -3.33668E+00 -2.98584E+00 -4.09032E+00
   1.56324E-01 -1.33384E+00 -6.24210E+00 -4.37810E+00 -2.42274E+00 -5.90585E+00 -2.78717E+00 -3.33707E+00 -1.18356E+00 -2.08789E+00
  -2.29504E+00  2.76069E-01 -1.51692E+00 -2.18193E+00 -2.28486E+00 -2.84992E+00 -3.91014E+00 -3.12704E+00 -4.93347E+00 -3.99686E+00
  -2.54294E+00 -2.62702E+00 -2.14618E+00 -7.88595E-01 -2.32659E+00 -1.29514E+00  3.11012E-01 -1.99092E+00 -1.70291E+00 -1.15726E+00
   5.41396E-01 -1.01266E+00 -1.89269E+00 -2.20944E-01 -1.77372E+00 -1.59047E+00 -3.12413E-01 -2.30458E+00 -9.56065E-01  7.03127E-01
  -1.34230E+00  1.06899E+00  6.79507E-02 -1.41376E+00  1.32483E+00  1.27402E+00  8.23222E-01 -4.34561E-02  4.03005E+00 -5.60079E-01
  -1.96845E-01  7.21615E-01  1.02166E+00  4.35275E+00  2.43360E+00 -1.24116E-01 -3.48145E-01  8.51722E-01  1.79980E-01  3.66858E+00
  -8.81098E-02  2.34943E+00  2.17699E+00  1.58947E+00  4.81299E-01  4.07554E+00  1.93820E+00  2.97077E+00  1.72755E+00  9.24396E-01
   1.87545E+00  3.19706E+00  4.37639E+00  1.31578E+00  1.67998E+00  1.57708E+00  1.56341E+00  1.88346E-01 -6.18804E-01  1.16419E+00
   1.50213E-01 -6.15011E-01 -4.20128E-01 -3.31014E+00  1.03357E+00  2.02578E-02  1.61251E+00  3.60117E-01 -2.55466E+00 -5.08958E-01
   3.19177E+00  1.03394E+00  2.89854E-01 -4.26018E-01  4.50962E-01 -7.92185E-01  1.36429E+00 -9.72451E-01  4.49059E-02 -2.10681E+00
  -2.48314E+00 -2.43026E+00 -9.52656E-01 -5.43557E-01 -6.67577E-01 -3.74051E+00 -1.69803E+00  1.66785E-01 -6.15141E-02 -3.13190E+00
  -1.79868E+00 -4.99730E-01 -3.64311E-01 -2.47177E+00 -8.96465E-01  1.05810E-02  6.11328E-01 -3.62756E+00 -2.00505E+00 -1.33167E+00
  -1.01743E+00 -1.71415E+00 -1.91041E+00 -1.72216E+00 -3.63469E-01  1.91686E-01 -6.89339E-01  1.20286E+00  1.14496E+00 -1.86256E+00
  -9.84350E-01 -1.05737E+00  1.38308E+00 -3.82641E-01 -2.58232E-01 -1.63156E+00 -4.63782E-01 -3.37179E+00 -2.22906E+00 -1.60654E+00
  -1.69597E+00 -3.08747E+00 -2.92020E+00 -2.23221E+00 -6.00416E-01 -6.83659E-01 -1.08340E+00 -1.39114E+00 -2.51766E+00 -6.20898E-01
   7.03413E-02 -1.41745E+00 -1.97736E+00 -9.18746E-01 -1.32524E+00  1.44228E+00  2.16326E-01 -1.27431E+00 -2.56642E+00 -7.50110E-01
  -3.47417E+00 -1.63103E+00 -7.19331E-01 -4.34084E-01 -3.49569E-01 -2.23289E+00  1.10856E+00 -9.71761E-01 -3.55431E-01 -6.55501E-01
  -3.33938E+00 -2.03204E+00  2.81603E+00 -1.26390E+00 -1.84567E+00 -1.54920E+00 -2.95514E+00 -2.56321E+00 -2.42605E+00 -3.35560E+00
  -9.38324E-01 -2.92670E+00  4.42059E-01 -1.59070E+00 -4.58509E+00 -3.39791E+00 -3.84306E+00 -1.57626E+00 -3.18224E+00 -3.68544E+00
  -1.15383E+00 -4.72948E-01 -5.37669E-01  2.71384E-01  3.91318E-01 -2.45640E+00  6.63827E-01 -2.50932E+00 -1.25337E+00 -2.28778E+00
  -2.01906E+00 -2.23853E+00 -4.55117E+00 -2.17331E+00 -1.38083E+00 -4.44414E-01 -1.01136E+00 -2.79082E+00 -1.27927E+00 -2.08543E+00
  -4.17069E+00 -1.72041E+00 -8.21837E-01 -1.22662E+00 -4.77336E-02 -2.71283E-01 -7.87904E-01 -3.28383E+00
 NY points of the fit to the data follow
  -1.71453E+01 -1.72183E+01 -1.72852E+01 -1.72438E+01 -1.68711E+01 -1.65192E+01 -1.60620E+01 -1.51957E+01 -1.40865E+01 -1.32319E+01
  -1.29129E+01 -1.31057E+01 -1.34303E+01 -1.38017E+01 -1.43906E+01 -1.50558E+01 -1.54812E+01 -1.56199E+01 -1.56175E+01 -1.55240E+01
  -1.54096E+01 -1.52990E+01 -1.52488E+01 -1.51989E+01 -1.50619E+01 -1.49209E+01 -1.46203E+01 -1.40028E+01 -1.31359E+01 -1.22344E+01
  -1.15360E+01 -1.11603E+01 -1.10953E+01 -1.14225E+01 -1.21251E+01 -1.29809E+01 -1.37485E+01 -1.42932E+01 -1.45873E+01 -1.46161E+01
  -1.43867E+01 -1.39534E+01 -1.34202E+01 -1.28114E+01 -1.20901E+01 -1.13481E+01 -1.08299E+01 -1.07213E+01 -1.09985E+01 -1.14884E+01
  -1.20459E+01 -1.26281E+01 -1.31480E+01 -1.34374E+01 -1.34464E+01 -1.32476E+01 -1.29317E+01 -1.25658E+01 -1.22135E+01 -1.19633E+01
  -1.18756E+01 -1.19206E+01 -1.20435E+01 -1.21665E+01 -1.22656E+01 -1.22974E+01 -1.22270E+01 -1.20920E+01 -1.19266E+01 -1.16989E+01
  -1.14408E+01 -1.12246E+01 -1.10349E+01 -1.08502E+01 -1.07132E+01 -1.06920E+01 -1.08104E+01 -1.10200E+01 -1.12109E+01 -1.13216E+01
  -1.13079E+01 -1.11592E+01 -1.09427E+01 -1.06405E+01 -1.02896E+01 -1.00512E+01 -1.00502E+01 -1.02552E+01 -1.05185E+01 -1.07136E+01
  -1.08710E+01 -1.10634E+01 -1.12022E+01 -1.11993E+01 -1.11135E+01 -1.09338E+01 -1.03865E+01 -9.43548E+00 -8.25241E+00 -6.61837E+00
  -4.53816E+00 -2.64203E+00 -1.65523E+00 -1.82049E+00 -2.76871E+00 -3.99412E+00 -5.42334E+00 -7.02187E+00 -8.38775E+00 -9.18736E+00
  -9.51049E+00 -9.62158E+00 -9.66508E+00 -9.68683E+00 -9.69401E+00 -9.68456E+00 -9.66990E+00 -9.66197E+00 -9.64345E+00 -9.57751E+00
  -9.34126E+00 -8.43596E+00 -6.93018E+00 -5.06874E+00 -2.36400E+00  9.73400E-01  3.67914E+00  4.74439E+00  4.11202E+00  2.50063E+00
   5.88243E-01 -1.71140E+00 -4.29539E+00 -6.40183E+00 -7.59407E+00 -8.13477E+00 -8.37727E+00 -8.43904E+00 -8.35088E+00 -8.14817E+00
  -7.91604E+00 -7.73216E+00 -7.62404E+00 -7.58530E+00 -7.60945E+00 -7.68390E+00 -7.77711E+00 -7.85954E+00 -7.92416E+00 -7.97995E+00
  -8.02930E+00 -8.07265E+00 -8.10193E+00 -8.10349E+00 -8.08012E+00 -8.06219E+00 -8.07366E+00 -8.11638E+00 -8.21959E+00 -8.36142E+00
  -8.48348E+00 -8.52846E+00 -8.44393E+00 -8.28113E+00 -8.15855E+00 -8.11517E+00 -8.13090E+00 -8.19688E+00 -8.30303E+00 -8.44354E+00
  -8.60254E+00 -8.75216E+00 -8.85078E+00 -8.94995E+00 -9.07084E+00 -9.14943E+00 -9.12603E+00 -9.00183E+00 -8.87487E+00 -8.82804E+00
  -8.79963E+00 -8.71848E+00 -8.60855E+00 -8.49418E+00 -8.40408E+00 -8.25547E+00 -7.93015E+00 -7.44881E+00 -6.92937E+00 -6.48157E+00
  -6.21298E+00 -6.11838E+00 -6.17029E+00 -6.35652E+00 -6.60159E+00 -6.77430E+00 -6.79361E+00 -6.61684E+00 -6.20074E+00 -5.61450E+00
  -5.00219E+00 -4.45578E+00 -4.05412E+00 -3.93317E+00 -4.23440E+00 -4.88358E+00 -5.81106E+00 -6.87439E+00 -7.75191E+00 -8.14045E+00
  -7.94417E+00 -7.29693E+00 -6.36782E+00 -5.16362E+00 -3.88091E+00 -3.01357E+00 -2.90700E+00 -3.43354E+00 -4.22891E+00 -5.13790E+00
  -6.12659E+00 -6.85360E+00 -6.93114E+00 -6.35811E+00 -5.47186E+00 -4.60552E+00 -3.86205E+00 -3.26429E+00 -2.95731E+00 -3.01729E+00
  -3.24589E+00 -3.36019E+00 -3.34355E+00 -3.25271E+00 -3.02327E+00 -2.60767E+00 -2.15141E+00 -1.83966E+00 -1.72906E+00 -1.79731E+00
  -2.02416E+00 -2.35187E+00 -2.60474E+00 -2.63550E+00 -2.45238E+00 -2.16624E+00 -1.80966E+00 -1.36756E+00 -9.11799E-01 -4.84186E-01
   4.89856E-02  6.90413E-01  1.47529E+00  2.56584E+00  4.41975E+00  7.44610E+00  1.06011E+01  1.45167E+01  1.99399E+01  2.51770E+01
   2.75514E+01  2.62941E+01  2.25204E+01  1.80196E+01  1.31425E+01  7.68707E+00  2.80600E+00 -1.60802E-01 -1.38411E+00 -1.88748E+00
  -2.14543E+00 -2.26799E+00 -2.31161E+00 -2.31494E+00 -2.31027E+00 -2.33255E+00 -2.38869E+00 -2.47351E+00 -2.58524E+00 -2.71138E+00
  -2.82442E+00 -2.90594E+00 -2.95234E+00 -2.96994E+00 -2.96792E+00 -2.95328E+00 -2.93043E+00 -2.90583E+00 -2.88076E+00 -2.84968E+00
  -2.81026E+00 -2.76393E+00 -2.71172E+00 -2.65549E+00 -2.59500E+00 -2.53017E+00 -2.46337E+00 -2.39500E+00 -2.32189E+00 -2.24190E+00
  -2.15626E+00 -2.06819E+00 -1.98003E+00 -1.89324E+00 -1.80996E+00 -1.73242E+00 -1.66125E+00 -1.59608E+00 -1.53639E+00 -1.48145E+00
  -1.43006E+00 -1.38100E+00 -1.33284E+00 -1.28403E+00 -1.23284E+00 -1.17742E+00 -1.11591E+00 -1.04666E+00 -9.68229E-01 -8.79564E-01
  -7.79876E-01 -6.68730E-01 -5.47261E-01 -4.16579E-01 -2.77744E-01 -1.33929E-01  1.11469E-02  1.55450E-01  2.98347E-01  4.39996E-01
   5.78872E-01  7.11878E-01  8.38653E-01  9.59275E-01  1.07088E+00  1.16929E+00  1.25235E+00  1.32049E+00  1.37550E+00  1.41848E+00
   1.45056E+00  1.47413E+00  1.49193E+00  1.50551E+00  1.51559E+00  1.52272E+00  1.52723E+00  1.52903E+00  1.52773E+00  1.52258E+00
   1.51264E+00  1.49669E+00  1.47342E+00  1.44147E+00  1.39968E+00  1.34707E+00  1.28303E+00  1.20720E+00  1.11962E+00  1.02069E+00
   9.11283E-01  7.92575E-01  6.66072E-01  5.33443E-01  3.96516E-01  2.57200E-01  1.17469E-01 -2.07609E-02 -1.55684E-01 -2.85692E-01
  -4.09334E-01 -5.25339E-01 -6.32590E-01 -7.30186E-01 -8.17422E-01 -8.93796E-01 -9.58924E-01 -1.01253E+00 -1.05442E+00 -1.08451E+00
  -1.10279E+00 -1.10935E+00 -1.10428E+00 -1.08770E+00 -1.05976E+00 -1.02072E+00 -9.70938E-01 -9.10853E-01 -8.40991E-01 -7.62018E-01
  -6.74769E-01 -5.80313E-01 -4.79924E-01 -3.75087E-01 -2.67466E-01 -1.58937E-01 -5.15603E-02  5.24318E-02  1.50742E-01  2.41076E-01
   3.21230E-01  3.89130E-01  4.42911E-01  4.80990E-01  5.02185E-01  5.05755E-01  4.91439E-01  4.59424E-01  4.10352E-01  3.45288E-01
   2.65717E-01  1.73457E-01  7.05718E-02 -4.07511E-02 -1.58263E-01 -2.79730E-01 -4.02979E-01 -5.25995E-01 -6.46981E-01 -7.64415E-01
  -8.77040E-01 -9.83857E-01 -1.08411E+00 -1.17729E+00 -1.26315E+00 -1.34164E+00 -1.41286E+00 -1.47705E+00 -1.53449E+00 -1.58558E+00
  -1.63077E+00 -1.67053E+00 -1.70534E+00 -1.73564E+00 -1.76184E+00 -1.78437E+00 -1.80361E+00 -1.81994E+00 -1.83367E+00 -1.84506E+00
  -1.85437E+00 -1.86182E+00 -1.86764E+00 -1.87202E+00 -1.87510E+00 -1.87700E+00 -1.87784E+00 -1.87776E+00 -1.87685E+00 -1.87520E+00
  -1.87288E+00 -1.86993E+00 -1.86642E+00 -1.86241E+00 -1.85797E+00 -1.85311E+00 -1.84787E+00 -1.84227E+00 -1.83634E+00 -1.83014E+00
  -1.82369E+00 -1.81698E+00 -1.81003E+00 -1.80285E+00 -1.79548E+00 -1.78794E+00 -1.78024E+00 -1.77237E+00 -1.76434E+00 -1.75616E+00
  -1.74786E+00 -1.73944E+00 -1.73091E+00 -1.72225E+00 -1.71347E+00 -1.70458E+00 -1.69562E+00 -1.68656E+00 -1.67741E+00 -1.66815E+00
  -1.65879E+00 -1.64936E+00 -1.63986E+00 -1.63028E+00 -1.62060E+00 -1.61082E+00 -1.60096E+00 -1.59102E+00 -1.58101E+00 -1.57090E+00
  -1.56069E+00 -1.55036E+00 -1.53995E+00 -1.52944E+00 -1.51882E+00 -1.50806E+00 -1.49716E+00 -1.48611E+00
 NY background values follow
    -1.768E+01   -1.761E+01   -1.754E+01   -1.747E+01   -1.740E+01   -1.733E+01   -1.726E+01   -1.719E+01   -1.712E+01   -1.705E+01
    -1.698E+01   -1.691E+01   -1.684E+01   -1.677E+01   -1.670E+01   -1.663E+01   -1.656E+01   -1.649E+01   -1.642E+01   -1.635E+01
    -1.628E+01   -1.621E+01   -1.614E+01   -1.607E+01   -1.600E+01   -1.593E+01   -1.586E+01   -1.579E+01   -1.572E+01   -1.565E+01
    -1.558E+01   -1.551E+01   -1.544E+01   -1.537E+01   -1.530E+01   -1.523E+01   -1.516E+01   -1.509E+01   -1.503E+01   -1.496E+01
    -1.489E+01   -1.482E+01   -1.475E+01   -1.468E+01   -1.461E+01   -1.455E+01   -1.448E+01   -1.441E+01   -1.434E+01   -1.427E+01
    -1.421E+01   -1.414E+01   -1.407E+01   -1.401E+01   -1.394E+01   -1.387E+01   -1.381E+01   -1.374E+01   -1.367E+01   -1.361E+01
    -1.354E+01   -1.348E+01   -1.341E+01   -1.334E+01   -1.328E+01   -1.321E+01   -1.315E+01   -1.309E+01   -1.302E+01   -1.296E+01
    -1.289E+01   -1.283E+01   -1.277E+01   -1.270E+01   -1.264E+01   -1.258E+01   -1.251E+01   -1.245E+01   -1.239E+01   -1.233E+01
    -1.227E+01   -1.221E+01   -1.214E+01   -1.208E+01   -1.202E+01   -1.196E+01   -1.190E+01   -1.184E+01   -1.178E+01   -1.172E+01
    -1.167E+01   -1.161E+01   -1.155E+01   -1.149E+01   -1.143E+01   -1.138E+01   -1.132E+01   -1.126E+01   -1.120E+01   -1.115E+01
    -1.109E+01   -1.104E+01   -1.098E+01   -1.093E+01   -1.087E+01   -1.082E+01   -1.076E+01   -1.071E+01   -1.065E+01   -1.060E+01
    -1.055E+01   -1.049E+01   -1.044E+01   -1.039E+01   -1.034E+01   -1.028E+01   -1.023E+01   -1.018E+01   -1.013E+01   -1.008E+01
    -1.003E+01   -9.979E+00   -9.929E+00   -9.880E+00   -9.830E+00   -9.781E+00   -9.732E+00   -9.684E+00   -9.635E+00   -9.587E+00
    -9.540E+00   -9.492E+00   -9.445E+00   -9.398E+00   -9.351E+00   -9.305E+00   -9.259E+00   -9.213E+00   -9.167E+00   -9.122E+00
    -9.077E+00   -9.032E+00   -8.987E+00   -8.943E+00   -8.899E+00   -8.855E+00   -8.811E+00   -8.768E+00   -8.724E+00   -8.681E+00
    -8.639E+00   -8.596E+00   -8.553E+00   -8.511E+00   -8.469E+00   -8.427E+00   -8.385E+00   -8.344E+00   -8.302E+00   -8.261E+00
    -8.220E+00   -8.179E+00   -8.138E+00   -8.098E+00   -8.057E+00   -8.017E+00   -7.976E+00   -7.936E+00   -7.896E+00   -7.856E+00
    -7.816E+00   -7.777E+00   -7.737E+00   -7.697E+00   -7.658E+00   -7.618E+00   -7.579E+00   -7.540E+00   -7.501E+00   -7.461E+00
    -7.422E+00   -7.383E+00   -7.344E+00   -7.305E+00   -7.266E+00   -7.228E+00   -7.189E+00   -7.150E+00   -7.111E+00   -7.073E+00
    -7.034E+00   -6.996E+00   -6.957E+00   -6.919E+00   -6.881E+00   -6.842E+00   -6.804E+00   -6.766E+00   -6.728E+00   -6.690E+00
    -6.652E+00   -6.615E+00   -6.577E+00   -6.540E+00   -6.502E+00   -6.465E+00   -6.427E+00   -6.390E+00   -6.353E+00   -6.316E+00
    -6.279E+00   -6.243E+00   -6.206E+00   -6.169E+00   -6.133E+00   -6.097E+00   -6.061E+00   -6.024E+00   -5.989E+00   -5.953E+00
    -5.917E+00   -5.882E+00   -5.846E+00   -5.811E+00   -5.776E+00   -5.741E+00   -5.706E+00   -5.671E+00   -5.637E+00   -5.602E+00
    -5.568E+00   -5.534E+00   -5.500E+00   -5.466E+00   -5.432E+00   -5.399E+00   -5.365E+00   -5.332E+00   -5.299E+00   -5.266E+00
    -5.234E+00   -5.201E+00   -5.169E+00   -5.137E+00   -5.105E+00   -5.073E+00   -5.041E+00   -5.010E+00   -4.978E+00   -4.947E+00
    -4.916E+00   -4.886E+00   -4.855E+00   -4.825E+00   -4.794E+00   -4.764E+00   -4.735E+00   -4.705E+00   -4.676E+00   -4.646E+00
    -4.617E+00   -4.589E+00   -4.560E+00   -4.532E+00   -4.504E+00   -4.476E+00   -4.448E+00   -4.420E+00   -4.393E+00   -4.366E+00
    -4.339E+00   -4.312E+00   -4.286E+00   -4.260E+00   -4.234E+00   -4.208E+00   -4.182E+00   -4.157E+00   -4.132E+00   -4.107E+00
    -4.082E+00   -4.058E+00   -4.034E+00   -4.010E+00   -3.986E+00   -3.962E+00   -3.939E+00   -3.916E+00   -3.893E+00   -3.870E+00
    -3.847E+00   -3.825E+00   -3.803E+00   -3.781E+00   -3.759E+00   -3.738E+00   -3.717E+00   -3.696E+00   -3.675E+00   -3.654E+00
    -3.634E+00   -3.613E+00   -3.593E+00   -3.574E+00   -3.554E+00   -3.534E+00   -3.515E+00   -3.496E+00   -3.477E+00   -3.459E+00
    -3.440E+00   -3.422E+00   -3.404E+00   -3.386E+00   -3.368E+00   -3.351E+00   -3.334E+00   -3.317E+00   -3.300E+00   -3.283E+00
    -3.267E+00   -3.250E+00   -3.234E+00   -3.218E+00   -3.202E+00   -3.187E+00   -3.171E+00   -3.156E+00   -3.141E+00   -3.126E+00
    -3.111E+00   -3.097E+00   -3.082E+00   -3.068E+00   -3.054E+00   -3.040E+00   -3.026E+00   -3.012E+00   -2.999E+00   -2.985E+00
    -2.972E+00   -2.959E+00   -2.946E+00   -2.933E+00   -2.920E+00   -2.908E+00   -2.895E+00   -2.883E+00   -2.871E+00   -2.858E+00
    -2.846E+00   -2.835E+00   -2.823E+00   -2.811E+00   -2.799E+00   -2.788E+00   -2.777E+00   -2.765E+00   -2.754E+00   -2.743E+00
    -2.732E+00   -2.721E+00   -2.710E+00   -2.699E+00   -2.689E+00   -2.678E+00   -2.668E+00   -2.657E+00   -2.647E+00   -2.636E+00
    -2.626E+00   -2.616E+00   -2.606E+00   -2.596E+00   -2.586E+00   -2.576E+00   -2.566E+00   -2.556E+00   -2.546E+00   -2.536E+00
    -2.526E+00   -2.516E+00   -2.507E+00   -2.497E+00   -2.487E+00   -2.478E+00   -2.468E+00   -2.458E+00   -2.449E+00   -2.439E+00
    -2.429E+00   -2.420E+00   -2.410E+00   -2.400E+00   -2.391E+00   -2.381E+00   -2.372E+00   -2.362E+00   -2.352E+00   -2.342E+00
    -2.333E+00   -2.323E+00   -2.313E+00   -2.303E+00   -2.293E+00   -2.284E+00   -2.274E+00   -2.264E+00   -2.254E+00   -2.244E+00
    -2.233E+00   -2.223E+00   -2.213E+00   -2.203E+00   -2.193E+00   -2.182E+00   -2.172E+00   -2.162E+00   -2.151E+00   -2.141E+00
    -2.130E+00   -2.120E+00   -2.109E+00   -2.099E+00   -2.088E+00   -2.078E+00   -2.067E+00   -2.057E+00   -2.046E+00   -2.035E+00
    -2.025E+00   -2.014E+00   -2.003E+00   -1.993E+00   -1.982E+00   -1.971E+00   -1.961E+00   -1.950E+00   -1.939E+00   -1.929E+00
    -1.918E+00   -1.907E+00   -1.897E+00   -1.886E+00   -1.875E+00   -1.865E+00   -1.854E+00   -1.843E+00   -1.833E+00   -1.822E+00
    -1.811E+00   -1.801E+00   -1.790E+00   -1.780E+00   -1.769E+00   -1.759E+00   -1.748E+00   -1.738E+00   -1.727E+00   -1.717E+00
    -1.707E+00   -1.696E+00   -1.686E+00   -1.676E+00   -1.665E+00   -1.655E+00   -1.645E+00   -1.634E+00   -1.624E+00   -1.614E+00
    -1.603E+00   -1.593E+00   -1.583E+00   -1.573E+00   -1.562E+00   -1.552E+00   -1.542E+00   -1.532E+00   -1.521E+00   -1.511E+00
    -1.501E+00   -1.491E+00   -1.481E+00   -1.470E+00   -1.460E+00   -1.450E+00   -1.440E+00   -1.430E+00   -1.420E+00   -1.409E+00
    -1.399E+00   -1.389E+00   -1.379E+00   -1.369E+00   -1.358E+00   -1.348E+00   -1.338E+00   -1.328E+00
 Ala      Conc. = 1.31E+00
