 LCModel (Version 6.3-1L) Copyright: S.W. Provencher.          Ref.: Magn. Reson. Med. 30:672-679 (1993).                
 Slice#3 Row#1 Col#14  PD_05_press_1_raw_act
 36 lines in following concentration table = NCONC+1
    Conc.  %SD /Cr+PCr  Metabolite                                         
    0.000 999%   0.000 Ala                                                 
    1.975  95%   0.103 Asp                                                 
   19.177  52%   1.000 Cr                                                  
    0.000 999%   0.000 PCr                                                 
    1.176  96% 6.1E-02 GABA                                                
    1.179  96% 6.1E-02 Glc                                                 
    0.000 999%   0.000 Gln                                                 
   32.498 123%   1.695 Glu                                                 
    6.211  62%   0.324 GPC                                                 
    0.000 999%   0.000 PCh                                                 
   17.027  80%   0.888 GSH                                                 
   73.313  60%   3.823 Ins                                                 
    2.272 926%   0.118 Lac                                                 
    0.000 999%   0.000 NAA                                                 
    0.000 999%   0.000 NAAG                                                
    0.427  89% 2.2E-02 Scyllo                                              
    1.885 100% 9.8E-02 Tau                                                 
    0.891 386% 4.6E-02 -CrCH2                                              
    6.211  62%   0.324 GPC+PCh                                             
    0.000 999%   0.000 NAA+NAAG                                            
   19.177  52%   1.000 Cr+PCr                                              
   32.498 123%   1.695 Glu+Gln                                             
  283.959  33%  14.807 Lip13a                                              
   43.075  93%   2.246 Lip13b                                              
   85.842  29%   4.476 Lip09                                               
    5.690 227%   0.297 MM09                                                
   33.666  56%   1.756 Lip20                                               
    0.000 999%   0.000 MM20                                                
    2.120 314%   0.111 MM12                                                
   18.229 139%   0.951 MM14                                                
   11.781 135%   0.614 MM17                                                
  327.034  22%  17.053 Lip13a+Lip13b                                       
  347.383  19%  18.114 MM14+Lip13a+Lip13b+MM12                             
   91.532  27%   4.773 MM09+Lip09                                          
   33.666  56%   1.756 MM20+Lip20                                          
   6 lines in following misc. output table
  FWHM = 0.038 ppm    S/N =   1                                            
  Data shift = 0.183 ppm                                                   
  Ph:  50 deg       7.6 deg/ppm                                            
  alphaB,S = 8.5E+01,   1.3E+01                                            
   14 spline knots.   Ns = 5(1)                                            
   2 inflections.     1 extrema                                            
  498 points on ppm-axis = NY
      4.000000     3.992357     3.984714     3.977070     3.969427     3.961784     3.954141     3.946497     3.938854     3.931211
      3.923568     3.915925     3.908281     3.900638     3.892995     3.885352     3.877708     3.870065     3.862422     3.854779
      3.847136     3.839492     3.831849     3.824206     3.816563     3.808919     3.801276     3.793633     3.785990     3.778347
      3.770703     3.763060     3.755417     3.747774     3.740130     3.732487     3.724844     3.717201     3.709558     3.701914
      3.694271     3.686628     3.678985     3.671341     3.663698     3.656055     3.648412     3.640769     3.633125     3.625482
      3.617839     3.610196     3.602552     3.594909     3.587266     3.579623     3.571980     3.564336     3.556693     3.549050
      3.541407     3.533763     3.526120     3.518477     3.510834     3.503191     3.495547     3.487904     3.480261     3.472618
      3.464974     3.457331     3.449688     3.442045     3.434402     3.426758     3.419115     3.411472     3.403829     3.396185
      3.388542     3.380899     3.373256     3.365613     3.357969     3.350326     3.342683     3.335040     3.327396     3.319753
      3.312110     3.304467     3.296824     3.289180     3.281537     3.273894     3.266251     3.258607     3.250964     3.243321
      3.235678     3.228034     3.220391     3.212748     3.205105     3.197462     3.189818     3.182175     3.174532     3.166889
      3.159245     3.151602     3.143959     3.136316     3.128673     3.121029     3.113386     3.105743     3.098100     3.090456
      3.082813     3.075170     3.067527     3.059884     3.052240     3.044597     3.036954     3.029311     3.021667     3.014024
      3.006381     2.998738     2.991095     2.983451     2.975808     2.968165     2.960522     2.952878     2.945235     2.937592
      2.929949     2.922306     2.914662     2.907019     2.899376     2.891733     2.884089     2.876446     2.868803     2.861160
      2.853517     2.845873     2.838230     2.830587     2.822944     2.815300     2.807657     2.800014     2.792371     2.784728
      2.777084     2.769441     2.761798     2.754155     2.746511     2.738868     2.731225     2.723582     2.715939     2.708295
      2.700652     2.693009     2.685366     2.677722     2.670079     2.662436     2.654793     2.647150     2.639506     2.631863
      2.624220     2.616577     2.608933     2.601290     2.593647     2.586004     2.578361     2.570717     2.563074     2.555431
      2.547788     2.540144     2.532501     2.524858     2.517215     2.509572     2.501928     2.494285     2.486642     2.478999
      2.471355     2.463712     2.456069     2.448426     2.440783     2.433139     2.425496     2.417853     2.410210     2.402566
      2.394923     2.387280     2.379637     2.371994     2.364350     2.356707     2.349064     2.341421     2.333777     2.326134
      2.318491     2.310848     2.303205     2.295561     2.287918     2.280275     2.272632     2.264988     2.257345     2.249702
      2.242059     2.234416     2.226772     2.219129     2.211486     2.203843     2.196199     2.188556     2.180913     2.173270
      2.165627     2.157983     2.150340     2.142697     2.135054     2.127410     2.119767     2.112124     2.104481     2.096838
      2.089194     2.081551     2.073908     2.066265     2.058621     2.050978     2.043335     2.035692     2.028049     2.020405
      2.012762     2.005119     1.997476     1.989833     1.982190     1.974546     1.966903     1.959260     1.951617     1.943974
      1.936331     1.928688     1.921045     1.913402     1.905759     1.898115     1.890472     1.882829     1.875186     1.867543
      1.859900     1.852257     1.844614     1.836971     1.829327     1.821684     1.814041     1.806398     1.798755     1.791112
      1.783469     1.775826     1.768183     1.760540     1.752896     1.745253     1.737610     1.729967     1.722324     1.714681
      1.707038     1.699395     1.691752     1.684108     1.676465     1.668822     1.661179     1.653536     1.645893     1.638250
      1.630607     1.622964     1.615321     1.607677     1.600034     1.592391     1.584748     1.577105     1.569462     1.561819
      1.554176     1.546533     1.538890     1.531246     1.523603     1.515960     1.508317     1.500674     1.493031     1.485388
      1.477745     1.470102     1.462458     1.454815     1.447172     1.439529     1.431886     1.424243     1.416600     1.408957
      1.401314     1.393671     1.386027     1.378384     1.370741     1.363098     1.355455     1.347812     1.340169     1.332526
      1.324883     1.317240     1.309596     1.301953     1.294310     1.286667     1.279024     1.271381     1.263738     1.256095
      1.248452     1.240808     1.233165     1.225522     1.217879     1.210236     1.202593     1.194950     1.187307     1.179664
      1.172021     1.164377     1.156734     1.149091     1.141448     1.133805     1.126162     1.118519     1.110876     1.103233
      1.095590     1.087946     1.080303     1.072660     1.065017     1.057374     1.049731     1.042088     1.034445     1.026802
      1.019158     1.011515     1.003872     0.996229     0.988586     0.980943     0.973300     0.965657     0.958014     0.950371
      0.942727     0.935084     0.927441     0.919798     0.912155     0.904512     0.896869     0.889226     0.881583     0.873940
      0.866296     0.858653     0.851010     0.843367     0.835724     0.828081     0.820438     0.812795     0.805152     0.797508
      0.789865     0.782222     0.774579     0.766936     0.759293     0.751650     0.744007     0.736364     0.728721     0.721077
      0.713434     0.705791     0.698148     0.690505     0.682862     0.675219     0.667576     0.659933     0.652290     0.644646
      0.637003     0.629360     0.621717     0.614074     0.606431     0.598788     0.591145     0.583502     0.575858     0.568215
      0.560572     0.552929     0.545286     0.537643     0.530000     0.522357     0.514714     0.507071     0.499427     0.491784
      0.484141     0.476498     0.468855     0.461212     0.453569     0.445925     0.438282     0.430639     0.422996     0.415353
      0.407710     0.400067     0.392424     0.384780     0.377137     0.369494     0.361851     0.354208     0.346565     0.338922
      0.331278     0.323635     0.315992     0.308349     0.300706     0.293063     0.285420     0.277777     0.270133     0.262490
      0.254847     0.247204     0.239561     0.231918     0.224275     0.216631     0.208988     0.201345
 NY phased data points follow
  -1.55188E+00  1.34305E+00  3.40479E-01  9.28522E-01  8.50254E-01  7.58381E-01  5.80884E-01  1.11503E+00  3.16334E+00 -7.50679E-04
   1.91674E+00 -2.94873E-01  2.08540E+00  1.87994E+00  9.34354E-02  2.33846E+00  1.59958E-01  8.83656E-01  9.45798E-01  7.84229E-01
  -1.51020E+00  3.21461E-01 -1.57560E-01  7.40015E-01  1.67776E+00  2.01708E+00  1.08271E+00  2.11805E+00 -4.69163E-01  1.03756E+00
   1.31434E+00  5.89928E-01  3.19590E-01  3.48796E-01  1.14829E+00  2.91189E+00  9.22974E-01  4.35389E-01  6.66633E-01  1.34930E+00
  -7.62377E-02  1.77838E+00 -6.55012E-02  8.02394E-01 -8.80817E-01 -3.22008E-01  3.66231E-01  1.29111E+00  1.00515E+00  2.75658E+00
  -4.97522E-01  1.11568E+00 -6.39505E-01  1.27431E+00 -7.96511E-01  1.27939E+00  3.20183E-01  1.30905E+00  3.32440E-02  1.05232E+00
  -6.29800E-02 -7.10929E-01  1.73023E+00  6.84568E-02 -8.96209E-01  5.59191E-01  4.81275E-01  2.71147E-01  1.21239E+00  1.03646E+00
   1.14878E+00  4.03292E-01  1.88404E+00  4.21787E-01  5.77644E-01  7.42774E-02  1.02971E+00  1.30429E+00 -5.75738E-01  5.62662E-01
   7.22118E-01  9.41963E-01  6.05606E-01  1.48305E+00 -1.25088E-02  3.53445E-01  1.59022E+00  8.44072E-01  1.57378E+00  7.37269E-01
   1.34868E+00 -5.83232E-01  7.22364E-01  8.36323E-01  1.27056E+00  2.79745E-01  1.05668E+00 -1.04958E+00 -9.30709E-02  9.71739E-03
  -3.60555E-01 -1.34594E-01 -1.08576E+00  5.42954E-01  8.09653E-01  2.14895E+00  1.40509E+00 -7.91909E-01  1.27788E+00 -2.34038E-01
   2.83135E-01  2.73936E-01 -1.08203E+00  5.80451E-01 -4.73134E-01  8.47562E-02 -1.80863E-01  1.42464E+00 -5.98414E-01 -1.16984E+00
   1.33361E+00 -4.45000E-01  1.06540E+00 -7.05353E-01 -9.46719E-01  1.81685E-01 -7.15396E-01  5.03595E-01  7.93765E-01 -2.91704E-01
   6.24473E-01  2.37802E+00  1.28043E+00  5.03630E-01  8.48585E-01  2.46799E-02  7.35452E-01 -5.91574E-01  2.04037E-01  7.24739E-01
   1.36867E+00 -1.17254E-01 -5.30690E-01 -1.80675E-01 -1.22715E-01  1.62434E+00  1.19983E+00  1.06866E+00 -9.63879E-01 -2.11258E-01
   7.77551E-01 -1.14762E+00 -4.01876E-01  6.20020E-01  5.48950E-01 -3.75015E-02  1.15068E+00  1.10369E+00 -3.75161E-01  9.73637E-01
  -3.65327E-01 -1.34389E+00 -1.09080E+00 -8.08753E-02 -4.52385E-01  6.18786E-01 -1.16807E-01  4.07348E-01 -5.73028E-01  4.20964E-01
   1.84040E-01  2.56429E-01  9.68976E-01  4.47029E-01  6.13477E-01  1.13334E-01  3.07029E-01  7.04763E-01  3.83376E-01 -2.80315E-01
  -2.84436E-02  9.70244E-01  5.78024E-01  2.69570E-01 -4.85760E-01  7.17720E-01  1.96341E-01  8.15611E-01 -1.34159E-01  7.37629E-01
  -1.06608E+00  8.44815E-01 -7.04763E-01  7.71987E-01 -5.57943E-01  8.83936E-01  5.09301E-01  7.21272E-02  1.74823E+00 -4.56587E-01
  -2.51092E-01  5.64922E-01  1.74343E+00  1.10328E+00  1.55513E+00 -4.70556E-01 -2.07766E-01  5.53477E-01  5.94612E-01  6.54989E-01
   8.93863E-02 -1.82289E-01  9.17482E-01 -4.07763E-01  1.58620E+00  1.31760E+00 -9.23040E-01 -7.57489E-02 -1.36204E+00 -3.44374E-01
   1.15631E-01  8.31226E-01 -1.78371E+00  1.27009E+00 -1.30358E+00 -1.88597E-02 -4.68973E-01  1.00619E+00  1.58739E-01 -6.04747E-01
   9.32787E-01  2.39185E-02 -1.28148E+00  1.49460E+00 -2.32043E+00  3.37513E-01 -3.95070E-01  2.18345E-01  2.21020E+00  1.90913E+00
   9.14478E-01 -6.80579E-01  8.94619E-01  5.30795E-01 -1.10980E+00  6.73580E-01  4.18411E-01  4.95874E-01 -9.54684E-01 -6.45738E-01
  -6.08570E-01 -6.21343E-01 -2.52556E+00 -9.10890E-01 -9.48589E-01  3.46277E-01 -2.78898E-01 -3.42717E-01  1.88092E-02 -3.55859E-01
  -7.10659E-01 -1.70019E-01 -1.23685E+00 -3.47204E-01  1.42511E+00  2.34648E-01 -1.10827E+00 -1.05611E+00  8.65855E-01 -1.16511E-01
  -6.49014E-01  1.71571E-01 -8.97528E-01  5.79633E-01  1.36405E-01  6.50236E-01  6.55565E-02  3.02477E-01 -5.26421E-01  7.56921E-01
   1.34379E+00  4.89557E-01 -4.58727E-01 -8.19245E-01  1.99550E-01 -1.15420E+00 -2.27453E-01 -6.15390E-01 -1.61424E-01  4.90937E-01
  -1.98932E-02  9.52934E-01 -2.09162E-01 -7.55808E-01  1.81942E+00  1.19179E+00 -1.66387E-01  1.20821E+00  1.57568E-01  6.01487E-02
   3.28271E-01 -9.21794E-02  5.16275E-01 -2.05068E-01  3.28935E-01  3.97673E-01  1.88871E+00  3.95273E-01  3.04441E-01  2.02334E-01
   8.47979E-01  3.63186E-01 -3.71627E-01 -7.78704E-02 -1.92201E-01  1.24898E+00  6.19420E-01  1.51068E+00  4.85778E-01  1.37393E+00
   1.13106E-01  1.24035E+00  8.32666E-01  1.44907E+00 -8.17149E-01 -3.48804E-02  3.80593E-02  1.24314E+00 -5.40158E-01  4.15942E-03
  -7.31096E-01  9.46841E-01  1.16717E+00  8.70301E-01  5.44410E-01  2.18765E+00  1.47279E+00  1.70212E+00  9.03896E-01  1.55143E+00
  -2.78413E-01  9.26351E-01  1.24932E+00  5.95251E-01 -9.12039E-01 -1.20838E-01 -8.72509E-02  1.56620E+00  1.35077E+00  1.88825E+00
   3.49477E-01  1.89038E+00  1.92487E+00  1.35853E+00  4.01426E-01  2.92764E+00  2.58061E+00  1.24734E+00  1.34119E+00  1.63242E+00
   2.30129E+00  1.62774E+00  1.50330E+00  7.81373E-01  1.99201E+00  2.49692E+00 -2.05212E-01  4.40402E-03  3.51391E-01  2.45834E-01
   1.54960E-01  1.71821E+00  3.31932E-01  6.17629E-01  7.65553E-01  2.15600E+00  8.09058E-01  3.27331E-01  1.49192E+00 -4.69608E-01
   6.57446E-01  1.59935E+00  1.00254E+00  1.06981E+00  6.29663E-01 -7.08333E-02  4.08904E-01  1.02348E+00 -5.69799E-01  6.74640E-01
   3.90239E-01  1.55896E-01  1.15991E+00  5.77206E-01  1.58783E+00  6.90667E-01  3.28474E-01 -5.73079E-02  1.34930E+00  1.00151E+00
   7.62272E-01  1.11067E+00  4.11576E-02  3.85763E-02  1.07089E+00 -6.98635E-01 -6.43616E-01  1.17431E-01  2.21914E+00  3.59539E-01
  -3.74918E-01 -1.10151E-01 -6.22721E-01  1.09214E+00  4.68468E-01 -9.54958E-01  1.22254E+00  2.32936E+00  1.07570E+00 -3.42651E-01
  -9.47390E-01 -7.51381E-01 -7.10901E-01  1.17431E+00  2.93712E-01  7.54991E-01  1.07284E+00  9.93276E-02  7.65004E-01 -8.50197E-01
   3.29426E-01 -1.17254E+00 -1.36543E-01 -3.09595E-01  8.49785E-01 -1.52743E+00  3.36610E-01 -1.33708E+00  8.64161E-01  6.97134E-01
  -9.74722E-02 -3.27839E-01  9.07314E-04  9.52055E-02 -2.60736E-01  1.33696E+00 -4.78930E-01 -5.07090E-01  1.06929E+00 -5.49469E-01
   7.89308E-01 -2.85565E-01 -5.28780E-01 -4.16828E-01  5.57059E-01  1.87322E-01 -1.37227E+00  1.90714E-01  4.64454E-01 -1.93463E+00
   6.09592E-01  1.08924E+00 -1.69025E+00 -1.98846E-01 -8.60191E-01 -5.01028E-01 -9.41308E-01  2.17831E-01  8.74479E-02  1.56314E+00
   2.23391E-01 -1.92595E-01 -2.54871E-02  1.17492E+00  1.10636E+00  2.28887E-01 -2.91402E-01  1.57157E+00  6.66283E-02 -6.65907E-01
  -1.05516E+00 -3.60347E-01 -7.54831E-01  2.17029E-01 -8.34319E-01  4.33490E-01 -5.37060E-01  1.18029E+00 -8.49112E-01 -6.09005E-01
   2.09581E-01  1.21239E+00 -3.86942E-01 -9.01356E-01  4.43807E-01  2.37837E-01 -5.46377E-01 -3.41304E-01
 NY points of the fit to the data follow
   6.11924E-01  5.42522E-01  4.87471E-01  4.61418E-01  4.51415E-01  4.51157E-01  4.65913E-01  4.88404E-01  4.98092E-01  5.17567E-01
   5.91802E-01  7.30114E-01  8.81521E-01  9.76661E-01  9.86399E-01  9.15809E-01  7.80830E-01  6.22436E-01  5.13210E-01  4.78458E-01
   4.67308E-01  4.63661E-01  4.62563E-01  4.58562E-01  4.56294E-01  4.66554E-01  4.72957E-01  4.63420E-01  4.77370E-01  5.64589E-01
   7.20611E-01  8.79574E-01  9.87535E-01  1.02626E+00  9.77352E-01  8.42825E-01  6.81799E-01  5.78871E-01  5.25927E-01  4.76200E-01
   4.32543E-01  4.08690E-01  4.07117E-01  4.15701E-01  4.35565E-01  4.95735E-01  6.26562E-01  8.25273E-01  1.01646E+00  1.11200E+00
   1.07514E+00  9.16811E-01  6.77623E-01  4.37853E-01  2.96060E-01  2.71493E-01  3.04903E-01  3.51790E-01  4.09411E-01  4.85484E-01
   5.69246E-01  6.35537E-01  6.63486E-01  6.41414E-01  5.69552E-01  4.69334E-01  3.87113E-01  3.51439E-01  3.59636E-01  3.97691E-01
   4.47730E-01  5.00164E-01  5.42499E-01  5.63182E-01  5.63713E-01  5.48396E-01  5.23215E-01  4.89313E-01  4.57375E-01  4.38988E-01
   4.27257E-01  4.16371E-01  4.04195E-01  3.93453E-01  3.84538E-01  3.70681E-01  3.38607E-01  2.80873E-01  2.08461E-01  1.44582E-01
   1.08714E-01  1.13323E-01  1.57925E-01  2.27812E-01  2.98246E-01  3.51418E-01  3.79294E-01  3.84563E-01  3.80154E-01  3.53173E-01
   3.18393E-01  3.43177E-01  4.76959E-01  6.94925E-01  8.92009E-01  9.82160E-01  9.48799E-01  8.06641E-01  5.93436E-01  3.91215E-01
   2.97384E-01  2.75337E-01  2.69002E-01  2.68118E-01  2.68225E-01  2.67977E-01  2.66769E-01  2.64827E-01  2.61725E-01  2.57388E-01
   2.53172E-01  2.53326E-01  2.71382E-01  2.98690E-01  3.17576E-01  3.70854E-01  5.15928E-01  7.46825E-01  9.77230E-01  1.10855E+00
   1.10245E+00  9.76154E-01  7.72280E-01  5.58604E-01  4.29225E-01  3.83483E-01  3.34283E-01  2.69769E-01  2.04045E-01  1.60608E-01
   1.63268E-01  2.14279E-01  2.82890E-01  3.39064E-01  3.69589E-01  3.70823E-01  3.50911E-01  3.24920E-01  3.01577E-01  2.89516E-01
   2.82482E-01  2.76367E-01  2.70124E-01  2.63067E-01  2.54993E-01  2.47730E-01  2.44536E-01  2.45166E-01  2.47154E-01  2.48766E-01
   2.49124E-01  2.47611E-01  2.44010E-01  2.39650E-01  2.35733E-01  2.32200E-01  2.29250E-01  2.27127E-01  2.26191E-01  2.26018E-01
   2.25765E-01  2.24948E-01  2.23642E-01  2.21808E-01  2.19283E-01  2.15256E-01  2.09253E-01  2.01861E-01  1.93858E-01  1.86397E-01
   1.79663E-01  1.73981E-01  1.69878E-01  1.66247E-01  1.61452E-01  1.55023E-01  1.48127E-01  1.43094E-01  1.43233E-01  1.54107E-01
   1.80388E-01  2.18687E-01  2.52976E-01  2.68540E-01  2.63372E-01  2.35679E-01  1.85165E-01  1.24904E-01  7.86400E-02  6.56011E-02
   8.60780E-02  1.26596E-01  1.73921E-01  2.17603E-01  2.45155E-01  2.48108E-01  2.39998E-01  2.29912E-01  2.16761E-01  1.99132E-01
   1.78535E-01  1.64410E-01  1.59725E-01  1.72673E-01  2.13590E-01  2.83956E-01  3.59255E-01  3.98460E-01  3.87074E-01  3.30514E-01
   2.32026E-01  1.01899E-01 -2.21268E-02 -8.58942E-02 -8.19910E-02 -2.33020E-02  7.01072E-02  1.75551E-01  2.65887E-01  3.09033E-01
   2.99246E-01  2.60553E-01  2.18176E-01  1.87445E-01  1.78254E-01  1.94797E-01  2.39627E-01  2.99688E-01  3.39455E-01  3.32069E-01
   2.81983E-01  2.06755E-01  1.24564E-01  6.02881E-02  4.15680E-02  7.80516E-02  1.46832E-01  2.18224E-01  2.74176E-01  3.00932E-01
   2.89560E-01  2.51796E-01  2.10251E-01  1.82536E-01  1.73047E-01  1.81185E-01  1.96632E-01  2.05037E-01  2.01821E-01  1.94223E-01
   1.91222E-01  1.95406E-01  2.07675E-01  2.23854E-01  2.35955E-01  2.34548E-01  2.22621E-01  2.07134E-01  1.91853E-01  1.76967E-01
   1.63552E-01  1.53800E-01  1.46363E-01  1.42467E-01  1.44883E-01  1.51188E-01  1.58137E-01  1.63186E-01  1.64134E-01  1.59930E-01
   1.52882E-01  1.45965E-01  1.40297E-01  1.36339E-01  1.34476E-01  1.34687E-01  1.36432E-01  1.38644E-01  1.40657E-01  1.42714E-01
   1.44878E-01  1.47080E-01  1.49477E-01  1.52290E-01  1.55495E-01  1.58904E-01  1.62502E-01  1.66315E-01  1.70214E-01  1.74062E-01
   1.77817E-01  1.81409E-01  1.84812E-01  1.87992E-01  1.90902E-01  1.93488E-01  1.95735E-01  1.97657E-01  1.99304E-01  2.00764E-01
   2.02184E-01  2.03679E-01  2.05349E-01  2.07298E-01  2.09639E-01  2.12495E-01  2.15991E-01  2.20241E-01  2.25349E-01  2.31407E-01
   2.38497E-01  2.46694E-01  2.56062E-01  2.66662E-01  2.78542E-01  2.91750E-01  3.06331E-01  3.22332E-01  3.39803E-01  3.58795E-01
   3.79361E-01  4.01557E-01  4.25447E-01  4.51095E-01  4.78566E-01  5.07918E-01  5.39208E-01  5.72503E-01  6.07894E-01  6.45531E-01
   6.85681E-01  7.28859E-01  7.75902E-01  8.26540E-01  8.81771E-01  9.45650E-01  1.02014E+00  1.10227E+00  1.18649E+00  1.27002E+00
   1.35460E+00  1.43946E+00  1.52107E+00  1.59867E+00  1.67249E+00  1.73421E+00  1.77090E+00  1.77532E+00  1.74511E+00  1.68207E+00
   1.59102E+00  1.48102E+00  1.36657E+00  1.25658E+00  1.15373E+00  1.05995E+00  9.76015E-01  9.01621E-01  8.35768E-01  7.77163E-01
   7.24531E-01  6.76806E-01  6.33202E-01  5.93204E-01  5.56516E-01  5.22990E-01  4.92572E-01  4.65252E-01  4.41038E-01  4.19936E-01
   4.01941E-01  3.87036E-01  3.75196E-01  3.66384E-01  3.60559E-01  3.57666E-01  3.57638E-01  3.60393E-01  3.65831E-01  3.73823E-01
   3.84208E-01  3.96782E-01  4.11296E-01  4.27451E-01  4.44898E-01  4.63236E-01  4.82013E-01  5.00737E-01  5.18888E-01  5.35929E-01
   5.51325E-01  5.64562E-01  5.75164E-01  5.82711E-01  5.86864E-01  5.87374E-01  5.84092E-01  5.76979E-01  5.66102E-01  5.51631E-01
   5.33834E-01  5.13058E-01  4.89716E-01  4.64263E-01  4.37179E-01  4.08950E-01  3.80051E-01  3.50930E-01  3.21991E-01  2.93588E-01
   2.66019E-01  2.39524E-01  2.14288E-01  1.90438E-01  1.68052E-01  1.47162E-01  1.27764E-01  1.09824E-01  9.32874E-02  7.80799E-02
   6.41169E-02  5.13052E-02  3.95524E-02  2.87660E-02  1.88582E-02  9.74290E-03  1.34068E-03 -6.42284E-03 -1.36128E-02 -2.02889E-02
  -2.65035E-02 -3.23063E-02 -3.77400E-02 -4.28435E-02 -4.76488E-02 -5.21853E-02 -5.64785E-02 -6.05535E-02 -6.44308E-02 -6.81291E-02
  -7.16625E-02 -7.50458E-02 -7.82917E-02 -8.14134E-02 -8.44208E-02 -8.73230E-02 -9.01263E-02 -9.28387E-02 -9.54673E-02 -9.80197E-02
  -1.00501E-01 -1.02915E-01 -1.05267E-01 -1.07560E-01 -1.09799E-01 -1.11989E-01 -1.14132E-01 -1.16230E-01 -1.18284E-01 -1.20300E-01
  -1.22279E-01 -1.24225E-01 -1.26138E-01 -1.28019E-01 -1.29869E-01 -1.31693E-01 -1.33490E-01 -1.35264E-01 -1.37013E-01 -1.38738E-01
  -1.40442E-01 -1.42127E-01 -1.43792E-01 -1.45440E-01 -1.47069E-01 -1.48681E-01 -1.50276E-01 -1.51857E-01 -1.53424E-01 -1.54977E-01
  -1.56514E-01 -1.58039E-01 -1.59551E-01 -1.61053E-01 -1.62542E-01 -1.64020E-01 -1.65485E-01 -1.66941E-01
 NY background values follow
     3.690E-01    3.678E-01    3.667E-01    3.656E-01    3.645E-01    3.634E-01    3.622E-01    3.611E-01    3.600E-01    3.589E-01
     3.578E-01    3.567E-01    3.555E-01    3.544E-01    3.533E-01    3.522E-01    3.511E-01    3.499E-01    3.488E-01    3.477E-01
     3.466E-01    3.455E-01    3.444E-01    3.432E-01    3.421E-01    3.410E-01    3.399E-01    3.388E-01    3.376E-01    3.365E-01
     3.354E-01    3.343E-01    3.332E-01    3.321E-01    3.309E-01    3.298E-01    3.287E-01    3.276E-01    3.265E-01    3.253E-01
     3.242E-01    3.231E-01    3.220E-01    3.209E-01    3.197E-01    3.186E-01    3.175E-01    3.164E-01    3.153E-01    3.142E-01
     3.130E-01    3.119E-01    3.108E-01    3.097E-01    3.086E-01    3.074E-01    3.063E-01    3.052E-01    3.041E-01    3.030E-01
     3.019E-01    3.007E-01    2.996E-01    2.985E-01    2.974E-01    2.963E-01    2.951E-01    2.940E-01    2.929E-01    2.918E-01
     2.907E-01    2.896E-01    2.884E-01    2.873E-01    2.862E-01    2.851E-01    2.840E-01    2.828E-01    2.817E-01    2.806E-01
     2.795E-01    2.784E-01    2.773E-01    2.761E-01    2.750E-01    2.739E-01    2.728E-01    2.717E-01    2.705E-01    2.694E-01
     2.683E-01    2.672E-01    2.661E-01    2.649E-01    2.638E-01    2.627E-01    2.616E-01    2.605E-01    2.594E-01    2.582E-01
     2.571E-01    2.560E-01    2.549E-01    2.538E-01    2.526E-01    2.515E-01    2.504E-01    2.493E-01    2.482E-01    2.471E-01
     2.459E-01    2.448E-01    2.437E-01    2.426E-01    2.415E-01    2.403E-01    2.392E-01    2.381E-01    2.370E-01    2.359E-01
     2.348E-01    2.336E-01    2.325E-01    2.314E-01    2.303E-01    2.292E-01    2.280E-01    2.269E-01    2.258E-01    2.247E-01
     2.236E-01    2.225E-01    2.213E-01    2.202E-01    2.191E-01    2.180E-01    2.169E-01    2.157E-01    2.146E-01    2.135E-01
     2.124E-01    2.113E-01    2.101E-01    2.090E-01    2.079E-01    2.068E-01    2.057E-01    2.046E-01    2.034E-01    2.023E-01
     2.012E-01    2.001E-01    1.990E-01    1.978E-01    1.967E-01    1.956E-01    1.945E-01    1.934E-01    1.923E-01    1.911E-01
     1.900E-01    1.889E-01    1.878E-01    1.867E-01    1.855E-01    1.844E-01    1.833E-01    1.822E-01    1.811E-01    1.800E-01
     1.788E-01    1.777E-01    1.766E-01    1.755E-01    1.744E-01    1.732E-01    1.721E-01    1.710E-01    1.699E-01    1.688E-01
     1.677E-01    1.665E-01    1.654E-01    1.643E-01    1.632E-01    1.621E-01    1.609E-01    1.598E-01    1.587E-01    1.576E-01
     1.565E-01    1.554E-01    1.542E-01    1.531E-01    1.520E-01    1.509E-01    1.498E-01    1.486E-01    1.475E-01    1.464E-01
     1.453E-01    1.442E-01    1.430E-01    1.419E-01    1.408E-01    1.397E-01    1.386E-01    1.375E-01    1.363E-01    1.352E-01
     1.341E-01    1.330E-01    1.319E-01    1.307E-01    1.296E-01    1.285E-01    1.274E-01    1.263E-01    1.252E-01    1.240E-01
     1.229E-01    1.218E-01    1.207E-01    1.196E-01    1.184E-01    1.173E-01    1.162E-01    1.151E-01    1.140E-01    1.129E-01
     1.117E-01    1.106E-01    1.095E-01    1.084E-01    1.073E-01    1.061E-01    1.050E-01    1.039E-01    1.028E-01    1.017E-01
     1.006E-01    9.944E-02    9.832E-02    9.720E-02    9.608E-02    9.496E-02    9.385E-02    9.273E-02    9.161E-02    9.049E-02
     8.937E-02    8.825E-02    8.714E-02    8.602E-02    8.490E-02    8.378E-02    8.266E-02    8.155E-02    8.043E-02    7.931E-02
     7.819E-02    7.707E-02    7.595E-02    7.484E-02    7.372E-02    7.260E-02    7.148E-02    7.036E-02    6.924E-02    6.813E-02
     6.701E-02    6.589E-02    6.477E-02    6.365E-02    6.254E-02    6.142E-02    6.030E-02    5.918E-02    5.806E-02    5.694E-02
     5.583E-02    5.471E-02    5.359E-02    5.247E-02    5.135E-02    5.024E-02    4.912E-02    4.800E-02    4.688E-02    4.576E-02
     4.464E-02    4.353E-02    4.241E-02    4.129E-02    4.017E-02    3.905E-02    3.794E-02    3.682E-02    3.570E-02    3.458E-02
     3.346E-02    3.234E-02    3.123E-02    3.011E-02    2.899E-02    2.787E-02    2.675E-02    2.564E-02    2.452E-02    2.340E-02
     2.228E-02    2.116E-02    2.004E-02    1.893E-02    1.781E-02    1.669E-02    1.557E-02    1.445E-02    1.334E-02    1.222E-02
     1.110E-02    9.981E-03    8.863E-03    7.745E-03    6.626E-03    5.508E-03    4.390E-03    3.272E-03    2.154E-03    1.036E-03
    -8.246E-05   -1.201E-03   -2.319E-03   -3.437E-03   -4.555E-03   -5.673E-03   -6.791E-03   -7.910E-03   -9.028E-03   -1.015E-02
    -1.126E-02   -1.238E-02   -1.350E-02   -1.462E-02   -1.574E-02   -1.685E-02   -1.797E-02   -1.909E-02   -2.021E-02   -2.133E-02
    -2.245E-02   -2.356E-02   -2.468E-02   -2.580E-02   -2.692E-02   -2.804E-02   -2.915E-02   -3.027E-02   -3.139E-02   -3.251E-02
    -3.363E-02   -3.475E-02   -3.586E-02   -3.698E-02   -3.810E-02   -3.922E-02   -4.034E-02   -4.145E-02   -4.257E-02   -4.369E-02
    -4.481E-02   -4.593E-02   -4.704E-02   -4.816E-02   -4.928E-02   -5.040E-02   -5.152E-02   -5.264E-02   -5.375E-02   -5.487E-02
    -5.599E-02   -5.711E-02   -5.823E-02   -5.934E-02   -6.046E-02   -6.158E-02   -6.270E-02   -6.382E-02   -6.493E-02   -6.605E-02
    -6.717E-02   -6.829E-02   -6.941E-02   -7.053E-02   -7.164E-02   -7.276E-02   -7.388E-02   -7.500E-02   -7.612E-02   -7.723E-02
    -7.835E-02   -7.947E-02   -8.059E-02   -8.171E-02   -8.283E-02   -8.394E-02   -8.506E-02   -8.618E-02   -8.730E-02   -8.842E-02
    -8.953E-02   -9.065E-02   -9.177E-02   -9.289E-02   -9.401E-02   -9.512E-02   -9.624E-02   -9.736E-02   -9.848E-02   -9.960E-02
    -1.007E-01   -1.018E-01   -1.030E-01   -1.041E-01   -1.052E-01   -1.063E-01   -1.074E-01   -1.085E-01   -1.097E-01   -1.108E-01
    -1.119E-01   -1.130E-01   -1.141E-01   -1.153E-01   -1.164E-01   -1.175E-01   -1.186E-01   -1.197E-01   -1.208E-01   -1.220E-01
    -1.231E-01   -1.242E-01   -1.253E-01   -1.264E-01   -1.276E-01   -1.287E-01   -1.298E-01   -1.309E-01   -1.320E-01   -1.331E-01
    -1.343E-01   -1.354E-01   -1.365E-01   -1.376E-01   -1.387E-01   -1.398E-01   -1.410E-01   -1.421E-01   -1.432E-01   -1.443E-01
    -1.454E-01   -1.466E-01   -1.477E-01   -1.488E-01   -1.499E-01   -1.510E-01   -1.521E-01   -1.533E-01   -1.544E-01   -1.555E-01
    -1.566E-01   -1.577E-01   -1.589E-01   -1.600E-01   -1.611E-01   -1.622E-01   -1.633E-01   -1.644E-01   -1.656E-01   -1.667E-01
    -1.678E-01   -1.689E-01   -1.700E-01   -1.712E-01   -1.723E-01   -1.734E-01   -1.745E-01   -1.756E-01   -1.767E-01   -1.779E-01
    -1.790E-01   -1.801E-01   -1.812E-01   -1.823E-01   -1.835E-01   -1.846E-01   -1.857E-01   -1.868E-01
 Asp      Conc. = 1.98E+00
