 LCModel (Version 6.3-1L) Copyright: S.W. Provencher.          Ref.: Magn. Reson. Med. 30:672-679 (1993).                
 Slice#3 Row#5 Col#10  PD_05_press_1_raw_act
 36 lines in following concentration table = NCONC+1
    Conc.  %SD /Cr+PCr  Metabolite                                         
  254.520  43%   0.174 Ala                                                 
    0.000 999%   0.000 Asp                                                 
  643.941  28%   0.439 Cr                                                  
  822.575  23%   0.561 PCr                                                 
  199.523  71%   0.136 GABA                                                
    0.000 999%   0.000 Glc                                                 
  506.345  42%   0.345 Gln                                                 
 1.72E+03  15%   1.172 Glu                                                 
  412.532   5%   0.281 GPC                                                 
    0.000 999%   0.000 PCh                                                 
  543.419  13%   0.371 GSH                                                 
 1.10E+03  22%   0.751 Ins                                                 
  366.065  53%   0.250 Lac                                                 
 1.91E+03   6%   1.304 NAA                                                 
  269.457  46%   0.184 NAAG                                                
   61.173  40% 4.2E-02 Scyllo                                              
    0.000 999%   0.000 Tau                                                 
  198.068  51%   0.135 -CrCH2                                              
  412.532   5%   0.281 GPC+PCh                                             
 2.18E+03   3%   1.488 NAA+NAAG                                            
 1.47E+03   4%   1.000 Cr+PCr                                              
 2.23E+03  17%   1.517 Glu+Gln                                             
    0.000 999%   0.000 Lip13a                                              
  766.964  37%   0.523 Lip13b                                              
  132.491  71% 9.0E-02 Lip09                                               
  784.007  21%   0.535 MM09                                                
  121.292  47% 8.3E-02 Lip20                                               
 1.55E+03  18%   1.058 MM20                                                
  214.716  38%   0.146 MM12                                                
 1.56E+03  16%   1.061 MM14                                                
  792.600  20%   0.540 MM17                                                
  766.964  37%   0.523 Lip13a+Lip13b                                       
 2.54E+03  13%   1.730 MM14+Lip13a+Lip13b+MM12                             
  916.497  17%   0.625 MM09+Lip09                                          
 1.67E+03  16%   1.140 MM20+Lip20                                          
   6 lines in following misc. output table
  FWHM = 0.054 ppm    S/N =  12                                            
  Data shift = 0.000 ppm                                                   
  Ph:  16 deg      -5.8 deg/ppm                                            
  alphaB,S = 4.5E-01,   5.1E+01                                            
   14 spline knots.   Ns = 8(1)                                            
  (11) 5 infls.   ( 9) 1 extrs.                                            
  498 points on ppm-axis = NY
      4.000000     3.992357     3.984714     3.977070     3.969427     3.961784     3.954141     3.946497     3.938854     3.931211
      3.923568     3.915925     3.908281     3.900638     3.892995     3.885352     3.877708     3.870065     3.862422     3.854779
      3.847136     3.839492     3.831849     3.824206     3.816563     3.808919     3.801276     3.793633     3.785990     3.778347
      3.770703     3.763060     3.755417     3.747774     3.740130     3.732487     3.724844     3.717201     3.709558     3.701914
      3.694271     3.686628     3.678985     3.671341     3.663698     3.656055     3.648412     3.640769     3.633125     3.625482
      3.617839     3.610196     3.602552     3.594909     3.587266     3.579623     3.571980     3.564336     3.556693     3.549050
      3.541407     3.533763     3.526120     3.518477     3.510834     3.503191     3.495547     3.487904     3.480261     3.472618
      3.464974     3.457331     3.449688     3.442045     3.434402     3.426758     3.419115     3.411472     3.403829     3.396185
      3.388542     3.380899     3.373256     3.365613     3.357969     3.350326     3.342683     3.335040     3.327396     3.319753
      3.312110     3.304467     3.296824     3.289180     3.281537     3.273894     3.266251     3.258607     3.250964     3.243321
      3.235678     3.228034     3.220391     3.212748     3.205105     3.197462     3.189818     3.182175     3.174532     3.166889
      3.159245     3.151602     3.143959     3.136316     3.128673     3.121029     3.113386     3.105743     3.098100     3.090456
      3.082813     3.075170     3.067527     3.059884     3.052240     3.044597     3.036954     3.029311     3.021667     3.014024
      3.006381     2.998738     2.991095     2.983451     2.975808     2.968165     2.960522     2.952878     2.945235     2.937592
      2.929949     2.922306     2.914662     2.907019     2.899376     2.891733     2.884089     2.876446     2.868803     2.861160
      2.853517     2.845873     2.838230     2.830587     2.822944     2.815300     2.807657     2.800014     2.792371     2.784728
      2.777084     2.769441     2.761798     2.754155     2.746511     2.738868     2.731225     2.723582     2.715939     2.708295
      2.700652     2.693009     2.685366     2.677722     2.670079     2.662436     2.654793     2.647150     2.639506     2.631863
      2.624220     2.616577     2.608933     2.601290     2.593647     2.586004     2.578361     2.570717     2.563074     2.555431
      2.547788     2.540144     2.532501     2.524858     2.517215     2.509572     2.501928     2.494285     2.486642     2.478999
      2.471355     2.463712     2.456069     2.448426     2.440783     2.433139     2.425496     2.417853     2.410210     2.402566
      2.394923     2.387280     2.379637     2.371994     2.364350     2.356707     2.349064     2.341421     2.333777     2.326134
      2.318491     2.310848     2.303205     2.295561     2.287918     2.280275     2.272632     2.264988     2.257345     2.249702
      2.242059     2.234416     2.226772     2.219129     2.211486     2.203843     2.196199     2.188556     2.180913     2.173270
      2.165627     2.157983     2.150340     2.142697     2.135054     2.127410     2.119767     2.112124     2.104481     2.096838
      2.089194     2.081551     2.073908     2.066265     2.058621     2.050978     2.043335     2.035692     2.028049     2.020405
      2.012762     2.005119     1.997476     1.989833     1.982190     1.974546     1.966903     1.959260     1.951617     1.943974
      1.936331     1.928688     1.921045     1.913402     1.905759     1.898115     1.890472     1.882829     1.875186     1.867543
      1.859900     1.852257     1.844614     1.836971     1.829327     1.821684     1.814041     1.806398     1.798755     1.791112
      1.783469     1.775826     1.768183     1.760540     1.752896     1.745253     1.737610     1.729967     1.722324     1.714681
      1.707038     1.699395     1.691752     1.684108     1.676465     1.668822     1.661179     1.653536     1.645893     1.638250
      1.630607     1.622964     1.615321     1.607677     1.600034     1.592391     1.584748     1.577105     1.569462     1.561819
      1.554176     1.546533     1.538890     1.531246     1.523603     1.515960     1.508317     1.500674     1.493031     1.485388
      1.477745     1.470102     1.462458     1.454815     1.447172     1.439529     1.431886     1.424243     1.416600     1.408957
      1.401314     1.393671     1.386027     1.378384     1.370741     1.363098     1.355455     1.347812     1.340169     1.332526
      1.324883     1.317240     1.309596     1.301953     1.294310     1.286667     1.279024     1.271381     1.263738     1.256095
      1.248452     1.240808     1.233165     1.225522     1.217879     1.210236     1.202593     1.194950     1.187307     1.179664
      1.172021     1.164377     1.156734     1.149091     1.141448     1.133805     1.126162     1.118519     1.110876     1.103233
      1.095590     1.087946     1.080303     1.072660     1.065017     1.057374     1.049731     1.042088     1.034445     1.026802
      1.019158     1.011515     1.003872     0.996229     0.988586     0.980943     0.973300     0.965657     0.958014     0.950371
      0.942727     0.935084     0.927441     0.919798     0.912155     0.904512     0.896869     0.889226     0.881583     0.873940
      0.866296     0.858653     0.851010     0.843367     0.835724     0.828081     0.820438     0.812795     0.805152     0.797508
      0.789865     0.782222     0.774579     0.766936     0.759293     0.751650     0.744007     0.736364     0.728721     0.721077
      0.713434     0.705791     0.698148     0.690505     0.682862     0.675219     0.667576     0.659933     0.652290     0.644646
      0.637003     0.629360     0.621717     0.614074     0.606431     0.598788     0.591145     0.583502     0.575858     0.568215
      0.560572     0.552929     0.545286     0.537643     0.530000     0.522357     0.514714     0.507071     0.499427     0.491784
      0.484141     0.476498     0.468855     0.461212     0.453569     0.445925     0.438282     0.430639     0.422996     0.415353
      0.407710     0.400067     0.392424     0.384780     0.377137     0.369494     0.361851     0.354208     0.346565     0.338922
      0.331278     0.323635     0.315992     0.308349     0.300706     0.293063     0.285420     0.277777     0.270133     0.262490
      0.254847     0.247204     0.239561     0.231918     0.224275     0.216631     0.208988     0.201345
 NY phased data points follow
   2.20758E+01  2.36613E+01  2.65649E+01  2.90326E+01  3.24353E+01  3.27716E+01  3.44135E+01  4.15115E+01  4.03827E+01  4.30470E+01
   4.34691E+01  4.04061E+01  3.99376E+01  3.53790E+01  3.17597E+01  2.53527E+01  2.20545E+01  2.03641E+01  2.20123E+01  2.29070E+01
   2.18339E+01  2.33754E+01  2.54498E+01  2.54128E+01  2.61403E+01  2.75285E+01  2.83368E+01  2.60959E+01  2.93558E+01  2.73886E+01
   2.37888E+01  2.48837E+01  2.29854E+01  2.50560E+01  2.12408E+01  2.24191E+01  2.25112E+01  2.26060E+01  2.05641E+01  1.98637E+01
   2.32285E+01  2.27407E+01  2.34645E+01  2.57643E+01  2.36691E+01  2.64293E+01  2.79475E+01  2.84393E+01  2.63920E+01  2.75471E+01
   2.41431E+01  1.79027E+01  1.65968E+01  1.82031E+01  1.61281E+01  1.69024E+01  1.64490E+01  1.81058E+01  1.64739E+01  1.39060E+01
   1.30235E+01  1.22437E+01  8.97864E+00  9.05766E+00  9.88070E+00  8.46980E+00  8.58763E+00  1.10204E+01  8.96282E+00  8.18571E+00
   9.24116E+00  1.22240E+01  8.37924E+00  9.93685E+00  9.22359E+00  1.16482E+01  9.06461E+00  8.97213E+00  1.09156E+01  1.24900E+01
   7.81452E+00  9.55798E+00  7.87336E+00  1.14261E+01  9.58247E+00  1.06228E+01  1.05380E+01  1.25183E+01  1.22128E+01  1.25755E+01
   1.23394E+01  1.34614E+01  1.14191E+01  1.79583E+01  1.77534E+01  1.88195E+01  2.37906E+01  2.34500E+01  2.63184E+01  2.90224E+01
   2.78892E+01  3.52173E+01  4.04411E+01  4.04355E+01  4.18125E+01  3.42155E+01  2.60661E+01  2.26706E+01  1.43303E+01  1.60501E+01
   9.28582E+00  8.25539E+00  9.69004E+00  8.56657E+00  1.15604E+01  1.16546E+01  1.62867E+01  1.79538E+01  1.74359E+01  2.50696E+01
   2.35823E+01  2.60670E+01  3.06628E+01  3.39037E+01  3.83601E+01  4.74726E+01  4.75102E+01  5.15961E+01  4.65143E+01  4.02018E+01
   2.93484E+01  2.04422E+01  1.85468E+01  1.33351E+01  1.02189E+01  7.80192E+00  2.72764E+00  6.49488E+00  8.78808E+00  9.35992E+00
   1.14424E+01  8.29033E+00  9.96574E+00  1.02910E+01  9.80229E+00  8.15775E+00  6.50850E+00  7.45427E+00  8.63538E+00  7.74937E+00
   4.81975E+00  8.83775E+00  8.83128E+00  1.10086E+00  5.44218E+00  4.32126E+00  5.54510E+00  6.06429E+00  4.23904E+00  4.27638E+00
   3.01167E+00  1.34012E+00  9.44746E-01  4.55328E+00  1.20891E+00  2.22542E+00  5.37405E+00  4.03563E+00  3.94754E-01  2.96868E-02
  -2.10075E+00 -3.51723E+00 -6.50145E+00 -2.89981E+00 -5.90024E+00 -5.78089E+00 -6.04007E+00 -3.58219E+00 -5.05798E+00 -3.61355E+00
  -2.64331E+00 -1.84662E+00 -3.61812E+00 -1.59557E+00 -2.64446E+00 -2.79892E+00 -3.95692E+00  1.39143E+00 -1.21924E+00  9.74046E-01
   4.27931E+00  4.13984E+00  3.86082E+00  4.48228E+00 -1.63887E-01 -3.62637E-01  2.91495E+00  5.75682E-01  1.54492E+00  5.81234E-01
  -2.12790E-01  1.03367E+00  5.09064E+00  2.91350E+00  4.79242E+00  4.68644E+00  1.81844E+00  4.57202E+00  3.13638E+00  3.28876E-01
   1.17860E+00  4.02125E-01  2.76829E+00  6.69287E+00  6.04653E+00  9.07656E+00  9.04421E+00  7.81757E+00  7.67327E+00  2.42578E+00
   1.42435E+00 -8.68200E-01 -1.10071E+00  6.24112E-01 -1.30512E+00  4.43739E+00  5.68421E+00  7.01683E+00  9.37187E+00  7.25182E+00
   9.41023E+00  7.58899E+00  8.39715E+00  4.73727E+00  4.22624E+00  5.26362E+00  6.69584E+00  4.44206E+00  7.51334E+00  6.40779E+00
   8.02444E+00  3.88913E+00  5.66272E+00  8.52688E+00  8.51969E+00  8.33584E+00  1.07459E+01  1.26291E+01  1.79528E+01  1.80487E+01
   2.00680E+01  2.58287E+01  2.45166E+01  3.01756E+01  3.61106E+01  4.09725E+01  4.60437E+01  5.33781E+01  6.38065E+01  6.61210E+01
   7.04189E+01  6.62074E+01  5.93889E+01  4.61112E+01  2.80714E+01  1.80281E+01  1.43444E+01  1.16753E+01  3.50901E+00  5.51387E+00
   3.31531E+00  7.36366E+00  8.75459E+00  7.67700E+00  8.08073E+00  8.24587E+00  1.07147E+01  8.00694E+00  7.86930E+00  9.34042E+00
   7.06285E+00  5.85383E+00  6.79861E+00  4.33820E+00  5.41961E+00  5.13147E+00  3.72406E+00  6.16655E+00  7.23961E+00  5.71932E+00
   6.39424E+00  9.06980E+00  7.83284E+00  5.45665E+00  5.81837E+00  5.49739E+00  5.38800E+00  7.67923E+00  8.93203E+00  4.74896E+00
   5.60418E+00  8.62588E+00  7.97090E+00  8.21055E+00  6.16902E+00  7.98831E+00  9.64116E+00  9.88189E+00  7.21991E+00  1.09069E+01
   1.04311E+01  9.54213E+00  1.06741E+01  1.22164E+01  1.36762E+01  1.05778E+01  1.51731E+01  1.33729E+01  1.16977E+01  1.27725E+01
   1.17810E+01  1.04658E+01  1.39362E+01  1.20643E+01  8.93069E+00  1.53154E+01  1.33870E+01  1.05590E+01  1.03719E+01  9.92770E+00
   1.30118E+01  1.10577E+01  1.42287E+01  1.13759E+01  1.17659E+01  1.49298E+01  1.45170E+01  1.41612E+01  1.26235E+01  1.51048E+01
   1.32548E+01  1.40661E+01  1.49185E+01  1.59084E+01  1.55510E+01  1.48555E+01  1.46342E+01  1.42726E+01  1.27991E+01  1.30721E+01
   1.11368E+01  1.01574E+01  1.16500E+01  1.34944E+01  1.38712E+01  1.40660E+01  1.07245E+01  8.72814E+00  1.01257E+01  1.05452E+01
   9.05791E+00  8.45230E+00  7.83158E+00  2.87098E+00  4.14329E+00  3.59846E+00  1.77972E+00  1.14633E+00  9.95341E-01  2.25758E+00
   4.52632E+00  1.78606E+00  8.53580E-01  1.00032E+00  5.41063E-01  8.85726E-01  1.81583E+00  1.44513E-01  6.57703E-01  1.45238E+00
  -6.85052E-01  2.20531E+00  1.11289E+00  1.56266E+00 -4.68783E-01 -3.91365E+00 -1.55413E-01 -2.56626E-01 -2.41723E+00 -2.55814E+00
  -1.57899E+00  1.41102E+00 -7.08339E-01  1.59143E+00  1.62560E-02  2.37741E+00  8.81864E-01  7.33494E-02  4.11303E+00  3.62524E+00
   6.00398E+00  4.60354E+00  3.60717E+00  6.41620E+00  6.78169E+00  4.54328E+00  5.21223E+00  6.05047E+00  3.91110E+00  6.51152E+00
   7.93653E+00  5.89432E+00  5.83193E+00  6.53786E+00  4.44784E+00  4.47725E+00  3.51169E+00  2.33667E+00  1.45109E+00  4.52983E+00
   2.82622E+00  2.01570E+00  4.22525E-01  4.24811E-01 -4.08904E-01  5.29497E-01  3.70503E+00  5.82011E+00  1.41919E+00  1.99890E+00
   4.16204E+00  3.38982E+00  2.50495E+00  2.17203E+00  2.80025E+00  3.34977E+00 -1.82983E-01  3.09395E+00  3.60225E+00  1.84711E+00
   3.34323E+00  3.93939E+00  3.34827E+00  4.42411E+00  1.79166E+00 -7.68706E-01  1.83383E+00  1.90999E+00  2.59156E-01  1.43184E+00
   1.54997E+00  9.19491E-01  2.83794E-01  1.93836E+00  2.70151E+00  2.15541E+00  2.67733E+00  2.76912E+00  2.14874E+00  1.99726E+00
   2.38368E+00  3.74530E+00  2.51367E+00  9.81840E-01 -1.53220E+00 -1.29363E+00  2.92071E-01  2.03158E+00  9.48304E-01  1.67343E+00
   3.17908E+00  3.69548E+00  1.65840E+00  1.15486E+00 -7.06654E-01  6.92792E-01  1.25253E+00 -2.82666E-01  9.57147E-01 -2.67450E-01
  -1.34786E+00 -2.52302E-01  1.68693E+00 -2.56204E+00 -3.32574E-01 -2.04042E-01  6.31947E-01  2.41559E+00  5.27885E-01  2.59310E+00
   2.64495E+00  1.67017E+00  1.10676E+00 -1.62224E+00  2.92667E+00  1.87466E+00  2.20350E+00  1.11485E+00
 NY points of the fit to the data follow
   2.36185E+01  2.50211E+01  2.63773E+01  2.88924E+01  3.12353E+01  3.33994E+01  3.61261E+01  3.90301E+01  4.15532E+01  4.33610E+01
   4.34629E+01  4.14428E+01  3.81492E+01  3.45283E+01  3.07900E+01  2.69494E+01  2.41896E+01  2.31090E+01  2.22021E+01  2.13356E+01
   2.13293E+01  2.24405E+01  2.30339E+01  2.30608E+01  2.34625E+01  2.44348E+01  2.57409E+01  2.71902E+01  2.82480E+01  2.87502E+01
   2.87449E+01  2.80476E+01  2.67021E+01  2.51813E+01  2.40510E+01  2.30284E+01  2.11788E+01  1.91056E+01  1.83358E+01  1.86151E+01
   1.91142E+01  1.96415E+01  2.03635E+01  2.12167E+01  2.20813E+01  2.28822E+01  2.35071E+01  2.36784E+01  2.31472E+01  2.17108E+01
   1.96208E+01  1.77327E+01  1.65445E+01  1.59546E+01  1.55286E+01  1.52536E+01  1.53111E+01  1.55699E+01  1.58370E+01  1.60443E+01
   1.60720E+01  1.58108E+01  1.51736E+01  1.44327E+01  1.38115E+01  1.34057E+01  1.32303E+01  1.32864E+01  1.35068E+01  1.37640E+01
   1.39776E+01  1.40407E+01  1.39528E+01  1.37323E+01  1.33663E+01  1.29239E+01  1.25354E+01  1.22767E+01  1.21194E+01  1.21788E+01
   1.20591E+01  1.18040E+01  1.16163E+01  1.15093E+01  1.14665E+01  1.15257E+01  1.15390E+01  1.14222E+01  1.12308E+01  1.08494E+01
   1.03755E+01  1.00946E+01  1.02541E+01  1.11441E+01  1.42930E+01  1.92938E+01  2.19548E+01  2.31168E+01  2.47062E+01  2.73601E+01
   3.14736E+01  3.66222E+01  4.08154E+01  4.25471E+01  4.10293E+01  3.56482E+01  2.75147E+01  1.98892E+01  1.52231E+01  1.26183E+01
   1.01687E+01  8.62359E+00  8.49797E+00  8.49614E+00  8.52590E+00  8.64821E+00  9.05418E+00  1.07408E+01  1.57758E+01  2.12965E+01
   2.40988E+01  2.61204E+01  2.91495E+01  3.37147E+01  4.00203E+01  4.65125E+01  5.06067E+01  5.11704E+01  4.75157E+01  3.94017E+01
   2.93406E+01  2.11968E+01  1.63963E+01  1.28387E+01  9.17813E+00  6.89143E+00  6.06778E+00  5.91328E+00  6.41023E+00  7.22728E+00
   7.96030E+00  8.44276E+00  8.55637E+00  8.21089E+00  7.61748E+00  7.01568E+00  6.47759E+00  6.04639E+00  5.68685E+00  5.39761E+00
   5.16786E+00  4.94294E+00  4.60287E+00  4.14248E+00  3.85870E+00  3.75339E+00  3.79551E+00  3.87391E+00  3.63894E+00  3.17740E+00
   2.70802E+00  2.33754E+00  2.11409E+00  2.10359E+00  2.22987E+00  2.22916E+00  1.87695E+00  1.16586E+00  3.13739E-01 -1.88485E-01
  -3.27989E-01 -4.32179E-01 -7.38559E-01 -1.20293E+00 -1.53328E+00 -1.75092E+00 -1.87390E+00 -1.84086E+00 -1.74220E+00 -1.67723E+00
  -1.39095E+00 -1.04153E+00 -7.17538E-01 -2.26047E-01  3.52373E-01  8.29895E-01  1.35575E+00  2.11855E+00  3.02476E+00  3.95906E+00
   4.73412E+00  5.03700E+00  4.67578E+00  3.92064E+00  3.19943E+00  2.78294E+00  2.70083E+00  3.03170E+00  3.72240E+00  4.56311E+00
   5.37226E+00  6.00360E+00  6.00090E+00  5.87786E+00  5.64682E+00  4.84427E+00  3.82263E+00  2.84568E+00  2.31520E+00  1.86522E+00
   1.24105E+00  1.15613E+00  2.02106E+00  3.58403E+00  5.13308E+00  6.20876E+00  6.92719E+00  7.16470E+00  5.97106E+00  3.32387E+00
   3.89621E-01 -1.82013E+00 -2.83965E+00 -2.67648E+00 -1.27931E+00  1.50831E+00  4.73998E+00  7.08557E+00  8.06346E+00  8.17397E+00
   7.90537E+00  7.57872E+00  7.31846E+00  7.45236E+00  7.95820E+00  8.18748E+00  8.34901E+00  8.43507E+00  8.24472E+00  7.72054E+00
   7.11948E+00  6.68060E+00  6.58619E+00  6.88580E+00  7.54237E+00  8.69019E+00  1.01974E+01  1.16591E+01  1.32544E+01  1.44067E+01
   1.53201E+01  1.85406E+01  2.74498E+01  3.49819E+01  3.91648E+01  4.32372E+01  4.80832E+01  5.38459E+01  6.06631E+01  6.62600E+01
   6.82246E+01  6.59919E+01  5.84569E+01  4.53323E+01  3.07632E+01  2.06382E+01  1.55632E+01  1.13125E+01  7.44799E+00  6.40014E+00
   6.30739E+00  6.04489E+00  5.89339E+00  5.94558E+00  6.10604E+00  6.22571E+00  6.25589E+00  6.14110E+00  5.90003E+00  5.58644E+00
   5.27361E+00  4.99836E+00  4.79097E+00  4.67226E+00  4.64737E+00  4.69493E+00  4.76046E+00  4.82127E+00  4.88791E+00  4.95894E+00
   5.02633E+00  5.10850E+00  5.22219E+00  5.36042E+00  5.51573E+00  5.69510E+00  5.89439E+00  6.11110E+00  6.35560E+00  6.62817E+00
   6.91831E+00  7.22829E+00  7.55721E+00  7.89076E+00  8.21630E+00  8.52564E+00  8.81553E+00  9.08219E+00  9.32070E+00  9.53199E+00
   9.71738E+00  9.87823E+00  1.00193E+01  1.01472E+01  1.02705E+01  1.04015E+01  1.05573E+01  1.07667E+01  1.10934E+01  1.15928E+01
   1.18437E+01  1.17945E+01  1.18202E+01  1.19631E+01  1.21306E+01  1.22258E+01  1.20698E+01  1.18707E+01  1.17148E+01  1.12292E+01
   1.05668E+01  1.01707E+01  1.03158E+01  1.09645E+01  1.18400E+01  1.27821E+01  1.38005E+01  1.46330E+01  1.50507E+01  1.51891E+01
   1.48664E+01  1.41107E+01  1.35357E+01  1.31699E+01  1.30284E+01  1.30814E+01  1.30362E+01  1.31358E+01  1.31994E+01  1.27127E+01
   1.18627E+01  1.11841E+01  1.10988E+01  1.16223E+01  1.22647E+01  1.26693E+01  1.29282E+01  1.27639E+01  1.17615E+01  1.00915E+01
   8.28991E+00  6.83880E+00  5.67018E+00  4.58968E+00  3.78982E+00  3.28668E+00  2.91804E+00  2.64406E+00  2.43894E+00  2.28180E+00
   2.15746E+00  2.05577E+00  1.97021E+00  1.89692E+00  1.83366E+00  1.77942E+00  1.73385E+00  1.69721E+00  1.66994E+00  1.65270E+00
   1.64609E+00  1.65087E+00  1.66785E+00  1.69798E+00  1.74213E+00  1.80125E+00  1.87615E+00  1.96776E+00  2.07692E+00  2.20443E+00
   2.35083E+00  2.51646E+00  2.70124E+00  2.90485E+00  3.12639E+00  3.36447E+00  3.61693E+00  3.88094E+00  4.15291E+00  4.42867E+00
   4.70331E+00  4.97144E+00  5.22715E+00  5.46438E+00  5.67706E+00  5.85950E+00  6.00645E+00  6.11347E+00  6.17697E+00  6.19467E+00
   6.16553E+00  6.08995E+00  5.96963E+00  5.80755E+00  5.60776E+00  5.37534E+00  5.11601E+00  4.83601E+00  4.54159E+00  4.23897E+00
   3.93396E+00  3.63200E+00  3.33776E+00  3.05525E+00  2.78756E+00  2.53702E+00  2.30516E+00  2.09292E+00  1.90055E+00  1.72782E+00
   1.57401E+00  1.43818E+00  1.31910E+00  1.21556E+00  1.12615E+00  1.04955E+00  9.84316E-01  9.29238E-01  8.83107E-01  8.44923E-01
   8.13660E-01  7.88471E-01  7.68505E-01  7.53136E-01  7.41746E-01  7.33878E-01  7.29006E-01  7.26749E-01  7.26694E-01  7.28606E-01
   7.32189E-01  7.37258E-01  7.43533E-01  7.50865E-01  7.59073E-01  7.68126E-01  7.77899E-01  7.88346E-01  7.99315E-01  8.10775E-01
   8.22633E-01  8.34918E-01  8.47548E-01  8.60525E-01  8.73738E-01  8.87208E-01  9.00883E-01  9.14819E-01  9.28938E-01  9.43254E-01
   9.57683E-01  9.72281E-01  9.87014E-01  1.00194E+00  1.01700E+00  1.03220E+00  1.04748E+00  1.06293E+00  1.07850E+00  1.09425E+00
   1.11011E+00  1.12613E+00  1.14224E+00  1.15855E+00  1.17502E+00  1.19170E+00  1.20853E+00  1.22557E+00  1.24278E+00  1.26026E+00
   1.27798E+00  1.29599E+00  1.31425E+00  1.33283E+00  1.35172E+00  1.37105E+00  1.39078E+00  1.41099E+00
 NY background values follow
     1.839E+01    1.828E+01    1.817E+01    1.805E+01    1.794E+01    1.783E+01    1.772E+01    1.761E+01    1.750E+01    1.739E+01
     1.728E+01    1.717E+01    1.705E+01    1.694E+01    1.683E+01    1.672E+01    1.661E+01    1.650E+01    1.638E+01    1.627E+01
     1.616E+01    1.605E+01    1.594E+01    1.583E+01    1.571E+01    1.560E+01    1.549E+01    1.538E+01    1.527E+01    1.516E+01
     1.504E+01    1.493E+01    1.482E+01    1.471E+01    1.460E+01    1.449E+01    1.438E+01    1.427E+01    1.416E+01    1.405E+01
     1.394E+01    1.383E+01    1.372E+01    1.361E+01    1.350E+01    1.339E+01    1.328E+01    1.317E+01    1.307E+01    1.296E+01
     1.285E+01    1.274E+01    1.264E+01    1.253E+01    1.242E+01    1.232E+01    1.221E+01    1.210E+01    1.200E+01    1.189E+01
     1.179E+01    1.169E+01    1.158E+01    1.148E+01    1.137E+01    1.127E+01    1.117E+01    1.107E+01    1.097E+01    1.087E+01
     1.076E+01    1.066E+01    1.057E+01    1.047E+01    1.037E+01    1.027E+01    1.017E+01    1.007E+01    9.977E+00    9.881E+00
     9.785E+00    9.690E+00    9.596E+00    9.502E+00    9.408E+00    9.316E+00    9.223E+00    9.132E+00    9.040E+00    8.950E+00
     8.860E+00    8.771E+00    8.682E+00    8.594E+00    8.507E+00    8.420E+00    8.334E+00    8.248E+00    8.163E+00    8.078E+00
     7.994E+00    7.910E+00    7.827E+00    7.744E+00    7.662E+00    7.580E+00    7.498E+00    7.417E+00    7.336E+00    7.255E+00
     7.175E+00    7.095E+00    7.015E+00    6.936E+00    6.857E+00    6.778E+00    6.699E+00    6.621E+00    6.542E+00    6.464E+00
     6.386E+00    6.308E+00    6.231E+00    6.153E+00    6.075E+00    5.998E+00    5.921E+00    5.843E+00    5.766E+00    5.688E+00
     5.611E+00    5.534E+00    5.456E+00    5.379E+00    5.301E+00    5.223E+00    5.145E+00    5.068E+00    4.989E+00    4.911E+00
     4.833E+00    4.756E+00    4.678E+00    4.600E+00    4.522E+00    4.445E+00    4.368E+00    4.291E+00    4.215E+00    4.139E+00
     4.063E+00    3.988E+00    3.914E+00    3.840E+00    3.766E+00    3.694E+00    3.622E+00    3.550E+00    3.480E+00    3.410E+00
     3.341E+00    3.273E+00    3.206E+00    3.140E+00    3.075E+00    3.011E+00    2.948E+00    2.886E+00    2.825E+00    2.766E+00
     2.708E+00    2.651E+00    2.596E+00    2.541E+00    2.489E+00    2.438E+00    2.388E+00    2.340E+00    2.293E+00    2.248E+00
     2.205E+00    2.164E+00    2.124E+00    2.086E+00    2.050E+00    2.015E+00    1.982E+00    1.951E+00    1.921E+00    1.893E+00
     1.866E+00    1.841E+00    1.818E+00    1.796E+00    1.775E+00    1.756E+00    1.738E+00    1.722E+00    1.707E+00    1.693E+00
     1.681E+00    1.669E+00    1.660E+00    1.651E+00    1.644E+00    1.638E+00    1.633E+00    1.629E+00    1.626E+00    1.625E+00
     1.624E+00    1.625E+00    1.626E+00    1.629E+00    1.632E+00    1.637E+00    1.642E+00    1.649E+00    1.656E+00    1.664E+00
     1.673E+00    1.683E+00    1.693E+00    1.704E+00    1.716E+00    1.729E+00    1.743E+00    1.757E+00    1.772E+00    1.787E+00
     1.803E+00    1.819E+00    1.836E+00    1.854E+00    1.872E+00    1.890E+00    1.909E+00    1.928E+00    1.948E+00    1.968E+00
     1.988E+00    2.008E+00    2.028E+00    2.049E+00    2.070E+00    2.091E+00    2.112E+00    2.133E+00    2.154E+00    2.175E+00
     2.197E+00    2.218E+00    2.239E+00    2.259E+00    2.280E+00    2.301E+00    2.321E+00    2.341E+00    2.361E+00    2.380E+00
     2.399E+00    2.418E+00    2.437E+00    2.454E+00    2.472E+00    2.489E+00    2.505E+00    2.521E+00    2.537E+00    2.551E+00
     2.566E+00    2.579E+00    2.592E+00    2.604E+00    2.615E+00    2.626E+00    2.635E+00    2.645E+00    2.653E+00    2.661E+00
     2.668E+00    2.674E+00    2.679E+00    2.684E+00    2.688E+00    2.691E+00    2.693E+00    2.695E+00    2.695E+00    2.695E+00
     2.694E+00    2.693E+00    2.690E+00    2.687E+00    2.683E+00    2.678E+00    2.672E+00    2.666E+00    2.658E+00    2.650E+00
     2.641E+00    2.631E+00    2.620E+00    2.608E+00    2.596E+00    2.582E+00    2.568E+00    2.553E+00    2.536E+00    2.519E+00
     2.502E+00    2.483E+00    2.463E+00    2.442E+00    2.421E+00    2.398E+00    2.375E+00    2.350E+00    2.325E+00    2.299E+00
     2.271E+00    2.244E+00    2.215E+00    2.185E+00    2.155E+00    2.124E+00    2.093E+00    2.061E+00    2.028E+00    1.995E+00
     1.961E+00    1.927E+00    1.892E+00    1.857E+00    1.821E+00    1.785E+00    1.749E+00    1.712E+00    1.675E+00    1.638E+00
     1.601E+00    1.564E+00    1.526E+00    1.489E+00    1.451E+00    1.413E+00    1.375E+00    1.338E+00    1.300E+00    1.262E+00
     1.225E+00    1.188E+00    1.151E+00    1.114E+00    1.077E+00    1.041E+00    1.005E+00    9.696E-01    9.344E-01    8.996E-01
     8.653E-01    8.315E-01    7.982E-01    7.655E-01    7.333E-01    7.017E-01    6.707E-01    6.403E-01    6.104E-01    5.812E-01
     5.527E-01    5.247E-01    4.975E-01    4.709E-01    4.450E-01    4.197E-01    3.952E-01    3.714E-01    3.483E-01    3.260E-01
     3.044E-01    2.836E-01    2.636E-01    2.444E-01    2.260E-01    2.083E-01    1.916E-01    1.756E-01    1.605E-01    1.463E-01
     1.329E-01    1.205E-01    1.089E-01    9.826E-02    8.854E-02    7.976E-02    7.193E-02    6.506E-02    5.917E-02    5.426E-02
     5.036E-02    4.746E-02    4.559E-02    4.475E-02    4.496E-02    4.623E-02    4.858E-02    5.201E-02    5.652E-02    6.207E-02
     6.865E-02    7.622E-02    8.475E-02    9.420E-02    1.046E-01    1.158E-01    1.278E-01    1.407E-01    1.543E-01    1.687E-01
     1.838E-01    1.996E-01    2.160E-01    2.331E-01    2.507E-01    2.689E-01    2.877E-01    3.069E-01    3.266E-01    3.467E-01
     3.673E-01    3.882E-01    4.095E-01    4.311E-01    4.530E-01    4.751E-01    4.975E-01    5.201E-01    5.428E-01    5.656E-01
     5.886E-01    6.116E-01    6.347E-01    6.578E-01    6.809E-01    7.039E-01    7.268E-01    7.497E-01    7.723E-01    7.949E-01
     8.172E-01    8.393E-01    8.611E-01    8.827E-01    9.039E-01    9.249E-01    9.457E-01    9.662E-01    9.864E-01    1.006E+00
     1.026E+00    1.046E+00    1.065E+00    1.084E+00    1.103E+00    1.122E+00    1.141E+00    1.159E+00    1.177E+00    1.196E+00
     1.214E+00    1.231E+00    1.249E+00    1.267E+00    1.284E+00    1.302E+00    1.319E+00    1.336E+00    1.354E+00    1.371E+00
     1.388E+00    1.405E+00    1.422E+00    1.439E+00    1.456E+00    1.473E+00    1.490E+00    1.507E+00    1.524E+00    1.540E+00
     1.557E+00    1.575E+00    1.592E+00    1.609E+00    1.626E+00    1.643E+00    1.661E+00    1.678E+00
 Ala      Conc. = 2.55E+02
