 LCModel (Version 6.3-1L) Copyright: S.W. Provencher.          Ref.: Magn. Reson. Med. 30:672-679 (1993).                
 Slice#2 Row#11 Col#4  PD_05_press_1_raw_act
 36 lines in following concentration table = NCONC+1
    Conc.  %SD /Cr+PCr  Metabolite                                         
   41.457 119% 8.3E-02 Ala                                                 
   10.536 805% 2.1E-02 Asp                                                 
  215.082  48%   0.433 Cr                                                  
  281.509  38%   0.567 PCr                                                 
   68.476  81%   0.138 GABA                                                
   14.632 373% 2.9E-02 Glc                                                 
   45.436 229% 9.1E-02 Gln                                                 
  778.399  16%   1.567 Glu                                                 
  134.281   7%   0.270 GPC                                                 
    0.000 999%   0.000 PCh                                                 
  237.688  15%   0.479 GSH                                                 
  374.393  35%   0.754 Ins                                                 
    0.000 999%   0.000 Lac                                                 
  828.307   7%   1.668 NAA                                                 
  263.223  24%   0.530 NAAG                                                
   10.542 111% 2.1E-02 Scyllo                                              
    0.000 999%   0.000 Tau                                                 
  163.984  33%   0.330 -CrCH2                                              
  134.281   7%   0.270 GPC+PCh                                             
 1.09E+03   4%   2.198 NAA+NAAG                                            
  496.590   6%   1.000 Cr+PCr                                              
  823.835  21%   1.659 Glu+Gln                                             
    0.000 999%   0.000 Lip13a                                              
  192.635  53%   0.388 Lip13b                                              
   25.166 179% 5.1E-02 Lip09                                               
  554.996  16%   1.118 MM09                                                
   37.209  79% 7.5E-02 Lip20                                               
 1.13E+03  14%   2.282 MM20                                                
  163.032  26%   0.328 MM12                                                
    0.000 999%   0.000 MM14                                                
  366.733  22%   0.739 MM17                                                
  192.635  53%   0.388 Lip13a+Lip13b                                       
  355.667  30%   0.716 MM14+Lip13a+Lip13b+MM12                             
  580.162  16%   1.168 MM09+Lip09                                          
 1.17E+03  13%   2.357 MM20+Lip20                                          
   6 lines in following misc. output table
  FWHM = 0.061 ppm    S/N =  10                                            
  Data shift =-0.008 ppm                                                   
  Ph:  -9 deg      -0.8 deg/ppm                                            
  alphaB,S = 6.5E-01,   5.4E+01                                            
   14 spline knots.   Ns = 7(1)                                            
  (15) 3 infls.   (15) 1 extrs.                                            
  498 points on ppm-axis = NY
      4.000000     3.992357     3.984714     3.977070     3.969427     3.961784     3.954141     3.946497     3.938854     3.931211
      3.923568     3.915925     3.908281     3.900638     3.892995     3.885352     3.877708     3.870065     3.862422     3.854779
      3.847136     3.839492     3.831849     3.824206     3.816563     3.808919     3.801276     3.793633     3.785990     3.778347
      3.770703     3.763060     3.755417     3.747774     3.740130     3.732487     3.724844     3.717201     3.709558     3.701914
      3.694271     3.686628     3.678985     3.671341     3.663698     3.656055     3.648412     3.640769     3.633125     3.625482
      3.617839     3.610196     3.602552     3.594909     3.587266     3.579623     3.571980     3.564336     3.556693     3.549050
      3.541407     3.533763     3.526120     3.518477     3.510834     3.503191     3.495547     3.487904     3.480261     3.472618
      3.464974     3.457331     3.449688     3.442045     3.434402     3.426758     3.419115     3.411472     3.403829     3.396185
      3.388542     3.380899     3.373256     3.365613     3.357969     3.350326     3.342683     3.335040     3.327396     3.319753
      3.312110     3.304467     3.296824     3.289180     3.281537     3.273894     3.266251     3.258607     3.250964     3.243321
      3.235678     3.228034     3.220391     3.212748     3.205105     3.197462     3.189818     3.182175     3.174532     3.166889
      3.159245     3.151602     3.143959     3.136316     3.128673     3.121029     3.113386     3.105743     3.098100     3.090456
      3.082813     3.075170     3.067527     3.059884     3.052240     3.044597     3.036954     3.029311     3.021667     3.014024
      3.006381     2.998738     2.991095     2.983451     2.975808     2.968165     2.960522     2.952878     2.945235     2.937592
      2.929949     2.922306     2.914662     2.907019     2.899376     2.891733     2.884089     2.876446     2.868803     2.861160
      2.853517     2.845873     2.838230     2.830587     2.822944     2.815300     2.807657     2.800014     2.792371     2.784728
      2.777084     2.769441     2.761798     2.754155     2.746511     2.738868     2.731225     2.723582     2.715939     2.708295
      2.700652     2.693009     2.685366     2.677722     2.670079     2.662436     2.654793     2.647150     2.639506     2.631863
      2.624220     2.616577     2.608933     2.601290     2.593647     2.586004     2.578361     2.570717     2.563074     2.555431
      2.547788     2.540144     2.532501     2.524858     2.517215     2.509572     2.501928     2.494285     2.486642     2.478999
      2.471355     2.463712     2.456069     2.448426     2.440783     2.433139     2.425496     2.417853     2.410210     2.402566
      2.394923     2.387280     2.379637     2.371994     2.364350     2.356707     2.349064     2.341421     2.333777     2.326134
      2.318491     2.310848     2.303205     2.295561     2.287918     2.280275     2.272632     2.264988     2.257345     2.249702
      2.242059     2.234416     2.226772     2.219129     2.211486     2.203843     2.196199     2.188556     2.180913     2.173270
      2.165627     2.157983     2.150340     2.142697     2.135054     2.127410     2.119767     2.112124     2.104481     2.096838
      2.089194     2.081551     2.073908     2.066265     2.058621     2.050978     2.043335     2.035692     2.028049     2.020405
      2.012762     2.005119     1.997476     1.989833     1.982190     1.974546     1.966903     1.959260     1.951617     1.943974
      1.936331     1.928688     1.921045     1.913402     1.905759     1.898115     1.890472     1.882829     1.875186     1.867543
      1.859900     1.852257     1.844614     1.836971     1.829327     1.821684     1.814041     1.806398     1.798755     1.791112
      1.783469     1.775826     1.768183     1.760540     1.752896     1.745253     1.737610     1.729967     1.722324     1.714681
      1.707038     1.699395     1.691752     1.684108     1.676465     1.668822     1.661179     1.653536     1.645893     1.638250
      1.630607     1.622964     1.615321     1.607677     1.600034     1.592391     1.584748     1.577105     1.569462     1.561819
      1.554176     1.546533     1.538890     1.531246     1.523603     1.515960     1.508317     1.500674     1.493031     1.485388
      1.477745     1.470102     1.462458     1.454815     1.447172     1.439529     1.431886     1.424243     1.416600     1.408957
      1.401314     1.393671     1.386027     1.378384     1.370741     1.363098     1.355455     1.347812     1.340169     1.332526
      1.324883     1.317240     1.309596     1.301953     1.294310     1.286667     1.279024     1.271381     1.263738     1.256095
      1.248452     1.240808     1.233165     1.225522     1.217879     1.210236     1.202593     1.194950     1.187307     1.179664
      1.172021     1.164377     1.156734     1.149091     1.141448     1.133805     1.126162     1.118519     1.110876     1.103233
      1.095590     1.087946     1.080303     1.072660     1.065017     1.057374     1.049731     1.042088     1.034445     1.026802
      1.019158     1.011515     1.003872     0.996229     0.988586     0.980943     0.973300     0.965657     0.958014     0.950371
      0.942727     0.935084     0.927441     0.919798     0.912155     0.904512     0.896869     0.889226     0.881583     0.873940
      0.866296     0.858653     0.851010     0.843367     0.835724     0.828081     0.820438     0.812795     0.805152     0.797508
      0.789865     0.782222     0.774579     0.766936     0.759293     0.751650     0.744007     0.736364     0.728721     0.721077
      0.713434     0.705791     0.698148     0.690505     0.682862     0.675219     0.667576     0.659933     0.652290     0.644646
      0.637003     0.629360     0.621717     0.614074     0.606431     0.598788     0.591145     0.583502     0.575858     0.568215
      0.560572     0.552929     0.545286     0.537643     0.530000     0.522357     0.514714     0.507071     0.499427     0.491784
      0.484141     0.476498     0.468855     0.461212     0.453569     0.445925     0.438282     0.430639     0.422996     0.415353
      0.407710     0.400067     0.392424     0.384780     0.377137     0.369494     0.361851     0.354208     0.346565     0.338922
      0.331278     0.323635     0.315992     0.308349     0.300706     0.293063     0.285420     0.277777     0.270133     0.262490
      0.254847     0.247204     0.239561     0.231918     0.224275     0.216631     0.208988     0.201345
 NY phased data points follow
  -4.08297E+01 -4.08835E+01 -3.95322E+01 -3.95122E+01 -3.70288E+01 -3.33597E+01 -3.22846E+01 -3.02441E+01 -2.92207E+01 -2.83706E+01
  -2.60808E+01 -2.72635E+01 -2.93904E+01 -2.95092E+01 -3.12783E+01 -3.14745E+01 -3.15297E+01 -3.41385E+01 -3.12187E+01 -3.41841E+01
  -3.16956E+01 -3.10137E+01 -2.89073E+01 -2.66708E+01 -3.12945E+01 -2.59950E+01 -2.81300E+01 -2.59304E+01 -2.63488E+01 -2.56471E+01
  -2.44520E+01 -2.34166E+01 -2.79481E+01 -2.41312E+01 -2.60235E+01 -2.47180E+01 -2.73513E+01 -2.68729E+01 -2.62717E+01 -2.48522E+01
  -2.57803E+01 -2.68164E+01 -2.67720E+01 -2.31029E+01 -2.53538E+01 -2.28270E+01 -2.35244E+01 -2.35429E+01 -2.33777E+01 -2.22627E+01
  -2.52718E+01 -2.41745E+01 -2.32633E+01 -2.70292E+01 -2.64895E+01 -2.26830E+01 -2.28127E+01 -2.32165E+01 -2.31996E+01 -2.54695E+01
  -2.36379E+01 -2.39551E+01 -2.46471E+01 -2.32963E+01 -2.65701E+01 -2.55678E+01 -2.86900E+01 -2.50939E+01 -2.40337E+01 -2.43357E+01
  -2.57200E+01 -2.04881E+01 -2.13760E+01 -1.96813E+01 -2.43097E+01 -2.39508E+01 -2.46481E+01 -2.35981E+01 -2.19300E+01 -2.21427E+01
  -2.22785E+01 -2.27201E+01 -2.10788E+01 -2.16736E+01 -2.23076E+01 -2.05289E+01 -2.16581E+01 -2.06320E+01 -2.11266E+01 -2.25733E+01
  -2.18986E+01 -1.85934E+01 -1.90065E+01 -1.79944E+01 -1.97001E+01 -1.67653E+01 -1.75120E+01 -1.41571E+01 -1.53944E+01 -1.37417E+01
  -1.27856E+01 -9.41847E+00 -8.46288E+00 -9.71046E+00 -6.33091E+00 -7.93341E+00 -1.10141E+01 -1.23774E+01 -1.59872E+01 -1.61136E+01
  -1.85183E+01 -1.74222E+01 -1.72088E+01 -1.76280E+01 -1.69442E+01 -1.64959E+01 -1.66643E+01 -1.64700E+01 -1.39983E+01 -1.47155E+01
  -1.35240E+01 -1.18956E+01 -9.83454E+00 -6.66757E+00 -5.36982E+00 -1.20476E+00 -1.90138E+00  4.93937E-01 -2.19106E+00 -9.49470E-01
  -5.88654E+00 -9.65440E+00 -1.28344E+01 -1.53777E+01 -1.67756E+01 -1.36684E+01 -1.56419E+01 -1.60758E+01 -1.61541E+01 -1.53823E+01
  -1.65050E+01 -1.61715E+01 -1.55337E+01 -1.45593E+01 -1.67548E+01 -1.51267E+01 -1.50535E+01 -1.39411E+01 -1.81393E+01 -1.41216E+01
  -1.27748E+01 -1.63857E+01 -1.69494E+01 -1.72622E+01 -1.63030E+01 -1.33224E+01 -1.70494E+01 -1.34757E+01 -1.47382E+01 -1.70773E+01
  -1.76955E+01 -1.42797E+01 -1.49072E+01 -1.63571E+01 -1.67371E+01 -1.62109E+01 -1.45380E+01 -1.54212E+01 -1.40777E+01 -1.59032E+01
  -1.62306E+01 -1.79466E+01 -1.87623E+01 -2.02580E+01 -1.89918E+01 -1.90678E+01 -1.72111E+01 -1.99487E+01 -1.69068E+01 -1.83953E+01
  -1.89883E+01 -1.58600E+01 -1.66653E+01 -1.80438E+01 -1.54475E+01 -1.37568E+01 -1.60790E+01 -1.24442E+01 -1.32369E+01 -1.46849E+01
  -1.34044E+01 -1.24065E+01 -1.22763E+01 -1.37189E+01 -1.09926E+01 -1.33623E+01 -1.26957E+01 -1.33094E+01 -1.42489E+01 -1.52351E+01
  -1.38893E+01 -1.37478E+01 -1.35568E+01 -1.14468E+01 -1.17084E+01 -1.20131E+01 -1.10306E+01 -1.39977E+01 -1.60269E+01 -1.29840E+01
  -1.15994E+01 -9.81606E+00 -1.07827E+01 -9.00216E+00 -8.54181E+00 -9.24485E+00 -7.94912E+00 -8.72219E+00 -1.03199E+01 -8.94320E+00
  -1.32768E+01 -1.32835E+01 -1.43539E+01 -1.14276E+01 -8.76290E+00 -1.09765E+01 -7.95180E+00 -4.55130E+00 -5.82485E+00 -4.59559E+00
  -8.18127E+00 -7.21868E+00 -7.79587E+00 -7.28928E+00 -6.57029E+00 -6.78445E+00 -6.22670E+00 -5.56332E+00 -5.91994E+00 -4.48460E+00
  -6.99995E+00 -5.25966E+00 -5.78548E+00 -5.24877E+00 -4.62662E+00 -5.14786E-01 -1.95614E+00 -1.39373E+00  1.74873E+00 -6.48205E-01
   2.55530E+00  4.46257E+00  6.27970E+00  8.66352E+00  1.21970E+01  1.67202E+01  1.76949E+01  2.38763E+01  2.60185E+01  2.56570E+01
   2.74038E+01  2.27876E+01  2.11829E+01  1.61406E+01  6.05021E+00 -3.47168E+00 -3.85218E+00 -3.19149E+00 -1.69700E+00 -3.93966E+00
  -3.83218E+00 -1.92310E+00 -4.94117E+00 -2.68046E+00 -2.58087E+00 -2.51640E+00 -3.39830E+00 -5.35018E+00 -3.99952E+00 -3.80041E+00
  -5.58233E+00 -5.12061E+00 -5.40329E+00 -3.06316E+00 -6.59156E+00 -4.23163E+00 -4.98067E+00 -7.32277E+00 -7.10606E+00 -5.15373E+00
  -3.51279E+00 -4.95935E+00 -4.35999E+00 -4.57909E+00 -6.13680E+00 -4.22413E+00 -6.62826E+00 -5.84000E+00 -4.62982E+00 -5.66931E+00
  -4.64543E+00 -5.94369E+00 -5.43442E+00 -5.33251E+00 -2.95109E+00 -6.41128E+00 -5.94762E+00 -2.86667E+00 -3.67320E+00 -4.43041E+00
  -5.12674E+00 -4.98744E+00 -1.93124E+00 -5.89240E+00 -6.29164E+00 -5.65877E+00 -6.14915E+00 -7.17201E+00 -7.92991E+00 -7.70039E+00
  -4.96607E+00 -4.60533E+00 -5.14912E+00 -6.12767E+00 -9.03866E+00 -9.13213E+00 -9.76069E+00 -1.11330E+01 -9.24848E+00 -1.10467E+01
  -9.70487E+00 -9.07514E+00 -7.09488E+00 -1.07472E+01 -1.31820E+01 -1.20258E+01 -1.26957E+01 -1.07536E+01 -1.09421E+01 -9.90921E+00
  -9.72254E+00 -9.15118E+00 -1.02060E+01 -8.83832E+00 -8.10013E+00 -6.63998E+00 -7.60863E+00 -9.66080E+00 -9.64888E+00 -8.33262E+00
  -5.29833E+00 -8.47801E+00 -8.10273E+00 -9.05636E+00 -7.30324E+00 -6.29334E+00 -8.25986E+00 -6.64158E+00 -8.43052E+00 -7.83869E+00
  -9.00000E+00 -9.82116E+00 -1.05040E+01 -7.15928E+00 -8.83205E+00 -9.13859E+00 -1.01275E+01 -8.24920E+00 -1.05448E+01 -1.01231E+01
  -9.68548E+00 -9.63529E+00 -1.17455E+01 -8.75340E+00 -1.06046E+01 -1.16860E+01 -1.08953E+01 -1.05761E+01 -1.19807E+01 -1.24518E+01
  -1.10329E+01 -1.09453E+01 -1.09575E+01 -1.08381E+01 -8.80409E+00 -1.02697E+01 -9.67594E+00 -1.10240E+01 -8.57928E+00 -7.09487E+00
  -8.13032E+00 -1.05847E+01 -9.91309E+00 -8.92250E+00 -8.67553E+00 -6.62203E+00 -1.03015E+01 -9.08833E+00 -7.60013E+00 -8.54027E+00
  -9.09282E+00 -8.44202E+00 -1.05717E+01 -7.82219E+00 -8.92004E+00 -6.20987E+00 -7.16621E+00 -8.00200E+00 -8.74473E+00 -8.98779E+00
  -8.09829E+00 -9.23044E+00 -9.57846E+00 -1.01103E+01 -7.76373E+00 -9.45321E+00 -7.65263E+00 -9.15411E+00 -8.59704E+00 -7.87924E+00
  -8.48936E+00 -1.22679E+01 -1.21137E+01 -1.01631E+01 -9.78944E+00 -1.25128E+01 -8.46776E+00 -8.72637E+00 -1.06063E+01 -9.10353E+00
  -1.03329E+01 -1.08903E+01 -9.24640E+00 -9.36553E+00 -8.15607E+00 -9.37326E+00 -1.06774E+01 -9.59254E+00 -8.75005E+00 -1.12144E+01
  -9.97124E+00 -9.14572E+00 -8.97784E+00 -8.23145E+00 -1.17121E+01 -9.48496E+00 -8.78022E+00 -1.00975E+01 -1.04520E+01 -8.85544E+00
  -1.00326E+01 -9.36881E+00 -8.67412E+00 -9.75343E+00 -8.93366E+00 -1.04292E+01 -9.83787E+00 -1.13452E+01 -7.92121E+00 -9.02798E+00
  -9.21952E+00 -7.92279E+00 -8.72374E+00 -8.10913E+00 -8.00920E+00 -8.86189E+00 -1.11495E+01 -9.51395E+00 -8.92687E+00 -7.55160E+00
  -7.00520E+00 -9.28878E+00 -7.04726E+00 -8.15386E+00 -1.06525E+01 -1.13403E+01 -8.89895E+00 -8.35993E+00 -9.45529E+00 -8.07772E+00
  -8.12391E+00 -8.82723E+00 -8.82512E+00 -9.77860E+00 -8.37418E+00 -7.15534E+00 -8.17917E+00 -8.88846E+00 -9.20203E+00 -6.49570E+00
  -7.51879E+00 -7.02321E+00 -6.71140E+00 -6.10407E+00 -6.38185E+00 -8.25538E+00 -8.22803E+00 -6.74133E+00
 NY points of the fit to the data follow
  -3.76083E+01 -3.74806E+01 -3.70084E+01 -3.61029E+01 -3.48760E+01 -3.35805E+01 -3.23205E+01 -3.10218E+01 -2.97411E+01 -2.86315E+01
  -2.78272E+01 -2.74404E+01 -2.76451E+01 -2.85657E+01 -3.00101E+01 -3.13970E+01 -3.21759E+01 -3.23422E+01 -3.21722E+01 -3.19427E+01
  -3.17460E+01 -3.16579E+01 -3.13974E+01 -3.06178E+01 -2.98375E+01 -2.91699E+01 -2.83192E+01 -2.72300E+01 -2.61497E+01 -2.53233E+01
  -2.47073E+01 -2.43141E+01 -2.43797E+01 -2.50449E+01 -2.61539E+01 -2.71908E+01 -2.77847E+01 -2.81413E+01 -2.84696E+01 -2.84265E+01
  -2.78328E+01 -2.69515E+01 -2.61036E+01 -2.53742E+01 -2.47602E+01 -2.43197E+01 -2.40354E+01 -2.38746E+01 -2.38634E+01 -2.40331E+01
  -2.44735E+01 -2.51202E+01 -2.56168E+01 -2.56935E+01 -2.54306E+01 -2.50675E+01 -2.47285E+01 -2.44065E+01 -2.41230E+01 -2.39130E+01
  -2.37678E+01 -2.36849E+01 -2.36750E+01 -2.37559E+01 -2.38530E+01 -2.38411E+01 -2.36916E+01 -2.34320E+01 -2.31072E+01 -2.27754E+01
  -2.24951E+01 -2.22876E+01 -2.21451E+01 -2.20430E+01 -2.19732E+01 -2.19413E+01 -2.19247E+01 -2.18805E+01 -2.17786E+01 -2.16280E+01
  -2.15031E+01 -2.14416E+01 -2.14084E+01 -2.13723E+01 -2.13451E+01 -2.13352E+01 -2.13279E+01 -2.13063E+01 -2.12765E+01 -2.12157E+01
  -2.11050E+01 -2.09071E+01 -2.06174E+01 -2.03038E+01 -2.00268E+01 -1.96148E+01 -1.83566E+01 -1.65018E+01 -1.49278E+01 -1.34092E+01
  -1.16543E+01 -9.85276E+00 -8.38029E+00 -7.46501E+00 -7.29911E+00 -8.16195E+00 -1.03459E+01 -1.35230E+01 -1.64262E+01 -1.79057E+01
  -1.80811E+01 -1.79438E+01 -1.79080E+01 -1.78458E+01 -1.77638E+01 -1.76627E+01 -1.75557E+01 -1.74201E+01 -1.71672E+01 -1.63593E+01
  -1.41673E+01 -1.17421E+01 -9.66773E+00 -7.44665E+00 -4.95296E+00 -2.65410E+00 -9.36076E-01 -3.43415E-02 -3.03639E-01 -2.12868E+00
  -5.70514E+00 -1.01356E+01 -1.35555E+01 -1.50092E+01 -1.52732E+01 -1.55630E+01 -1.59292E+01 -1.61463E+01 -1.60937E+01 -1.57323E+01
  -1.52096E+01 -1.47455E+01 -1.44750E+01 -1.44419E+01 -1.46292E+01 -1.49261E+01 -1.52027E+01 -1.54160E+01 -1.55559E+01 -1.56433E+01
  -1.57142E+01 -1.57687E+01 -1.58057E+01 -1.58573E+01 -1.59591E+01 -1.60368E+01 -1.60594E+01 -1.60385E+01 -1.59782E+01 -1.59885E+01
  -1.60904E+01 -1.62247E+01 -1.63420E+01 -1.64075E+01 -1.63601E+01 -1.62415E+01 -1.62013E+01 -1.63388E+01 -1.66262E+01 -1.69361E+01
  -1.71002E+01 -1.70634E+01 -1.69793E+01 -1.69580E+01 -1.70169E+01 -1.70941E+01 -1.71304E+01 -1.70767E+01 -1.69425E+01 -1.67441E+01
  -1.65733E+01 -1.64524E+01 -1.63508E+01 -1.61513E+01 -1.57175E+01 -1.50776E+01 -1.44274E+01 -1.38698E+01 -1.33529E+01 -1.28057E+01
  -1.23118E+01 -1.20596E+01 -1.20583E+01 -1.22915E+01 -1.26834E+01 -1.30527E+01 -1.32076E+01 -1.30488E+01 -1.26725E+01 -1.21789E+01
  -1.16573E+01 -1.11557E+01 -1.07447E+01 -1.06368E+01 -1.07963E+01 -1.10915E+01 -1.15062E+01 -1.19583E+01 -1.22854E+01 -1.21947E+01
  -1.17876E+01 -1.12679E+01 -1.05688E+01 -9.71313E+00 -8.95025E+00 -8.61812E+00 -8.81158E+00 -9.35546E+00 -1.02033E+01 -1.15081E+01
  -1.28801E+01 -1.36266E+01 -1.34399E+01 -1.25465E+01 -1.13788E+01 -9.98640E+00 -8.40784E+00 -7.11811E+00 -6.53626E+00 -6.56485E+00
  -6.69095E+00 -6.63923E+00 -6.48708E+00 -6.25770E+00 -5.88957E+00 -5.45056E+00 -5.22005E+00 -5.27991E+00 -5.51236E+00 -5.77970E+00
  -6.03787E+00 -6.12050E+00 -5.85031E+00 -5.23031E+00 -4.39574E+00 -3.50079E+00 -2.63217E+00 -1.88234E+00 -1.10402E+00  1.84615E-02
   1.03704E+00  2.06113E+00  3.83024E+00  7.92437E+00  1.31259E+01  1.72791E+01  2.07631E+01  2.39400E+01  2.60698E+01  2.63873E+01
   2.52499E+01  2.32928E+01  2.01891E+01  1.47101E+01  7.14420E+00  4.41074E-01 -2.95589E+00 -3.60911E+00 -3.79667E+00 -4.18080E+00
  -4.38274E+00 -4.48258E+00 -4.54127E+00 -4.56292E+00 -4.56586E+00 -4.59436E+00 -4.67012E+00 -4.81722E+00 -5.02683E+00 -5.24478E+00
  -5.41712E+00 -5.53578E+00 -5.61963E+00 -5.67981E+00 -5.71422E+00 -5.72483E+00 -5.73060E+00 -5.74380E+00 -5.75435E+00 -5.74828E+00
  -5.72660E+00 -5.69224E+00 -5.64300E+00 -5.57621E+00 -5.50181E+00 -5.43071E+00 -5.36563E+00 -5.29998E+00 -5.22593E+00 -5.14394E+00
  -5.06089E+00 -4.98054E+00 -4.90585E+00 -4.84490E+00 -4.80885E+00 -4.80428E+00 -4.83111E+00 -4.88721E+00 -4.97261E+00 -5.08532E+00
  -5.22295E+00 -5.38294E+00 -5.56218E+00 -5.75653E+00 -5.96161E+00 -6.17251E+00 -6.38411E+00 -6.59068E+00 -6.78555E+00 -6.95781E+00
  -7.09190E+00 -7.22717E+00 -7.39976E+00 -7.57791E+00 -7.75479E+00 -7.95160E+00 -8.18466E+00 -8.45362E+00 -8.71811E+00 -8.94081E+00
  -9.15241E+00 -9.31932E+00 -9.36727E+00 -9.28628E+00 -9.15132E+00 -9.03409E+00 -8.94077E+00 -8.86761E+00 -8.85195E+00 -8.92739E+00
  -9.06945E+00 -9.20012E+00 -9.26319E+00 -9.26966E+00 -9.24523E+00 -9.18309E+00 -9.07895E+00 -8.93144E+00 -8.74258E+00 -8.51919E+00
  -8.27410E+00 -8.02566E+00 -7.79661E+00 -7.61094E+00 -7.49065E+00 -7.45179E+00 -7.50193E+00 -7.63852E+00 -7.84967E+00 -8.11600E+00
  -8.41435E+00 -8.72118E+00 -9.01624E+00 -9.28443E+00 -9.51699E+00 -9.71077E+00 -9.86729E+00 -9.99092E+00 -1.00875E+01 -1.01630E+01
  -1.02227E+01 -1.02705E+01 -1.03092E+01 -1.03405E+01 -1.03653E+01 -1.03835E+01 -1.03950E+01 -1.03989E+01 -1.03946E+01 -1.03812E+01
  -1.03578E+01 -1.03235E+01 -1.02777E+01 -1.02195E+01 -1.01485E+01 -1.00641E+01 -9.96642E+00 -9.85532E+00 -9.73125E+00 -9.59485E+00
  -9.44728E+00 -9.29002E+00 -9.12508E+00 -8.95481E+00 -8.78205E+00 -8.60990E+00 -8.44186E+00 -8.28155E+00 -8.13275E+00 -7.99902E+00
  -7.88383E+00 -7.79013E+00 -7.72050E+00 -7.67680E+00 -7.66020E+00 -7.67100E+00 -7.70875E+00 -7.77213E+00 -7.85924E+00 -7.96744E+00
  -8.09367E+00 -8.23438E+00 -8.38597E+00 -8.54466E+00 -8.70692E+00 -8.86929E+00 -9.02873E+00 -9.18252E+00 -9.32848E+00 -9.46481E+00
  -9.59030E+00 -9.70404E+00 -9.80561E+00 -9.89484E+00 -9.97195E+00 -1.00373E+01 -1.00916E+01 -1.01354E+01 -1.01695E+01 -1.01947E+01
  -1.02119E+01 -1.02217E+01 -1.02250E+01 -1.02224E+01 -1.02147E+01 -1.02022E+01 -1.01857E+01 -1.01655E+01 -1.01421E+01 -1.01158E+01
  -1.00870E+01 -1.00560E+01 -1.00230E+01 -9.98823E+00 -9.95194E+00 -9.91424E+00 -9.87534E+00 -9.83536E+00 -9.79448E+00 -9.75277E+00
  -9.71036E+00 -9.66731E+00 -9.62375E+00 -9.57973E+00 -9.53534E+00 -9.49057E+00 -9.44546E+00 -9.40001E+00 -9.35430E+00 -9.30832E+00
  -9.26212E+00 -9.21567E+00 -9.16901E+00 -9.12211E+00 -9.07505E+00 -9.02779E+00 -8.98038E+00 -8.93276E+00 -8.88498E+00 -8.83702E+00
  -8.78893E+00 -8.74067E+00 -8.69226E+00 -8.64367E+00 -8.59492E+00 -8.54600E+00 -8.49696E+00 -8.44774E+00 -8.39837E+00 -8.34880E+00
  -8.29908E+00 -8.24919E+00 -8.19915E+00 -8.14891E+00 -8.09849E+00 -8.04786E+00 -7.99705E+00 -7.94604E+00 -7.89484E+00 -7.84341E+00
  -7.79175E+00 -7.73985E+00 -7.68773E+00 -7.63535E+00 -7.58273E+00 -7.52980E+00 -7.47658E+00 -7.42304E+00
 NY background values follow
    -3.826E+01   -3.801E+01   -3.777E+01   -3.752E+01   -3.727E+01   -3.702E+01   -3.678E+01   -3.653E+01   -3.629E+01   -3.604E+01
    -3.580E+01   -3.556E+01   -3.531E+01   -3.507E+01   -3.483E+01   -3.459E+01   -3.435E+01   -3.412E+01   -3.388E+01   -3.364E+01
    -3.341E+01   -3.317E+01   -3.294E+01   -3.271E+01   -3.248E+01   -3.225E+01   -3.202E+01   -3.179E+01   -3.157E+01   -3.134E+01
    -3.112E+01   -3.090E+01   -3.068E+01   -3.046E+01   -3.025E+01   -3.003E+01   -2.982E+01   -2.960E+01   -2.939E+01   -2.918E+01
    -2.898E+01   -2.877E+01   -2.857E+01   -2.837E+01   -2.817E+01   -2.797E+01   -2.777E+01   -2.758E+01   -2.739E+01   -2.720E+01
    -2.701E+01   -2.682E+01   -2.664E+01   -2.645E+01   -2.627E+01   -2.609E+01   -2.592E+01   -2.574E+01   -2.557E+01   -2.539E+01
    -2.522E+01   -2.506E+01   -2.489E+01   -2.472E+01   -2.456E+01   -2.440E+01   -2.424E+01   -2.408E+01   -2.393E+01   -2.377E+01
    -2.362E+01   -2.347E+01   -2.332E+01   -2.317E+01   -2.303E+01   -2.288E+01   -2.274E+01   -2.260E+01   -2.246E+01   -2.232E+01
    -2.218E+01   -2.205E+01   -2.192E+01   -2.179E+01   -2.166E+01   -2.153E+01   -2.140E+01   -2.128E+01   -2.115E+01   -2.103E+01
    -2.091E+01   -2.079E+01   -2.067E+01   -2.056E+01   -2.044E+01   -2.033E+01   -2.022E+01   -2.011E+01   -2.000E+01   -1.989E+01
    -1.978E+01   -1.968E+01   -1.958E+01   -1.947E+01   -1.937E+01   -1.928E+01   -1.918E+01   -1.908E+01   -1.899E+01   -1.890E+01
    -1.881E+01   -1.872E+01   -1.863E+01   -1.854E+01   -1.846E+01   -1.837E+01   -1.829E+01   -1.821E+01   -1.813E+01   -1.805E+01
    -1.797E+01   -1.790E+01   -1.783E+01   -1.775E+01   -1.768E+01   -1.761E+01   -1.755E+01   -1.748E+01   -1.741E+01   -1.735E+01
    -1.729E+01   -1.723E+01   -1.717E+01   -1.711E+01   -1.705E+01   -1.700E+01   -1.694E+01   -1.689E+01   -1.684E+01   -1.679E+01
    -1.674E+01   -1.670E+01   -1.665E+01   -1.660E+01   -1.656E+01   -1.652E+01   -1.647E+01   -1.643E+01   -1.639E+01   -1.635E+01
    -1.630E+01   -1.626E+01   -1.622E+01   -1.618E+01   -1.614E+01   -1.610E+01   -1.606E+01   -1.602E+01   -1.598E+01   -1.594E+01
    -1.590E+01   -1.585E+01   -1.581E+01   -1.577E+01   -1.572E+01   -1.568E+01   -1.563E+01   -1.558E+01   -1.554E+01   -1.549E+01
    -1.544E+01   -1.539E+01   -1.533E+01   -1.528E+01   -1.522E+01   -1.517E+01   -1.511E+01   -1.505E+01   -1.499E+01   -1.492E+01
    -1.486E+01   -1.479E+01   -1.472E+01   -1.464E+01   -1.457E+01   -1.449E+01   -1.442E+01   -1.434E+01   -1.426E+01   -1.417E+01
    -1.409E+01   -1.400E+01   -1.391E+01   -1.382E+01   -1.373E+01   -1.364E+01   -1.355E+01   -1.345E+01   -1.335E+01   -1.326E+01
    -1.316E+01   -1.306E+01   -1.296E+01   -1.286E+01   -1.276E+01   -1.265E+01   -1.255E+01   -1.244E+01   -1.234E+01   -1.223E+01
    -1.213E+01   -1.202E+01   -1.191E+01   -1.181E+01   -1.170E+01   -1.159E+01   -1.148E+01   -1.137E+01   -1.126E+01   -1.115E+01
    -1.105E+01   -1.094E+01   -1.083E+01   -1.072E+01   -1.061E+01   -1.050E+01   -1.039E+01   -1.029E+01   -1.018E+01   -1.007E+01
    -9.968E+00   -9.862E+00   -9.758E+00   -9.654E+00   -9.551E+00   -9.449E+00   -9.348E+00   -9.248E+00   -9.149E+00   -9.051E+00
    -8.954E+00   -8.859E+00   -8.765E+00   -8.672E+00   -8.581E+00   -8.492E+00   -8.404E+00   -8.318E+00   -8.233E+00   -8.151E+00
    -8.070E+00   -7.991E+00   -7.914E+00   -7.840E+00   -7.767E+00   -7.697E+00   -7.629E+00   -7.563E+00   -7.500E+00   -7.439E+00
    -7.381E+00   -7.326E+00   -7.273E+00   -7.223E+00   -7.175E+00   -7.131E+00   -7.089E+00   -7.051E+00   -7.016E+00   -6.983E+00
    -6.954E+00   -6.928E+00   -6.906E+00   -6.887E+00   -6.871E+00   -6.858E+00   -6.848E+00   -6.842E+00   -6.838E+00   -6.837E+00
    -6.839E+00   -6.844E+00   -6.852E+00   -6.862E+00   -6.875E+00   -6.891E+00   -6.909E+00   -6.929E+00   -6.952E+00   -6.977E+00
    -7.004E+00   -7.034E+00   -7.065E+00   -7.099E+00   -7.135E+00   -7.172E+00   -7.212E+00   -7.253E+00   -7.296E+00   -7.341E+00
    -7.387E+00   -7.435E+00   -7.485E+00   -7.535E+00   -7.588E+00   -7.641E+00   -7.696E+00   -7.752E+00   -7.809E+00   -7.868E+00
    -7.927E+00   -7.987E+00   -8.048E+00   -8.110E+00   -8.173E+00   -8.236E+00   -8.300E+00   -8.365E+00   -8.430E+00   -8.496E+00
    -8.562E+00   -8.628E+00   -8.695E+00   -8.762E+00   -8.829E+00   -8.897E+00   -8.965E+00   -9.033E+00   -9.101E+00   -9.169E+00
    -9.237E+00   -9.304E+00   -9.372E+00   -9.440E+00   -9.507E+00   -9.574E+00   -9.641E+00   -9.708E+00   -9.774E+00   -9.840E+00
    -9.905E+00   -9.969E+00   -1.003E+01   -1.010E+01   -1.016E+01   -1.022E+01   -1.028E+01   -1.034E+01   -1.040E+01   -1.046E+01
    -1.052E+01   -1.058E+01   -1.063E+01   -1.069E+01   -1.074E+01   -1.079E+01   -1.085E+01   -1.090E+01   -1.094E+01   -1.099E+01
    -1.104E+01   -1.108E+01   -1.112E+01   -1.117E+01   -1.121E+01   -1.124E+01   -1.128E+01   -1.132E+01   -1.135E+01   -1.138E+01
    -1.142E+01   -1.144E+01   -1.147E+01   -1.150E+01   -1.152E+01   -1.155E+01   -1.157E+01   -1.159E+01   -1.161E+01   -1.163E+01
    -1.164E+01   -1.166E+01   -1.167E+01   -1.168E+01   -1.170E+01   -1.170E+01   -1.171E+01   -1.172E+01   -1.172E+01   -1.173E+01
    -1.173E+01   -1.173E+01   -1.173E+01   -1.173E+01   -1.172E+01   -1.172E+01   -1.171E+01   -1.170E+01   -1.169E+01   -1.168E+01
    -1.167E+01   -1.166E+01   -1.164E+01   -1.163E+01   -1.161E+01   -1.159E+01   -1.157E+01   -1.155E+01   -1.152E+01   -1.150E+01
    -1.147E+01   -1.145E+01   -1.142E+01   -1.139E+01   -1.136E+01   -1.133E+01   -1.129E+01   -1.126E+01   -1.122E+01   -1.119E+01
    -1.115E+01   -1.111E+01   -1.108E+01   -1.104E+01   -1.099E+01   -1.095E+01   -1.091E+01   -1.087E+01   -1.083E+01   -1.078E+01
    -1.074E+01   -1.069E+01   -1.064E+01   -1.060E+01   -1.055E+01   -1.050E+01   -1.046E+01   -1.041E+01   -1.036E+01   -1.031E+01
    -1.026E+01   -1.021E+01   -1.016E+01   -1.011E+01   -1.006E+01   -1.001E+01   -9.956E+00   -9.905E+00   -9.854E+00   -9.803E+00
    -9.752E+00   -9.701E+00   -9.650E+00   -9.599E+00   -9.548E+00   -9.497E+00   -9.446E+00   -9.396E+00   -9.345E+00   -9.295E+00
    -9.244E+00   -9.193E+00   -9.143E+00   -9.092E+00   -9.042E+00   -8.992E+00   -8.941E+00   -8.891E+00   -8.840E+00   -8.790E+00
    -8.739E+00   -8.689E+00   -8.638E+00   -8.588E+00   -8.537E+00   -8.487E+00   -8.436E+00   -8.385E+00   -8.334E+00   -8.283E+00
    -8.232E+00   -8.181E+00   -8.130E+00   -8.079E+00   -8.028E+00   -7.976E+00   -7.925E+00   -7.873E+00   -7.821E+00   -7.769E+00
    -7.717E+00   -7.665E+00   -7.613E+00   -7.560E+00   -7.508E+00   -7.455E+00   -7.402E+00   -7.349E+00
 Ala      Conc. = 4.15E+01
