 LCModel (Version 6.3-1L) Copyright: S.W. Provencher.          Ref.: Magn. Reson. Med. 30:672-679 (1993).                
 Slice#3 Row#13 Col#3  PD_05_press_1_raw_act
 36 lines in following concentration table = NCONC+1
    Conc.  %SD /Cr+PCr  Metabolite                                         
  968.557 104%   1.955 Ala                                                 
    0.000 999%   0.000 Asp                                                 
    0.000 999%   0.000 Cr                                                  
  495.336  21%   1.000 PCr                                                 
    0.000 999%   0.000 GABA                                                
   11.950 999% 2.4E-02 Glc                                                 
 9.57E+03  12%  19.315 Gln                                                 
 3.24E+03  46%   6.549 Glu                                                 
    0.000 999%   0.000 GPC                                                 
   13.769 296% 2.8E-02 PCh                                                 
   59.375 309%   0.120 GSH                                                 
 1.46E+03  29%   2.956 Ins                                                 
 2.61E+03  33%   5.266 Lac                                                 
    0.000 999%   0.000 NAA                                                 
    0.000 999%   0.000 NAAG                                                
  101.580  41%   0.205 Scyllo                                              
  764.688  39%   1.544 Tau                                                 
    0.000 999%   0.000 -CrCH2                                              
   13.769 296% 2.8E-02 GPC+PCh                                             
    0.000 999%   0.000 NAA+NAAG                                            
  495.336  21%   1.000 Cr+PCr                                              
 1.28E+04  19%  25.864 Glu+Gln                                             
 3.08E+04  10%  62.158 Lip13a                                              
    0.000 999%   0.000 Lip13b                                              
 8.22E+03  10%  16.596 Lip09                                               
 4.80E+03   6%   9.683 MM09                                                
 4.62E+03  10%   9.324 Lip20                                               
 7.19E+03   6%  14.525 MM20                                                
 1.44E+03   6%   2.905 MM12                                                
 3.60E+03   6%   7.263 MM14                                                
 1.80E+03   6%   3.632 MM17                                                
 3.08E+04  10%  62.158 Lip13a+Lip13b                                       
 3.58E+04   8%  72.327 MM14+Lip13a+Lip13b+MM12                             
 1.30E+04   5%  26.280 MM09+Lip09                                          
 1.18E+04   4%  23.848 MM20+Lip20                                          
   6 lines in following misc. output table
  FWHM = 0.138 ppm    S/N =  19                                            
  Data shift = 0.107 ppm                                                   
  Ph:-162 deg       8.8 deg/ppm                                            
  alphaB,S = 1.0E+00,   2.0E+02                                            
    8 spline knots.   Ns = 9(2)                                            
  (12) 2 infls.   ( 1) 1 extrs.                                            
  498 points on ppm-axis = NY
      4.000000     3.992357     3.984714     3.977070     3.969427     3.961784     3.954141     3.946497     3.938854     3.931211
      3.923568     3.915925     3.908281     3.900638     3.892995     3.885352     3.877708     3.870065     3.862422     3.854779
      3.847136     3.839492     3.831849     3.824206     3.816563     3.808919     3.801276     3.793633     3.785990     3.778347
      3.770703     3.763060     3.755417     3.747774     3.740130     3.732487     3.724844     3.717201     3.709558     3.701914
      3.694271     3.686628     3.678985     3.671341     3.663698     3.656055     3.648412     3.640769     3.633125     3.625482
      3.617839     3.610196     3.602552     3.594909     3.587266     3.579623     3.571980     3.564336     3.556693     3.549050
      3.541407     3.533763     3.526120     3.518477     3.510834     3.503191     3.495547     3.487904     3.480261     3.472618
      3.464974     3.457331     3.449688     3.442045     3.434402     3.426758     3.419115     3.411472     3.403829     3.396185
      3.388542     3.380899     3.373256     3.365613     3.357969     3.350326     3.342683     3.335040     3.327396     3.319753
      3.312110     3.304467     3.296824     3.289180     3.281537     3.273894     3.266251     3.258607     3.250964     3.243321
      3.235678     3.228034     3.220391     3.212748     3.205105     3.197462     3.189818     3.182175     3.174532     3.166889
      3.159245     3.151602     3.143959     3.136316     3.128673     3.121029     3.113386     3.105743     3.098100     3.090456
      3.082813     3.075170     3.067527     3.059884     3.052240     3.044597     3.036954     3.029311     3.021667     3.014024
      3.006381     2.998738     2.991095     2.983451     2.975808     2.968165     2.960522     2.952878     2.945235     2.937592
      2.929949     2.922306     2.914662     2.907019     2.899376     2.891733     2.884089     2.876446     2.868803     2.861160
      2.853517     2.845873     2.838230     2.830587     2.822944     2.815300     2.807657     2.800014     2.792371     2.784728
      2.777084     2.769441     2.761798     2.754155     2.746511     2.738868     2.731225     2.723582     2.715939     2.708295
      2.700652     2.693009     2.685366     2.677722     2.670079     2.662436     2.654793     2.647150     2.639506     2.631863
      2.624220     2.616577     2.608933     2.601290     2.593647     2.586004     2.578361     2.570717     2.563074     2.555431
      2.547788     2.540144     2.532501     2.524858     2.517215     2.509572     2.501928     2.494285     2.486642     2.478999
      2.471355     2.463712     2.456069     2.448426     2.440783     2.433139     2.425496     2.417853     2.410210     2.402566
      2.394923     2.387280     2.379637     2.371994     2.364350     2.356707     2.349064     2.341421     2.333777     2.326134
      2.318491     2.310848     2.303205     2.295561     2.287918     2.280275     2.272632     2.264988     2.257345     2.249702
      2.242059     2.234416     2.226772     2.219129     2.211486     2.203843     2.196199     2.188556     2.180913     2.173270
      2.165627     2.157983     2.150340     2.142697     2.135054     2.127410     2.119767     2.112124     2.104481     2.096838
      2.089194     2.081551     2.073908     2.066265     2.058621     2.050978     2.043335     2.035692     2.028049     2.020405
      2.012762     2.005119     1.997476     1.989833     1.982190     1.974546     1.966903     1.959260     1.951617     1.943974
      1.936331     1.928688     1.921045     1.913402     1.905759     1.898115     1.890472     1.882829     1.875186     1.867543
      1.859900     1.852257     1.844614     1.836971     1.829327     1.821684     1.814041     1.806398     1.798755     1.791112
      1.783469     1.775826     1.768183     1.760540     1.752896     1.745253     1.737610     1.729967     1.722324     1.714681
      1.707038     1.699395     1.691752     1.684108     1.676465     1.668822     1.661179     1.653536     1.645893     1.638250
      1.630607     1.622964     1.615321     1.607677     1.600034     1.592391     1.584748     1.577105     1.569462     1.561819
      1.554176     1.546533     1.538890     1.531246     1.523603     1.515960     1.508317     1.500674     1.493031     1.485388
      1.477745     1.470102     1.462458     1.454815     1.447172     1.439529     1.431886     1.424243     1.416600     1.408957
      1.401314     1.393671     1.386027     1.378384     1.370741     1.363098     1.355455     1.347812     1.340169     1.332526
      1.324883     1.317240     1.309596     1.301953     1.294310     1.286667     1.279024     1.271381     1.263738     1.256095
      1.248452     1.240808     1.233165     1.225522     1.217879     1.210236     1.202593     1.194950     1.187307     1.179664
      1.172021     1.164377     1.156734     1.149091     1.141448     1.133805     1.126162     1.118519     1.110876     1.103233
      1.095590     1.087946     1.080303     1.072660     1.065017     1.057374     1.049731     1.042088     1.034445     1.026802
      1.019158     1.011515     1.003872     0.996229     0.988586     0.980943     0.973300     0.965657     0.958014     0.950371
      0.942727     0.935084     0.927441     0.919798     0.912155     0.904512     0.896869     0.889226     0.881583     0.873940
      0.866296     0.858653     0.851010     0.843367     0.835724     0.828081     0.820438     0.812795     0.805152     0.797508
      0.789865     0.782222     0.774579     0.766936     0.759293     0.751650     0.744007     0.736364     0.728721     0.721077
      0.713434     0.705791     0.698148     0.690505     0.682862     0.675219     0.667576     0.659933     0.652290     0.644646
      0.637003     0.629360     0.621717     0.614074     0.606431     0.598788     0.591145     0.583502     0.575858     0.568215
      0.560572     0.552929     0.545286     0.537643     0.530000     0.522357     0.514714     0.507071     0.499427     0.491784
      0.484141     0.476498     0.468855     0.461212     0.453569     0.445925     0.438282     0.430639     0.422996     0.415353
      0.407710     0.400067     0.392424     0.384780     0.377137     0.369494     0.361851     0.354208     0.346565     0.338922
      0.331278     0.323635     0.315992     0.308349     0.300706     0.293063     0.285420     0.277777     0.270133     0.262490
      0.254847     0.247204     0.239561     0.231918     0.224275     0.216631     0.208988     0.201345
 NY phased data points follow
   1.02338E+01  9.75371E+00  9.57303E+00  1.02127E+01  9.87009E+00  9.27206E+00  8.12856E+00  9.22783E+00  1.08652E+01  8.43831E+00
   8.28801E+00  8.68494E+00  9.76110E+00  7.43748E+00  7.30597E+00  8.17694E+00  6.71803E+00  6.60356E+00  6.51379E+00  6.82510E+00
   6.80185E+00  6.46190E+00  6.36332E+00  5.31413E+00  6.09089E+00  5.43017E+00  5.52202E+00  5.95440E+00  4.18988E+00  4.83614E+00
   5.44363E+00  5.44906E+00  4.30249E+00  4.56343E+00  2.91120E+00  3.95620E+00  2.32378E+00  2.73737E+00  2.50925E+00  2.22708E+00
   2.52126E+00  2.54565E+00  2.82483E+00  1.95000E+00  1.89390E+00  1.70600E+00  1.28153E+00  1.06380E+00  5.21995E-01  8.69284E-01
  -6.43531E-01 -1.04236E+00 -4.22080E-01 -1.11426E+00 -1.36670E+00 -2.28400E+00 -2.32603E+00 -9.39833E-01 -2.00069E+00 -2.23740E+00
  -3.00028E+00 -4.62336E+00 -3.87715E+00 -4.07465E+00 -3.18647E+00 -3.83757E+00 -3.66302E+00 -2.64429E+00 -3.93622E+00 -5.34466E+00
  -5.47804E+00 -5.88425E+00 -4.23363E+00 -6.56172E+00 -7.00488E+00 -6.89229E+00 -5.28218E+00 -7.07071E+00 -6.98384E+00 -8.04453E+00
  -7.28481E+00 -7.83945E+00 -1.05349E+01 -9.84797E+00 -9.72788E+00 -1.07023E+01 -9.13113E+00 -1.19025E+01 -1.12983E+01 -1.29605E+01
  -1.33093E+01 -1.36139E+01 -1.41041E+01 -1.28010E+01 -1.24118E+01 -1.34943E+01 -1.37090E+01 -1.35202E+01 -1.53331E+01 -1.54368E+01
  -1.58344E+01 -1.73973E+01 -1.73606E+01 -1.63434E+01 -1.75614E+01 -1.82727E+01 -1.80655E+01 -1.93233E+01 -1.96345E+01 -1.93230E+01
  -1.97476E+01 -2.04869E+01 -2.21433E+01 -2.22106E+01 -2.27840E+01 -2.27006E+01 -2.18544E+01 -2.22264E+01 -2.26941E+01 -2.20252E+01
  -2.43391E+01 -2.22708E+01 -2.29408E+01 -2.08720E+01 -2.22498E+01 -2.30659E+01 -2.16916E+01 -2.12796E+01 -2.11979E+01 -2.17611E+01
  -2.14609E+01 -2.17731E+01 -2.10541E+01 -2.07219E+01 -2.19214E+01 -2.10983E+01 -2.17120E+01 -2.27280E+01 -2.17425E+01 -2.19395E+01
  -2.36507E+01 -2.30746E+01 -2.38104E+01 -2.43180E+01 -2.40051E+01 -2.56596E+01 -2.66420E+01 -2.74598E+01 -2.89411E+01 -2.88208E+01
  -2.89688E+01 -2.95214E+01 -2.89409E+01 -3.16728E+01 -3.06846E+01 -3.35484E+01 -3.38515E+01 -3.31179E+01 -3.41861E+01 -3.52176E+01
  -3.63080E+01 -3.84300E+01 -3.74490E+01 -3.84105E+01 -4.04171E+01 -4.02103E+01 -4.37854E+01 -4.43997E+01 -4.48157E+01 -4.60830E+01
  -4.67526E+01 -4.85120E+01 -4.96866E+01 -4.94556E+01 -5.08317E+01 -5.41087E+01 -5.24882E+01 -5.39622E+01 -5.53863E+01 -5.59064E+01
  -5.59708E+01 -5.85157E+01 -5.91848E+01 -5.98630E+01 -6.04445E+01 -6.19435E+01 -6.08433E+01 -6.18796E+01 -6.31267E+01 -6.31782E+01
  -6.22476E+01 -6.38191E+01 -6.37018E+01 -6.25701E+01 -6.28078E+01 -6.20983E+01 -6.18454E+01 -6.09981E+01 -6.02648E+01 -6.16144E+01
  -6.15387E+01 -6.02169E+01 -6.16751E+01 -6.03457E+01 -6.09930E+01 -6.05840E+01 -5.92611E+01 -5.92282E+01 -5.71218E+01 -5.77900E+01
  -5.61674E+01 -5.67500E+01 -5.69236E+01 -5.55568E+01 -5.37372E+01 -5.23215E+01 -5.25174E+01 -5.08775E+01 -4.88597E+01 -4.80649E+01
  -4.65115E+01 -4.58694E+01 -4.47817E+01 -4.32129E+01 -4.11852E+01 -4.03891E+01 -3.84395E+01 -3.90049E+01 -3.71505E+01 -3.53352E+01
  -3.35424E+01 -3.30688E+01 -3.26371E+01 -3.24017E+01 -3.15940E+01 -3.21482E+01 -3.11110E+01 -3.04536E+01 -3.04500E+01 -2.92839E+01
  -2.79965E+01 -2.91839E+01 -2.80506E+01 -2.67794E+01 -2.80863E+01 -2.70051E+01 -2.84261E+01 -2.68144E+01 -2.80502E+01 -2.79447E+01
  -2.70990E+01 -2.62642E+01 -2.59407E+01 -2.70810E+01 -2.70899E+01 -3.00854E+01 -2.98599E+01 -2.89007E+01 -2.82216E+01 -2.93529E+01
  -3.05465E+01 -3.09835E+01 -2.97574E+01 -3.15097E+01 -3.06238E+01 -3.17892E+01 -3.22703E+01 -3.20274E+01 -3.40307E+01 -3.34209E+01
  -3.34411E+01 -3.56233E+01 -3.63135E+01 -3.37395E+01 -3.66109E+01 -3.79038E+01 -3.75707E+01 -3.77351E+01 -3.69051E+01 -3.98022E+01
  -3.98121E+01 -3.85961E+01 -4.01005E+01 -3.96940E+01 -4.07749E+01 -3.99873E+01 -4.08074E+01 -3.95951E+01 -3.87895E+01 -3.75472E+01
  -3.87830E+01 -4.06264E+01 -3.71585E+01 -3.85100E+01 -3.75080E+01 -3.65932E+01 -3.80648E+01 -3.55025E+01 -3.59810E+01 -3.56582E+01
  -3.54509E+01 -3.47193E+01 -3.28888E+01 -3.34398E+01 -3.16946E+01 -2.94362E+01 -2.69852E+01 -2.69480E+01 -2.33925E+01 -2.27069E+01
  -2.07434E+01 -1.79427E+01 -1.48248E+01 -1.05554E+01 -7.83436E+00 -4.41013E+00  1.76372E+00  7.81129E+00  9.43226E+00  1.35358E+01
   1.80724E+01  2.38928E+01  2.91970E+01  3.16507E+01  3.55364E+01  3.84973E+01  4.21186E+01  4.33120E+01  4.50362E+01  4.68850E+01
   4.94693E+01  4.95290E+01  5.12713E+01  5.22116E+01  5.22851E+01  5.33172E+01  5.29653E+01  5.51213E+01  5.38384E+01  5.54129E+01
   5.46147E+01  5.55553E+01  5.39660E+01  5.43635E+01  5.45227E+01  5.45904E+01  5.45883E+01  5.34715E+01  5.47917E+01  5.35724E+01
   5.28721E+01  5.31847E+01  5.28443E+01  5.12436E+01  5.31077E+01  5.07777E+01  5.01055E+01  4.88050E+01  4.90666E+01  4.88793E+01
   4.82405E+01  4.88991E+01  4.91262E+01  4.69861E+01  4.83151E+01  4.68951E+01  4.54857E+01  4.68381E+01  4.60185E+01  4.45193E+01
   4.53495E+01  4.45302E+01  4.46124E+01  4.27989E+01  4.24109E+01  4.25141E+01  4.17863E+01  4.15383E+01  4.18808E+01  4.15797E+01
   4.02615E+01  3.88781E+01  4.00263E+01  3.90941E+01  4.05324E+01  3.93271E+01  3.90669E+01  3.86336E+01  3.96410E+01  3.72432E+01
   3.62425E+01  3.73824E+01  3.81345E+01  3.72885E+01  3.78388E+01  3.52096E+01  3.61816E+01  3.69750E+01  3.48885E+01  3.51898E+01
   3.38503E+01  3.31069E+01  3.37088E+01  3.28579E+01  3.28626E+01  3.39624E+01  3.31447E+01  3.28320E+01  3.24974E+01  3.25342E+01
   3.14899E+01  3.27269E+01  3.17073E+01  3.12825E+01  3.06494E+01  3.16809E+01  3.06999E+01  3.11228E+01  2.90340E+01  2.96141E+01
   3.02297E+01  2.84124E+01  2.93774E+01  2.85806E+01  2.81930E+01  2.91789E+01  2.97961E+01  2.78202E+01  2.76337E+01  2.82454E+01
   2.72916E+01  2.85046E+01  2.69196E+01  2.64520E+01  2.63240E+01  2.64544E+01  2.76386E+01  2.63031E+01  2.51166E+01  2.47275E+01
   2.61676E+01  2.66315E+01  2.43379E+01  2.57033E+01  2.34196E+01  2.44840E+01  2.43879E+01  2.39590E+01  2.55568E+01  2.35353E+01
   2.30070E+01  2.29680E+01  2.48284E+01  2.32637E+01  2.27178E+01  2.26876E+01  2.37463E+01  2.37743E+01  2.15917E+01  2.33189E+01
   2.29117E+01  2.34681E+01  2.23472E+01  2.28230E+01  2.36268E+01  2.27298E+01  2.26592E+01  2.25721E+01  2.22157E+01  2.28747E+01
   2.15282E+01  2.26412E+01  2.10473E+01  2.14414E+01  2.12428E+01  2.20771E+01  2.21528E+01  2.09339E+01  2.19920E+01  2.24308E+01
   2.20946E+01  2.05947E+01  1.99119E+01  2.04951E+01  2.13876E+01  2.10158E+01  1.85361E+01  2.13289E+01  2.07699E+01  2.07299E+01
   1.91816E+01  1.86835E+01  1.90375E+01  1.91561E+01  1.98406E+01  2.00531E+01  2.00985E+01  1.87474E+01
 NY points of the fit to the data follow
   8.73885E+00  9.21872E+00  8.72807E+00  9.03120E+00  8.80729E+00  9.03061E+00  8.86444E+00  8.78385E+00  8.63806E+00  8.17197E+00
   8.11866E+00  7.43735E+00  7.60759E+00  7.17678E+00  7.68799E+00  7.38948E+00  7.72445E+00  7.19688E+00  7.38739E+00  6.68451E+00
   6.77295E+00  6.21992E+00  6.49011E+00  6.01215E+00  6.28212E+00  5.76396E+00  5.93970E+00  5.37132E+00  5.41486E+00  4.91129E+00
   4.96087E+00  4.74136E+00  4.83995E+00  4.56691E+00  4.65781E+00  4.42565E+00  4.50671E+00  4.36218E+00  4.40231E+00  4.27748E+00
   4.08701E+00  3.99195E+00  3.57928E+00  3.47175E+00  2.98027E+00  3.03190E+00  2.69530E+00  2.99881E+00  2.28239E+00  1.99630E+00
   8.54408E-01  2.72481E-01 -8.85010E-01 -1.24512E+00 -1.12423E+00 -1.15135E+00 -9.36734E-01 -1.34549E+00 -1.45676E+00 -2.45914E+00
  -2.94014E+00 -3.71256E+00 -4.04718E+00 -4.65599E+00 -4.88869E+00 -5.38375E+00 -5.60475E+00 -6.02057E+00 -6.19448E+00 -6.40621E+00
  -6.40191E+00 -6.52640E+00 -6.60217E+00 -6.77812E+00 -6.90320E+00 -7.14225E+00 -7.29919E+00 -7.61367E+00 -7.78899E+00 -8.17507E+00
  -8.37057E+00 -8.79980E+00 -8.95325E+00 -9.45496E+00 -9.57822E+00 -1.01922E+01 -1.03408E+01 -1.10257E+01 -1.11785E+01 -1.18903E+01
  -1.20982E+01 -1.27639E+01 -1.30903E+01 -1.37242E+01 -1.41015E+01 -1.46477E+01 -1.51119E+01 -1.54339E+01 -1.59555E+01 -1.62130E+01
  -1.68363E+01 -1.70531E+01 -1.77566E+01 -1.78987E+01 -1.85919E+01 -1.86802E+01 -1.93439E+01 -1.93615E+01 -1.97978E+01 -1.97959E+01
  -2.02171E+01 -2.03389E+01 -2.07043E+01 -2.08299E+01 -2.10546E+01 -2.11605E+01 -2.12704E+01 -2.13137E+01 -2.12613E+01 -2.12475E+01
  -2.09892E+01 -2.09396E+01 -2.06553E+01 -2.06478E+01 -2.03306E+01 -2.04232E+01 -2.00982E+01 -2.03108E+01 -2.00143E+01 -2.03608E+01
  -2.00850E+01 -2.06295E+01 -2.04288E+01 -2.11782E+01 -2.10862E+01 -2.20481E+01 -2.20914E+01 -2.32104E+01 -2.33900E+01 -2.45925E+01
  -2.48957E+01 -2.61090E+01 -2.65096E+01 -2.76489E+01 -2.81262E+01 -2.92127E+01 -2.97634E+01 -3.07285E+01 -3.12483E+01 -3.17169E+01
  -3.21275E+01 -3.26199E+01 -3.30929E+01 -3.36463E+01 -3.41963E+01 -3.48118E+01 -3.54405E+01 -3.61320E+01 -3.68441E+01 -3.76032E+01
  -3.83864E+01 -3.91929E+01 -4.00199E+01 -4.08526E+01 -4.16990E+01 -4.25436E+01 -4.33928E+01 -4.42318E+01 -4.50665E+01 -4.58805E+01
  -4.66803E+01 -4.74573E+01 -4.82083E+01 -4.89339E+01 -4.96251E+01 -5.03011E+01 -5.09657E+01 -5.15915E+01 -5.22370E+01 -5.28360E+01
  -5.34364E+01 -5.39975E+01 -5.46168E+01 -5.51064E+01 -5.57737E+01 -5.62715E+01 -5.71119E+01 -5.75625E+01 -5.84779E+01 -5.88428E+01
  -5.97098E+01 -5.98918E+01 -6.07822E+01 -6.04814E+01 -6.10424E+01 -6.03763E+01 -6.09510E+01 -6.01667E+01 -6.10493E+01 -6.03213E+01
  -6.15977E+01 -6.07551E+01 -6.20812E+01 -6.10080E+01 -6.21378E+01 -6.08254E+01 -6.15024E+01 -6.00798E+01 -6.03583E+01 -5.90268E+01
  -5.89150E+01 -5.78460E+01 -5.73140E+01 -5.64898E+01 -5.53087E+01 -5.46617E+01 -5.29991E+01 -5.24414E+01 -5.04572E+01 -5.00807E+01
  -4.76179E+01 -4.73019E+01 -4.45298E+01 -4.39267E+01 -4.09199E+01 -4.03602E+01 -3.78492E+01 -3.67918E+01 -3.47324E+01 -3.37285E+01
  -3.25875E+01 -3.24087E+01 -3.33267E+01 -3.30568E+01 -3.37970E+01 -3.32570E+01 -3.36680E+01 -3.28190E+01 -3.25081E+01 -3.19318E+01
  -3.10921E+01 -3.08960E+01 -2.95830E+01 -2.99183E+01 -2.84480E+01 -2.92636E+01 -2.72048E+01 -2.83435E+01 -2.59981E+01 -2.74250E+01
  -2.49589E+01 -2.66215E+01 -2.42903E+01 -2.61130E+01 -2.40028E+01 -2.58725E+01 -2.41007E+01 -2.62690E+01 -2.57343E+01 -2.77447E+01
  -2.74022E+01 -2.88213E+01 -2.84829E+01 -2.90278E+01 -2.90735E+01 -3.01315E+01 -3.04519E+01 -3.18073E+01 -3.25340E+01 -3.40021E+01
  -3.47847E+01 -3.62335E+01 -3.69599E+01 -3.79474E+01 -3.83922E+01 -3.89425E+01 -3.91772E+01 -3.94199E+01 -3.96490E+01 -3.98249E+01
  -4.01134E+01 -4.03108E+01 -4.04873E+01 -4.05382E+01 -4.05937E+01 -4.05135E+01 -4.04234E+01 -4.02944E+01 -4.01013E+01 -3.98786E+01
  -3.96006E+01 -3.93042E+01 -3.89542E+01 -3.85948E+01 -3.81768E+01 -3.77073E+01 -3.71757E+01 -3.65932E+01 -3.59448E+01 -3.52330E+01
  -3.44461E+01 -3.35783E+01 -3.26242E+01 -3.15553E+01 -3.03637E+01 -2.90191E+01 -2.75066E+01 -2.57936E+01 -2.38512E+01 -2.16525E+01
  -1.92727E+01 -1.65746E+01 -1.36435E+01 -1.03515E+01 -6.86181E+00 -2.97618E+00  9.32108E-01  5.35107E+00  9.48636E+00  1.41209E+01
   1.81614E+01  2.27493E+01  2.64133E+01  3.07354E+01  3.38229E+01  3.76973E+01  4.00853E+01  4.33413E+01  4.50205E+01  4.76778E+01
   4.85659E+01  5.03845E+01  5.07168E+01  5.20023E+01  5.20329E+01  5.29757E+01  5.28791E+01  5.37494E+01  5.37161E+01  5.41884E+01
   5.41712E+01  5.42655E+01  5.43116E+01  5.41715E+01  5.43111E+01  5.40630E+01  5.43850E+01  5.40426E+01  5.46058E+01  5.43218E+01
   5.45900E+01  5.39306E+01  5.39934E+01  5.30135E+01  5.28480E+01  5.15051E+01  5.11455E+01  5.00620E+01  4.99581E+01  4.89772E+01
   4.89922E+01  4.81284E+01  4.82296E+01  4.74255E+01  4.74607E+01  4.65688E+01  4.65952E+01  4.58526E+01  4.61142E+01  4.60772E+01
   4.58704E+01  4.51777E+01  4.46659E+01  4.34905E+01  4.27187E+01  4.11574E+01  4.02221E+01  3.96777E+01  3.93508E+01  3.91719E+01
   3.91012E+01  3.91098E+01  3.91732E+01  3.92697E+01  3.93791E+01  3.94827E+01  3.95635E+01  3.96066E+01  3.95997E+01  3.95332E+01
   3.94006E+01  3.91986E+01  3.89270E+01  3.85883E+01  3.81883E+01  3.77347E+01  3.72374E+01  3.67074E+01  3.61564E+01  3.55965E+01
   3.50393E+01  3.44958E+01  3.39756E+01  3.34870E+01  3.30364E+01  3.26287E+01  3.22667E+01  3.19516E+01  3.16830E+01  3.14586E+01
   3.12754E+01  3.11289E+01  3.10141E+01  3.09252E+01  3.08562E+01  3.08009E+01  3.07533E+01  3.07076E+01  3.06584E+01  3.06006E+01
   3.05301E+01  3.04431E+01  3.03367E+01  3.02087E+01  3.00574E+01  2.98822E+01  2.96827E+01  2.94594E+01  2.92132E+01  2.89457E+01
   2.86586E+01  2.83540E+01  2.80345E+01  2.77025E+01  2.73608E+01  2.70121E+01  2.66592E+01  2.63046E+01  2.59509E+01  2.56005E+01
   2.52557E+01  2.49183E+01  2.45902E+01  2.42729E+01  2.39678E+01  2.36760E+01  2.33984E+01  2.31356E+01  2.28882E+01  2.26565E+01
   2.24406E+01  2.22406E+01  2.20563E+01  2.18876E+01  2.17340E+01  2.15953E+01  2.14709E+01  2.13604E+01  2.12631E+01  2.11784E+01
   2.11058E+01  2.10446E+01  2.09941E+01  2.09537E+01  2.09228E+01  2.09007E+01  2.08868E+01  2.08804E+01  2.08810E+01  2.08879E+01
   2.09007E+01  2.09186E+01  2.09413E+01  2.09680E+01  2.09985E+01  2.10321E+01  2.10685E+01  2.11071E+01  2.11475E+01  2.11893E+01
   2.12322E+01  2.12756E+01  2.13194E+01  2.13630E+01  2.14062E+01  2.14486E+01  2.14900E+01  2.15300E+01  2.15684E+01  2.16047E+01
   2.16389E+01  2.16707E+01  2.16997E+01  2.17258E+01  2.17488E+01  2.17684E+01  2.17844E+01  2.17967E+01
 NY background values follow
     1.759E+00    1.459E+00    1.164E+00    8.735E-01    5.878E-01    3.065E-01    2.966E-02   -2.429E-01   -5.113E-01   -7.757E-01
    -1.036E+00   -1.293E+00   -1.545E+00   -1.795E+00   -2.040E+00   -2.283E+00   -2.522E+00   -2.757E+00   -2.990E+00   -3.220E+00
    -3.447E+00   -3.671E+00   -3.892E+00   -4.111E+00   -4.328E+00   -4.542E+00   -4.754E+00   -4.964E+00   -5.172E+00   -5.378E+00
    -5.582E+00   -5.784E+00   -5.985E+00   -6.185E+00   -6.383E+00   -6.580E+00   -6.776E+00   -6.971E+00   -7.164E+00   -7.358E+00
    -7.550E+00   -7.742E+00   -7.933E+00   -8.124E+00   -8.315E+00   -8.505E+00   -8.696E+00   -8.886E+00   -9.077E+00   -9.268E+00
    -9.460E+00   -9.651E+00   -9.844E+00   -1.004E+01   -1.023E+01   -1.043E+01   -1.062E+01   -1.082E+01   -1.102E+01   -1.122E+01
    -1.142E+01   -1.162E+01   -1.183E+01   -1.203E+01   -1.224E+01   -1.245E+01   -1.266E+01   -1.288E+01   -1.310E+01   -1.332E+01
    -1.354E+01   -1.376E+01   -1.399E+01   -1.422E+01   -1.445E+01   -1.469E+01   -1.493E+01   -1.517E+01   -1.542E+01   -1.567E+01
    -1.592E+01   -1.618E+01   -1.644E+01   -1.671E+01   -1.698E+01   -1.725E+01   -1.753E+01   -1.781E+01   -1.810E+01   -1.839E+01
    -1.868E+01   -1.898E+01   -1.929E+01   -1.960E+01   -1.992E+01   -2.024E+01   -2.057E+01   -2.090E+01   -2.124E+01   -2.158E+01
    -2.193E+01   -2.228E+01   -2.264E+01   -2.301E+01   -2.338E+01   -2.376E+01   -2.414E+01   -2.453E+01   -2.492E+01   -2.532E+01
    -2.572E+01   -2.612E+01   -2.653E+01   -2.695E+01   -2.736E+01   -2.778E+01   -2.821E+01   -2.864E+01   -2.907E+01   -2.951E+01
    -2.994E+01   -3.039E+01   -3.083E+01   -3.128E+01   -3.173E+01   -3.218E+01   -3.263E+01   -3.309E+01   -3.355E+01   -3.401E+01
    -3.447E+01   -3.494E+01   -3.540E+01   -3.587E+01   -3.633E+01   -3.680E+01   -3.727E+01   -3.774E+01   -3.821E+01   -3.869E+01
    -3.916E+01   -3.963E+01   -4.010E+01   -4.057E+01   -4.105E+01   -4.152E+01   -4.199E+01   -4.246E+01   -4.293E+01   -4.340E+01
    -4.387E+01   -4.433E+01   -4.480E+01   -4.526E+01   -4.572E+01   -4.618E+01   -4.664E+01   -4.710E+01   -4.755E+01   -4.800E+01
    -4.845E+01   -4.890E+01   -4.935E+01   -4.979E+01   -5.023E+01   -5.066E+01   -5.109E+01   -5.152E+01   -5.195E+01   -5.237E+01
    -5.279E+01   -5.320E+01   -5.361E+01   -5.401E+01   -5.441E+01   -5.481E+01   -5.520E+01   -5.559E+01   -5.597E+01   -5.635E+01
    -5.672E+01   -5.709E+01   -5.745E+01   -5.780E+01   -5.815E+01   -5.849E+01   -5.883E+01   -5.916E+01   -5.949E+01   -5.980E+01
    -6.012E+01   -6.042E+01   -6.072E+01   -6.101E+01   -6.129E+01   -6.157E+01   -6.184E+01   -6.210E+01   -6.235E+01   -6.260E+01
    -6.284E+01   -6.307E+01   -6.329E+01   -6.350E+01   -6.371E+01   -6.391E+01   -6.410E+01   -6.428E+01   -6.446E+01   -6.463E+01
    -6.479E+01   -6.494E+01   -6.509E+01   -6.523E+01   -6.536E+01   -6.549E+01   -6.560E+01   -6.571E+01   -6.582E+01   -6.591E+01
    -6.600E+01   -6.609E+01   -6.616E+01   -6.623E+01   -6.629E+01   -6.635E+01   -6.640E+01   -6.644E+01   -6.648E+01   -6.651E+01
    -6.653E+01   -6.655E+01   -6.656E+01   -6.657E+01   -6.656E+01   -6.656E+01   -6.654E+01   -6.652E+01   -6.650E+01   -6.647E+01
    -6.643E+01   -6.639E+01   -6.634E+01   -6.628E+01   -6.622E+01   -6.616E+01   -6.609E+01   -6.601E+01   -6.593E+01   -6.584E+01
    -6.575E+01   -6.565E+01   -6.555E+01   -6.544E+01   -6.533E+01   -6.521E+01   -6.509E+01   -6.496E+01   -6.482E+01   -6.469E+01
    -6.454E+01   -6.440E+01   -6.425E+01   -6.409E+01   -6.393E+01   -6.376E+01   -6.359E+01   -6.342E+01   -6.324E+01   -6.306E+01
    -6.287E+01   -6.268E+01   -6.248E+01   -6.228E+01   -6.208E+01   -6.187E+01   -6.166E+01   -6.144E+01   -6.122E+01   -6.100E+01
    -6.078E+01   -6.054E+01   -6.031E+01   -6.007E+01   -5.983E+01   -5.959E+01   -5.934E+01   -5.909E+01   -5.884E+01   -5.858E+01
    -5.832E+01   -5.805E+01   -5.779E+01   -5.752E+01   -5.725E+01   -5.697E+01   -5.669E+01   -5.641E+01   -5.613E+01   -5.584E+01
    -5.555E+01   -5.526E+01   -5.496E+01   -5.467E+01   -5.437E+01   -5.407E+01   -5.376E+01   -5.345E+01   -5.314E+01   -5.283E+01
    -5.252E+01   -5.220E+01   -5.188E+01   -5.156E+01   -5.124E+01   -5.091E+01   -5.058E+01   -5.025E+01   -4.992E+01   -4.958E+01
    -4.924E+01   -4.890E+01   -4.856E+01   -4.822E+01   -4.787E+01   -4.752E+01   -4.717E+01   -4.682E+01   -4.646E+01   -4.611E+01
    -4.575E+01   -4.539E+01   -4.502E+01   -4.466E+01   -4.429E+01   -4.392E+01   -4.355E+01   -4.318E+01   -4.281E+01   -4.243E+01
    -4.205E+01   -4.167E+01   -4.129E+01   -4.091E+01   -4.052E+01   -4.014E+01   -3.975E+01   -3.936E+01   -3.897E+01   -3.857E+01
    -3.818E+01   -3.778E+01   -3.739E+01   -3.699E+01   -3.659E+01   -3.618E+01   -3.578E+01   -3.537E+01   -3.497E+01   -3.456E+01
    -3.415E+01   -3.374E+01   -3.333E+01   -3.291E+01   -3.250E+01   -3.208E+01   -3.167E+01   -3.125E+01   -3.083E+01   -3.041E+01
    -2.998E+01   -2.956E+01   -2.914E+01   -2.871E+01   -2.828E+01   -2.786E+01   -2.743E+01   -2.700E+01   -2.657E+01   -2.614E+01
    -2.570E+01   -2.527E+01   -2.484E+01   -2.440E+01   -2.396E+01   -2.353E+01   -2.309E+01   -2.265E+01   -2.221E+01   -2.177E+01
    -2.133E+01   -2.089E+01   -2.044E+01   -2.000E+01   -1.956E+01   -1.911E+01   -1.867E+01   -1.822E+01   -1.778E+01   -1.733E+01
    -1.688E+01   -1.643E+01   -1.599E+01   -1.554E+01   -1.509E+01   -1.464E+01   -1.419E+01   -1.374E+01   -1.330E+01   -1.285E+01
    -1.240E+01   -1.195E+01   -1.151E+01   -1.106E+01   -1.062E+01   -1.017E+01   -9.727E+00   -9.284E+00   -8.842E+00   -8.401E+00
    -7.961E+00   -7.522E+00   -7.085E+00   -6.649E+00   -6.214E+00   -5.781E+00   -5.350E+00   -4.920E+00   -4.492E+00   -4.066E+00
    -3.641E+00   -3.219E+00   -2.799E+00   -2.381E+00   -1.965E+00   -1.551E+00   -1.140E+00   -7.313E-01   -3.251E-01    7.854E-02
     4.794E-01    8.775E-01    1.273E+00    1.665E+00    2.054E+00    2.441E+00    2.824E+00    3.204E+00    3.580E+00    3.953E+00
     4.323E+00    4.689E+00    5.051E+00    5.410E+00    5.765E+00    6.116E+00    6.463E+00    6.806E+00    7.144E+00    7.479E+00
     7.809E+00    8.135E+00    8.457E+00    8.774E+00    9.087E+00    9.394E+00    9.698E+00    9.996E+00    1.029E+01    1.058E+01
     1.086E+01    1.114E+01    1.141E+01    1.168E+01    1.194E+01    1.220E+01    1.245E+01    1.270E+01    1.294E+01    1.317E+01
     1.340E+01    1.362E+01    1.384E+01    1.405E+01    1.425E+01    1.445E+01    1.464E+01    1.483E+01    1.500E+01    1.518E+01
     1.534E+01    1.550E+01    1.565E+01    1.580E+01    1.594E+01    1.607E+01    1.619E+01    1.631E+01
 Ala      Conc. = 9.69E+02
