 LCModel (Version 6.3-1L) Copyright: S.W. Provencher.          Ref.: Magn. Reson. Med. 30:672-679 (1993).                
 Slice#3 Row#14 Col#13  PD_05_press_1_raw_act
 36 lines in following concentration table = NCONC+1
    Conc.  %SD /Cr+PCr  Metabolite                                         
  609.529  19%  71.016 Ala                                                 
    2.924  58%   0.341 Asp                                                 
    8.583 192%   1.000 Cr                                                  
    0.000 999%   0.000 PCr                                                 
    1.757  58%   0.205 GABA                                                
    1.768  58%   0.206 Glc                                                 
    0.000 999%   0.000 Gln                                                 
    0.000 999%   0.000 Glu                                                 
    0.000 999%   0.000 GPC                                                 
   16.721  37%   1.948 PCh                                                 
  106.898  24%  12.455 GSH                                                 
  169.117  36%  19.704 Ins                                                 
 1.67E+03   6% 194.893 Lac                                                 
    0.000 999%   0.000 NAA                                                 
    0.000 999%   0.000 NAAG                                                
    0.593  58% 6.9E-02 Scyllo                                              
    2.952  58%   0.344 Tau                                                 
    0.740 311% 8.6E-02 -CrCH2                                              
   16.721  37%   1.948 GPC+PCh                                             
    0.000 999%   0.000 NAA+NAAG                                            
    8.583 192%   1.000 Cr+PCr                                              
    0.000 999%   0.000 Glu+Gln                                             
    0.000 999%   0.000 Lip13a                                              
    0.000 999%   0.000 Lip13b                                              
    4.522 201%   0.527 Lip09                                               
 1.32E-02 999% 1.5E-03 MM09                                                
    0.000 999%   0.000 Lip20                                               
    0.000 999%   0.000 MM20                                                
 1.81E-03 999% 2.1E-04 MM12                                                
 5.05E-02 999% 5.9E-03 MM14                                                
    0.000 999%   0.000 MM17                                                
    0.000 999%   0.000 Lip13a+Lip13b                                       
 5.23E-02 999% 6.1E-03 MM14+Lip13a+Lip13b+MM12                             
    4.535 201%   0.528 MM09+Lip09                                          
    0.000 999%   0.000 MM20+Lip20                                          
   6 lines in following misc. output table
  FWHM = 0.153 ppm    S/N =   3                                            
  Data shift = 0.076 ppm                                                   
  Ph: 137 deg     -22.9 deg/ppm                                            
  alphaB,S = 8.5E+01,   4.1E+02                                            
   12 spline knots.   Ns = 9(2)                                            
   2 inflections.     1 extrema                                            
  498 points on ppm-axis = NY
      4.000000     3.992357     3.984714     3.977070     3.969427     3.961784     3.954141     3.946497     3.938854     3.931211
      3.923568     3.915925     3.908281     3.900638     3.892995     3.885352     3.877708     3.870065     3.862422     3.854779
      3.847136     3.839492     3.831849     3.824206     3.816563     3.808919     3.801276     3.793633     3.785990     3.778347
      3.770703     3.763060     3.755417     3.747774     3.740130     3.732487     3.724844     3.717201     3.709558     3.701914
      3.694271     3.686628     3.678985     3.671341     3.663698     3.656055     3.648412     3.640769     3.633125     3.625482
      3.617839     3.610196     3.602552     3.594909     3.587266     3.579623     3.571980     3.564336     3.556693     3.549050
      3.541407     3.533763     3.526120     3.518477     3.510834     3.503191     3.495547     3.487904     3.480261     3.472618
      3.464974     3.457331     3.449688     3.442045     3.434402     3.426758     3.419115     3.411472     3.403829     3.396185
      3.388542     3.380899     3.373256     3.365613     3.357969     3.350326     3.342683     3.335040     3.327396     3.319753
      3.312110     3.304467     3.296824     3.289180     3.281537     3.273894     3.266251     3.258607     3.250964     3.243321
      3.235678     3.228034     3.220391     3.212748     3.205105     3.197462     3.189818     3.182175     3.174532     3.166889
      3.159245     3.151602     3.143959     3.136316     3.128673     3.121029     3.113386     3.105743     3.098100     3.090456
      3.082813     3.075170     3.067527     3.059884     3.052240     3.044597     3.036954     3.029311     3.021667     3.014024
      3.006381     2.998738     2.991095     2.983451     2.975808     2.968165     2.960522     2.952878     2.945235     2.937592
      2.929949     2.922306     2.914662     2.907019     2.899376     2.891733     2.884089     2.876446     2.868803     2.861160
      2.853517     2.845873     2.838230     2.830587     2.822944     2.815300     2.807657     2.800014     2.792371     2.784728
      2.777084     2.769441     2.761798     2.754155     2.746511     2.738868     2.731225     2.723582     2.715939     2.708295
      2.700652     2.693009     2.685366     2.677722     2.670079     2.662436     2.654793     2.647150     2.639506     2.631863
      2.624220     2.616577     2.608933     2.601290     2.593647     2.586004     2.578361     2.570717     2.563074     2.555431
      2.547788     2.540144     2.532501     2.524858     2.517215     2.509572     2.501928     2.494285     2.486642     2.478999
      2.471355     2.463712     2.456069     2.448426     2.440783     2.433139     2.425496     2.417853     2.410210     2.402566
      2.394923     2.387280     2.379637     2.371994     2.364350     2.356707     2.349064     2.341421     2.333777     2.326134
      2.318491     2.310848     2.303205     2.295561     2.287918     2.280275     2.272632     2.264988     2.257345     2.249702
      2.242059     2.234416     2.226772     2.219129     2.211486     2.203843     2.196199     2.188556     2.180913     2.173270
      2.165627     2.157983     2.150340     2.142697     2.135054     2.127410     2.119767     2.112124     2.104481     2.096838
      2.089194     2.081551     2.073908     2.066265     2.058621     2.050978     2.043335     2.035692     2.028049     2.020405
      2.012762     2.005119     1.997476     1.989833     1.982190     1.974546     1.966903     1.959260     1.951617     1.943974
      1.936331     1.928688     1.921045     1.913402     1.905759     1.898115     1.890472     1.882829     1.875186     1.867543
      1.859900     1.852257     1.844614     1.836971     1.829327     1.821684     1.814041     1.806398     1.798755     1.791112
      1.783469     1.775826     1.768183     1.760540     1.752896     1.745253     1.737610     1.729967     1.722324     1.714681
      1.707038     1.699395     1.691752     1.684108     1.676465     1.668822     1.661179     1.653536     1.645893     1.638250
      1.630607     1.622964     1.615321     1.607677     1.600034     1.592391     1.584748     1.577105     1.569462     1.561819
      1.554176     1.546533     1.538890     1.531246     1.523603     1.515960     1.508317     1.500674     1.493031     1.485388
      1.477745     1.470102     1.462458     1.454815     1.447172     1.439529     1.431886     1.424243     1.416600     1.408957
      1.401314     1.393671     1.386027     1.378384     1.370741     1.363098     1.355455     1.347812     1.340169     1.332526
      1.324883     1.317240     1.309596     1.301953     1.294310     1.286667     1.279024     1.271381     1.263738     1.256095
      1.248452     1.240808     1.233165     1.225522     1.217879     1.210236     1.202593     1.194950     1.187307     1.179664
      1.172021     1.164377     1.156734     1.149091     1.141448     1.133805     1.126162     1.118519     1.110876     1.103233
      1.095590     1.087946     1.080303     1.072660     1.065017     1.057374     1.049731     1.042088     1.034445     1.026802
      1.019158     1.011515     1.003872     0.996229     0.988586     0.980943     0.973300     0.965657     0.958014     0.950371
      0.942727     0.935084     0.927441     0.919798     0.912155     0.904512     0.896869     0.889226     0.881583     0.873940
      0.866296     0.858653     0.851010     0.843367     0.835724     0.828081     0.820438     0.812795     0.805152     0.797508
      0.789865     0.782222     0.774579     0.766936     0.759293     0.751650     0.744007     0.736364     0.728721     0.721077
      0.713434     0.705791     0.698148     0.690505     0.682862     0.675219     0.667576     0.659933     0.652290     0.644646
      0.637003     0.629360     0.621717     0.614074     0.606431     0.598788     0.591145     0.583502     0.575858     0.568215
      0.560572     0.552929     0.545286     0.537643     0.530000     0.522357     0.514714     0.507071     0.499427     0.491784
      0.484141     0.476498     0.468855     0.461212     0.453569     0.445925     0.438282     0.430639     0.422996     0.415353
      0.407710     0.400067     0.392424     0.384780     0.377137     0.369494     0.361851     0.354208     0.346565     0.338922
      0.331278     0.323635     0.315992     0.308349     0.300706     0.293063     0.285420     0.277777     0.270133     0.262490
      0.254847     0.247204     0.239561     0.231918     0.224275     0.216631     0.208988     0.201345
 NY phased data points follow
  -1.27867E+00 -4.61613E-01 -6.49946E-01 -3.67491E-01 -1.47551E+00 -3.32749E-01  8.71399E-01 -7.74073E-01  6.82416E-01 -6.42190E-02
  -1.43246E-01 -7.77942E-01 -3.78126E-01  2.60961E-02  4.29154E-01 -2.43087E-01  1.88656E-01  5.69496E-01 -5.41468E-01  1.10293E+00
  -9.38979E-01  6.12077E-01  4.73684E-01 -5.89908E-01  9.48046E-01  1.30818E-01 -2.88716E-01 -3.38791E-01 -5.28672E-02  2.25966E+00
   1.27743E+00  8.23006E-01 -4.31452E-01  4.05002E-02 -8.66515E-01 -3.70013E-02  6.71967E-01  1.67683E+00 -7.31590E-03 -5.60493E-01
   6.04214E-01  3.19790E-01 -6.10930E-01  3.07962E-01  3.21661E-01 -1.58661E-01 -7.04645E-02 -1.17501E+00 -3.02946E-02  7.00173E-01
   6.65148E-03  9.95636E-03  2.51322E-02  3.96098E-01 -1.25565E-01 -3.93427E-02 -4.59038E-02  1.92805E-01  1.02220E+00 -7.71870E-01
  -6.80108E-01 -2.95609E-01  1.59532E-01 -2.55325E-01 -5.19467E-01  1.48749E-02 -2.91015E-01 -5.76215E-01 -2.50023E-01 -8.72269E-01
   1.09731E-01  1.36254E-01 -3.07464E-01 -5.51928E-02 -9.19820E-01  5.84530E-01  6.73160E-01  1.04236E+00 -2.86484E-01 -5.58873E-01
   3.79463E-02 -3.40155E-01  5.87323E-01  1.89320E-01 -1.08071E-01  9.37667E-01 -2.08579E-01 -1.84759E-01 -7.30344E-01 -9.83191E-01
   1.58100E-01  6.16067E-01 -5.43252E-01 -1.77301E-01 -1.03276E+00 -1.33580E+00 -5.90951E-03 -1.20265E+00 -5.19465E-01 -2.84708E-01
   4.19320E-01 -4.62175E-01  6.84954E-01  9.84004E-01  1.06561E+00 -1.06958E+00 -1.13749E+00  6.95246E-01  5.65652E-01  3.80717E-02
   1.14235E+00 -8.71476E-02  1.10311E+00 -2.04156E-01  6.82572E-01  1.03696E-01 -1.53217E-01  6.18319E-03 -1.07768E+00 -2.73406E-01
  -9.91799E-01 -1.79005E+00 -3.71558E-01 -8.68654E-01 -1.89761E-01 -1.06688E-02 -2.89857E-02  4.07104E-01 -2.59565E-01 -1.00183E+00
   4.44432E-01 -1.18417E+00 -4.14197E-01 -2.85241E-01  1.42812E-01  1.20673E-01  1.01322E+00  3.81155E-01 -7.17845E-01  8.73099E-01
  -2.05631E-02  6.14755E-02  6.03433E-01 -2.54301E-01  1.01854E+00 -1.50013E+00  1.64795E-01  3.91400E-01 -1.08793E-01 -1.12876E+00
  -2.57204E-01 -7.84627E-01 -3.91096E-01 -1.70566E-01 -8.07385E-01  2.26718E-01  4.06841E-01  2.23926E-01  5.72879E-01  1.56374E-01
  -2.83158E-01 -2.14228E-01 -2.33281E-01 -1.20288E-01  4.96362E-02  7.29303E-01  2.04904E-01  1.04669E-01 -7.11082E-01  1.72014E-01
   3.39792E-01 -1.25704E+00 -9.53650E-01 -8.74406E-01 -7.87717E-01  1.22635E-01  8.88208E-01  3.41624E-01  4.85448E-01 -5.12361E-01
  -5.33555E-02 -4.12637E-01  6.90928E-02  6.50125E-01  2.48089E-01 -3.52462E-01  4.88422E-01 -4.16957E-01  1.57581E-01  9.55155E-02
   3.02561E-01 -9.11456E-01  1.80147E-01 -7.69195E-01  2.98912E-01  3.95738E-01 -2.70595E-01  2.35517E-01 -4.88283E-01 -7.62159E-02
  -5.43129E-01  2.03738E-01  3.06955E-01 -8.61804E-01  3.77273E-01 -9.06105E-01 -3.50901E-01  2.81191E-01 -8.19551E-03 -8.60819E-01
  -5.04137E-01 -7.02169E-01 -3.12477E-01 -3.51351E-01 -5.85779E-02  4.39049E-01 -1.01197E+00 -5.68335E-01 -2.90654E-01 -3.51657E-01
  -7.77527E-01 -6.36739E-01  2.82663E-01 -9.53518E-01  1.53875E-01  3.95412E-01 -9.83160E-01 -1.06144E+00  4.90622E-02  5.59249E-01
   1.86868E-01  8.43712E-01  1.99753E-01  9.13375E-02 -4.38041E-01 -5.39248E-01 -1.19494E-01  1.73060E-01 -1.59629E-01 -6.71602E-01
   2.34939E-01  3.21115E-01  2.80927E-01  7.69180E-01 -2.70261E-01 -5.75598E-01  8.65595E-02 -4.17379E-01 -7.53070E-01 -1.24422E+00
  -1.09172E+00 -8.49338E-01  3.09503E-01 -1.20319E+00 -5.68625E-01 -1.42777E+00 -1.27069E+00 -9.90246E-01  5.14288E-01  6.01481E-01
  -5.26303E-01 -2.88825E-01 -5.52088E-01 -7.94768E-01 -3.37198E-01  6.86274E-01 -4.09766E-02 -5.57585E-01 -1.31049E+00  1.05706E+00
  -5.75280E-01 -1.47537E-01 -1.07545E+00 -4.10235E-01  1.50031E+00 -1.50258E-01  9.14134E-01  7.96711E-01  3.42228E-01 -1.20443E+00
   1.87727E+00  6.79331E-01 -1.10812E-01 -6.20399E-01  5.85406E-02 -4.49240E-02  1.07326E+00  2.73600E-01  6.30476E-02  3.26761E-01
   5.26863E-02 -1.68000E-01 -9.12203E-02  1.01084E+00 -2.00519E-01  9.89400E-01 -3.97063E-01 -9.17452E-02 -5.83010E-01  7.46948E-01
  -2.73193E-01 -4.62052E-01  1.49155E-01 -4.82231E-01  5.83665E-01 -1.54141E-01  1.17856E+00  7.29679E-01  1.45617E+00  1.09762E+00
   1.04497E+00  8.96433E-01  1.16089E+00  1.56819E+00  1.80052E+00  2.26889E+00  1.69296E+00  1.01206E+00  2.07395E+00  2.02172E+00
   8.05025E-01  2.96898E+00  2.56781E+00  2.84454E+00  4.20675E+00  2.76550E+00  3.08851E+00  3.50961E+00  4.76587E+00  3.48253E+00
   4.36780E+00  4.39887E+00  4.73176E+00  5.21628E+00  6.18453E+00  5.47475E+00  5.79339E+00  6.37160E+00  5.31323E+00  4.50598E+00
   6.17426E+00  3.44530E+00  5.23487E+00  4.54635E+00  3.69005E+00  3.51317E+00  3.47861E+00  4.59900E+00  2.81936E+00  3.98432E+00
   3.84261E+00  3.30685E+00  3.78152E+00  2.78356E+00  2.73474E+00  3.02767E+00  1.79875E+00  3.61915E+00  1.87944E+00  2.41495E+00
   2.91169E+00  2.01310E+00  2.82938E+00  2.19217E+00  2.17052E+00  2.10998E+00  8.86205E-01  1.89041E+00  1.57889E+00  6.75631E-01
   1.56751E+00  1.05132E+00  1.21708E+00  7.59391E-01  7.62775E-01  1.28643E+00  1.13173E+00  1.85301E+00  1.27192E+00  9.39103E-01
   9.48525E-01  1.44580E+00  3.55917E-01  6.54235E-01  4.93194E-01  2.91708E-01  8.49352E-01  2.45426E-01  2.92464E-01  9.42885E-01
   1.70886E+00  3.41185E-01  6.95704E-01  1.14721E-01 -3.72392E-01  3.89518E-02  8.52073E-01  5.84965E-01 -1.06540E-01  2.47351E-02
   1.53406E+00  2.46134E-01  1.44405E-01  4.53235E-01  4.59993E-01  5.15339E-01  6.93236E-01  4.07267E-01  3.73558E-01  6.01351E-02
   9.65869E-01  1.08151E-01  1.15350E+00  1.03630E+00 -8.88940E-02  4.34510E-01 -2.29206E-01  6.31564E-01 -5.99195E-01  7.78097E-01
  -1.13411E-01  9.08703E-01 -6.73529E-01  2.77613E-01  2.12710E-01 -9.67453E-01 -1.15025E-03 -1.29513E+00  4.71442E-01  3.53408E-01
  -1.03366E-01 -1.06505E-01  9.85727E-01  5.86562E-01  7.31722E-02  4.01349E-01 -1.18662E-01  1.28674E+00  9.13312E-01  1.08916E+00
   1.74348E-01  9.35678E-01  1.30513E+00  8.66815E-01  1.12966E+00  3.70403E-01  4.77366E-01  1.54584E-01  5.22869E-01  1.63530E-01
   6.25107E-01 -4.20699E-01  2.86163E-01  1.27709E+00  6.28339E-01  1.18378E+00  7.77626E-01  7.39072E-01  1.39000E+00  2.82591E-01
   1.93212E-01  9.57466E-01  7.04044E-01  8.51889E-01  1.18441E+00 -5.13166E-01  1.11624E+00 -8.73312E-01  1.23602E+00  2.58168E-01
  -2.28647E-01  3.34434E-01  1.38781E+00  6.52175E-01 -2.27780E-01  8.19492E-01 -1.32560E+00  3.51756E-01 -1.69722E-01  1.66288E-01
   3.35869E-02  4.70430E-01  8.65969E-01  9.76664E-01  5.81487E-01 -3.52262E-01  1.13665E-01  7.46930E-01 -5.02732E-02  5.79471E-01
  -1.71519E-01  7.16528E-01 -2.19538E-01 -4.68393E-02  2.69158E-01 -2.26234E-01  1.11528E+00 -4.11555E-01
 NY points of the fit to the data follow
  -2.91379E-01 -4.60226E-01 -3.45515E-01 -4.65627E-01 -3.51900E-01 -4.42733E-01 -3.74771E-01 -4.15262E-01 -4.08612E-01 -4.37866E-01
  -4.76960E-01 -4.92372E-01 -4.78820E-01 -4.33266E-01 -4.38908E-01 -3.37790E-01 -3.40410E-01 -2.07304E-01 -2.20029E-01 -8.32098E-02
  -9.40322E-02  5.25710E-02  3.65316E-02  1.68204E-01  1.51741E-01  2.62603E-01  2.49884E-01  3.28900E-01  3.19745E-01  3.71660E-01
   3.83653E-01  4.01051E-01  4.21497E-01  4.00322E-01  4.33384E-01  3.80195E-01  4.22281E-01  3.41340E-01  3.86341E-01  2.82439E-01
   3.23571E-01  2.08796E-01  2.54457E-01  1.40137E-01  1.92620E-01  8.81254E-02  1.39061E-01  4.82703E-02  8.47897E-02 -8.79996E-03
   2.32380E-02 -6.12421E-02 -2.41522E-02 -8.64793E-02 -6.31340E-02 -1.07595E-01 -7.86419E-02 -1.15159E-01 -8.51415E-02 -1.15442E-01
  -8.31676E-02 -1.11734E-01 -8.42146E-02 -1.18206E-01 -9.08580E-02 -1.26919E-01 -1.00344E-01 -1.35299E-01 -1.07947E-01 -1.40279E-01
  -1.13542E-01 -1.51226E-01 -1.33344E-01 -1.78052E-01 -1.67053E-01 -2.16324E-01 -2.09154E-01 -2.61166E-01 -2.54956E-01 -3.06773E-01
  -3.03025E-01 -3.51807E-01 -3.47477E-01 -3.92093E-01 -3.85254E-01 -4.07569E-01 -3.77653E-01 -3.93711E-01 -3.43396E-01 -3.57626E-01
  -2.84489E-01 -3.02124E-01 -2.06022E-01 -2.34816E-01 -1.18612E-01 -1.62449E-01 -3.17272E-02 -9.40818E-02  4.41437E-02 -3.73773E-02
   1.01096E-01  7.86032E-04  1.30365E-01  1.57582E-02  1.31883E-01  9.18617E-03  1.08897E-01 -1.37300E-02  6.93912E-02 -4.57387E-02
   1.95796E-02 -8.57500E-02 -3.74159E-02 -1.25277E-01 -8.88847E-02 -1.51212E-01 -1.14875E-01 -1.56391E-01 -1.28614E-01 -1.57513E-01
  -1.42417E-01 -1.64880E-01 -1.55266E-01 -1.69968E-01 -1.53527E-01 -1.59410E-01 -1.28635E-01 -1.43434E-01 -1.04870E-01 -1.30869E-01
  -8.53318E-02 -1.21765E-01 -7.08736E-02 -1.16998E-01 -6.19455E-02 -1.16056E-01 -5.92750E-02 -1.19213E-01 -6.32717E-02 -1.25340E-01
  -7.37083E-02 -1.35531E-01 -9.13061E-02 -1.50396E-01 -1.13570E-01 -1.67105E-01 -1.37547E-01 -1.82920E-01 -1.61052E-01 -1.97302E-01
  -1.84519E-01 -2.14085E-01 -2.09575E-01 -2.31031E-01 -2.30069E-01 -2.42257E-01 -2.41235E-01 -2.49621E-01 -2.56053E-01 -2.62691E-01
  -2.73723E-01 -2.77759E-01 -2.86589E-01 -2.87605E-01 -2.92150E-01 -2.92403E-01 -2.95602E-01 -2.98050E-01 -3.03456E-01 -3.07410E-01
  -3.15148E-01 -3.19056E-01 -3.25329E-01 -3.23872E-01 -3.25568E-01 -3.17885E-01 -3.18408E-01 -3.06273E-01 -3.07842E-01 -2.94597E-01
  -3.05487E-01 -2.89116E-01 -3.01852E-01 -2.81718E-01 -2.95916E-01 -2.73260E-01 -2.88091E-01 -2.63677E-01 -2.77417E-01 -2.52819E-01
  -2.64633E-01 -2.39869E-01 -2.47737E-01 -2.23300E-01 -2.26016E-01 -2.02245E-01 -1.99365E-01 -1.78647E-01 -1.71944E-01 -1.55071E-01
  -1.45333E-01 -1.32359E-01 -1.20121E-01 -1.10430E-01 -9.54915E-02 -8.84288E-02 -7.14751E-02 -6.76520E-02 -5.22704E-02 -5.09595E-02
  -3.71164E-02 -3.68661E-02 -2.32251E-02 -2.41404E-02 -1.67555E-02 -1.88099E-02 -1.64546E-02 -1.91245E-02 -2.11202E-02 -2.00957E-02
  -2.05140E-02 -1.71821E-02 -1.81395E-02 -1.57439E-02 -1.89881E-02 -1.96799E-02 -2.71329E-02 -3.13755E-02 -3.65009E-02 -4.19175E-02
  -4.36826E-02 -5.07067E-02 -4.88310E-02 -5.76058E-02 -5.27113E-02 -6.44297E-02 -5.79492E-02 -7.15996E-02 -6.20406E-02 -7.57301E-02
  -6.30420E-02 -7.59575E-02 -6.09038E-02 -7.28595E-02 -5.73787E-02 -6.83752E-02 -5.35631E-02 -6.22337E-02 -4.72947E-02 -5.25797E-02
  -3.69543E-02 -3.91612E-02 -2.45076E-02 -2.57278E-02 -1.55497E-02 -1.47995E-02 -5.37474E-03 -8.91468E-04  9.97109E-03  1.86398E-02
   3.18082E-02  4.00572E-02  4.93882E-02  5.62101E-02  6.28430E-02  6.92191E-02  7.48349E-02  8.23282E-02  9.10154E-02  1.00415E-01
   1.10341E-01  1.20471E-01  1.30842E-01  1.41142E-01  1.51179E-01  1.61247E-01  1.71235E-01  1.81713E-01  1.92261E-01  2.03407E-01
   2.14706E-01  2.26685E-01  2.38874E-01  2.51825E-01  2.65086E-01  2.79234E-01  2.93803E-01  3.09366E-01  3.25460E-01  3.42679E-01
   3.60610E-01  3.79845E-01  4.00013E-01  4.21751E-01  4.44716E-01  4.69601E-01  4.96176E-01  5.25172E-01  5.56504E-01  5.90972E-01
   6.28732E-01  6.70834E-01  7.17886E-01  7.71418E-01  8.32978E-01  9.05554E-01  9.93625E-01  1.10662E+00  1.26780E+00  1.50113E+00
   1.62455E+00  1.83921E+00  1.90390E+00  2.07668E+00  2.05520E+00  2.13677E+00  1.98421E+00  2.06466E+00  1.94380E+00  1.99357E+00
   1.91941E+00  1.92916E+00  1.94796E+00  1.93293E+00  2.09924E+00  2.07995E+00  2.46808E+00  2.58250E+00  3.43207E+00  3.46821E+00
   4.31855E+00  4.22828E+00  4.96399E+00  4.68071E+00  5.09848E+00  4.56698E+00  4.99203E+00  4.47909E+00  4.80544E+00  4.31185E+00
   4.51758E+00  4.09037E+00  4.19350E+00  3.85620E+00  3.82286E+00  3.60968E+00  3.52085E+00  3.47834E+00  3.35561E+00  3.49217E+00
   3.31248E+00  3.51076E+00  3.25577E+00  3.47142E+00  3.14053E+00  3.38053E+00  3.03342E+00  3.32695E+00  3.06330E+00  3.34260E+00
   3.11761E+00  3.32985E+00  3.06437E+00  3.17945E+00  2.88220E+00  2.94402E+00  2.70709E+00  2.74726E+00  2.62834E+00  2.54401E+00
   2.28821E+00  2.12427E+00  1.77772E+00  1.55653E+00  1.20493E+00  9.87530E-01  8.46284E-01  7.42648E-01  6.62044E-01  5.97222E-01
   5.43903E-01  4.99377E-01  4.61758E-01  4.29727E-01  4.02247E-01  3.78562E-01  3.58041E-01  3.40248E-01  3.24788E-01  3.11378E-01
   2.99720E-01  2.89615E-01  2.80846E-01  2.73290E-01  2.66782E-01  2.61220E-01  2.56448E-01  2.52383E-01  2.48899E-01  2.45945E-01
   2.43405E-01  2.41227E-01  2.39297E-01  2.37584E-01  2.36003E-01  2.34546E-01  2.33139E-01  2.31780E-01  2.30409E-01  2.29051E-01
   2.27675E-01  2.26325E-01  2.24971E-01  2.23658E-01  2.22368E-01  2.21162E-01  2.20030E-01  2.19029E-01  2.18136E-01  2.17400E-01
   2.16799E-01  2.16382E-01  2.16123E-01  2.16059E-01  2.16147E-01  2.16419E-01  2.16837E-01  2.17432E-01  2.18163E-01  2.19052E-01
   2.20050E-01  2.21181E-01  2.22407E-01  2.23755E-01  2.25182E-01  2.26709E-01  2.28292E-01  2.29961E-01  2.31680E-01  2.33480E-01
   2.35317E-01  2.37218E-01  2.39144E-01  2.41131E-01  2.43143E-01  2.45212E-01  2.47298E-01  2.49429E-01  2.51572E-01  2.53763E-01
   2.55966E-01  2.58214E-01  2.60467E-01  2.62759E-01  2.65054E-01  2.67393E-01  2.69736E-01  2.72118E-01  2.74499E-01  2.76915E-01
   2.79333E-01  2.81791E-01  2.84251E-01  2.86745E-01  2.89236E-01  2.91763E-01  2.94292E-01  2.96860E-01  2.99429E-01  3.02032E-01
   3.04633E-01  3.07274E-01  3.09919E-01  3.12604E-01  3.15292E-01  3.18018E-01  3.20749E-01  3.23524E-01  3.26311E-01  3.29143E-01
   3.31986E-01  3.34876E-01  3.37785E-01  3.40750E-01  3.43740E-01  3.46791E-01  3.49873E-01  3.53024E-01  3.56221E-01  3.59504E-01
   3.62848E-01  3.66293E-01  3.69822E-01  3.73483E-01  3.77267E-01  3.81231E-01  3.85376E-01  3.89781E-01
 NY background values follow
    -7.614E-01   -7.591E-01   -7.567E-01   -7.544E-01   -7.520E-01   -7.497E-01   -7.473E-01   -7.450E-01   -7.426E-01   -7.403E-01
    -7.379E-01   -7.356E-01   -7.332E-01   -7.309E-01   -7.285E-01   -7.262E-01   -7.238E-01   -7.215E-01   -7.191E-01   -7.167E-01
    -7.144E-01   -7.120E-01   -7.097E-01   -7.073E-01   -7.049E-01   -7.026E-01   -7.002E-01   -6.978E-01   -6.955E-01   -6.931E-01
    -6.907E-01   -6.884E-01   -6.860E-01   -6.836E-01   -6.813E-01   -6.789E-01   -6.765E-01   -6.742E-01   -6.718E-01   -6.694E-01
    -6.670E-01   -6.647E-01   -6.623E-01   -6.599E-01   -6.575E-01   -6.552E-01   -6.528E-01   -6.504E-01   -6.480E-01   -6.456E-01
    -6.433E-01   -6.409E-01   -6.385E-01   -6.361E-01   -6.337E-01   -6.313E-01   -6.289E-01   -6.266E-01   -6.242E-01   -6.218E-01
    -6.194E-01   -6.170E-01   -6.146E-01   -6.122E-01   -6.098E-01   -6.074E-01   -6.050E-01   -6.026E-01   -6.003E-01   -5.979E-01
    -5.955E-01   -5.931E-01   -5.907E-01   -5.883E-01   -5.859E-01   -5.835E-01   -5.811E-01   -5.787E-01   -5.763E-01   -5.739E-01
    -5.715E-01   -5.691E-01   -5.667E-01   -5.643E-01   -5.619E-01   -5.594E-01   -5.570E-01   -5.546E-01   -5.522E-01   -5.498E-01
    -5.474E-01   -5.450E-01   -5.426E-01   -5.402E-01   -5.378E-01   -5.354E-01   -5.329E-01   -5.305E-01   -5.281E-01   -5.257E-01
    -5.233E-01   -5.209E-01   -5.185E-01   -5.160E-01   -5.136E-01   -5.112E-01   -5.088E-01   -5.064E-01   -5.040E-01   -5.015E-01
    -4.991E-01   -4.967E-01   -4.943E-01   -4.919E-01   -4.894E-01   -4.870E-01   -4.846E-01   -4.822E-01   -4.797E-01   -4.773E-01
    -4.749E-01   -4.725E-01   -4.700E-01   -4.676E-01   -4.652E-01   -4.628E-01   -4.603E-01   -4.579E-01   -4.555E-01   -4.531E-01
    -4.506E-01   -4.482E-01   -4.458E-01   -4.433E-01   -4.409E-01   -4.385E-01   -4.360E-01   -4.336E-01   -4.312E-01   -4.287E-01
    -4.263E-01   -4.239E-01   -4.214E-01   -4.190E-01   -4.166E-01   -4.141E-01   -4.117E-01   -4.093E-01   -4.068E-01   -4.044E-01
    -4.019E-01   -3.995E-01   -3.971E-01   -3.946E-01   -3.922E-01   -3.898E-01   -3.873E-01   -3.849E-01   -3.824E-01   -3.800E-01
    -3.775E-01   -3.751E-01   -3.727E-01   -3.702E-01   -3.678E-01   -3.653E-01   -3.629E-01   -3.604E-01   -3.580E-01   -3.556E-01
    -3.531E-01   -3.507E-01   -3.482E-01   -3.458E-01   -3.433E-01   -3.409E-01   -3.384E-01   -3.360E-01   -3.335E-01   -3.311E-01
    -3.286E-01   -3.262E-01   -3.238E-01   -3.213E-01   -3.189E-01   -3.164E-01   -3.140E-01   -3.115E-01   -3.091E-01   -3.066E-01
    -3.042E-01   -3.017E-01   -2.993E-01   -2.968E-01   -2.943E-01   -2.919E-01   -2.894E-01   -2.870E-01   -2.845E-01   -2.821E-01
    -2.796E-01   -2.772E-01   -2.747E-01   -2.723E-01   -2.698E-01   -2.674E-01   -2.649E-01   -2.625E-01   -2.600E-01   -2.575E-01
    -2.551E-01   -2.526E-01   -2.502E-01   -2.477E-01   -2.453E-01   -2.428E-01   -2.404E-01   -2.379E-01   -2.354E-01   -2.330E-01
    -2.305E-01   -2.281E-01   -2.256E-01   -2.232E-01   -2.207E-01   -2.182E-01   -2.158E-01   -2.133E-01   -2.109E-01   -2.084E-01
    -2.060E-01   -2.035E-01   -2.010E-01   -1.986E-01   -1.961E-01   -1.937E-01   -1.912E-01   -1.887E-01   -1.863E-01   -1.838E-01
    -1.814E-01   -1.789E-01   -1.765E-01   -1.740E-01   -1.715E-01   -1.691E-01   -1.666E-01   -1.642E-01   -1.617E-01   -1.592E-01
    -1.568E-01   -1.543E-01   -1.519E-01   -1.494E-01   -1.469E-01   -1.445E-01   -1.420E-01   -1.396E-01   -1.371E-01   -1.346E-01
    -1.322E-01   -1.297E-01   -1.273E-01   -1.248E-01   -1.223E-01   -1.199E-01   -1.174E-01   -1.150E-01   -1.125E-01   -1.100E-01
    -1.076E-01   -1.051E-01   -1.027E-01   -1.002E-01   -9.773E-02   -9.527E-02   -9.281E-02   -9.035E-02   -8.789E-02   -8.543E-02
    -8.297E-02   -8.051E-02   -7.805E-02   -7.559E-02   -7.313E-02   -7.067E-02   -6.821E-02   -6.575E-02   -6.329E-02   -6.083E-02
    -5.838E-02   -5.592E-02   -5.346E-02   -5.100E-02   -4.854E-02   -4.608E-02   -4.362E-02   -4.116E-02   -3.871E-02   -3.625E-02
    -3.379E-02   -3.133E-02   -2.887E-02   -2.642E-02   -2.396E-02   -2.150E-02   -1.904E-02   -1.659E-02   -1.413E-02   -1.167E-02
    -9.216E-03   -6.760E-03   -4.303E-03   -1.847E-03    6.090E-04    3.065E-03    5.521E-03    7.976E-03    1.043E-02    1.289E-02
     1.534E-02    1.780E-02    2.025E-02    2.271E-02    2.516E-02    2.761E-02    3.007E-02    3.252E-02    3.497E-02    3.743E-02
     3.988E-02    4.233E-02    4.479E-02    4.724E-02    4.969E-02    5.214E-02    5.459E-02    5.704E-02    5.949E-02    6.195E-02
     6.440E-02    6.685E-02    6.930E-02    7.175E-02    7.419E-02    7.664E-02    7.909E-02    8.154E-02    8.399E-02    8.644E-02
     8.888E-02    9.133E-02    9.378E-02    9.623E-02    9.867E-02    1.011E-01    1.036E-01    1.060E-01    1.085E-01    1.109E-01
     1.133E-01    1.158E-01    1.182E-01    1.207E-01    1.231E-01    1.256E-01    1.280E-01    1.304E-01    1.329E-01    1.353E-01
     1.378E-01    1.402E-01    1.427E-01    1.451E-01    1.475E-01    1.500E-01    1.524E-01    1.548E-01    1.573E-01    1.597E-01
     1.622E-01    1.646E-01    1.670E-01    1.695E-01    1.719E-01    1.743E-01    1.768E-01    1.792E-01    1.816E-01    1.841E-01
     1.865E-01    1.889E-01    1.914E-01    1.938E-01    1.962E-01    1.987E-01    2.011E-01    2.035E-01    2.060E-01    2.084E-01
     2.108E-01    2.132E-01    2.157E-01    2.181E-01    2.205E-01    2.229E-01    2.254E-01    2.278E-01    2.302E-01    2.326E-01
     2.351E-01    2.375E-01    2.399E-01    2.423E-01    2.448E-01    2.472E-01    2.496E-01    2.520E-01    2.544E-01    2.569E-01
     2.593E-01    2.617E-01    2.641E-01    2.665E-01    2.689E-01    2.714E-01    2.738E-01    2.762E-01    2.786E-01    2.810E-01
     2.834E-01    2.858E-01    2.883E-01    2.907E-01    2.931E-01    2.955E-01    2.979E-01    3.003E-01    3.027E-01    3.051E-01
     3.075E-01    3.099E-01    3.123E-01    3.147E-01    3.171E-01    3.196E-01    3.220E-01    3.244E-01    3.268E-01    3.292E-01
     3.316E-01    3.340E-01    3.364E-01    3.388E-01    3.412E-01    3.436E-01    3.460E-01    3.483E-01    3.507E-01    3.531E-01
     3.555E-01    3.579E-01    3.603E-01    3.627E-01    3.651E-01    3.675E-01    3.699E-01    3.723E-01    3.747E-01    3.770E-01
     3.794E-01    3.818E-01    3.842E-01    3.866E-01    3.890E-01    3.914E-01    3.937E-01    3.961E-01    3.985E-01    4.009E-01
     4.033E-01    4.056E-01    4.080E-01    4.104E-01    4.128E-01    4.152E-01    4.175E-01    4.199E-01    4.223E-01    4.246E-01
     4.270E-01    4.294E-01    4.318E-01    4.341E-01    4.365E-01    4.389E-01    4.412E-01    4.436E-01
 Ala      Conc. = 6.10E+02
