 LCModel (Version 6.3-1L) Copyright: S.W. Provencher.          Ref.: Magn. Reson. Med. 30:672-679 (1993).                
 Slice#1 Row#5 Col#6  PD_05_press_1_raw_act
 36 lines in following concentration table = NCONC+1
    Conc.  %SD /Cr+PCr  Metabolite                                         
   31.429 353% 4.6E-02 Ala                                                 
   37.426 398% 5.5E-02 Asp                                                 
    0.000 999%   0.000 Cr                                                  
  685.992   7%   1.000 PCr                                                 
   52.337 187% 7.6E-02 GABA                                                
   94.084 101%   0.137 Glc                                                 
  391.876  63%   0.571 Gln                                                 
  478.469  59%   0.697 Glu                                                 
    0.000 999%   0.000 GPC                                                 
  363.981   6%   0.531 PCh                                                 
   30.451 230% 4.4E-02 GSH                                                 
 1.24E+03  20%   1.802 Ins                                                 
    0.000 999%   0.000 Lac                                                 
 1.32E+03   5%   1.928 NAA                                                 
    0.000 999%   0.000 NAAG                                                
   87.040  25%   0.127 Scyllo                                              
  149.491  96%   0.218 Tau                                                 
  418.578  21%   0.610 -CrCH2                                              
  363.981   6%   0.531 GPC+PCh                                             
 1.32E+03   5%   1.928 NAA+NAAG                                            
  685.992   7%   1.000 Cr+PCr                                              
  870.344  49%   1.269 Glu+Gln                                             
  147.732 146%   0.215 Lip13a                                              
    0.000 999%   0.000 Lip13b                                              
   28.783 298% 4.2E-02 Lip09                                               
  530.966  23%   0.774 MM09                                                
   34.939 162% 5.1E-02 Lip20                                               
  998.612  24%   1.456 MM20                                                
  176.474  48%   0.257 MM12                                                
    0.000 999%   0.000 MM14                                                
  116.242 120%   0.169 MM17                                                
  147.732 146%   0.215 Lip13a+Lip13b                                       
  324.206  64%   0.473 MM14+Lip13a+Lip13b+MM12                             
  559.748  22%   0.816 MM09+Lip09                                          
 1.03E+03  23%   1.507 MM20+Lip20                                          
   6 lines in following misc. output table
  FWHM = 0.069 ppm    S/N =   7                                            
  Data shift =-0.046 ppm                                                   
  Ph: -27 deg      -4.1 deg/ppm                                            
  alphaB,S = 1.5E+00,   8.6E+01                                            
   14 spline knots.   Ns = 8(1)                                            
  (14) 4 infls.   ( 8) 1 extrs.                                            
  498 points on ppm-axis = NY
      4.000000     3.992357     3.984714     3.977070     3.969427     3.961784     3.954141     3.946497     3.938854     3.931211
      3.923568     3.915925     3.908281     3.900638     3.892995     3.885352     3.877708     3.870065     3.862422     3.854779
      3.847136     3.839492     3.831849     3.824206     3.816563     3.808919     3.801276     3.793633     3.785990     3.778347
      3.770703     3.763060     3.755417     3.747774     3.740130     3.732487     3.724844     3.717201     3.709558     3.701914
      3.694271     3.686628     3.678985     3.671341     3.663698     3.656055     3.648412     3.640769     3.633125     3.625482
      3.617839     3.610196     3.602552     3.594909     3.587266     3.579623     3.571980     3.564336     3.556693     3.549050
      3.541407     3.533763     3.526120     3.518477     3.510834     3.503191     3.495547     3.487904     3.480261     3.472618
      3.464974     3.457331     3.449688     3.442045     3.434402     3.426758     3.419115     3.411472     3.403829     3.396185
      3.388542     3.380899     3.373256     3.365613     3.357969     3.350326     3.342683     3.335040     3.327396     3.319753
      3.312110     3.304467     3.296824     3.289180     3.281537     3.273894     3.266251     3.258607     3.250964     3.243321
      3.235678     3.228034     3.220391     3.212748     3.205105     3.197462     3.189818     3.182175     3.174532     3.166889
      3.159245     3.151602     3.143959     3.136316     3.128673     3.121029     3.113386     3.105743     3.098100     3.090456
      3.082813     3.075170     3.067527     3.059884     3.052240     3.044597     3.036954     3.029311     3.021667     3.014024
      3.006381     2.998738     2.991095     2.983451     2.975808     2.968165     2.960522     2.952878     2.945235     2.937592
      2.929949     2.922306     2.914662     2.907019     2.899376     2.891733     2.884089     2.876446     2.868803     2.861160
      2.853517     2.845873     2.838230     2.830587     2.822944     2.815300     2.807657     2.800014     2.792371     2.784728
      2.777084     2.769441     2.761798     2.754155     2.746511     2.738868     2.731225     2.723582     2.715939     2.708295
      2.700652     2.693009     2.685366     2.677722     2.670079     2.662436     2.654793     2.647150     2.639506     2.631863
      2.624220     2.616577     2.608933     2.601290     2.593647     2.586004     2.578361     2.570717     2.563074     2.555431
      2.547788     2.540144     2.532501     2.524858     2.517215     2.509572     2.501928     2.494285     2.486642     2.478999
      2.471355     2.463712     2.456069     2.448426     2.440783     2.433139     2.425496     2.417853     2.410210     2.402566
      2.394923     2.387280     2.379637     2.371994     2.364350     2.356707     2.349064     2.341421     2.333777     2.326134
      2.318491     2.310848     2.303205     2.295561     2.287918     2.280275     2.272632     2.264988     2.257345     2.249702
      2.242059     2.234416     2.226772     2.219129     2.211486     2.203843     2.196199     2.188556     2.180913     2.173270
      2.165627     2.157983     2.150340     2.142697     2.135054     2.127410     2.119767     2.112124     2.104481     2.096838
      2.089194     2.081551     2.073908     2.066265     2.058621     2.050978     2.043335     2.035692     2.028049     2.020405
      2.012762     2.005119     1.997476     1.989833     1.982190     1.974546     1.966903     1.959260     1.951617     1.943974
      1.936331     1.928688     1.921045     1.913402     1.905759     1.898115     1.890472     1.882829     1.875186     1.867543
      1.859900     1.852257     1.844614     1.836971     1.829327     1.821684     1.814041     1.806398     1.798755     1.791112
      1.783469     1.775826     1.768183     1.760540     1.752896     1.745253     1.737610     1.729967     1.722324     1.714681
      1.707038     1.699395     1.691752     1.684108     1.676465     1.668822     1.661179     1.653536     1.645893     1.638250
      1.630607     1.622964     1.615321     1.607677     1.600034     1.592391     1.584748     1.577105     1.569462     1.561819
      1.554176     1.546533     1.538890     1.531246     1.523603     1.515960     1.508317     1.500674     1.493031     1.485388
      1.477745     1.470102     1.462458     1.454815     1.447172     1.439529     1.431886     1.424243     1.416600     1.408957
      1.401314     1.393671     1.386027     1.378384     1.370741     1.363098     1.355455     1.347812     1.340169     1.332526
      1.324883     1.317240     1.309596     1.301953     1.294310     1.286667     1.279024     1.271381     1.263738     1.256095
      1.248452     1.240808     1.233165     1.225522     1.217879     1.210236     1.202593     1.194950     1.187307     1.179664
      1.172021     1.164377     1.156734     1.149091     1.141448     1.133805     1.126162     1.118519     1.110876     1.103233
      1.095590     1.087946     1.080303     1.072660     1.065017     1.057374     1.049731     1.042088     1.034445     1.026802
      1.019158     1.011515     1.003872     0.996229     0.988586     0.980943     0.973300     0.965657     0.958014     0.950371
      0.942727     0.935084     0.927441     0.919798     0.912155     0.904512     0.896869     0.889226     0.881583     0.873940
      0.866296     0.858653     0.851010     0.843367     0.835724     0.828081     0.820438     0.812795     0.805152     0.797508
      0.789865     0.782222     0.774579     0.766936     0.759293     0.751650     0.744007     0.736364     0.728721     0.721077
      0.713434     0.705791     0.698148     0.690505     0.682862     0.675219     0.667576     0.659933     0.652290     0.644646
      0.637003     0.629360     0.621717     0.614074     0.606431     0.598788     0.591145     0.583502     0.575858     0.568215
      0.560572     0.552929     0.545286     0.537643     0.530000     0.522357     0.514714     0.507071     0.499427     0.491784
      0.484141     0.476498     0.468855     0.461212     0.453569     0.445925     0.438282     0.430639     0.422996     0.415353
      0.407710     0.400067     0.392424     0.384780     0.377137     0.369494     0.361851     0.354208     0.346565     0.338922
      0.331278     0.323635     0.315992     0.308349     0.300706     0.293063     0.285420     0.277777     0.270133     0.262490
      0.254847     0.247204     0.239561     0.231918     0.224275     0.216631     0.208988     0.201345
 NY phased data points follow
  -3.47779E+01 -3.33345E+01 -2.45307E+01 -2.93058E+01 -2.66734E+01 -2.46468E+01 -2.01185E+01 -1.33553E+01 -1.83980E+01 -1.58965E+01
  -1.77976E+01 -1.42923E+01 -2.01367E+01 -1.79845E+01 -1.97232E+01 -2.00609E+01 -2.41996E+01 -2.31364E+01 -2.90969E+01 -2.51965E+01
  -2.40251E+01 -1.78645E+01 -2.29240E+01 -2.10917E+01 -1.96076E+01 -1.87431E+01 -1.83781E+01 -1.80800E+01 -2.13920E+01 -2.26089E+01
  -1.87708E+01 -1.73134E+01 -1.48633E+01 -1.93658E+01 -1.97015E+01 -2.15755E+01 -1.74813E+01 -1.44962E+01 -1.49016E+01 -1.88458E+01
  -1.55539E+01 -1.73921E+01 -1.63451E+01 -9.58571E+00 -1.37380E+01 -1.05001E+01 -1.21729E+01 -1.20221E+01 -1.48219E+01 -9.65525E+00
  -1.64996E+01 -9.37812E+00 -1.34460E+01 -1.71808E+01 -1.75566E+01 -1.18341E+01 -1.43488E+01 -1.32961E+01 -1.00767E+01 -1.37582E+01
  -1.80550E+01 -1.45638E+01 -1.59673E+01 -1.67651E+01 -1.34740E+01 -1.71071E+01 -1.55056E+01 -1.82857E+01 -1.70776E+01 -1.31262E+01
  -1.40438E+01 -1.46812E+01 -1.60294E+01 -1.14451E+01 -1.61933E+01 -1.32547E+01 -1.20673E+01 -1.01639E+01 -8.64303E+00 -1.20867E+01
  -1.18670E+01 -1.40311E+01 -1.08900E+01 -1.20901E+01 -7.54571E+00 -1.22402E+01 -4.89605E+00 -1.38596E+01 -1.35106E+01 -1.25441E+01
  -1.59401E+01 -9.78519E+00 -1.30714E+01 -1.35696E+01 -8.67495E+00 -1.22830E+01 -8.67714E+00 -1.10544E+00  8.06139E-01  3.34948E+00
   3.50889E+00  1.13487E+01  1.08015E+01  1.51887E+01  1.77092E+01  1.05378E+01  9.48902E+00  4.51265E+00 -6.56853E+00 -7.35772E+00
  -6.76749E+00 -1.05531E+01 -1.07777E+01 -1.05046E+01 -1.55725E+01 -9.79404E+00 -9.29374E+00 -1.11631E+01 -8.36733E+00 -1.19405E+01
  -8.42787E+00 -1.17439E+01 -4.74751E+00 -2.76249E+00  3.23736E+00  7.57809E+00  9.36444E+00  2.60925E+00  9.39831E+00  2.64820E+00
   4.40866E-01 -2.10097E+00 -8.28743E-01 -5.77898E+00 -8.10193E+00 -1.12076E+01 -1.38766E+01 -1.36043E+01 -9.86500E+00 -1.11925E+01
  -9.50540E+00 -8.62374E+00 -1.34621E+01 -1.03282E+01 -1.13953E+01 -1.16391E+01 -1.15922E+01 -8.44143E+00 -1.00988E+01 -8.43260E+00
  -1.07297E+01 -1.42154E+01 -7.24532E+00 -8.35286E+00 -5.43736E+00 -1.28466E+01 -1.01047E+01 -1.17794E+01 -7.49928E+00 -1.06902E+01
  -8.59268E+00 -1.12666E+01 -1.21543E+01 -7.63532E+00 -9.04441E+00 -1.09895E+01 -1.17045E+01 -9.89901E+00 -1.04293E+01 -1.01132E+01
  -1.16280E+01 -1.06986E+01 -7.06677E+00 -8.35390E+00 -1.37018E+01 -1.24176E+01 -1.48230E+01 -1.43987E+01 -1.64868E+01 -1.44758E+01
  -1.24619E+01 -1.04807E+01 -1.42496E+01 -9.98147E+00 -9.26803E+00 -1.02100E+01 -1.02517E+01 -8.26757E+00 -9.16675E+00 -4.87551E+00
  -8.97159E+00 -4.30057E+00 -4.57058E+00 -7.49446E+00 -3.16897E+00 -5.21325E+00 -6.62993E+00 -7.97879E+00 -8.82421E+00 -4.55027E+00
  -2.36864E+00 -9.75170E+00 -7.64197E+00 -4.46361E+00 -5.79564E+00 -8.17063E+00 -6.72391E+00 -7.18943E+00 -6.96710E+00 -5.15512E+00
  -6.00962E+00 -2.10286E+00 -2.07050E+00 -4.02147E+00  8.04514E-01  4.87770E+00 -1.07199E+00 -2.23787E+00 -2.18226E+00 -7.23943E+00
  -1.28069E+00 -4.11700E+00  3.10827E-01 -3.49135E+00 -4.68157E+00 -4.64713E+00 -1.60036E+00 -2.21535E+00 -3.38946E+00 -4.12793E+00
  -1.62534E+00  2.40208E-01  9.88658E-02 -5.84879E+00 -1.09837E+00 -1.51032E+00 -5.36071E-01 -5.54243E+00 -1.36783E+00 -2.95012E+00
  -2.90548E+00 -2.43083E+00 -3.62826E+00 -1.85750E-01 -1.58839E+00 -2.55962E+00 -4.75871E+00 -3.98245E+00 -3.23342E+00 -3.45836E+00
  -1.67608E-01  4.82055E+00 -5.66433E-01  6.18380E+00  9.30502E+00  1.38308E+01  1.44839E+01  2.61619E+01  2.99533E+01  3.59081E+01
   3.38563E+01  3.30457E+01  3.16646E+01  2.21525E+01  2.18791E+01  2.32598E+01  1.41092E+01  8.16077E+00  3.75294E+00  8.84046E-01
  -7.73647E+00 -2.75741E+00  2.18645E+00  5.07446E-01  2.31892E+00  1.85114E+00 -3.27702E-01 -1.79275E-01 -1.38142E+00 -4.05872E+00
  -6.88151E+00  1.04404E+00 -7.18674E+00 -6.46480E+00 -2.00105E+00 -4.21013E+00 -5.77254E+00 -6.29558E-01 -5.23710E+00 -4.79536E+00
  -4.64501E+00 -1.47281E+00 -1.10714E+00 -2.58425E+00 -2.73092E+00 -2.85068E+00 -2.45778E+00 -2.79380E+00 -7.50797E-01 -2.00967E+00
  -1.34181E+00 -6.76630E+00 -1.79241E+00 -6.37603E+00 -3.27098E+00  1.74295E+00 -1.76199E+00 -4.72358E+00 -2.63908E+00 -3.22001E+00
   3.01541E+00 -1.13056E+00  4.86416E+00 -4.57142E+00 -2.10347E-01 -1.81726E+00 -5.32840E+00  3.45144E-01 -6.90235E+00 -9.82350E-01
  -2.10825E+00 -1.93739E+00  2.74623E+00 -1.94818E+00 -2.61535E+00 -2.67592E+00 -3.20513E+00 -4.74487E+00 -6.56414E+00 -6.50326E+00
  -4.92803E+00 -9.10050E-01 -5.67879E+00 -1.23431E+00 -4.99130E+00 -4.65653E+00 -2.28563E+00 -1.04788E+00 -8.17531E+00 -8.27085E+00
  -4.04745E+00 -4.81746E+00 -2.46196E+00 -1.98396E+00 -3.42818E-01 -1.23094E+00  3.68502E+00  2.44663E+00 -2.48937E-01 -2.37648E-01
   1.75054E+00 -4.49028E+00  1.38721E+00 -3.00108E+00 -1.10866E+00 -3.82345E+00 -2.95838E-01  2.73588E+00 -2.83556E+00  4.32022E-01
  -3.54983E+00 -3.21528E+00  3.23257E+00  1.73456E+00 -1.79540E+00 -4.33815E+00  3.71564E+00  1.54722E+00  1.61341E+00  4.02627E-01
   3.27045E+00  1.19849E+00  5.46229E-01  4.15643E+00  8.27659E-01 -2.73317E+00 -3.07329E+00  4.53010E-03  7.74181E-01 -9.29806E-01
   8.97929E-01 -4.20384E-01 -1.04393E+00 -6.06411E+00 -5.33101E-01 -1.94438E+00  8.29108E-01 -1.01665E+00 -3.32129E+00 -1.33705E+00
   7.39397E-02  1.48787E+00  3.73848E-01  1.01522E+00  3.27893E+00  7.79315E-01 -1.72701E+00 -1.26661E+00  3.89666E+00  1.44800E+00
   1.48700E+00  2.79932E+00  1.01005E+00 -1.81169E-01 -1.24342E+00  6.04928E+00  7.21415E-01  2.56923E+00  6.64685E+00  1.00378E-01
   4.24353E+00  3.93228E+00  3.40075E+00  9.62618E-01 -2.17096E+00  2.23154E+00  3.35315E+00  2.35127E+00  9.22499E+00  3.61387E+00
   5.77923E+00  4.54108E+00  3.88891E+00  5.23317E-01  4.00357E+00  2.93218E+00  6.44139E-01  5.13325E+00 -7.35846E-01  3.61722E-01
   1.17306E+00  1.20155E+00  1.19636E+00  5.38542E-01 -6.00070E-01 -4.96274E-01 -2.26439E+00 -1.11243E+00  2.14676E-01 -1.20178E+00
   2.27620E+00  8.15107E-01  2.69227E+00 -1.23678E+00 -3.83348E-02 -2.62126E+00 -3.20491E-01 -2.23188E-01 -1.96737E+00 -2.09223E+00
   9.98784E-01  1.84683E+00  4.60379E-01  1.18962E+00  7.10073E-01 -3.39387E+00 -2.51808E+00  4.72651E-01  3.93608E-01  1.86604E+00
  -1.39150E+00 -3.60515E-01  4.44138E-01  4.31951E+00  4.16392E+00 -4.04398E+00  8.14918E-01 -2.39188E+00  1.84791E-01  2.26850E+00
   5.74564E-01  1.83274E+00  2.02744E+00 -3.23708E-01 -2.37236E+00 -1.26511E+00 -3.33201E-02 -1.21100E+00  2.74294E+00  4.94250E-02
   4.32537E+00  1.36230E+00 -2.85039E+00  1.13410E+00 -1.66547E+00  2.03047E+00  3.26186E+00  3.12831E+00  4.29513E+00  6.06612E-01
   1.98576E+00 -4.32450E+00  2.50615E-01 -1.70402E+00 -1.45601E-01 -1.94820E+00  1.30222E+00  5.77349E-01
 NY points of the fit to the data follow
  -2.34391E+01 -2.41114E+01 -2.41348E+01 -2.38931E+01 -2.35089E+01 -2.26723E+01 -2.12194E+01 -1.95597E+01 -1.82591E+01 -1.74345E+01
  -1.70998E+01 -1.73538E+01 -1.78986E+01 -1.83673E+01 -1.88822E+01 -1.96529E+01 -2.06276E+01 -2.15144E+01 -2.18838E+01 -2.17415E+01
  -2.15032E+01 -2.12958E+01 -2.11214E+01 -2.09675E+01 -2.07841E+01 -2.05382E+01 -2.01986E+01 -1.97422E+01 -1.91949E+01 -1.86138E+01
  -1.80844E+01 -1.77196E+01 -1.75385E+01 -1.74983E+01 -1.75778E+01 -1.77905E+01 -1.80994E+01 -1.84298E+01 -1.86271E+01 -1.84745E+01
  -1.78988E+01 -1.70157E+01 -1.59472E+01 -1.47305E+01 -1.35119E+01 -1.26168E+01 -1.22998E+01 -1.25623E+01 -1.32614E+01 -1.41874E+01
  -1.50889E+01 -1.57988E+01 -1.63453E+01 -1.67500E+01 -1.69298E+01 -1.67336E+01 -1.61225E+01 -1.53517E+01 -1.47339E+01 -1.43908E+01
  -1.43311E+01 -1.44618E+01 -1.46636E+01 -1.48247E+01 -1.48743E+01 -1.48311E+01 -1.47316E+01 -1.45306E+01 -1.41747E+01 -1.37279E+01
  -1.32902E+01 -1.29289E+01 -1.26838E+01 -1.25874E+01 -1.26273E+01 -1.27389E+01 -1.28758E+01 -1.29856E+01 -1.29205E+01 -1.27068E+01
  -1.24517E+01 -1.21618E+01 -1.18313E+01 -1.15560E+01 -1.14740E+01 -1.16105E+01 -1.18819E+01 -1.22216E+01 -1.25404E+01 -1.27548E+01
  -1.28779E+01 -1.29704E+01 -1.30236E+01 -1.29401E+01 -1.25069E+01 -1.10902E+01 -8.35349E+00 -5.00225E+00 -1.27099E+00  3.09523E+00
   7.85764E+00  1.18981E+01  1.41569E+01  1.44791E+01  1.31256E+01  1.03534E+01  6.85970E+00  3.27952E+00 -4.68157E-01 -4.46529E+00
  -8.24333E+00 -1.11247E+01 -1.25872E+01 -1.28874E+01 -1.28496E+01 -1.27360E+01 -1.25789E+01 -1.23547E+01 -1.19643E+01 -1.09461E+01
  -9.02265E+00 -6.65565E+00 -3.99253E+00 -8.79587E-01  2.47001E+00  5.25973E+00  6.78806E+00  6.99854E+00  6.07106E+00  4.17272E+00
   1.81479E+00 -5.90253E-01 -3.13934E+00 -5.86153E+00 -8.40658E+00 -1.03108E+01 -1.12205E+01 -1.13632E+01 -1.13139E+01 -1.12236E+01
  -1.11204E+01 -1.10157E+01 -1.09129E+01 -1.08177E+01 -1.07378E+01 -1.06740E+01 -1.06254E+01 -1.05867E+01 -1.05476E+01 -1.05016E+01
  -1.04476E+01 -1.03875E+01 -1.03273E+01 -1.02953E+01 -1.03063E+01 -1.03379E+01 -1.03794E+01 -1.04202E+01 -1.04583E+01 -1.04843E+01
  -1.04596E+01 -1.03713E+01 -1.02491E+01 -1.01458E+01 -1.01057E+01 -1.01278E+01 -1.01851E+01 -1.02603E+01 -1.03564E+01 -1.05018E+01
  -1.06877E+01 -1.08800E+01 -1.10424E+01 -1.11572E+01 -1.11853E+01 -1.11025E+01 -1.09560E+01 -1.08009E+01 -1.06585E+01 -1.05404E+01
  -1.04282E+01 -1.02588E+01 -1.00264E+01 -9.76868E+00 -9.50818E+00 -9.22522E+00 -8.87646E+00 -8.44250E+00 -7.98210E+00 -7.54760E+00
  -7.20959E+00 -6.98435E+00 -6.80151E+00 -6.61493E+00 -6.43951E+00 -6.30597E+00 -6.17775E+00 -5.97601E+00 -5.67748E+00 -5.33124E+00
  -4.97878E+00 -4.70330E+00 -4.65536E+00 -4.84814E+00 -5.22536E+00 -5.78566E+00 -6.46522E+00 -7.08488E+00 -7.45288E+00 -7.54745E+00
  -7.42280E+00 -7.05324E+00 -6.45805E+00 -5.78020E+00 -5.19879E+00 -4.81788E+00 -4.66537E+00 -4.74450E+00 -5.03304E+00 -5.40618E+00
  -5.67814E+00 -5.78096E+00 -5.72928E+00 -5.52140E+00 -5.14928E+00 -4.66138E+00 -4.17681E+00 -3.77420E+00 -3.47195E+00 -3.25283E+00
  -3.11981E+00 -3.08435E+00 -3.09231E+00 -3.02706E+00 -2.85186E+00 -2.62542E+00 -2.36396E+00 -2.08720E+00 -1.87466E+00 -1.79606E+00
  -1.81566E+00 -1.85412E+00 -1.87686E+00 -1.88100E+00 -1.85607E+00 -1.78577E+00 -1.64843E+00 -1.42640E+00 -1.10651E+00 -6.94281E-01
  -2.11950E-01  3.96240E-01  1.74201E+00  4.71356E+00  8.70303E+00  1.32292E+01  1.85665E+01  2.46634E+01  3.02861E+01  3.39227E+01
   3.51048E+01  3.40901E+01  3.10770E+01  2.68305E+01  2.22988E+01  1.75125E+01  1.22683E+01  7.03720E+00  2.66791E+00 -3.56597E-02
  -1.05918E+00 -1.43593E+00 -1.63306E+00 -1.75215E+00 -1.83805E+00 -1.91707E+00 -1.99606E+00 -2.07873E+00 -2.16738E+00 -2.26191E+00
  -2.35836E+00 -2.45142E+00 -2.53095E+00 -2.58995E+00 -2.62932E+00 -2.65061E+00 -2.65630E+00 -2.65159E+00 -2.64055E+00 -2.62536E+00
  -2.60811E+00 -2.58948E+00 -2.56935E+00 -2.54672E+00 -2.52029E+00 -2.48941E+00 -2.45459E+00 -2.41705E+00 -2.37767E+00 -2.33724E+00
  -2.29702E+00 -2.25820E+00 -2.22188E+00 -2.18943E+00 -2.16166E+00 -2.13898E+00 -2.12148E+00 -2.10909E+00 -2.10169E+00 -2.09905E+00
  -2.10065E+00 -2.10569E+00 -2.11314E+00 -2.12198E+00 -2.13120E+00 -2.13966E+00 -2.14588E+00 -2.14768E+00 -2.14100E+00 -2.11949E+00
  -2.09076E+00 -2.06708E+00 -2.04871E+00 -2.03672E+00 -2.04318E+00 -2.08273E+00 -2.15631E+00 -2.24214E+00 -2.31702E+00 -2.37320E+00
  -2.40070E+00 -2.39057E+00 -2.34096E+00 -2.25727E+00 -2.14987E+00 -2.02698E+00 -1.89992E+00 -1.79011E+00 -1.70295E+00 -1.62874E+00
  -1.56678E+00 -1.52081E+00 -1.48898E+00 -1.46263E+00 -1.42729E+00 -1.37657E+00 -1.31631E+00 -1.25030E+00 -1.18053E+00 -1.10839E+00
  -1.03495E+00 -9.61185E-01 -8.88067E-01 -8.16594E-01 -7.47721E-01 -6.82335E-01 -6.21193E-01 -5.65013E-01 -5.14450E-01 -4.70109E-01
  -4.32418E-01 -4.01640E-01 -3.77838E-01 -3.60983E-01 -3.50914E-01 -3.47361E-01 -3.49839E-01 -3.57716E-01 -3.70220E-01 -3.86555E-01
  -4.05861E-01 -4.27234E-01 -4.49663E-01 -4.72120E-01 -4.93577E-01 -5.13096E-01 -5.29755E-01 -5.42655E-01 -5.50860E-01 -5.53479E-01
  -5.49655E-01 -5.38605E-01 -5.19511E-01 -4.91525E-01 -4.53720E-01 -4.05186E-01 -3.45009E-01 -2.72312E-01 -1.86178E-01 -8.57241E-02
   2.98725E-02  1.61212E-01  3.08646E-01  4.72185E-01  6.51497E-01  8.45772E-01  1.05365E+00  1.27310E+00  1.50143E+00  1.73531E+00
   1.97088E+00  2.20376E+00  2.42920E+00  2.64215E+00  2.83759E+00  3.01073E+00  3.15724E+00  3.27344E+00  3.35648E+00  3.40445E+00
   3.41656E+00  3.39316E+00  3.33575E+00  3.24678E+00  3.12955E+00  2.98805E+00  2.82675E+00  2.65041E+00  2.46384E+00  2.27165E+00
   2.07808E+00  1.88691E+00  1.70140E+00  1.52423E+00  1.35744E+00  1.20240E+00  1.05998E+00  9.30527E-01  8.14050E-01  7.10213E-01
   6.18433E-01  5.37899E-01  4.67723E-01  4.06974E-01  3.54763E-01  3.10189E-01  2.72396E-01  2.40544E-01  2.13913E-01  1.91863E-01
   1.73863E-01  1.59400E-01  1.48024E-01  1.39313E-01  1.32954E-01  1.28674E-01  1.26263E-01  1.25485E-01  1.26143E-01  1.28048E-01
   1.31094E-01  1.35175E-01  1.40211E-01  1.46075E-01  1.52675E-01  1.59925E-01  1.67802E-01  1.76258E-01  1.85254E-01  1.94704E-01
   2.04565E-01  2.14801E-01  2.25420E-01  2.36392E-01  2.47687E-01  2.59240E-01  2.71040E-01  2.83073E-01  2.95359E-01  3.07867E-01
   3.20570E-01  3.33421E-01  3.46429E-01  3.59593E-01  3.72932E-01  3.86407E-01  3.99997E-01  4.13668E-01  4.27445E-01  4.41330E-01
   4.55332E-01  4.69404E-01  4.83536E-01  4.97707E-01  5.11953E-01  5.26267E-01  5.40648E-01  5.55048E-01  5.69466E-01  5.83895E-01
   5.98368E-01  6.12867E-01  6.27382E-01  6.41867E-01  6.56331E-01  6.70772E-01  6.85215E-01  6.99628E-01
 NY background values follow
    -2.572E+01   -2.561E+01   -2.549E+01   -2.538E+01   -2.526E+01   -2.515E+01   -2.504E+01   -2.492E+01   -2.481E+01   -2.469E+01
    -2.458E+01   -2.446E+01   -2.435E+01   -2.424E+01   -2.412E+01   -2.401E+01   -2.389E+01   -2.378E+01   -2.367E+01   -2.355E+01
    -2.344E+01   -2.333E+01   -2.321E+01   -2.310E+01   -2.298E+01   -2.287E+01   -2.276E+01   -2.264E+01   -2.253E+01   -2.242E+01
    -2.231E+01   -2.219E+01   -2.208E+01   -2.197E+01   -2.185E+01   -2.174E+01   -2.163E+01   -2.152E+01   -2.141E+01   -2.129E+01
    -2.118E+01   -2.107E+01   -2.096E+01   -2.085E+01   -2.074E+01   -2.063E+01   -2.052E+01   -2.041E+01   -2.030E+01   -2.019E+01
    -2.008E+01   -1.997E+01   -1.986E+01   -1.975E+01   -1.964E+01   -1.953E+01   -1.942E+01   -1.931E+01   -1.921E+01   -1.910E+01
    -1.899E+01   -1.888E+01   -1.878E+01   -1.867E+01   -1.856E+01   -1.846E+01   -1.835E+01   -1.824E+01   -1.814E+01   -1.803E+01
    -1.793E+01   -1.782E+01   -1.772E+01   -1.761E+01   -1.751E+01   -1.741E+01   -1.730E+01   -1.720E+01   -1.710E+01   -1.699E+01
    -1.689E+01   -1.679E+01   -1.669E+01   -1.659E+01   -1.649E+01   -1.639E+01   -1.629E+01   -1.619E+01   -1.609E+01   -1.599E+01
    -1.589E+01   -1.579E+01   -1.569E+01   -1.559E+01   -1.549E+01   -1.540E+01   -1.530E+01   -1.520E+01   -1.511E+01   -1.501E+01
    -1.491E+01   -1.482E+01   -1.472E+01   -1.463E+01   -1.453E+01   -1.444E+01   -1.435E+01   -1.425E+01   -1.416E+01   -1.407E+01
    -1.397E+01   -1.388E+01   -1.379E+01   -1.370E+01   -1.361E+01   -1.352E+01   -1.343E+01   -1.334E+01   -1.325E+01   -1.316E+01
    -1.307E+01   -1.298E+01   -1.289E+01   -1.281E+01   -1.272E+01   -1.263E+01   -1.254E+01   -1.246E+01   -1.237E+01   -1.229E+01
    -1.220E+01   -1.212E+01   -1.203E+01   -1.195E+01   -1.186E+01   -1.178E+01   -1.170E+01   -1.162E+01   -1.153E+01   -1.145E+01
    -1.137E+01   -1.129E+01   -1.121E+01   -1.113E+01   -1.105E+01   -1.097E+01   -1.089E+01   -1.081E+01   -1.073E+01   -1.065E+01
    -1.058E+01   -1.050E+01   -1.042E+01   -1.035E+01   -1.027E+01   -1.019E+01   -1.012E+01   -1.004E+01   -9.969E+00   -9.895E+00
    -9.821E+00   -9.748E+00   -9.675E+00   -9.602E+00   -9.530E+00   -9.458E+00   -9.387E+00   -9.316E+00   -9.245E+00   -9.175E+00
    -9.105E+00   -9.036E+00   -8.967E+00   -8.898E+00   -8.830E+00   -8.762E+00   -8.695E+00   -8.628E+00   -8.561E+00   -8.495E+00
    -8.429E+00   -8.364E+00   -8.299E+00   -8.234E+00   -8.170E+00   -8.106E+00   -8.043E+00   -7.980E+00   -7.917E+00   -7.855E+00
    -7.793E+00   -7.732E+00   -7.671E+00   -7.610E+00   -7.550E+00   -7.491E+00   -7.431E+00   -7.373E+00   -7.314E+00   -7.256E+00
    -7.199E+00   -7.142E+00   -7.085E+00   -7.029E+00   -6.973E+00   -6.918E+00   -6.863E+00   -6.808E+00   -6.755E+00   -6.701E+00
    -6.648E+00   -6.595E+00   -6.543E+00   -6.491E+00   -6.440E+00   -6.389E+00   -6.339E+00   -6.289E+00   -6.240E+00   -6.191E+00
    -6.142E+00   -6.094E+00   -6.047E+00   -6.000E+00   -5.953E+00   -5.907E+00   -5.861E+00   -5.816E+00   -5.772E+00   -5.727E+00
    -5.684E+00   -5.640E+00   -5.597E+00   -5.555E+00   -5.513E+00   -5.472E+00   -5.431E+00   -5.390E+00   -5.350E+00   -5.310E+00
    -5.271E+00   -5.232E+00   -5.193E+00   -5.155E+00   -5.117E+00   -5.080E+00   -5.043E+00   -5.006E+00   -4.970E+00   -4.934E+00
    -4.898E+00   -4.863E+00   -4.828E+00   -4.794E+00   -4.760E+00   -4.726E+00   -4.692E+00   -4.659E+00   -4.626E+00   -4.594E+00
    -4.562E+00   -4.530E+00   -4.498E+00   -4.467E+00   -4.436E+00   -4.405E+00   -4.375E+00   -4.345E+00   -4.315E+00   -4.285E+00
    -4.256E+00   -4.227E+00   -4.198E+00   -4.169E+00   -4.141E+00   -4.113E+00   -4.085E+00   -4.057E+00   -4.030E+00   -4.002E+00
    -3.975E+00   -3.949E+00   -3.922E+00   -3.896E+00   -3.870E+00   -3.844E+00   -3.818E+00   -3.792E+00   -3.767E+00   -3.742E+00
    -3.717E+00   -3.692E+00   -3.667E+00   -3.642E+00   -3.618E+00   -3.594E+00   -3.570E+00   -3.546E+00   -3.522E+00   -3.498E+00
    -3.475E+00   -3.451E+00   -3.428E+00   -3.405E+00   -3.382E+00   -3.359E+00   -3.336E+00   -3.313E+00   -3.291E+00   -3.268E+00
    -3.246E+00   -3.223E+00   -3.201E+00   -3.179E+00   -3.157E+00   -3.135E+00   -3.113E+00   -3.091E+00   -3.069E+00   -3.048E+00
    -3.026E+00   -3.004E+00   -2.983E+00   -2.961E+00   -2.940E+00   -2.918E+00   -2.897E+00   -2.875E+00   -2.854E+00   -2.833E+00
    -2.812E+00   -2.791E+00   -2.770E+00   -2.749E+00   -2.728E+00   -2.707E+00   -2.686E+00   -2.665E+00   -2.644E+00   -2.623E+00
    -2.603E+00   -2.582E+00   -2.561E+00   -2.541E+00   -2.520E+00   -2.500E+00   -2.479E+00   -2.459E+00   -2.438E+00   -2.418E+00
    -2.398E+00   -2.377E+00   -2.357E+00   -2.337E+00   -2.316E+00   -2.296E+00   -2.276E+00   -2.256E+00   -2.236E+00   -2.215E+00
    -2.195E+00   -2.175E+00   -2.155E+00   -2.135E+00   -2.115E+00   -2.095E+00   -2.075E+00   -2.055E+00   -2.035E+00   -2.015E+00
    -1.995E+00   -1.975E+00   -1.955E+00   -1.935E+00   -1.915E+00   -1.896E+00   -1.876E+00   -1.856E+00   -1.836E+00   -1.816E+00
    -1.797E+00   -1.777E+00   -1.757E+00   -1.738E+00   -1.718E+00   -1.698E+00   -1.679E+00   -1.659E+00   -1.639E+00   -1.620E+00
    -1.600E+00   -1.581E+00   -1.561E+00   -1.542E+00   -1.522E+00   -1.503E+00   -1.484E+00   -1.464E+00   -1.445E+00   -1.425E+00
    -1.406E+00   -1.387E+00   -1.367E+00   -1.348E+00   -1.329E+00   -1.310E+00   -1.291E+00   -1.271E+00   -1.252E+00   -1.233E+00
    -1.214E+00   -1.195E+00   -1.176E+00   -1.157E+00   -1.138E+00   -1.119E+00   -1.100E+00   -1.081E+00   -1.062E+00   -1.043E+00
    -1.024E+00   -1.005E+00   -9.863E-01   -9.675E-01   -9.487E-01   -9.299E-01   -9.111E-01   -8.924E-01   -8.736E-01   -8.549E-01
    -8.362E-01   -8.175E-01   -7.989E-01   -7.802E-01   -7.616E-01   -7.430E-01   -7.244E-01   -7.058E-01   -6.873E-01   -6.687E-01
    -6.502E-01   -6.317E-01   -6.132E-01   -5.948E-01   -5.763E-01   -5.579E-01   -5.395E-01   -5.211E-01   -5.027E-01   -4.844E-01
    -4.660E-01   -4.477E-01   -4.294E-01   -4.111E-01   -3.928E-01   -3.745E-01   -3.563E-01   -3.380E-01   -3.198E-01   -3.016E-01
    -2.834E-01   -2.652E-01   -2.470E-01   -2.289E-01   -2.108E-01   -1.926E-01   -1.745E-01   -1.564E-01   -1.383E-01   -1.202E-01
    -1.022E-01   -8.412E-02   -6.607E-02   -4.804E-02   -3.002E-02   -1.201E-02    5.990E-03    2.398E-02    4.196E-02    5.993E-02
     7.789E-02    9.584E-02    1.138E-01    1.317E-01    1.496E-01    1.676E-01    1.855E-01    2.034E-01    2.213E-01    2.392E-01
     2.570E-01    2.749E-01    2.928E-01    3.106E-01    3.285E-01    3.463E-01    3.642E-01    3.820E-01
 Ala      Conc. = 3.14E+01
