 LCModel (Version 6.3-1L) Copyright: S.W. Provencher.          Ref.: Magn. Reson. Med. 30:672-679 (1993).                
 Slice#2 Row#3 Col#1  PD_05_press_1_raw_act
 36 lines in following concentration table = NCONC+1
    Conc.  %SD /Cr+PCr  Metabolite                                         
    0.000 999%   0.000 Ala                                                 
    9.509 172%   0.113 Asp                                                 
    0.000 999%   0.000 Cr                                                  
   84.217  22%   1.000 PCr                                                 
    7.419 133% 8.8E-02 GABA                                                
    3.831 258% 4.5E-02 Glc                                                 
 1.01E+03  17%  11.937 Gln                                                 
 1.12E+03  17%  13.321 Glu                                                 
   15.227  48%   0.181 GPC                                                 
    0.000 999%   0.000 PCh                                                 
    0.000 999%   0.000 GSH                                                 
  207.892  51%   2.469 Ins                                                 
    0.000 999%   0.000 Lac                                                 
   85.107  24%   1.011 NAA                                                 
    0.000 999%   0.000 NAAG                                                
    1.370 234% 1.6E-02 Scyllo                                              
    0.000 999%   0.000 Tau                                                 
    0.000 999%   0.000 -CrCH2                                              
   15.227  48%   0.181 GPC+PCh                                             
   85.107  24%   1.011 NAA+NAAG                                            
   84.217  22%   1.000 Cr+PCr                                              
 2.13E+03  15%  25.258 Glu+Gln                                             
  524.786  24%   6.231 Lip13a                                              
   63.395  89%   0.753 Lip13b                                              
   75.559  55%   0.897 Lip09                                               
    0.000 999%   0.000 MM09                                                
   97.983  36%   1.163 Lip20                                               
 8.83E-03 999% 1.0E-04 MM20                                                
 1.40E-03 999% 1.7E-05 MM12                                                
 4.42E-02 999% 5.2E-04 MM14                                                
 2.59E-03 999% 3.1E-05 MM17                                                
  588.182  18%   6.984 Lip13a+Lip13b                                       
  588.227  18%   6.985 MM14+Lip13a+Lip13b+MM12                             
   75.559  55%   0.897 MM09+Lip09                                          
   97.992  36%   1.164 MM20+Lip20                                          
   6 lines in following misc. output table
  FWHM = 0.092 ppm    S/N =   2                                            
  Data shift =-0.015 ppm                                                   
  Ph: 141 deg      -3.4 deg/ppm                                            
  alphaB,S = 7.3E-01,   2.0E+02                                            
   14 spline knots.   Ns =10(1)                                            
  (17) 3 infls.   (19) 1 extrs.                                            
  498 points on ppm-axis = NY
      4.000000     3.992357     3.984714     3.977070     3.969427     3.961784     3.954141     3.946497     3.938854     3.931211
      3.923568     3.915925     3.908281     3.900638     3.892995     3.885352     3.877708     3.870065     3.862422     3.854779
      3.847136     3.839492     3.831849     3.824206     3.816563     3.808919     3.801276     3.793633     3.785990     3.778347
      3.770703     3.763060     3.755417     3.747774     3.740130     3.732487     3.724844     3.717201     3.709558     3.701914
      3.694271     3.686628     3.678985     3.671341     3.663698     3.656055     3.648412     3.640769     3.633125     3.625482
      3.617839     3.610196     3.602552     3.594909     3.587266     3.579623     3.571980     3.564336     3.556693     3.549050
      3.541407     3.533763     3.526120     3.518477     3.510834     3.503191     3.495547     3.487904     3.480261     3.472618
      3.464974     3.457331     3.449688     3.442045     3.434402     3.426758     3.419115     3.411472     3.403829     3.396185
      3.388542     3.380899     3.373256     3.365613     3.357969     3.350326     3.342683     3.335040     3.327396     3.319753
      3.312110     3.304467     3.296824     3.289180     3.281537     3.273894     3.266251     3.258607     3.250964     3.243321
      3.235678     3.228034     3.220391     3.212748     3.205105     3.197462     3.189818     3.182175     3.174532     3.166889
      3.159245     3.151602     3.143959     3.136316     3.128673     3.121029     3.113386     3.105743     3.098100     3.090456
      3.082813     3.075170     3.067527     3.059884     3.052240     3.044597     3.036954     3.029311     3.021667     3.014024
      3.006381     2.998738     2.991095     2.983451     2.975808     2.968165     2.960522     2.952878     2.945235     2.937592
      2.929949     2.922306     2.914662     2.907019     2.899376     2.891733     2.884089     2.876446     2.868803     2.861160
      2.853517     2.845873     2.838230     2.830587     2.822944     2.815300     2.807657     2.800014     2.792371     2.784728
      2.777084     2.769441     2.761798     2.754155     2.746511     2.738868     2.731225     2.723582     2.715939     2.708295
      2.700652     2.693009     2.685366     2.677722     2.670079     2.662436     2.654793     2.647150     2.639506     2.631863
      2.624220     2.616577     2.608933     2.601290     2.593647     2.586004     2.578361     2.570717     2.563074     2.555431
      2.547788     2.540144     2.532501     2.524858     2.517215     2.509572     2.501928     2.494285     2.486642     2.478999
      2.471355     2.463712     2.456069     2.448426     2.440783     2.433139     2.425496     2.417853     2.410210     2.402566
      2.394923     2.387280     2.379637     2.371994     2.364350     2.356707     2.349064     2.341421     2.333777     2.326134
      2.318491     2.310848     2.303205     2.295561     2.287918     2.280275     2.272632     2.264988     2.257345     2.249702
      2.242059     2.234416     2.226772     2.219129     2.211486     2.203843     2.196199     2.188556     2.180913     2.173270
      2.165627     2.157983     2.150340     2.142697     2.135054     2.127410     2.119767     2.112124     2.104481     2.096838
      2.089194     2.081551     2.073908     2.066265     2.058621     2.050978     2.043335     2.035692     2.028049     2.020405
      2.012762     2.005119     1.997476     1.989833     1.982190     1.974546     1.966903     1.959260     1.951617     1.943974
      1.936331     1.928688     1.921045     1.913402     1.905759     1.898115     1.890472     1.882829     1.875186     1.867543
      1.859900     1.852257     1.844614     1.836971     1.829327     1.821684     1.814041     1.806398     1.798755     1.791112
      1.783469     1.775826     1.768183     1.760540     1.752896     1.745253     1.737610     1.729967     1.722324     1.714681
      1.707038     1.699395     1.691752     1.684108     1.676465     1.668822     1.661179     1.653536     1.645893     1.638250
      1.630607     1.622964     1.615321     1.607677     1.600034     1.592391     1.584748     1.577105     1.569462     1.561819
      1.554176     1.546533     1.538890     1.531246     1.523603     1.515960     1.508317     1.500674     1.493031     1.485388
      1.477745     1.470102     1.462458     1.454815     1.447172     1.439529     1.431886     1.424243     1.416600     1.408957
      1.401314     1.393671     1.386027     1.378384     1.370741     1.363098     1.355455     1.347812     1.340169     1.332526
      1.324883     1.317240     1.309596     1.301953     1.294310     1.286667     1.279024     1.271381     1.263738     1.256095
      1.248452     1.240808     1.233165     1.225522     1.217879     1.210236     1.202593     1.194950     1.187307     1.179664
      1.172021     1.164377     1.156734     1.149091     1.141448     1.133805     1.126162     1.118519     1.110876     1.103233
      1.095590     1.087946     1.080303     1.072660     1.065017     1.057374     1.049731     1.042088     1.034445     1.026802
      1.019158     1.011515     1.003872     0.996229     0.988586     0.980943     0.973300     0.965657     0.958014     0.950371
      0.942727     0.935084     0.927441     0.919798     0.912155     0.904512     0.896869     0.889226     0.881583     0.873940
      0.866296     0.858653     0.851010     0.843367     0.835724     0.828081     0.820438     0.812795     0.805152     0.797508
      0.789865     0.782222     0.774579     0.766936     0.759293     0.751650     0.744007     0.736364     0.728721     0.721077
      0.713434     0.705791     0.698148     0.690505     0.682862     0.675219     0.667576     0.659933     0.652290     0.644646
      0.637003     0.629360     0.621717     0.614074     0.606431     0.598788     0.591145     0.583502     0.575858     0.568215
      0.560572     0.552929     0.545286     0.537643     0.530000     0.522357     0.514714     0.507071     0.499427     0.491784
      0.484141     0.476498     0.468855     0.461212     0.453569     0.445925     0.438282     0.430639     0.422996     0.415353
      0.407710     0.400067     0.392424     0.384780     0.377137     0.369494     0.361851     0.354208     0.346565     0.338922
      0.331278     0.323635     0.315992     0.308349     0.300706     0.293063     0.285420     0.277777     0.270133     0.262490
      0.254847     0.247204     0.239561     0.231918     0.224275     0.216631     0.208988     0.201345
 NY phased data points follow
   1.27078E+01  1.13034E+01  1.23712E+01  1.14077E+01  1.21149E+01  9.91926E+00  1.24975E+01  1.41422E+01  1.24653E+01  1.11055E+01
   1.19747E+01  1.17964E+01  1.02351E+01  1.20597E+01  1.07163E+01  1.06290E+01  1.07355E+01  1.18424E+01  1.13736E+01  9.11843E+00
   1.10873E+01  9.26289E+00  1.06141E+01  1.06021E+01  9.44541E+00  8.86900E+00  9.16400E+00  8.75082E+00  7.75754E+00  9.97771E+00
   8.81844E+00  9.77185E+00  9.97296E+00  9.53691E+00  8.85630E+00  8.96877E+00  1.01071E+01  8.76836E+00  9.77530E+00  1.01891E+01
   8.57955E+00  1.00577E+01  8.75557E+00  8.80740E+00  7.50868E+00  8.38927E+00  9.99275E+00  8.12399E+00  8.36469E+00  8.12260E+00
   9.41242E+00  8.17617E+00  7.43299E+00  8.96106E+00  9.15809E+00  8.58261E+00  7.50023E+00  6.42936E+00  7.24357E+00  7.22816E+00
   7.42345E+00  6.09909E+00  6.55743E+00  7.65995E+00  5.68264E+00  5.31293E+00  7.08981E+00  4.84094E+00  5.66194E+00  7.77809E+00
   8.23708E+00  6.70815E+00  5.44435E+00  4.20040E+00  7.73248E+00  5.91727E+00  4.96396E+00  6.85494E+00  4.78577E+00  6.70133E+00
   3.64502E+00  6.38764E+00  5.53507E+00  6.74703E+00  5.73656E+00  5.78324E+00  4.81345E+00  4.23508E+00  5.71603E+00  6.41471E+00
   6.18338E+00  6.73378E+00  4.66872E+00  4.74950E+00  4.55873E+00  5.67294E+00  5.50205E+00  5.18000E+00  4.27429E+00  6.38289E+00
   7.14408E+00  5.05112E+00  5.75707E+00  5.52218E+00  5.79592E+00  4.44002E+00  5.88026E+00  5.83749E+00  5.47179E+00  6.37873E+00
   6.43887E+00  4.23935E+00  3.81863E+00  4.75933E+00  5.29120E+00  4.47881E+00  3.54257E+00  6.24062E+00  3.54612E+00  5.61993E+00
   2.48421E+00  3.94756E+00  3.62999E+00  1.87171E+00  2.37893E+00  6.19451E+00  6.13449E+00  6.37729E+00  4.68094E+00  5.29062E+00
   5.31052E+00  5.66741E+00  4.79559E+00  7.40511E+00  4.38913E+00  5.69101E+00  5.34828E+00  4.64978E+00  3.08036E+00  5.09957E+00
   3.82028E+00  4.81917E+00  5.02637E+00  4.54192E+00  4.82849E+00  2.81099E+00  4.29440E+00  4.46162E+00  3.92821E+00  2.88894E+00
   5.31903E+00  4.63501E+00  3.25681E+00  4.63133E+00  4.22486E+00  4.25190E+00  3.57078E+00  6.25669E+00  4.27144E+00  3.34168E+00
   2.36147E+00  4.03331E+00  3.39586E+00  3.52160E+00  4.33217E+00  4.36136E+00  3.60120E+00  3.31454E+00  2.79642E+00  3.14344E+00
   2.69621E+00  3.66184E+00  3.48915E+00  2.59541E+00  4.74190E+00  2.49505E+00  4.45883E+00  2.22605E+00  4.52535E+00  3.92744E+00
   4.00331E+00  2.89524E+00  4.25065E+00  2.77439E+00  4.24077E+00  3.40573E+00  3.07479E+00  3.13117E+00  3.21627E+00  2.31180E+00
   2.20345E+00  2.34393E+00  2.50319E+00  3.50279E+00  2.89925E+00  3.05285E+00  3.36842E+00  3.17423E+00  2.38342E+00  4.46113E+00
   2.90585E+00  1.42965E+00  2.21059E+00  4.01482E+00  4.20434E+00  2.57830E+00  1.76573E+00  5.21484E+00  3.35349E+00  2.75281E+00
   3.25970E+00  2.65545E+00  3.20394E+00  1.86853E+00  3.92548E+00  3.17406E+00  4.43627E+00  2.45232E+00  4.08213E+00  2.64084E+00
   3.88106E+00  4.17967E+00  2.08931E+00  2.94943E+00  4.73084E+00  1.82355E+00  4.34801E+00  3.60909E+00  3.62625E+00  3.66932E+00
   2.16973E+00  5.40063E+00  4.63050E+00  3.21529E+00  3.66761E+00  4.02612E+00  2.47161E+00  4.70950E+00  3.52476E+00  4.02489E+00
   4.47630E+00  4.82449E+00  5.05414E+00  2.96764E+00  2.79110E+00  3.70940E+00  1.86606E+00  2.82302E+00  3.19009E+00  3.13670E+00
   2.51229E+00  2.95389E+00  2.44507E+00  3.19268E+00  4.22201E+00  3.35399E+00  2.37190E+00  3.64161E+00  5.71997E+00  4.89723E+00
   4.20917E+00  5.58497E+00  5.43034E+00  5.01367E+00  6.68842E+00  6.54192E+00  7.34556E+00  5.01796E+00  5.00782E+00  4.69490E+00
   4.90790E+00  2.59886E+00  4.40189E+00  5.57696E+00  5.79137E+00  4.60840E+00  3.73575E+00  3.95408E+00  2.23941E+00  3.48752E+00
   4.68001E+00  2.97145E+00  3.39236E+00  3.43350E+00  1.98782E+00  3.28473E+00  3.95514E+00  4.24600E+00  2.39480E+00  3.48088E+00
   4.07183E+00  3.34074E+00  4.27474E+00  3.62641E+00  2.97684E+00  3.70277E+00  4.40857E+00  3.66417E+00  2.11443E+00  4.07901E+00
   2.34432E+00  4.43778E+00  2.74353E+00  2.02186E+00  3.67254E+00  3.25607E+00  2.67860E+00  3.46880E+00  1.29057E+00  3.12247E+00
   2.65990E+00  1.03167E+00  3.32090E+00  2.93246E+00  2.51146E+00  3.39729E+00  4.15565E+00  2.15066E+00  3.00608E+00  3.10403E+00
   3.00063E+00  2.11829E+00  2.63272E+00  1.63770E+00  1.72961E+00  3.20611E+00  6.89450E-01  3.50580E+00  1.62494E+00  3.32728E+00
   3.13859E+00  3.76992E+00  3.59474E+00  4.06706E+00  3.39618E+00  4.85275E+00  3.21717E+00  5.36442E+00  4.54531E+00  2.36451E+00
   4.72400E+00  4.32038E+00  4.34708E+00  3.16806E+00  4.54842E+00  5.03681E+00  4.22742E+00  4.73961E+00  4.94889E+00  5.88440E+00
   5.96538E+00  4.61831E+00  5.68668E+00  7.45618E+00  5.65848E+00  6.21766E+00  5.38852E+00  4.13034E+00  5.62940E+00  6.24015E+00
   4.98396E+00  3.76855E+00  2.64857E+00  3.99898E+00  3.31620E+00  4.16016E+00  3.82147E+00  4.64735E+00  3.76188E+00  1.63924E+00
   5.63517E+00  3.19943E+00  3.65512E+00  3.75408E+00  4.25734E+00  4.46135E+00  4.55550E+00  2.42156E+00  2.83852E+00  3.53403E+00
   3.75131E+00  1.64062E+00  3.15945E+00  2.93749E+00  2.28126E+00  2.90260E+00  1.07522E+00  1.25161E+00  1.87568E+00  3.48162E+00
   2.65042E+00  2.61270E+00  1.92051E+00  1.62996E+00  2.03871E+00  1.34669E+00  9.54394E-02  3.48338E+00  6.95083E-01  2.45697E+00
   3.26771E+00  1.54209E+00  3.58209E+00  3.30936E-01  3.21555E+00  2.35628E+00  1.34905E+00  2.43743E+00  2.25531E+00  1.74323E+00
   1.66126E+00  3.45237E+00  3.03866E+00  2.31007E+00  2.76085E+00  2.54130E+00  3.24029E+00  1.79943E+00  1.05035E+00  1.45988E+00
   1.66567E+00 -5.03504E-01  1.17855E+00  1.98122E+00  2.32682E+00  1.79561E+00  1.84733E+00  2.47253E+00  1.33432E+00  1.84404E+00
   2.33164E+00  2.94921E+00  3.31450E+00  1.87656E+00  2.02771E+00  3.52891E+00  7.96273E-01  1.06315E+00  7.65707E-01  2.78714E+00
   2.34209E+00  1.62644E+00  3.72763E+00  2.19429E+00  2.32394E+00  3.71905E-01  1.98830E+00  2.49522E+00  3.32902E+00  2.45468E+00
   1.04621E+00  3.00721E+00  3.48344E+00  1.90626E+00  3.35777E+00  8.52308E-01 -5.35789E-01  1.82420E+00  2.14876E+00  2.85338E+00
   2.35561E+00  1.55229E+00  1.24349E+00  1.37306E+00  2.62002E+00  1.56733E+00  2.44115E+00  2.30532E+00  2.31676E+00  2.04748E+00
   3.01960E+00  1.97466E+00  3.09919E+00  1.74886E+00  9.17378E-01  1.98873E+00  6.89381E-01  2.66782E+00 -3.03969E-01  4.92501E-01
   2.00550E+00  1.55921E+00  1.59622E-01  6.37536E-01 -5.15969E-02  7.97958E-01  1.43692E+00  1.84125E+00 -1.09824E+00  9.72014E-01
   4.60901E-01  1.82184E+00  1.37254E+00  2.30466E+00  8.63187E-01  1.31165E+00  1.17414E-01  2.73008E+00
 NY points of the fit to the data follow
   1.04250E+01  1.03938E+01  1.03559E+01  1.03194E+01  1.03093E+01  1.03480E+01  1.04190E+01  1.04987E+01  1.05723E+01  1.06190E+01
   1.06286E+01  1.06075E+01  1.05693E+01  1.05275E+01  1.04958E+01  1.04855E+01  1.04684E+01  1.03592E+01  1.01416E+01  9.88624E+00
   9.67293E+00  9.56981E+00  9.61601E+00  9.73549E+00  9.79488E+00  9.71990E+00  9.55669E+00  9.41052E+00  9.36214E+00  9.47529E+00
   9.72881E+00  9.97707E+00  1.00706E+01  9.95360E+00  9.68613E+00  9.40531E+00  9.25635E+00  9.31562E+00  9.49893E+00  9.58931E+00
   9.47538E+00  9.16634E+00  8.74573E+00  8.38913E+00  8.31250E+00  8.52246E+00  8.83902E+00  9.09735E+00  9.19842E+00  9.09612E+00
   8.82047E+00  8.51577E+00  8.27542E+00  8.07708E+00  7.90004E+00  7.73224E+00  7.56551E+00  7.40356E+00  7.26492E+00  7.17572E+00
   7.14170E+00  7.13111E+00  7.11604E+00  7.08869E+00  7.05157E+00  7.00797E+00  6.96121E+00  6.91321E+00  6.86368E+00  6.81026E+00
   6.75201E+00  6.69809E+00  6.65690E+00  6.62563E+00  6.59980E+00  6.57006E+00  6.53091E+00  6.47581E+00  6.40191E+00  6.31392E+00
   6.21999E+00  6.12505E+00  6.03041E+00  5.93639E+00  5.84866E+00  5.76579E+00  5.68715E+00  5.61638E+00  5.55461E+00  5.50351E+00
   5.46520E+00  5.44195E+00  5.44060E+00  5.47518E+00  5.52589E+00  5.56958E+00  5.60783E+00  5.65431E+00  5.71835E+00  5.79240E+00
   5.86162E+00  5.91006E+00  5.92809E+00  5.91128E+00  5.86229E+00  5.79102E+00  5.70951E+00  5.62639E+00  5.54619E+00  5.46433E+00
   5.36682E+00  5.24741E+00  5.11095E+00  4.97578E+00  4.87584E+00  4.83929E+00  4.84447E+00  4.90558E+00  5.01747E+00  5.13063E+00
   5.22783E+00  5.32461E+00  5.44403E+00  5.59682E+00  5.77158E+00  5.93832E+00  6.06446E+00  6.12782E+00  6.12227E+00  6.05733E+00
   5.94894E+00  5.81180E+00  5.65628E+00  5.48445E+00  5.28821E+00  5.05797E+00  4.79573E+00  4.52469E+00  4.29776E+00  4.18056E+00
   4.14639E+00  4.12986E+00  4.11750E+00  4.10702E+00  4.09696E+00  4.08622E+00  4.07422E+00  4.06093E+00  4.04684E+00  4.03169E+00
   4.01517E+00  3.99666E+00  3.97629E+00  3.95522E+00  3.93382E+00  3.91255E+00  3.89032E+00  3.86586E+00  3.83988E+00  3.81374E+00
   3.78856E+00  3.76468E+00  3.74179E+00  3.71921E+00  3.69598E+00  3.67130E+00  3.64409E+00  3.61471E+00  3.58632E+00  3.56031E+00
   3.53602E+00  3.51094E+00  3.48311E+00  3.45250E+00  3.42209E+00  3.39541E+00  3.37291E+00  3.35439E+00  3.33990E+00  3.32983E+00
   3.32382E+00  3.32114E+00  3.32090E+00  3.32023E+00  3.30772E+00  3.27875E+00  3.23228E+00  3.15892E+00  3.06798E+00  2.96863E+00
   2.86483E+00  2.77139E+00  2.71920E+00  2.71331E+00  2.73642E+00  2.80839E+00  2.95445E+00  3.15170E+00  3.38622E+00  3.60859E+00
   3.71919E+00  3.71842E+00  3.72162E+00  3.74607E+00  3.73059E+00  3.64258E+00  3.48991E+00  3.23950E+00  2.93594E+00  2.67884E+00
   2.56892E+00  2.59529E+00  2.66734E+00  2.76770E+00  2.94248E+00  3.13773E+00  3.26814E+00  3.36450E+00  3.46939E+00  3.57884E+00
   3.69783E+00  3.71782E+00  3.51235E+00  3.17300E+00  2.89259E+00  2.69945E+00  2.59156E+00  2.66096E+00  2.99059E+00  3.45708E+00
   3.98230E+00  4.50943E+00  4.92291E+00  5.02998E+00  4.80989E+00  4.46379E+00  4.17748E+00  3.97953E+00  3.84560E+00  3.73631E+00
   3.58925E+00  3.39746E+00  3.19079E+00  2.99937E+00  2.85389E+00  2.76871E+00  2.73198E+00  2.67853E+00  2.53036E+00  2.36068E+00
   2.33429E+00  2.50944E+00  2.82643E+00  3.24710E+00  3.69672E+00  4.06529E+00  4.41595E+00  4.78774E+00  5.13848E+00  5.43627E+00
   5.65394E+00  5.72805E+00  5.63499E+00  5.44664E+00  5.24744E+00  5.07876E+00  4.94590E+00  4.82900E+00  4.68544E+00  4.46803E+00
   4.17264E+00  3.86617E+00  3.65377E+00  3.56868E+00  3.53512E+00  3.52795E+00  3.53657E+00  3.53369E+00  3.52645E+00  3.52415E+00
   3.52192E+00  3.51302E+00  3.49033E+00  3.44790E+00  3.39125E+00  3.33690E+00  3.29369E+00  3.25961E+00  3.23305E+00  3.21378E+00
   3.20007E+00  3.18808E+00  3.17311E+00  3.15563E+00  3.13796E+00  3.12071E+00  3.10431E+00  3.08924E+00  3.07582E+00  3.06371E+00
   3.05221E+00  3.04158E+00  3.03213E+00  3.02339E+00  3.01511E+00  3.00747E+00  3.00034E+00  2.99366E+00  2.98746E+00  2.98175E+00
   2.97652E+00  2.97176E+00  2.96746E+00  2.96368E+00  2.96060E+00  2.95854E+00  2.95749E+00  2.95746E+00  2.95862E+00  2.96111E+00
   2.96504E+00  2.97055E+00  2.97783E+00  2.98707E+00  2.99851E+00  3.01240E+00  3.02902E+00  3.04868E+00  3.07175E+00  3.09859E+00
   3.12958E+00  3.16511E+00  3.20559E+00  3.25141E+00  3.30293E+00  3.36047E+00  3.42433E+00  3.49477E+00  3.57205E+00  3.65648E+00
   3.74849E+00  3.84869E+00  3.95794E+00  4.07736E+00  4.20820E+00  4.35154E+00  4.50786E+00  4.67637E+00  4.85437E+00  5.03670E+00
   5.21558E+00  5.38091E+00  5.52123E+00  5.62521E+00  5.68339E+00  5.68975E+00  5.64286E+00  5.54609E+00  5.40704E+00  5.23620E+00
   5.04523E+00  4.84525E+00  4.64559E+00  4.45302E+00  4.27166E+00  4.10331E+00  3.94814E+00  3.80531E+00  3.67359E+00  3.55176E+00
   3.43880E+00  3.33401E+00  3.23690E+00  3.14717E+00  3.06462E+00  2.98904E+00  2.92022E+00  2.85791E+00  2.80182E+00  2.75163E+00
   2.70697E+00  2.66749E+00  2.63283E+00  2.60265E+00  2.57663E+00  2.55447E+00  2.53588E+00  2.52062E+00  2.50843E+00  2.49910E+00
   2.49241E+00  2.48812E+00  2.48600E+00  2.48580E+00  2.48725E+00  2.49007E+00  2.49393E+00  2.49849E+00  2.50338E+00  2.50821E+00
   2.51259E+00  2.51612E+00  2.51843E+00  2.51913E+00  2.51791E+00  2.51449E+00  2.50865E+00  2.50023E+00  2.48915E+00  2.47540E+00
   2.45905E+00  2.44023E+00  2.41915E+00  2.39606E+00  2.37126E+00  2.34505E+00  2.31779E+00  2.28981E+00  2.26145E+00  2.23301E+00
   2.20476E+00  2.17695E+00  2.14980E+00  2.12347E+00  2.09808E+00  2.07372E+00  2.05045E+00  2.02829E+00  2.00723E+00  1.98726E+00
   1.96834E+00  1.95041E+00  1.93341E+00  1.91728E+00  1.90195E+00  1.88736E+00  1.87343E+00  1.86011E+00  1.84734E+00  1.83506E+00
   1.82322E+00  1.81179E+00  1.80071E+00  1.78995E+00  1.77947E+00  1.76925E+00  1.75926E+00  1.74947E+00  1.73986E+00  1.73042E+00
   1.72112E+00  1.71195E+00  1.70289E+00  1.69394E+00  1.68508E+00  1.67630E+00  1.66759E+00  1.65896E+00  1.65039E+00  1.64188E+00
   1.63342E+00  1.62500E+00  1.61663E+00  1.60831E+00  1.60002E+00  1.59177E+00  1.58354E+00  1.57535E+00  1.56718E+00  1.55904E+00
   1.55092E+00  1.54283E+00  1.53476E+00  1.52670E+00  1.51867E+00  1.51065E+00  1.50265E+00  1.49467E+00  1.48669E+00  1.47874E+00
   1.47080E+00  1.46287E+00  1.45496E+00  1.44705E+00  1.43916E+00  1.43129E+00  1.42342E+00  1.41557E+00  1.40772E+00  1.39989E+00
   1.39207E+00  1.38427E+00  1.37648E+00  1.36870E+00  1.36093E+00  1.35318E+00  1.34545E+00  1.33773E+00
 NY background values follow
     9.185E+00    9.143E+00    9.101E+00    9.058E+00    9.016E+00    8.974E+00    8.932E+00    8.890E+00    8.848E+00    8.806E+00
     8.763E+00    8.721E+00    8.679E+00    8.637E+00    8.595E+00    8.553E+00    8.511E+00    8.469E+00    8.427E+00    8.385E+00
     8.343E+00    8.301E+00    8.259E+00    8.217E+00    8.176E+00    8.134E+00    8.092E+00    8.051E+00    8.009E+00    7.968E+00
     7.926E+00    7.885E+00    7.844E+00    7.803E+00    7.761E+00    7.720E+00    7.680E+00    7.639E+00    7.598E+00    7.557E+00
     7.517E+00    7.476E+00    7.436E+00    7.396E+00    7.356E+00    7.316E+00    7.276E+00    7.236E+00    7.197E+00    7.157E+00
     7.118E+00    7.079E+00    7.040E+00    7.001E+00    6.962E+00    6.923E+00    6.885E+00    6.846E+00    6.808E+00    6.770E+00
     6.732E+00    6.695E+00    6.657E+00    6.620E+00    6.582E+00    6.545E+00    6.508E+00    6.472E+00    6.435E+00    6.399E+00
     6.362E+00    6.326E+00    6.291E+00    6.255E+00    6.219E+00    6.184E+00    6.149E+00    6.114E+00    6.080E+00    6.045E+00
     6.011E+00    5.977E+00    5.943E+00    5.909E+00    5.876E+00    5.843E+00    5.810E+00    5.777E+00    5.744E+00    5.712E+00
     5.680E+00    5.648E+00    5.617E+00    5.585E+00    5.554E+00    5.523E+00    5.492E+00    5.462E+00    5.432E+00    5.402E+00
     5.372E+00    5.343E+00    5.313E+00    5.284E+00    5.255E+00    5.227E+00    5.198E+00    5.170E+00    5.142E+00    5.114E+00
     5.087E+00    5.060E+00    5.033E+00    5.006E+00    4.979E+00    4.953E+00    4.927E+00    4.901E+00    4.875E+00    4.850E+00
     4.825E+00    4.800E+00    4.775E+00    4.750E+00    4.726E+00    4.702E+00    4.678E+00    4.654E+00    4.631E+00    4.608E+00
     4.585E+00    4.562E+00    4.539E+00    4.517E+00    4.495E+00    4.473E+00    4.451E+00    4.430E+00    4.408E+00    4.387E+00
     4.367E+00    4.346E+00    4.326E+00    4.305E+00    4.285E+00    4.266E+00    4.246E+00    4.227E+00    4.207E+00    4.188E+00
     4.170E+00    4.151E+00    4.133E+00    4.114E+00    4.096E+00    4.078E+00    4.061E+00    4.043E+00    4.026E+00    4.009E+00
     3.992E+00    3.975E+00    3.959E+00    3.942E+00    3.926E+00    3.910E+00    3.894E+00    3.878E+00    3.862E+00    3.847E+00
     3.832E+00    3.817E+00    3.802E+00    3.787E+00    3.772E+00    3.758E+00    3.743E+00    3.729E+00    3.715E+00    3.701E+00
     3.687E+00    3.674E+00    3.660E+00    3.647E+00    3.634E+00    3.621E+00    3.608E+00    3.595E+00    3.582E+00    3.570E+00
     3.557E+00    3.545E+00    3.533E+00    3.520E+00    3.509E+00    3.497E+00    3.485E+00    3.473E+00    3.462E+00    3.451E+00
     3.439E+00    3.428E+00    3.417E+00    3.406E+00    3.395E+00    3.385E+00    3.374E+00    3.363E+00    3.353E+00    3.343E+00
     3.332E+00    3.322E+00    3.312E+00    3.302E+00    3.293E+00    3.283E+00    3.273E+00    3.263E+00    3.254E+00    3.245E+00
     3.235E+00    3.226E+00    3.217E+00    3.208E+00    3.199E+00    3.190E+00    3.181E+00    3.172E+00    3.163E+00    3.155E+00
     3.146E+00    3.138E+00    3.129E+00    3.121E+00    3.112E+00    3.104E+00    3.096E+00    3.088E+00    3.079E+00    3.071E+00
     3.063E+00    3.055E+00    3.048E+00    3.040E+00    3.032E+00    3.024E+00    3.016E+00    3.009E+00    3.001E+00    2.993E+00
     2.986E+00    2.978E+00    2.971E+00    2.963E+00    2.956E+00    2.948E+00    2.941E+00    2.933E+00    2.926E+00    2.919E+00
     2.911E+00    2.904E+00    2.897E+00    2.890E+00    2.882E+00    2.875E+00    2.868E+00    2.860E+00    2.853E+00    2.846E+00
     2.839E+00    2.832E+00    2.824E+00    2.817E+00    2.810E+00    2.803E+00    2.795E+00    2.788E+00    2.781E+00    2.774E+00
     2.767E+00    2.759E+00    2.752E+00    2.745E+00    2.738E+00    2.730E+00    2.723E+00    2.716E+00    2.709E+00    2.702E+00
     2.694E+00    2.687E+00    2.680E+00    2.673E+00    2.666E+00    2.658E+00    2.651E+00    2.644E+00    2.637E+00    2.629E+00
     2.622E+00    2.615E+00    2.608E+00    2.601E+00    2.593E+00    2.586E+00    2.579E+00    2.572E+00    2.565E+00    2.558E+00
     2.550E+00    2.543E+00    2.536E+00    2.529E+00    2.522E+00    2.515E+00    2.507E+00    2.500E+00    2.493E+00    2.486E+00
     2.479E+00    2.472E+00    2.465E+00    2.457E+00    2.450E+00    2.443E+00    2.436E+00    2.429E+00    2.422E+00    2.415E+00
     2.407E+00    2.400E+00    2.393E+00    2.386E+00    2.379E+00    2.372E+00    2.365E+00    2.358E+00    2.351E+00    2.344E+00
     2.336E+00    2.329E+00    2.322E+00    2.315E+00    2.308E+00    2.301E+00    2.294E+00    2.287E+00    2.280E+00    2.273E+00
     2.266E+00    2.258E+00    2.251E+00    2.244E+00    2.237E+00    2.230E+00    2.223E+00    2.216E+00    2.209E+00    2.202E+00
     2.195E+00    2.188E+00    2.181E+00    2.174E+00    2.167E+00    2.159E+00    2.152E+00    2.145E+00    2.138E+00    2.131E+00
     2.124E+00    2.117E+00    2.110E+00    2.103E+00    2.096E+00    2.089E+00    2.082E+00    2.075E+00    2.068E+00    2.061E+00
     2.054E+00    2.047E+00    2.040E+00    2.033E+00    2.026E+00    2.019E+00    2.012E+00    2.005E+00    1.999E+00    1.992E+00
     1.985E+00    1.978E+00    1.971E+00    1.964E+00    1.958E+00    1.951E+00    1.944E+00    1.937E+00    1.931E+00    1.924E+00
     1.917E+00    1.911E+00    1.904E+00    1.897E+00    1.891E+00    1.884E+00    1.878E+00    1.871E+00    1.865E+00    1.858E+00
     1.852E+00    1.845E+00    1.839E+00    1.832E+00    1.826E+00    1.820E+00    1.813E+00    1.807E+00    1.801E+00    1.794E+00
     1.788E+00    1.782E+00    1.775E+00    1.769E+00    1.763E+00    1.757E+00    1.750E+00    1.744E+00    1.738E+00    1.732E+00
     1.725E+00    1.719E+00    1.713E+00    1.707E+00    1.700E+00    1.694E+00    1.688E+00    1.681E+00    1.675E+00    1.669E+00
     1.663E+00    1.656E+00    1.650E+00    1.643E+00    1.637E+00    1.631E+00    1.624E+00    1.618E+00    1.611E+00    1.605E+00
     1.598E+00    1.592E+00    1.585E+00    1.579E+00    1.572E+00    1.566E+00    1.559E+00    1.552E+00    1.546E+00    1.539E+00
     1.532E+00    1.525E+00    1.519E+00    1.512E+00    1.505E+00    1.498E+00    1.491E+00    1.484E+00    1.478E+00    1.471E+00
     1.464E+00    1.457E+00    1.450E+00    1.443E+00    1.436E+00    1.429E+00    1.422E+00    1.415E+00    1.408E+00    1.401E+00
     1.394E+00    1.387E+00    1.380E+00    1.373E+00    1.366E+00    1.359E+00    1.352E+00    1.345E+00    1.338E+00    1.331E+00
     1.324E+00    1.316E+00    1.309E+00    1.302E+00    1.295E+00    1.288E+00    1.281E+00    1.274E+00
 Asp      Conc. = 9.51E+00
