 LCModel (Version 6.3-1L) Copyright: S.W. Provencher.          Ref.: Magn. Reson. Med. 30:672-679 (1993).                
 Slice#3 Row#12 Col#4  PD_05_press_1_raw_act
 36 lines in following concentration table = NCONC+1
    Conc.  %SD /Cr+PCr  Metabolite                                         
 3.38E+04  11%   0.000 Ala                                                 
   56.250 117%   0.000 Asp                                                 
    0.000 999%   0.000 Cr                                                  
    0.000 999%   0.000 PCr                                                 
    0.000 999%   0.000 GABA                                                
    7.004 570%   0.000 Glc                                                 
    0.000 999%   0.000 Gln                                                 
 1.06E+04  10%   0.000 Glu                                                 
    0.000 999%   0.000 GPC                                                 
   43.551  74%   0.000 PCh                                                 
    0.000 999%   0.000 GSH                                                 
  159.962 220%   0.000 Ins                                                 
  540.538 217%   0.000 Lac                                                 
    0.000 999%   0.000 NAA                                                 
    0.000 999%   0.000 NAAG                                                
    6.825 189%   0.000 Scyllo                                              
   21.986 298%   0.000 Tau                                                 
    0.000 999%   0.000 -CrCH2                                              
   43.551  74%   0.000 GPC+PCh                                             
    0.000 999%   0.000 NAA+NAAG                                            
    0.000 999%   0.000 Cr+PCr                                              
 1.06E+04  10%   0.000 Glu+Gln                                             
 7.58E+04  13%   0.000 Lip13a                                              
 1.16E+03  31%   0.000 Lip13b                                              
 1.96E+04  21%   0.000 Lip09                                               
 4.28E+03  32%   0.000 MM09                                                
    0.000 999%   0.000-Lip20                                               
    0.000 999%   0.000-MM20                                                
 1.35E+03  64%   0.000 MM12                                                
 1.58E+04   8%   0.000+MM14                                                
 1.25E+04  15%   0.000+MM17                                                
 7.70E+04  13%   0.000 Lip13a+Lip13b                                       
 9.42E+04   9%   0.000 MM14+Lip13a+Lip13b+MM12                             
 2.39E+04  17%   0.000 MM09+Lip09                                          
    0.000 999%   0.000 MM20+Lip20                                          
   6 lines in following misc. output table
  FWHM = 0.168 ppm    S/N =  45                                            
  Data shift =-0.015 ppm                                                   
  Ph:-153 deg     137.7 deg/ppm                                            
  alphaB,S = 1.5E+00,   4.1E+02                                            
    9 spline knots.   Ns = 9(2)                                            
  ( 9) 2 infls.   ( 1) 1 extrs.                                            
  498 points on ppm-axis = NY
      4.000000     3.992357     3.984714     3.977070     3.969427     3.961784     3.954141     3.946497     3.938854     3.931211
      3.923568     3.915925     3.908281     3.900638     3.892995     3.885352     3.877708     3.870065     3.862422     3.854779
      3.847136     3.839492     3.831849     3.824206     3.816563     3.808919     3.801276     3.793633     3.785990     3.778347
      3.770703     3.763060     3.755417     3.747774     3.740130     3.732487     3.724844     3.717201     3.709558     3.701914
      3.694271     3.686628     3.678985     3.671341     3.663698     3.656055     3.648412     3.640769     3.633125     3.625482
      3.617839     3.610196     3.602552     3.594909     3.587266     3.579623     3.571980     3.564336     3.556693     3.549050
      3.541407     3.533763     3.526120     3.518477     3.510834     3.503191     3.495547     3.487904     3.480261     3.472618
      3.464974     3.457331     3.449688     3.442045     3.434402     3.426758     3.419115     3.411472     3.403829     3.396185
      3.388542     3.380899     3.373256     3.365613     3.357969     3.350326     3.342683     3.335040     3.327396     3.319753
      3.312110     3.304467     3.296824     3.289180     3.281537     3.273894     3.266251     3.258607     3.250964     3.243321
      3.235678     3.228034     3.220391     3.212748     3.205105     3.197462     3.189818     3.182175     3.174532     3.166889
      3.159245     3.151602     3.143959     3.136316     3.128673     3.121029     3.113386     3.105743     3.098100     3.090456
      3.082813     3.075170     3.067527     3.059884     3.052240     3.044597     3.036954     3.029311     3.021667     3.014024
      3.006381     2.998738     2.991095     2.983451     2.975808     2.968165     2.960522     2.952878     2.945235     2.937592
      2.929949     2.922306     2.914662     2.907019     2.899376     2.891733     2.884089     2.876446     2.868803     2.861160
      2.853517     2.845873     2.838230     2.830587     2.822944     2.815300     2.807657     2.800014     2.792371     2.784728
      2.777084     2.769441     2.761798     2.754155     2.746511     2.738868     2.731225     2.723582     2.715939     2.708295
      2.700652     2.693009     2.685366     2.677722     2.670079     2.662436     2.654793     2.647150     2.639506     2.631863
      2.624220     2.616577     2.608933     2.601290     2.593647     2.586004     2.578361     2.570717     2.563074     2.555431
      2.547788     2.540144     2.532501     2.524858     2.517215     2.509572     2.501928     2.494285     2.486642     2.478999
      2.471355     2.463712     2.456069     2.448426     2.440783     2.433139     2.425496     2.417853     2.410210     2.402566
      2.394923     2.387280     2.379637     2.371994     2.364350     2.356707     2.349064     2.341421     2.333777     2.326134
      2.318491     2.310848     2.303205     2.295561     2.287918     2.280275     2.272632     2.264988     2.257345     2.249702
      2.242059     2.234416     2.226772     2.219129     2.211486     2.203843     2.196199     2.188556     2.180913     2.173270
      2.165627     2.157983     2.150340     2.142697     2.135054     2.127410     2.119767     2.112124     2.104481     2.096838
      2.089194     2.081551     2.073908     2.066265     2.058621     2.050978     2.043335     2.035692     2.028049     2.020405
      2.012762     2.005119     1.997476     1.989833     1.982190     1.974546     1.966903     1.959260     1.951617     1.943974
      1.936331     1.928688     1.921045     1.913402     1.905759     1.898115     1.890472     1.882829     1.875186     1.867543
      1.859900     1.852257     1.844614     1.836971     1.829327     1.821684     1.814041     1.806398     1.798755     1.791112
      1.783469     1.775826     1.768183     1.760540     1.752896     1.745253     1.737610     1.729967     1.722324     1.714681
      1.707038     1.699395     1.691752     1.684108     1.676465     1.668822     1.661179     1.653536     1.645893     1.638250
      1.630607     1.622964     1.615321     1.607677     1.600034     1.592391     1.584748     1.577105     1.569462     1.561819
      1.554176     1.546533     1.538890     1.531246     1.523603     1.515960     1.508317     1.500674     1.493031     1.485388
      1.477745     1.470102     1.462458     1.454815     1.447172     1.439529     1.431886     1.424243     1.416600     1.408957
      1.401314     1.393671     1.386027     1.378384     1.370741     1.363098     1.355455     1.347812     1.340169     1.332526
      1.324883     1.317240     1.309596     1.301953     1.294310     1.286667     1.279024     1.271381     1.263738     1.256095
      1.248452     1.240808     1.233165     1.225522     1.217879     1.210236     1.202593     1.194950     1.187307     1.179664
      1.172021     1.164377     1.156734     1.149091     1.141448     1.133805     1.126162     1.118519     1.110876     1.103233
      1.095590     1.087946     1.080303     1.072660     1.065017     1.057374     1.049731     1.042088     1.034445     1.026802
      1.019158     1.011515     1.003872     0.996229     0.988586     0.980943     0.973300     0.965657     0.958014     0.950371
      0.942727     0.935084     0.927441     0.919798     0.912155     0.904512     0.896869     0.889226     0.881583     0.873940
      0.866296     0.858653     0.851010     0.843367     0.835724     0.828081     0.820438     0.812795     0.805152     0.797508
      0.789865     0.782222     0.774579     0.766936     0.759293     0.751650     0.744007     0.736364     0.728721     0.721077
      0.713434     0.705791     0.698148     0.690505     0.682862     0.675219     0.667576     0.659933     0.652290     0.644646
      0.637003     0.629360     0.621717     0.614074     0.606431     0.598788     0.591145     0.583502     0.575858     0.568215
      0.560572     0.552929     0.545286     0.537643     0.530000     0.522357     0.514714     0.507071     0.499427     0.491784
      0.484141     0.476498     0.468855     0.461212     0.453569     0.445925     0.438282     0.430639     0.422996     0.415353
      0.407710     0.400067     0.392424     0.384780     0.377137     0.369494     0.361851     0.354208     0.346565     0.338922
      0.331278     0.323635     0.315992     0.308349     0.300706     0.293063     0.285420     0.277777     0.270133     0.262490
      0.254847     0.247204     0.239561     0.231918     0.224275     0.216631     0.208988     0.201345
 NY phased data points follow
   9.11770E+01  9.19905E+01  9.03326E+01  8.80389E+01  8.55451E+01  8.53996E+01  8.26849E+01  8.37267E+01  8.24310E+01  8.10373E+01
   7.92459E+01  7.74989E+01  7.74893E+01  7.44227E+01  7.47845E+01  7.20106E+01  7.33555E+01  7.06680E+01  6.88601E+01  6.68800E+01
   6.49921E+01  6.48908E+01  6.39848E+01  6.09200E+01  6.10143E+01  5.84199E+01  5.79900E+01  5.79166E+01  5.66380E+01  5.61231E+01
   5.58608E+01  5.38412E+01  5.21052E+01  5.20387E+01  5.05040E+01  4.99004E+01  5.01643E+01  4.67026E+01  4.65264E+01  4.58103E+01
   4.46335E+01  4.38917E+01  4.19189E+01  4.09797E+01  4.07051E+01  3.83315E+01  3.77179E+01  3.76100E+01  3.57784E+01  3.44421E+01
   3.30381E+01  3.19324E+01  3.29356E+01  3.16491E+01  3.12005E+01  2.89547E+01  2.99737E+01  2.84512E+01  2.57395E+01  2.81764E+01
   2.69875E+01  2.47558E+01  2.47036E+01  2.33470E+01  2.40112E+01  2.22531E+01  2.25456E+01  2.03825E+01  2.15175E+01  2.02651E+01
   2.01234E+01  1.74947E+01  1.79646E+01  1.86034E+01  1.71422E+01  1.64976E+01  1.66217E+01  1.63229E+01  1.45367E+01  1.47984E+01
   1.57600E+01  1.56745E+01  1.31909E+01  1.33543E+01  1.48967E+01  1.22405E+01  1.17665E+01  1.15323E+01  1.21928E+01  1.31770E+01
   1.18071E+01  9.69587E+00  1.20420E+01  1.07158E+01  1.09692E+01  1.13099E+01  9.86788E+00  1.23029E+01  1.28916E+01  9.99783E+00
   1.14233E+01  1.12226E+01  1.12622E+01  1.34963E+01  1.20667E+01  1.22193E+01  1.24121E+01  1.09767E+01  1.09746E+01  1.09651E+01
   1.01168E+01  9.30901E+00  7.45880E+00  9.62938E+00  8.99481E+00  8.61607E+00  9.31392E+00  9.91999E+00  9.67885E+00  1.18005E+01
   1.08438E+01  1.15864E+01  1.14525E+01  1.22003E+01  1.12797E+01  1.22558E+01  1.21340E+01  1.20607E+01  9.35140E+00  1.17599E+01
   9.09520E+00  1.04460E+01  8.94828E+00  9.53966E+00  8.55720E+00  8.42812E+00  8.05550E+00  8.14198E+00  9.20671E+00  6.76331E+00
   9.06424E+00  5.84920E+00  8.94341E+00  7.72242E+00  8.05063E+00  8.50817E+00  5.84215E+00  6.30641E+00  6.85794E+00  7.07078E+00
   7.33450E+00  3.96804E+00  5.94541E+00  6.21215E+00  4.62243E+00  4.73506E+00  5.08377E+00  4.06572E+00  5.48087E+00  4.32640E+00
   3.22845E+00  1.95774E+00  2.92004E+00  6.60355E-01  3.56679E+00  1.55669E+00  1.12145E+00  2.22477E+00  4.66573E-01 -4.90157E-01
  -2.21014E-01 -2.16311E+00 -2.00759E+00 -1.34895E+00 -2.00341E+00 -2.21620E+00 -4.06147E+00 -2.11556E+00 -4.35873E+00 -2.94156E+00
  -5.53694E+00 -4.16615E+00 -6.09797E+00 -5.95231E+00 -7.67385E+00 -7.68332E+00 -7.89101E+00 -1.02142E+01 -9.31235E+00 -1.12514E+01
  -1.12726E+01 -1.38656E+01 -1.18475E+01 -1.56377E+01 -1.61339E+01 -1.82965E+01 -1.82507E+01 -1.89655E+01 -2.15602E+01 -2.38844E+01
  -2.37473E+01 -2.55196E+01 -2.55480E+01 -2.68284E+01 -2.77856E+01 -3.13372E+01 -3.31490E+01 -3.39600E+01 -3.52125E+01 -3.57627E+01
  -3.80985E+01 -4.06474E+01 -4.48466E+01 -4.45768E+01 -4.64162E+01 -4.97041E+01 -4.92262E+01 -5.30388E+01 -5.49125E+01 -5.64081E+01
  -5.82529E+01 -6.07639E+01 -6.38163E+01 -6.38066E+01 -6.53514E+01 -6.68661E+01 -6.93779E+01 -6.94578E+01 -7.15881E+01 -7.28866E+01
  -7.39803E+01 -7.43355E+01 -7.60684E+01 -7.59178E+01 -7.73811E+01 -7.83382E+01 -7.90944E+01 -8.04040E+01 -8.01950E+01 -8.08920E+01
  -8.19878E+01 -8.14581E+01 -8.22089E+01 -8.40798E+01 -8.09715E+01 -8.43207E+01 -8.36936E+01 -8.48913E+01 -8.55243E+01 -8.73123E+01
  -8.77257E+01 -8.86253E+01 -8.85783E+01 -8.78845E+01 -8.85091E+01 -8.87202E+01 -9.22915E+01 -9.11241E+01 -9.02941E+01 -9.06547E+01
  -9.12382E+01 -8.97681E+01 -8.64181E+01 -8.82294E+01 -8.74582E+01 -8.81354E+01 -8.36830E+01 -8.36380E+01 -8.12890E+01 -8.06382E+01
  -8.21469E+01 -8.04560E+01 -8.06048E+01 -7.84484E+01 -7.98083E+01 -8.10960E+01 -7.85361E+01 -7.76352E+01 -7.80748E+01 -7.60341E+01
  -7.59201E+01 -7.34330E+01 -7.29385E+01 -7.24164E+01 -7.04017E+01 -6.81001E+01 -6.59792E+01 -6.41776E+01 -6.09088E+01 -5.91951E+01
  -5.73598E+01 -5.41655E+01 -5.43126E+01 -5.06986E+01 -4.80187E+01 -4.74245E+01 -4.42575E+01 -4.01367E+01 -3.84125E+01 -3.62095E+01
  -3.28076E+01 -2.96970E+01 -2.42710E+01 -2.08902E+01 -1.76398E+01 -1.49986E+01 -1.11746E+01 -6.85061E+00 -4.36032E+00  6.60294E-01
   5.11890E+00  1.08716E+01  1.55145E+01  1.81426E+01  2.25544E+01  2.76691E+01  3.26200E+01  3.43461E+01  4.12243E+01  4.49610E+01
   5.16093E+01  5.53060E+01  6.13173E+01  6.53190E+01  6.97890E+01  7.29425E+01  7.84441E+01  8.31447E+01  8.94927E+01  9.33076E+01
   9.88711E+01  1.03077E+02  1.05723E+02  1.12235E+02  1.16204E+02  1.20685E+02  1.25936E+02  1.28732E+02  1.31146E+02  1.33478E+02
   1.36461E+02  1.37180E+02  1.38024E+02  1.37815E+02  1.38673E+02  1.37031E+02  1.37888E+02  1.37995E+02  1.38279E+02  1.38114E+02
   1.34570E+02  1.34083E+02  1.33696E+02  1.31509E+02  1.29379E+02  1.26084E+02  1.25833E+02  1.25954E+02  1.22702E+02  1.19932E+02
   1.18408E+02  1.18122E+02  1.13316E+02  1.11521E+02  1.10171E+02  1.05150E+02  1.03984E+02  1.00644E+02  9.91640E+01  9.47530E+01
   9.06559E+01  8.98062E+01  8.73055E+01  8.61036E+01  8.04125E+01  7.94132E+01  7.73539E+01  7.14788E+01  6.98414E+01  6.78090E+01
   6.49598E+01  6.24560E+01  6.05434E+01  5.59200E+01  5.30790E+01  5.13035E+01  4.89626E+01  4.67032E+01  4.49368E+01  4.28271E+01
   3.94525E+01  3.85415E+01  3.60737E+01  3.29239E+01  3.18575E+01  2.93575E+01  2.96850E+01  2.70164E+01  2.47296E+01  2.34726E+01
   2.20324E+01  2.15153E+01  1.73234E+01  1.61125E+01  1.44311E+01  1.32980E+01  1.15273E+01  9.52512E+00  7.07388E+00  8.59048E+00
   4.11859E+00  4.20402E+00  1.19016E+00  7.71082E-01 -2.97278E+00 -2.49507E+00 -5.25017E+00 -5.36495E+00 -5.04842E+00 -6.00540E+00
  -7.15263E+00 -7.69563E+00 -9.42620E+00 -1.13101E+01 -1.37974E+01 -1.31248E+01 -1.55315E+01 -1.63919E+01 -1.70850E+01 -1.81298E+01
  -1.80871E+01 -1.86102E+01 -1.99187E+01 -2.05269E+01 -2.25035E+01 -2.15085E+01 -2.18388E+01 -2.38779E+01 -2.46118E+01 -2.46101E+01
  -2.62729E+01 -2.60974E+01 -2.66215E+01 -2.71326E+01 -2.66840E+01 -2.72986E+01 -2.90208E+01 -2.79590E+01 -2.96722E+01 -3.08647E+01
  -3.08344E+01 -3.13291E+01 -3.09965E+01 -3.13477E+01 -3.31344E+01 -3.22957E+01 -3.28107E+01 -3.21462E+01 -3.34267E+01 -3.38563E+01
  -3.58314E+01 -3.53204E+01 -3.50753E+01 -3.38923E+01 -3.33617E+01 -3.48941E+01 -3.58729E+01 -3.74664E+01 -3.60704E+01 -3.52601E+01
  -3.71420E+01 -3.72006E+01 -3.64535E+01 -3.70958E+01 -3.58955E+01 -3.80465E+01 -3.66739E+01 -3.68491E+01 -3.79324E+01 -3.74249E+01
  -3.58076E+01 -3.73665E+01 -3.77483E+01 -3.69404E+01 -3.83720E+01 -3.51962E+01 -3.84203E+01 -3.56151E+01 -3.64148E+01 -3.68292E+01
  -3.57419E+01 -3.52354E+01 -3.60065E+01 -3.54012E+01 -3.53313E+01 -3.26891E+01 -3.45502E+01 -3.46668E+01
 NY points of the fit to the data follow
   8.93203E+01  8.80918E+01  8.65204E+01  8.54754E+01  8.41577E+01  8.34679E+01  8.26828E+01  8.25793E+01  8.13899E+01  8.08227E+01
   7.89593E+01  7.82539E+01  7.60963E+01  7.53970E+01  7.29809E+01  7.32934E+01  7.13245E+01  7.18447E+01  6.92631E+01  6.95972E+01
   6.64597E+01  6.69028E+01  6.36310E+01  6.41085E+01  6.08897E+01  6.14420E+01  5.82836E+01  5.87386E+01  5.57350E+01  5.60708E+01
   5.34906E+01  5.36729E+01  5.16372E+01  5.16805E+01  5.01441E+01  4.99255E+01  4.87402E+01  4.80829E+01  4.72089E+01  4.60269E+01
   4.53101E+01  4.40631E+01  4.36611E+01  4.22829E+01  4.19795E+01  4.04380E+01  4.04310E+01  3.91103E+01  3.87777E+01  3.71806E+01
   3.64461E+01  3.46362E+01  3.35020E+01  3.13773E+01  3.00506E+01  2.88245E+01  2.83094E+01  2.75953E+01  2.71981E+01  2.66141E+01
   2.60951E+01  2.54423E+01  2.47268E+01  2.39280E+01  2.31881E+01  2.24087E+01  2.17059E+01  2.09684E+01  2.03198E+01  1.96352E+01
   1.90410E+01  1.83988E+01  1.78462E+01  1.72418E+01  1.67338E+01  1.61680E+01  1.57023E+01  1.51769E+01  1.47565E+01  1.42725E+01
   1.38940E+01  1.34571E+01  1.31247E+01  1.27404E+01  1.24741E+01  1.22122E+01  1.19942E+01  1.17772E+01  1.15931E+01  1.14380E+01
   1.12939E+01  1.12234E+01  1.11131E+01  1.11076E+01  1.10242E+01  1.10690E+01  1.10012E+01  1.10823E+01  1.10237E+01  1.11231E+01
   1.10660E+01  1.11645E+01  1.11057E+01  1.11900E+01  1.11259E+01  1.11829E+01  1.11119E+01  1.11359E+01  1.10662E+01  1.10521E+01
   1.09834E+01  1.09480E+01  1.08893E+01  1.08422E+01  1.07939E+01  1.07305E+01  1.06961E+01  1.06367E+01  1.06260E+01  1.05951E+01
   1.06026E+01  1.05827E+01  1.05975E+01  1.05785E+01  1.06136E+01  1.06584E+01  1.07024E+01  1.07447E+01  1.07816E+01  1.08135E+01
   1.08373E+01  1.08554E+01  1.08642E+01  1.08662E+01  1.08579E+01  1.08407E+01  1.08123E+01  1.07733E+01  1.07221E+01  1.06589E+01
   1.05823E+01  1.04914E+01  1.03857E+01  1.02661E+01  1.01299E+01  9.97903E+00  9.80917E+00  9.62435E+00  9.41891E+00  9.20121E+00
   8.95775E+00  8.70416E+00  8.42056E+00  8.12934E+00  7.80360E+00  7.47359E+00  7.10433E+00  6.73492E+00  6.31931E+00  5.90641E+00
   5.44276E+00  4.98404E+00  4.47059E+00  3.96199E+00  3.39552E+00  2.83437E+00  2.21545E+00  1.60051E+00  9.27364E-01  2.55661E-01
  -4.67895E-01 -1.19170E+00 -1.96234E+00 -2.73752E+00 -3.55366E+00 -4.37735E+00 -5.23164E+00 -6.09722E+00 -6.98565E+00 -7.88653E+00
  -8.79871E+00 -9.72447E+00 -1.06582E+01 -1.16015E+01 -1.25422E+01 -1.34822E+01 -1.44032E+01 -1.53013E+01 -1.61720E+01 -1.71290E+01
  -1.80619E+01 -1.90225E+01 -2.02057E+01 -2.11923E+01 -2.24866E+01 -2.33776E+01 -2.45864E+01 -2.50712E+01 -2.57764E+01 -2.61470E+01
  -2.72122E+01 -2.76679E+01 -2.89981E+01 -2.96565E+01 -3.15142E+01 -3.25487E+01 -3.43768E+01 -3.52064E+01 -3.71939E+01 -3.81457E+01
  -4.04884E+01 -4.17142E+01 -4.43028E+01 -4.57017E+01 -4.85100E+01 -4.99302E+01 -5.27645E+01 -5.41006E+01 -5.69090E+01 -5.80740E+01
  -6.07999E+01 -6.16952E+01 -6.42654E+01 -6.49041E+01 -6.70593E+01 -6.74292E+01 -6.90800E+01 -6.90480E+01 -7.02911E+01 -7.02338E+01
  -7.10651E+01 -7.10712E+01 -7.16896E+01 -7.20115E+01 -7.24328E+01 -7.29233E+01 -7.30771E+01 -7.37251E+01 -7.33607E+01 -7.44890E+01
  -7.43329E+01 -7.58664E+01 -7.57391E+01 -7.75867E+01 -7.79274E+01 -8.01655E+01 -8.03677E+01 -8.22854E+01 -8.24411E+01 -8.38715E+01
  -8.39495E+01 -8.49553E+01 -8.50084E+01 -8.56650E+01 -8.58551E+01 -8.60890E+01 -8.63547E+01 -8.62432E+01 -8.66242E+01 -8.62619E+01
  -8.67411E+01 -8.61019E+01 -8.66763E+01 -8.58995E+01 -8.64990E+01 -8.57431E+01 -8.63099E+01 -8.54567E+01 -8.59128E+01 -8.49988E+01
  -8.51913E+01 -8.41980E+01 -8.42680E+01 -8.33769E+01 -8.33084E+01 -8.23239E+01 -8.19220E+01 -8.07633E+01 -7.99741E+01 -7.86631E+01
  -7.76237E+01 -7.61799E+01 -7.47561E+01 -7.30172E+01 -7.11994E+01 -6.91780E+01 -6.69631E+01 -6.47302E+01 -6.22905E+01 -5.98207E+01
  -5.71828E+01 -5.45551E+01 -5.18123E+01 -4.91301E+01 -4.64100E+01 -4.37420E+01 -4.10731E+01 -3.84901E+01 -3.59572E+01 -3.35179E+01
  -3.11343E+01 -2.88061E+01 -2.64897E+01 -2.41161E+01 -2.15734E+01 -1.87053E+01 -1.52504E+01 -1.07854E+01 -4.69147E+00  2.35340E+00
   7.00676E+00  1.20401E+01  1.56172E+01  2.03521E+01  2.34225E+01  2.76871E+01  2.95172E+01  3.62200E+01  4.02168E+01  4.71741E+01
   5.04187E+01  5.64302E+01  5.89155E+01  6.50126E+01  6.80769E+01  7.41238E+01  7.79175E+01  8.37358E+01  8.82414E+01  9.34166E+01
   9.83338E+01  1.02518E+02  1.07989E+02  1.11176E+02  1.17330E+02  1.19895E+02  1.26162E+02  1.27589E+02  1.32902E+02  1.32499E+02
   1.36864E+02  1.35423E+02  1.38936E+02  1.37443E+02  1.39566E+02  1.37486E+02  1.38490E+02  1.36286E+02  1.37676E+02  1.37219E+02
   1.36542E+02  1.35451E+02  1.34006E+02  1.32798E+02  1.30363E+02  1.27785E+02  1.23924E+02  1.23196E+02  1.21177E+02  1.20777E+02
   1.18560E+02  1.17322E+02  1.14503E+02  1.12489E+02  1.09327E+02  1.06922E+02  1.03791E+02  1.01262E+02  9.83728E+01  9.58309E+01
   9.29709E+01  9.02989E+01  8.73879E+01  8.45263E+01  8.15117E+01  7.84409E+01  7.54009E+01  7.23828E+01  6.93988E+01  6.64677E+01
   6.36083E+01  6.08369E+01  5.81659E+01  5.56035E+01  5.31530E+01  5.08136E+01  4.85804E+01  4.64448E+01  4.43954E+01  4.24189E+01
   4.05005E+01  3.86253E+01  3.67787E+01  3.49477E+01  3.31209E+01  3.12893E+01  2.94469E+01  2.75904E+01  2.57194E+01  2.38364E+01
   2.19459E+01  2.00545E+01  1.81702E+01  1.63019E+01  1.44585E+01  1.26489E+01  1.08811E+01  9.16234E+00  7.49821E+00  5.89294E+00
   4.34915E+00  2.86798E+00  1.44907E+00  9.08160E-02 -1.20947E+00 -2.45533E+00 -3.65090E+00 -4.80067E+00 -5.90932E+00 -6.98151E+00
  -8.02175E+00 -9.03422E+00 -1.00227E+01 -1.09906E+01 -1.19408E+01 -1.28755E+01 -1.37965E+01 -1.47054E+01 -1.56028E+01 -1.64894E+01
  -1.73652E+01 -1.82300E+01 -1.90834E+01 -1.99246E+01 -2.07529E+01 -2.15673E+01 -2.23668E+01 -2.31502E+01 -2.39165E+01 -2.46646E+01
  -2.53935E+01 -2.61022E+01 -2.67898E+01 -2.74555E+01 -2.80986E+01 -2.87184E+01 -2.93145E+01 -2.98865E+01 -3.04340E+01 -3.09568E+01
  -3.14549E+01 -3.19282E+01 -3.23768E+01 -3.28008E+01 -3.32005E+01 -3.35761E+01 -3.39280E+01 -3.42565E+01 -3.45621E+01 -3.48452E+01
  -3.51064E+01 -3.53462E+01 -3.55651E+01 -3.57638E+01 -3.59427E+01 -3.61025E+01 -3.62438E+01 -3.63672E+01 -3.64733E+01 -3.65627E+01
  -3.66359E+01 -3.66936E+01 -3.67364E+01 -3.67647E+01 -3.67792E+01 -3.67805E+01 -3.67690E+01 -3.67453E+01 -3.67098E+01 -3.66631E+01
  -3.66057E+01 -3.65380E+01 -3.64605E+01 -3.63735E+01 -3.62776E+01 -3.61730E+01 -3.60603E+01 -3.59397E+01 -3.58116E+01 -3.56764E+01
  -3.55342E+01 -3.53855E+01 -3.52303E+01 -3.50690E+01 -3.49016E+01 -3.47283E+01 -3.45490E+01 -3.43635E+01
 NY background values follow
     8.607E+01    8.485E+01    8.363E+01    8.241E+01    8.119E+01    7.998E+01    7.877E+01    7.755E+01    7.634E+01    7.514E+01
     7.393E+01    7.273E+01    7.154E+01    7.034E+01    6.915E+01    6.797E+01    6.679E+01    6.561E+01    6.444E+01    6.327E+01
     6.211E+01    6.095E+01    5.980E+01    5.866E+01    5.752E+01    5.639E+01    5.527E+01    5.415E+01    5.304E+01    5.194E+01
     5.084E+01    4.976E+01    4.868E+01    4.761E+01    4.655E+01    4.550E+01    4.446E+01    4.343E+01    4.240E+01    4.139E+01
     4.039E+01    3.940E+01    3.842E+01    3.745E+01    3.649E+01    3.554E+01    3.461E+01    3.369E+01    3.278E+01    3.188E+01
     3.099E+01    3.012E+01    2.926E+01    2.842E+01    2.759E+01    2.677E+01    2.597E+01    2.518E+01    2.441E+01    2.365E+01
     2.290E+01    2.218E+01    2.147E+01    2.077E+01    2.009E+01    1.943E+01    1.878E+01    1.815E+01    1.754E+01    1.695E+01
     1.637E+01    1.581E+01    1.527E+01    1.475E+01    1.425E+01    1.377E+01    1.330E+01    1.286E+01    1.243E+01    1.203E+01
     1.164E+01    1.128E+01    1.093E+01    1.061E+01    1.031E+01    1.003E+01    9.770E+00    9.528E+00    9.305E+00    9.101E+00
     8.914E+00    8.743E+00    8.589E+00    8.451E+00    8.327E+00    8.218E+00    8.123E+00    8.040E+00    7.971E+00    7.913E+00
     7.867E+00    7.831E+00    7.806E+00    7.790E+00    7.783E+00    7.784E+00    7.793E+00    7.809E+00    7.831E+00    7.859E+00
     7.893E+00    7.931E+00    7.973E+00    8.018E+00    8.066E+00    8.116E+00    8.168E+00    8.221E+00    8.274E+00    8.327E+00
     8.379E+00    8.429E+00    8.477E+00    8.522E+00    8.564E+00    8.602E+00    8.636E+00    8.664E+00    8.687E+00    8.703E+00
     8.712E+00    8.713E+00    8.706E+00    8.690E+00    8.665E+00    8.630E+00    8.583E+00    8.526E+00    8.457E+00    8.375E+00
     8.280E+00    8.171E+00    8.047E+00    7.909E+00    7.755E+00    7.585E+00    7.398E+00    7.194E+00    6.971E+00    6.730E+00
     6.470E+00    6.189E+00    5.889E+00    5.567E+00    5.223E+00    4.857E+00    4.468E+00    4.055E+00    3.618E+00    3.157E+00
     2.670E+00    2.157E+00    1.617E+00    1.050E+00    4.553E-01   -1.680E-01   -8.203E-01   -1.502E+00   -2.212E+00   -2.951E+00
    -3.716E+00   -4.509E+00   -5.328E+00   -6.172E+00   -7.042E+00   -7.936E+00   -8.854E+00   -9.795E+00   -1.076E+01   -1.174E+01
    -1.275E+01   -1.378E+01   -1.483E+01   -1.589E+01   -1.698E+01   -1.808E+01   -1.920E+01   -2.034E+01   -2.150E+01   -2.267E+01
    -2.386E+01   -2.506E+01   -2.627E+01   -2.750E+01   -2.874E+01   -3.000E+01   -3.126E+01   -3.254E+01   -3.382E+01   -3.512E+01
    -3.642E+01   -3.774E+01   -3.906E+01   -4.039E+01   -4.172E+01   -4.306E+01   -4.441E+01   -4.576E+01   -4.712E+01   -4.848E+01
    -4.984E+01   -5.120E+01   -5.257E+01   -5.394E+01   -5.531E+01   -5.667E+01   -5.804E+01   -5.941E+01   -6.077E+01   -6.213E+01
    -6.349E+01   -6.485E+01   -6.620E+01   -6.754E+01   -6.888E+01   -7.022E+01   -7.154E+01   -7.286E+01   -7.417E+01   -7.547E+01
    -7.677E+01   -7.805E+01   -7.932E+01   -8.059E+01   -8.184E+01   -8.307E+01   -8.430E+01   -8.551E+01   -8.671E+01   -8.789E+01
    -8.906E+01   -9.021E+01   -9.134E+01   -9.246E+01   -9.356E+01   -9.464E+01   -9.570E+01   -9.674E+01   -9.776E+01   -9.876E+01
    -9.974E+01   -1.007E+02   -1.016E+02   -1.026E+02   -1.035E+02   -1.043E+02   -1.052E+02   -1.060E+02   -1.068E+02   -1.076E+02
    -1.084E+02   -1.092E+02   -1.099E+02   -1.106E+02   -1.113E+02   -1.120E+02   -1.127E+02   -1.133E+02   -1.140E+02   -1.146E+02
    -1.152E+02   -1.157E+02   -1.163E+02   -1.168E+02   -1.174E+02   -1.179E+02   -1.183E+02   -1.188E+02   -1.193E+02   -1.197E+02
    -1.201E+02   -1.205E+02   -1.209E+02   -1.213E+02   -1.217E+02   -1.220E+02   -1.223E+02   -1.227E+02   -1.230E+02   -1.233E+02
    -1.235E+02   -1.238E+02   -1.240E+02   -1.243E+02   -1.245E+02   -1.247E+02   -1.249E+02   -1.250E+02   -1.252E+02   -1.253E+02
    -1.255E+02   -1.256E+02   -1.257E+02   -1.258E+02   -1.259E+02   -1.260E+02   -1.260E+02   -1.261E+02   -1.261E+02   -1.261E+02
    -1.262E+02   -1.262E+02   -1.262E+02   -1.262E+02   -1.261E+02   -1.261E+02   -1.260E+02   -1.260E+02   -1.259E+02   -1.258E+02
    -1.258E+02   -1.257E+02   -1.256E+02   -1.254E+02   -1.253E+02   -1.252E+02   -1.251E+02   -1.249E+02   -1.248E+02   -1.246E+02
    -1.244E+02   -1.242E+02   -1.241E+02   -1.239E+02   -1.237E+02   -1.235E+02   -1.232E+02   -1.230E+02   -1.228E+02   -1.226E+02
    -1.223E+02   -1.221E+02   -1.218E+02   -1.215E+02   -1.213E+02   -1.210E+02   -1.207E+02   -1.204E+02   -1.201E+02   -1.198E+02
    -1.195E+02   -1.192E+02   -1.189E+02   -1.186E+02   -1.182E+02   -1.179E+02   -1.176E+02   -1.172E+02   -1.169E+02   -1.165E+02
    -1.161E+02   -1.158E+02   -1.154E+02   -1.150E+02   -1.146E+02   -1.143E+02   -1.139E+02   -1.135E+02   -1.131E+02   -1.127E+02
    -1.123E+02   -1.118E+02   -1.114E+02   -1.110E+02   -1.106E+02   -1.101E+02   -1.097E+02   -1.093E+02   -1.088E+02   -1.084E+02
    -1.079E+02   -1.075E+02   -1.070E+02   -1.066E+02   -1.061E+02   -1.056E+02   -1.052E+02   -1.047E+02   -1.042E+02   -1.037E+02
    -1.032E+02   -1.028E+02   -1.023E+02   -1.018E+02   -1.013E+02   -1.008E+02   -1.003E+02   -9.980E+01   -9.930E+01   -9.880E+01
    -9.829E+01   -9.779E+01   -9.728E+01   -9.677E+01   -9.625E+01   -9.574E+01   -9.522E+01   -9.471E+01   -9.419E+01   -9.367E+01
    -9.315E+01   -9.262E+01   -9.210E+01   -9.158E+01   -9.105E+01   -9.052E+01   -9.000E+01   -8.947E+01   -8.894E+01   -8.841E+01
    -8.788E+01   -8.735E+01   -8.682E+01   -8.629E+01   -8.576E+01   -8.523E+01   -8.470E+01   -8.416E+01   -8.363E+01   -8.310E+01
    -8.257E+01   -8.203E+01   -8.150E+01   -8.097E+01   -8.043E+01   -7.990E+01   -7.937E+01   -7.884E+01   -7.830E+01   -7.777E+01
    -7.724E+01   -7.671E+01   -7.618E+01   -7.565E+01   -7.512E+01   -7.459E+01   -7.406E+01   -7.353E+01   -7.300E+01   -7.248E+01
    -7.195E+01   -7.143E+01   -7.090E+01   -7.038E+01   -6.986E+01   -6.933E+01   -6.881E+01   -6.830E+01   -6.778E+01   -6.726E+01
    -6.675E+01   -6.623E+01   -6.572E+01   -6.521E+01   -6.470E+01   -6.419E+01   -6.368E+01   -6.317E+01   -6.267E+01   -6.217E+01
    -6.167E+01   -6.117E+01   -6.067E+01   -6.018E+01   -5.968E+01   -5.919E+01   -5.870E+01   -5.822E+01   -5.773E+01   -5.725E+01
    -5.677E+01   -5.629E+01   -5.581E+01   -5.534E+01   -5.486E+01   -5.439E+01   -5.393E+01   -5.346E+01   -5.300E+01   -5.254E+01
    -5.208E+01   -5.163E+01   -5.118E+01   -5.073E+01   -5.028E+01   -4.984E+01   -4.940E+01   -4.896E+01
 Ala      Conc. = 3.38E+04
