 LCModel (Version 6.3-1L) Copyright: S.W. Provencher.          Ref.: Magn. Reson. Med. 30:672-679 (1993).                
 Slice#2 Row#5 Col#5  PD_05_press_1_raw_act
 36 lines in following concentration table = NCONC+1
    Conc.  %SD /Cr+PCr  Metabolite                                         
    0.000 999%   0.000 Ala                                                 
    0.000 999%   0.000 Asp                                                 
  541.830  30%   0.399 Cr                                                  
  814.531  21%   0.601 PCr                                                 
    0.000 999%   0.000 GABA                                                
    0.000 999%   0.000 Glc                                                 
  641.340  28%   0.473 Gln                                                 
 1.65E+03  12%   1.215 Glu                                                 
  654.667   3%   0.483 GPC                                                 
    0.000 999%   0.000 PCh                                                 
  498.875  12%   0.368 GSH                                                 
 1.45E+03  16%   1.072 Ins                                                 
    0.000 999%   0.000 Lac                                                 
 2.44E+03   3%   1.802 NAA                                                 
  218.627  40%   0.161 NAAG                                                
  136.827  18%   0.101 Scyllo                                              
    0.000 999%   0.000 Tau                                                 
  133.841  64% 9.9E-02 -CrCH2                                              
  654.667   3%   0.483 GPC+PCh                                             
 2.66E+03   2%   1.963 NAA+NAAG                                            
 1.36E+03   3%   1.000 Cr+PCr                                              
 2.29E+03  13%   1.688 Glu+Gln                                             
  468.677 111%   0.346 Lip13a                                              
   93.708 143% 6.9E-02 Lip13b                                              
    3.682 999% 2.7E-03 Lip09                                               
 1.35E+03  18%   0.992 MM09                                                
   22.505 629% 1.7E-02 Lip20                                               
 2.64E+03  14%   1.945 MM20                                                
  621.267  31%   0.458 MM12                                                
 1.19E+03  21%   0.878 MM14                                                
  442.169  43%   0.326 MM17                                                
  562.385  75%   0.415 Lip13a+Lip13b                                       
 2.37E+03  19%   1.751 MM14+Lip13a+Lip13b+MM12                             
 1.35E+03  14%   0.995 MM09+Lip09                                          
 2.66E+03  13%   1.962 MM20+Lip20                                          
   6 lines in following misc. output table
  FWHM = 0.054 ppm    S/N =  16                                            
  Data shift =-0.015 ppm                                                   
  Ph: -50 deg     -14.8 deg/ppm                                            
  alphaB,S = 6.3E-01,   1.0E+02                                            
   14 spline knots.   Ns = 7(1)                                            
  (13) 2 infls.   (15) 1 extrs.                                            
  498 points on ppm-axis = NY
      4.000000     3.992357     3.984714     3.977070     3.969427     3.961784     3.954141     3.946497     3.938854     3.931211
      3.923568     3.915925     3.908281     3.900638     3.892995     3.885352     3.877708     3.870065     3.862422     3.854779
      3.847136     3.839492     3.831849     3.824206     3.816563     3.808919     3.801276     3.793633     3.785990     3.778347
      3.770703     3.763060     3.755417     3.747774     3.740130     3.732487     3.724844     3.717201     3.709558     3.701914
      3.694271     3.686628     3.678985     3.671341     3.663698     3.656055     3.648412     3.640769     3.633125     3.625482
      3.617839     3.610196     3.602552     3.594909     3.587266     3.579623     3.571980     3.564336     3.556693     3.549050
      3.541407     3.533763     3.526120     3.518477     3.510834     3.503191     3.495547     3.487904     3.480261     3.472618
      3.464974     3.457331     3.449688     3.442045     3.434402     3.426758     3.419115     3.411472     3.403829     3.396185
      3.388542     3.380899     3.373256     3.365613     3.357969     3.350326     3.342683     3.335040     3.327396     3.319753
      3.312110     3.304467     3.296824     3.289180     3.281537     3.273894     3.266251     3.258607     3.250964     3.243321
      3.235678     3.228034     3.220391     3.212748     3.205105     3.197462     3.189818     3.182175     3.174532     3.166889
      3.159245     3.151602     3.143959     3.136316     3.128673     3.121029     3.113386     3.105743     3.098100     3.090456
      3.082813     3.075170     3.067527     3.059884     3.052240     3.044597     3.036954     3.029311     3.021667     3.014024
      3.006381     2.998738     2.991095     2.983451     2.975808     2.968165     2.960522     2.952878     2.945235     2.937592
      2.929949     2.922306     2.914662     2.907019     2.899376     2.891733     2.884089     2.876446     2.868803     2.861160
      2.853517     2.845873     2.838230     2.830587     2.822944     2.815300     2.807657     2.800014     2.792371     2.784728
      2.777084     2.769441     2.761798     2.754155     2.746511     2.738868     2.731225     2.723582     2.715939     2.708295
      2.700652     2.693009     2.685366     2.677722     2.670079     2.662436     2.654793     2.647150     2.639506     2.631863
      2.624220     2.616577     2.608933     2.601290     2.593647     2.586004     2.578361     2.570717     2.563074     2.555431
      2.547788     2.540144     2.532501     2.524858     2.517215     2.509572     2.501928     2.494285     2.486642     2.478999
      2.471355     2.463712     2.456069     2.448426     2.440783     2.433139     2.425496     2.417853     2.410210     2.402566
      2.394923     2.387280     2.379637     2.371994     2.364350     2.356707     2.349064     2.341421     2.333777     2.326134
      2.318491     2.310848     2.303205     2.295561     2.287918     2.280275     2.272632     2.264988     2.257345     2.249702
      2.242059     2.234416     2.226772     2.219129     2.211486     2.203843     2.196199     2.188556     2.180913     2.173270
      2.165627     2.157983     2.150340     2.142697     2.135054     2.127410     2.119767     2.112124     2.104481     2.096838
      2.089194     2.081551     2.073908     2.066265     2.058621     2.050978     2.043335     2.035692     2.028049     2.020405
      2.012762     2.005119     1.997476     1.989833     1.982190     1.974546     1.966903     1.959260     1.951617     1.943974
      1.936331     1.928688     1.921045     1.913402     1.905759     1.898115     1.890472     1.882829     1.875186     1.867543
      1.859900     1.852257     1.844614     1.836971     1.829327     1.821684     1.814041     1.806398     1.798755     1.791112
      1.783469     1.775826     1.768183     1.760540     1.752896     1.745253     1.737610     1.729967     1.722324     1.714681
      1.707038     1.699395     1.691752     1.684108     1.676465     1.668822     1.661179     1.653536     1.645893     1.638250
      1.630607     1.622964     1.615321     1.607677     1.600034     1.592391     1.584748     1.577105     1.569462     1.561819
      1.554176     1.546533     1.538890     1.531246     1.523603     1.515960     1.508317     1.500674     1.493031     1.485388
      1.477745     1.470102     1.462458     1.454815     1.447172     1.439529     1.431886     1.424243     1.416600     1.408957
      1.401314     1.393671     1.386027     1.378384     1.370741     1.363098     1.355455     1.347812     1.340169     1.332526
      1.324883     1.317240     1.309596     1.301953     1.294310     1.286667     1.279024     1.271381     1.263738     1.256095
      1.248452     1.240808     1.233165     1.225522     1.217879     1.210236     1.202593     1.194950     1.187307     1.179664
      1.172021     1.164377     1.156734     1.149091     1.141448     1.133805     1.126162     1.118519     1.110876     1.103233
      1.095590     1.087946     1.080303     1.072660     1.065017     1.057374     1.049731     1.042088     1.034445     1.026802
      1.019158     1.011515     1.003872     0.996229     0.988586     0.980943     0.973300     0.965657     0.958014     0.950371
      0.942727     0.935084     0.927441     0.919798     0.912155     0.904512     0.896869     0.889226     0.881583     0.873940
      0.866296     0.858653     0.851010     0.843367     0.835724     0.828081     0.820438     0.812795     0.805152     0.797508
      0.789865     0.782222     0.774579     0.766936     0.759293     0.751650     0.744007     0.736364     0.728721     0.721077
      0.713434     0.705791     0.698148     0.690505     0.682862     0.675219     0.667576     0.659933     0.652290     0.644646
      0.637003     0.629360     0.621717     0.614074     0.606431     0.598788     0.591145     0.583502     0.575858     0.568215
      0.560572     0.552929     0.545286     0.537643     0.530000     0.522357     0.514714     0.507071     0.499427     0.491784
      0.484141     0.476498     0.468855     0.461212     0.453569     0.445925     0.438282     0.430639     0.422996     0.415353
      0.407710     0.400067     0.392424     0.384780     0.377137     0.369494     0.361851     0.354208     0.346565     0.338922
      0.331278     0.323635     0.315992     0.308349     0.300706     0.293063     0.285420     0.277777     0.270133     0.262490
      0.254847     0.247204     0.239561     0.231918     0.224275     0.216631     0.208988     0.201345
 NY phased data points follow
  -1.21753E+02 -1.18699E+02 -1.16721E+02 -1.06677E+02 -1.03421E+02 -9.87333E+01 -9.25351E+01 -8.71033E+01 -8.36600E+01 -8.12281E+01
  -7.59861E+01 -7.73319E+01 -8.15773E+01 -7.82362E+01 -9.04992E+01 -9.26275E+01 -9.42400E+01 -9.60600E+01 -9.77220E+01 -9.71103E+01
  -9.15944E+01 -9.40313E+01 -8.94706E+01 -8.95733E+01 -8.65915E+01 -8.73319E+01 -8.42912E+01 -8.28042E+01 -8.15969E+01 -7.80854E+01
  -7.96555E+01 -7.79033E+01 -7.58931E+01 -7.51663E+01 -7.66510E+01 -7.83579E+01 -7.88856E+01 -7.79517E+01 -7.53135E+01 -7.42562E+01
  -7.50663E+01 -7.52602E+01 -6.95517E+01 -6.96678E+01 -6.77702E+01 -6.61370E+01 -6.47583E+01 -6.12532E+01 -6.01468E+01 -6.42425E+01
  -6.72989E+01 -6.66236E+01 -6.84736E+01 -6.88489E+01 -6.89704E+01 -6.67592E+01 -6.50837E+01 -6.54113E+01 -6.67776E+01 -6.16214E+01
  -6.63774E+01 -6.45836E+01 -6.99792E+01 -6.79370E+01 -6.83681E+01 -6.94740E+01 -6.97246E+01 -6.74685E+01 -6.70530E+01 -6.37658E+01
  -5.96431E+01 -5.95445E+01 -5.96274E+01 -6.11877E+01 -6.02150E+01 -5.92419E+01 -6.15240E+01 -5.71419E+01 -5.81686E+01 -5.80586E+01
  -5.55024E+01 -5.73755E+01 -5.12970E+01 -5.05414E+01 -5.30039E+01 -5.00492E+01 -5.28153E+01 -5.05754E+01 -5.00048E+01 -4.69291E+01
  -4.65111E+01 -4.83167E+01 -4.50130E+01 -4.37272E+01 -4.71164E+01 -3.99712E+01 -3.78814E+01 -3.22719E+01 -2.71752E+01 -1.61057E+01
  -9.40373E+00  1.96011E+00  6.38233E+00  8.57317E+00  1.71780E+00 -3.01525E+00 -1.52668E+01 -2.34969E+01 -3.17927E+01 -3.62380E+01
  -3.88528E+01 -3.98467E+01 -3.65453E+01 -3.93131E+01 -4.02450E+01 -3.66750E+01 -4.00224E+01 -3.85790E+01 -3.66502E+01 -3.75926E+01
  -3.59251E+01 -2.87972E+01 -2.76711E+01 -1.98147E+01 -1.04569E+01 -7.64327E+00  5.45819E+00  8.56384E-01  2.78040E+00 -1.48767E+00
  -1.04769E+01 -1.57188E+01 -2.61811E+01 -3.14788E+01 -3.32843E+01 -3.55724E+01 -3.49218E+01 -3.88782E+01 -3.74038E+01 -3.79027E+01
  -3.89159E+01 -3.56336E+01 -3.67731E+01 -3.89929E+01 -3.66693E+01 -3.15368E+01 -3.57479E+01 -3.40322E+01 -3.60526E+01 -3.58204E+01
  -3.60339E+01 -3.68462E+01 -3.45308E+01 -3.66862E+01 -3.45507E+01 -3.37058E+01 -3.56856E+01 -3.63988E+01 -3.68797E+01 -3.26990E+01
  -3.51390E+01 -3.64702E+01 -3.51393E+01 -3.68654E+01 -3.59786E+01 -3.62839E+01 -3.15032E+01 -3.49253E+01 -3.46676E+01 -3.17863E+01
  -3.42813E+01 -3.46162E+01 -3.84630E+01 -3.93392E+01 -3.93882E+01 -3.79759E+01 -4.01479E+01 -3.80799E+01 -3.81211E+01 -3.74228E+01
  -3.67700E+01 -3.63288E+01 -3.85279E+01 -3.70009E+01 -3.64863E+01 -3.36479E+01 -3.41258E+01 -2.93873E+01 -2.73614E+01 -2.47138E+01
  -2.05327E+01 -2.23108E+01 -1.69086E+01 -2.07074E+01 -1.60518E+01 -1.88547E+01 -1.93916E+01 -2.43848E+01 -2.63154E+01 -2.23685E+01
  -2.12887E+01 -1.95342E+01 -1.96385E+01 -1.50310E+01 -1.85401E+01 -1.87875E+01 -2.03141E+01 -1.97810E+01 -1.91074E+01 -2.49387E+01
  -2.52217E+01 -2.03313E+01 -1.72214E+01 -1.60731E+01 -1.15063E+01 -1.21765E+01 -6.18137E+00 -9.42385E+00 -1.07317E+01 -1.24859E+01
  -1.21123E+01 -2.06592E+01 -1.96967E+01 -2.13948E+01 -1.74661E+01 -1.66431E+01 -1.42956E+01 -9.50041E+00 -7.68339E+00 -7.79700E+00
  -7.19879E+00 -7.58010E+00 -8.37673E+00 -9.48212E+00 -8.78293E+00 -8.36465E+00 -4.87220E+00 -6.24169E+00 -4.46972E+00 -9.08514E+00
  -8.39015E+00 -9.90517E+00 -7.62638E+00 -6.65717E+00 -8.80746E+00 -4.33278E+00 -5.27496E+00 -2.72313E+00 -5.40539E+00 -3.49160E+00
  -8.28187E-01  6.51360E+00  6.19088E+00  1.34889E+01  1.55384E+01  2.08892E+01  3.23237E+01  4.44417E+01  5.64232E+01  6.94855E+01
   7.34666E+01  7.66104E+01  6.95842E+01  5.86656E+01  4.71728E+01  3.17855E+01  1.71310E+01  6.40979E+00  3.35692E+00 -1.04817E+00
   3.28080E+00 -3.00125E+00 -4.70812E-01 -5.19388E-01 -8.71935E-01 -4.41136E+00 -3.43339E+00 -3.39191E+00 -6.06405E+00 -3.73383E+00
  -5.25499E+00 -7.69446E+00 -7.60763E+00 -5.71097E+00 -8.06411E+00 -5.64364E+00 -8.03867E+00 -5.41588E+00 -6.67999E+00 -5.32622E+00
  -3.98090E+00 -6.65107E+00 -3.76207E+00 -7.01447E+00 -2.82146E+00 -6.58325E+00 -6.78369E+00 -5.03913E+00 -5.72041E+00 -5.27355E+00
  -5.00866E+00 -1.49935E+00 -6.10081E+00 -2.29609E+00 -2.22674E+00 -2.54772E+00  2.68543E+00 -3.29045E+00  1.61534E+00 -8.55689E-01
   7.34749E-01  4.89334E-01  9.81047E-01 -2.74403E-01  4.25417E+00 -9.55014E-01  2.10244E+00  6.05327E-01  2.05357E+00  7.37962E-01
  -2.15407E+00  6.28888E-01 -7.88587E-01  4.49940E+00  2.90091E+00  3.49497E+00  3.28182E+00  3.52766E+00  2.74671E+00  6.04265E+00
   2.34176E+00  7.43988E+00  4.79404E+00  5.73016E+00  5.51510E+00  4.85017E+00  7.00156E+00  4.38352E+00  5.45847E+00  3.47857E+00
   3.84757E+00  1.71771E+00  2.63753E+00  3.46276E+00  4.16646E+00  5.53362E+00  6.56021E+00  2.77568E+00  3.07368E+00  3.75045E+00
   6.78575E+00  6.74327E+00  6.83117E+00  4.29873E+00  8.71900E+00  9.82893E+00  5.46888E+00  8.70489E+00  8.73734E+00  6.46870E+00
   3.67102E+00  3.68224E+00  7.65162E+00  5.24847E+00  5.00138E+00  5.22390E+00  5.50174E+00  7.43161E+00  1.09942E+01  1.06143E+01
   8.05230E+00  6.70656E+00  5.87506E+00  5.10491E+00  6.44728E+00  7.03525E+00  5.05404E+00  4.63897E+00  6.42922E+00  3.93843E+00
   3.87757E+00  3.94716E+00  6.03295E+00  3.78629E+00  6.96956E+00  3.73132E+00  3.16064E+00  4.47403E+00  4.96057E+00  4.72217E+00
   4.24053E+00  7.24378E+00  5.02437E+00  4.32486E+00  5.67220E+00  9.68990E+00  1.22286E+01  1.31255E+01  9.10075E+00  1.06802E+01
   7.61150E+00  6.10540E+00  1.07541E+01  9.15452E+00  8.70851E+00  1.27012E+01  8.92114E+00  1.29992E+01  1.29068E+01  1.36332E+01
   1.57819E+01  1.05272E+01  1.17265E+01  1.27493E+01  1.16838E+01  1.18479E+01  1.02962E+01  1.09752E+01  9.84129E+00  9.04134E+00
   9.45686E+00  5.86321E+00  1.09546E+01  5.40502E+00  9.72468E+00  6.73818E+00  4.73151E+00  6.41788E+00  6.34004E+00  7.03323E+00
   7.33450E+00  7.79985E+00  6.67288E+00  5.96028E+00  4.67424E+00  1.01299E+00  4.42828E+00  5.40005E+00  7.39504E+00  1.57644E+00
   2.09447E+00  3.95693E+00  4.25806E+00  2.78495E+00  5.60679E+00  3.68968E+00  5.79318E+00  5.82835E+00  4.01814E+00  5.33747E+00
   5.05822E+00  9.47569E-01  4.25715E+00  6.61385E+00  5.63758E+00  5.56714E+00  2.08508E+00  4.07010E+00  5.24490E+00  3.62398E+00
   5.06075E+00  2.43395E+00  7.65717E+00  6.72378E+00  1.58393E+00  4.64699E+00  3.94391E-01  3.61182E+00  7.44064E+00  3.50034E+00
   2.31567E+00  3.56645E+00  5.01941E+00  3.50168E+00  7.69148E+00  4.67772E+00  6.51158E+00  4.03219E+00  6.42848E+00  3.31438E+00
   1.71079E+00  5.76091E+00  8.02032E+00  6.03364E+00  4.64910E+00  5.34762E+00  8.59897E+00  6.96794E+00  5.02628E+00  7.46657E+00
   6.39595E+00  3.29138E+00  4.54958E+00  5.02921E+00  5.91324E+00  5.33689E+00  3.24700E+00  5.27530E+00
 NY points of the fit to the data follow
  -1.12659E+02 -1.11589E+02 -1.09489E+02 -1.06554E+02 -1.02770E+02 -9.83558E+01 -9.34119E+01 -8.82086E+01 -8.33854E+01 -7.97535E+01
  -7.79404E+01 -7.81630E+01 -8.01501E+01 -8.33271E+01 -8.69430E+01 -9.01958E+01 -9.25866E+01 -9.40435E+01 -9.45903E+01 -9.46153E+01
  -9.43017E+01 -9.39076E+01 -9.32740E+01 -9.21235E+01 -9.08197E+01 -8.91936E+01 -8.70384E+01 -8.44436E+01 -8.15816E+01 -7.88268E+01
  -7.65243E+01 -7.49724E+01 -7.43319E+01 -7.46118E+01 -7.56241E+01 -7.70688E+01 -7.85128E+01 -7.97538E+01 -8.04663E+01 -8.01151E+01
  -7.87852E+01 -7.68022E+01 -7.43658E+01 -7.16197E+01 -6.88326E+01 -6.64565E+01 -6.48767E+01 -6.43079E+01 -6.47028E+01 -6.58590E+01
  -6.74808E+01 -6.91013E+01 -7.02321E+01 -7.06619E+01 -7.03854E+01 -6.95721E+01 -6.84022E+01 -6.71197E+01 -6.59737E+01 -6.51200E+01
  -6.46362E+01 -6.45065E+01 -6.46311E+01 -6.48474E+01 -6.48933E+01 -6.46377E+01 -6.40626E+01 -6.31900E+01 -6.21144E+01 -6.10054E+01
  -5.99982E+01 -5.92042E+01 -5.86496E+01 -5.82883E+01 -5.80530E+01 -5.78726E+01 -5.76828E+01 -5.74213E+01 -5.70682E+01 -5.66225E+01
  -5.58488E+01 -5.49714E+01 -5.40950E+01 -5.30881E+01 -5.19533E+01 -5.08067E+01 -4.97873E+01 -4.90771E+01 -4.87238E+01 -4.86548E+01
  -4.87916E+01 -4.89963E+01 -4.90886E+01 -4.88205E+01 -4.77152E+01 -4.45009E+01 -3.93391E+01 -3.34079E+01 -2.60285E+01 -1.69461E+01
  -7.20802E+00  1.41766E+00  6.89958E+00  7.80085E+00  4.04699E+00 -3.43282E+00 -1.32127E+01 -2.34541E+01 -3.21110E+01 -3.80046E+01
  -4.15600E+01 -4.32649E+01 -4.36275E+01 -4.35478E+01 -4.33163E+01 -4.30103E+01 -4.26428E+01 -4.21745E+01 -4.14352E+01 -3.95607E+01
  -3.57094E+01 -3.11910E+01 -2.58575E+01 -1.91429E+01 -1.15452E+01 -4.26428E+00  1.22856E+00  3.50021E+00  2.06985E+00 -2.50876E+00
  -9.26955E+00 -1.70492E+01 -2.43437E+01 -2.99129E+01 -3.36461E+01 -3.60448E+01 -3.71044E+01 -3.74121E+01 -3.72440E+01 -3.66846E+01
  -3.58920E+01 -3.50990E+01 -3.44807E+01 -3.41330E+01 -3.40780E+01 -3.42282E+01 -3.44683E+01 -3.47198E+01 -3.49077E+01 -3.50199E+01
  -3.50690E+01 -3.50666E+01 -3.50197E+01 -3.49444E+01 -3.49042E+01 -3.48706E+01 -3.48097E+01 -3.47642E+01 -3.47271E+01 -3.47552E+01
  -3.48388E+01 -3.48424E+01 -3.47017E+01 -3.44605E+01 -3.41953E+01 -3.39886E+01 -3.39147E+01 -3.40157E+01 -3.42886E+01 -3.46793E+01
  -3.50893E+01 -3.53410E+01 -3.54685E+01 -3.55695E+01 -3.56594E+01 -3.56663E+01 -3.54933E+01 -3.51562E+01 -3.47577E+01 -3.43593E+01
  -3.40261E+01 -3.36997E+01 -3.32875E+01 -3.28102E+01 -3.21857E+01 -3.12925E+01 -3.01220E+01 -2.86862E+01 -2.70732E+01 -2.54809E+01
  -2.41319E+01 -2.32332E+01 -2.28216E+01 -2.28827E+01 -2.32720E+01 -2.37080E+01 -2.39273E+01 -2.36849E+01 -2.28981E+01 -2.16721E+01
  -2.01818E+01 -1.86750E+01 -1.73883E+01 -1.66869E+01 -1.66203E+01 -1.72050E+01 -1.85005E+01 -2.02254E+01 -2.18677E+01 -2.29413E+01
  -2.30620E+01 -2.22897E+01 -2.05712E+01 -1.80322E+01 -1.51743E+01 -1.27599E+01 -1.14972E+01 -1.15888E+01 -1.28041E+01 -1.50268E+01
  -1.77788E+01 -2.02315E+01 -2.16717E+01 -2.16537E+01 -2.02766E+01 -1.79652E+01 -1.51311E+01 -1.23899E+01 -1.02505E+01 -8.97905E+00
  -8.36616E+00 -8.12016E+00 -8.03642E+00 -7.85514E+00 -7.42035E+00 -6.82053E+00 -6.28975E+00 -5.94461E+00 -5.83854E+00 -6.00574E+00
  -6.41588E+00 -6.87628E+00 -7.12743E+00 -6.96697E+00 -6.34213E+00 -5.39160E+00 -4.22456E+00 -2.98300E+00 -1.78470E+00 -5.46700E-01
   6.17028E-01  1.89250E+00  3.85467E+00  8.40396E+00  1.62001E+01  2.46649E+01  3.41964E+01  4.54626E+01  5.74179E+01  6.79652E+01
   7.46567E+01  7.54858E+01  7.02215E+01  5.99542E+01  4.63160E+01  3.15247E+01  1.82880E+01  8.69063E+00  2.48895E+00 -1.22596E+00
  -2.75216E+00 -3.42625E+00 -3.78993E+00 -3.98763E+00 -4.08601E+00 -4.16127E+00 -4.24546E+00 -4.35945E+00 -4.51767E+00 -4.70981E+00
  -4.90250E+00 -5.06426E+00 -5.18321E+00 -5.25839E+00 -5.29445E+00 -5.29964E+00 -5.28609E+00 -5.26214E+00 -5.22750E+00 -5.17381E+00
  -5.09609E+00 -4.99190E+00 -4.86176E+00 -4.70707E+00 -4.53281E+00 -4.34418E+00 -4.14410E+00 -3.93238E+00 -3.70716E+00 -3.46573E+00
  -3.20753E+00 -2.93331E+00 -2.64643E+00 -2.35186E+00 -2.05550E+00 -1.76335E+00 -1.47970E+00 -1.20701E+00 -9.47392E-01 -7.01257E-01
  -4.68111E-01 -2.47342E-01 -3.76962E-02  1.62784E-01  3.56486E-01  5.46146E-01  7.34819E-01  9.25542E-01  1.12120E+00  1.32411E+00
   1.53590E+00  1.75730E+00  1.98825E+00  2.22771E+00  2.47387E+00  2.72404E+00  2.97494E+00  3.22271E+00  3.46338E+00  3.69290E+00
   3.90751E+00  4.10377E+00  4.27889E+00  4.43079E+00  4.55835E+00  4.66137E+00  4.74066E+00  4.79790E+00  4.83575E+00  4.85770E+00
   4.86823E+00  4.87255E+00  4.87668E+00  4.88728E+00  4.91157E+00  4.95691E+00  5.03031E+00  5.13740E+00  5.28146E+00  5.46213E+00
   5.67469E+00  5.90961E+00  6.15309E+00  6.38831E+00  6.59781E+00  6.76597E+00  6.88162E+00  6.93960E+00  6.94132E+00  6.89383E+00
   6.80817E+00  6.69682E+00  6.57164E+00  6.44200E+00  6.31403E+00  6.19043E+00  6.07136E+00  5.95528E+00  5.84015E+00  5.72411E+00
   5.60615E+00  5.48621E+00  5.36531E+00  5.24529E+00  5.12866E+00  5.01825E+00  4.91708E+00  4.82808E+00  4.75419E+00  4.69811E+00
   4.66244E+00  4.64948E+00  4.66139E+00  4.70012E+00  4.76758E+00  4.86548E+00  4.99547E+00  5.15895E+00  5.35719E+00  5.59110E+00
   5.86132E+00  6.16788E+00  6.51024E+00  6.88693E+00  7.29556E+00  7.73262E+00  8.19346E+00  8.67207E+00  9.16126E+00  9.65259E+00
   1.01367E+01  1.06035E+01  1.10424E+01  1.14430E+01  1.17951E+01  1.20895E+01  1.23183E+01  1.24753E+01  1.25565E+01  1.25599E+01
   1.24860E+01  1.23374E+01  1.21193E+01  1.18382E+01  1.15028E+01  1.11223E+01  1.07070E+01  1.02671E+01  9.81283E+00  9.35364E+00
   8.89819E+00  8.45390E+00  8.02700E+00  7.62234E+00  7.24355E+00  6.89296E+00  6.57183E+00  6.28039E+00  6.01819E+00  5.78410E+00
   5.57663E+00  5.39389E+00  5.23390E+00  5.09452E+00  4.97374E+00  4.86955E+00  4.78015E+00  4.70377E+00  4.63889E+00  4.58408E+00
   4.53815E+00  4.50001E+00  4.46875E+00  4.44351E+00  4.42360E+00  4.40837E+00  4.39736E+00  4.39006E+00  4.38613E+00  4.38517E+00
   4.38692E+00  4.39109E+00  4.39752E+00  4.40598E+00  4.41632E+00  4.42833E+00  4.44189E+00  4.45685E+00  4.47315E+00  4.49063E+00
   4.50924E+00  4.52883E+00  4.54938E+00  4.57079E+00  4.59305E+00  4.61605E+00  4.63976E+00  4.66409E+00  4.68905E+00  4.71457E+00
   4.74065E+00  4.76719E+00  4.79421E+00  4.82163E+00  4.84949E+00  4.87771E+00  4.90632E+00  4.93522E+00  4.96444E+00  4.99392E+00
   5.02369E+00  5.05370E+00  5.08395E+00  5.11439E+00  5.14504E+00  5.17585E+00  5.20687E+00  5.23803E+00  5.26935E+00  5.30077E+00
   5.33232E+00  5.36398E+00  5.39578E+00  5.42766E+00  5.45965E+00  5.49169E+00  5.52384E+00  5.55607E+00
 NY background values follow
    -1.173E+02   -1.164E+02   -1.156E+02   -1.147E+02   -1.139E+02   -1.130E+02   -1.121E+02   -1.113E+02   -1.104E+02   -1.096E+02
    -1.087E+02   -1.079E+02   -1.070E+02   -1.062E+02   -1.053E+02   -1.045E+02   -1.036E+02   -1.028E+02   -1.020E+02   -1.011E+02
    -1.003E+02   -9.947E+01   -9.864E+01   -9.782E+01   -9.701E+01   -9.619E+01   -9.538E+01   -9.458E+01   -9.378E+01   -9.298E+01
    -9.218E+01   -9.139E+01   -9.061E+01   -8.982E+01   -8.905E+01   -8.827E+01   -8.751E+01   -8.674E+01   -8.598E+01   -8.523E+01
    -8.448E+01   -8.374E+01   -8.300E+01   -8.227E+01   -8.154E+01   -8.082E+01   -8.010E+01   -7.939E+01   -7.868E+01   -7.799E+01
    -7.729E+01   -7.661E+01   -7.592E+01   -7.525E+01   -7.458E+01   -7.391E+01   -7.326E+01   -7.260E+01   -7.196E+01   -7.132E+01
    -7.068E+01   -7.006E+01   -6.943E+01   -6.882E+01   -6.821E+01   -6.760E+01   -6.700E+01   -6.641E+01   -6.583E+01   -6.525E+01
    -6.467E+01   -6.411E+01   -6.355E+01   -6.299E+01   -6.244E+01   -6.190E+01   -6.136E+01   -6.083E+01   -6.031E+01   -5.979E+01
    -5.928E+01   -5.878E+01   -5.828E+01   -5.779E+01   -5.730E+01   -5.683E+01   -5.635E+01   -5.589E+01   -5.543E+01   -5.498E+01
    -5.453E+01   -5.409E+01   -5.366E+01   -5.323E+01   -5.281E+01   -5.240E+01   -5.199E+01   -5.159E+01   -5.119E+01   -5.080E+01
    -5.041E+01   -5.004E+01   -4.966E+01   -4.930E+01   -4.893E+01   -4.858E+01   -4.822E+01   -4.788E+01   -4.754E+01   -4.720E+01
    -4.687E+01   -4.654E+01   -4.622E+01   -4.590E+01   -4.559E+01   -4.528E+01   -4.497E+01   -4.467E+01   -4.437E+01   -4.408E+01
    -4.379E+01   -4.351E+01   -4.323E+01   -4.295E+01   -4.267E+01   -4.240E+01   -4.213E+01   -4.187E+01   -4.161E+01   -4.135E+01
    -4.110E+01   -4.084E+01   -4.059E+01   -4.035E+01   -4.010E+01   -3.986E+01   -3.962E+01   -3.938E+01   -3.915E+01   -3.891E+01
    -3.868E+01   -3.845E+01   -3.823E+01   -3.800E+01   -3.778E+01   -3.755E+01   -3.733E+01   -3.711E+01   -3.689E+01   -3.667E+01
    -3.645E+01   -3.623E+01   -3.601E+01   -3.580E+01   -3.558E+01   -3.536E+01   -3.514E+01   -3.493E+01   -3.471E+01   -3.449E+01
    -3.427E+01   -3.405E+01   -3.383E+01   -3.361E+01   -3.339E+01   -3.317E+01   -3.294E+01   -3.271E+01   -3.249E+01   -3.226E+01
    -3.203E+01   -3.179E+01   -3.156E+01   -3.132E+01   -3.108E+01   -3.084E+01   -3.060E+01   -3.035E+01   -3.010E+01   -2.985E+01
    -2.959E+01   -2.933E+01   -2.907E+01   -2.881E+01   -2.854E+01   -2.827E+01   -2.800E+01   -2.772E+01   -2.744E+01   -2.716E+01
    -2.688E+01   -2.660E+01   -2.632E+01   -2.603E+01   -2.574E+01   -2.546E+01   -2.517E+01   -2.488E+01   -2.459E+01   -2.430E+01
    -2.401E+01   -2.373E+01   -2.344E+01   -2.315E+01   -2.286E+01   -2.257E+01   -2.229E+01   -2.200E+01   -2.172E+01   -2.144E+01
    -2.116E+01   -2.088E+01   -2.061E+01   -2.033E+01   -2.006E+01   -1.979E+01   -1.953E+01   -1.926E+01   -1.900E+01   -1.875E+01
    -1.849E+01   -1.824E+01   -1.800E+01   -1.776E+01   -1.752E+01   -1.729E+01   -1.706E+01   -1.683E+01   -1.661E+01   -1.640E+01
    -1.619E+01   -1.598E+01   -1.578E+01   -1.558E+01   -1.539E+01   -1.519E+01   -1.501E+01   -1.483E+01   -1.465E+01   -1.447E+01
    -1.430E+01   -1.413E+01   -1.396E+01   -1.380E+01   -1.364E+01   -1.348E+01   -1.333E+01   -1.317E+01   -1.302E+01   -1.288E+01
    -1.273E+01   -1.259E+01   -1.245E+01   -1.231E+01   -1.218E+01   -1.204E+01   -1.191E+01   -1.178E+01   -1.165E+01   -1.152E+01
    -1.140E+01   -1.127E+01   -1.115E+01   -1.103E+01   -1.090E+01   -1.078E+01   -1.066E+01   -1.054E+01   -1.043E+01   -1.031E+01
    -1.019E+01   -1.007E+01   -9.955E+00   -9.838E+00   -9.722E+00   -9.605E+00   -9.489E+00   -9.373E+00   -9.257E+00   -9.141E+00
    -9.025E+00   -8.910E+00   -8.794E+00   -8.679E+00   -8.564E+00   -8.449E+00   -8.335E+00   -8.220E+00   -8.105E+00   -7.991E+00
    -7.877E+00   -7.763E+00   -7.649E+00   -7.535E+00   -7.421E+00   -7.308E+00   -7.194E+00   -7.081E+00   -6.968E+00   -6.855E+00
    -6.741E+00   -6.628E+00   -6.516E+00   -6.403E+00   -6.290E+00   -6.177E+00   -6.065E+00   -5.952E+00   -5.839E+00   -5.727E+00
    -5.615E+00   -5.502E+00   -5.390E+00   -5.278E+00   -5.165E+00   -5.053E+00   -4.941E+00   -4.829E+00   -4.717E+00   -4.605E+00
    -4.493E+00   -4.381E+00   -4.269E+00   -4.158E+00   -4.047E+00   -3.936E+00   -3.825E+00   -3.715E+00   -3.605E+00   -3.496E+00
    -3.387E+00   -3.278E+00   -3.170E+00   -3.062E+00   -2.955E+00   -2.849E+00   -2.743E+00   -2.638E+00   -2.533E+00   -2.430E+00
    -2.327E+00   -2.224E+00   -2.123E+00   -2.022E+00   -1.923E+00   -1.824E+00   -1.726E+00   -1.629E+00   -1.533E+00   -1.438E+00
    -1.345E+00   -1.252E+00   -1.160E+00   -1.070E+00   -9.807E-01   -8.927E-01   -8.060E-01   -7.205E-01   -6.364E-01   -5.536E-01
    -4.723E-01   -3.923E-01   -3.138E-01   -2.367E-01   -1.611E-01   -8.681E-02   -1.394E-02    5.759E-02    1.278E-01    1.967E-01
     2.643E-01    3.307E-01    3.959E-01    4.599E-01    5.227E-01    5.843E-01    6.448E-01    7.043E-01    7.626E-01    8.200E-01
     8.763E-01    9.316E-01    9.859E-01    1.039E+00    1.092E+00    1.143E+00    1.194E+00    1.244E+00    1.293E+00    1.341E+00
     1.389E+00    1.436E+00    1.482E+00    1.527E+00    1.572E+00    1.616E+00    1.659E+00    1.702E+00    1.744E+00    1.786E+00
     1.827E+00    1.868E+00    1.908E+00    1.948E+00    1.987E+00    2.026E+00    2.065E+00    2.103E+00    2.141E+00    2.179E+00
     2.217E+00    2.254E+00    2.291E+00    2.327E+00    2.363E+00    2.400E+00    2.435E+00    2.471E+00    2.506E+00    2.542E+00
     2.577E+00    2.612E+00    2.646E+00    2.681E+00    2.715E+00    2.749E+00    2.783E+00    2.817E+00    2.851E+00    2.885E+00
     2.919E+00    2.952E+00    2.986E+00    3.019E+00    3.053E+00    3.086E+00    3.120E+00    3.153E+00    3.186E+00    3.220E+00
     3.253E+00    3.287E+00    3.320E+00    3.354E+00    3.387E+00    3.421E+00    3.455E+00    3.489E+00    3.522E+00    3.557E+00
     3.591E+00    3.625E+00    3.659E+00    3.694E+00    3.729E+00    3.764E+00    3.799E+00    3.834E+00    3.869E+00    3.905E+00
     3.940E+00    3.976E+00    4.011E+00    4.047E+00    4.083E+00    4.119E+00    4.155E+00    4.191E+00    4.228E+00    4.264E+00
     4.300E+00    4.337E+00    4.373E+00    4.409E+00    4.446E+00    4.482E+00    4.519E+00    4.556E+00    4.592E+00    4.629E+00
     4.665E+00    4.702E+00    4.739E+00    4.775E+00    4.812E+00    4.848E+00    4.885E+00    4.921E+00    4.958E+00    4.994E+00
     5.030E+00    5.067E+00    5.103E+00    5.139E+00    5.175E+00    5.211E+00    5.247E+00    5.283E+00
 Cr       Conc. = 5.42E+02
