 LCModel (Version 6.3-1L) Copyright: S.W. Provencher.          Ref.: Magn. Reson. Med. 30:672-679 (1993).                
 Slice#1 Row#5 Col#14  PD_05_press_1_raw_act
 36 lines in following concentration table = NCONC+1
    Conc.  %SD /Cr+PCr  Metabolite                                         
  198.121  56%   5.609 Ala                                                 
    7.815 179%   0.221 Asp                                                 
    0.000 999%   0.000 Cr                                                  
   35.322 448%   1.000 PCr                                                 
    4.844 174%   0.137 GABA                                                
    4.558 186%   0.129 Glc                                                 
   42.583 479%   1.206 Gln                                                 
    0.000 999%   0.000 Glu                                                 
    9.485 110%   0.269 GPC                                                 
    0.000 999%   0.000 PCh                                                 
   25.579 191%   0.724 GSH                                                 
   53.321 367%   1.510 Ins                                                 
  177.940  72%   5.038 Lac                                                 
   57.894 107%   1.639 NAA                                                 
   40.607 157%   1.150 NAAG                                                
    1.189 239% 3.4E-02 Scyllo                                              
    7.610 185%   0.215 Tau                                                 
    1.582 807% 4.5E-02 -CrCH2                                              
    9.485 110%   0.269 GPC+PCh                                             
   98.501  32%   2.789 NAA+NAAG                                            
   35.322  81%   1.000 Cr+PCr                                              
   42.583 479%   1.206 Glu+Gln                                             
    0.000 999%   0.000 Lip13a                                              
    0.000 999%   0.000 Lip13b                                              
    0.000 999%   0.000 Lip09                                               
    0.000 999%   0.000 MM09                                                
   19.375 480%   0.549 Lip20                                               
 4.02E-02 999% 1.1E-03 MM20                                                
    0.000 999%   0.000 MM12                                                
    1.445 511% 4.1E-02 MM14                                                
    0.238 999% 6.7E-03 MM17                                                
    0.000 999%   0.000 Lip13a+Lip13b                                       
    1.445 511% 4.1E-02 MM14+Lip13a+Lip13b+MM12                             
    0.000 999%   0.000 MM09+Lip09                                          
   19.415 480%   0.550 MM20+Lip20                                          
   6 lines in following misc. output table
  FWHM = 0.107 ppm    S/N =   1                                            
  Data shift =-0.015 ppm                                                   
  Ph: -11 deg     -28.7 deg/ppm                                            
  alphaB,S = 2.2E-01,   3.3E+02                                            
   14 spline knots.   Ns =11(1)                                            
   2 inflections.     1 extrema                                            
  498 points on ppm-axis = NY
      4.000000     3.992357     3.984714     3.977070     3.969427     3.961784     3.954141     3.946497     3.938854     3.931211
      3.923568     3.915925     3.908281     3.900638     3.892995     3.885352     3.877708     3.870065     3.862422     3.854779
      3.847136     3.839492     3.831849     3.824206     3.816563     3.808919     3.801276     3.793633     3.785990     3.778347
      3.770703     3.763060     3.755417     3.747774     3.740130     3.732487     3.724844     3.717201     3.709558     3.701914
      3.694271     3.686628     3.678985     3.671341     3.663698     3.656055     3.648412     3.640769     3.633125     3.625482
      3.617839     3.610196     3.602552     3.594909     3.587266     3.579623     3.571980     3.564336     3.556693     3.549050
      3.541407     3.533763     3.526120     3.518477     3.510834     3.503191     3.495547     3.487904     3.480261     3.472618
      3.464974     3.457331     3.449688     3.442045     3.434402     3.426758     3.419115     3.411472     3.403829     3.396185
      3.388542     3.380899     3.373256     3.365613     3.357969     3.350326     3.342683     3.335040     3.327396     3.319753
      3.312110     3.304467     3.296824     3.289180     3.281537     3.273894     3.266251     3.258607     3.250964     3.243321
      3.235678     3.228034     3.220391     3.212748     3.205105     3.197462     3.189818     3.182175     3.174532     3.166889
      3.159245     3.151602     3.143959     3.136316     3.128673     3.121029     3.113386     3.105743     3.098100     3.090456
      3.082813     3.075170     3.067527     3.059884     3.052240     3.044597     3.036954     3.029311     3.021667     3.014024
      3.006381     2.998738     2.991095     2.983451     2.975808     2.968165     2.960522     2.952878     2.945235     2.937592
      2.929949     2.922306     2.914662     2.907019     2.899376     2.891733     2.884089     2.876446     2.868803     2.861160
      2.853517     2.845873     2.838230     2.830587     2.822944     2.815300     2.807657     2.800014     2.792371     2.784728
      2.777084     2.769441     2.761798     2.754155     2.746511     2.738868     2.731225     2.723582     2.715939     2.708295
      2.700652     2.693009     2.685366     2.677722     2.670079     2.662436     2.654793     2.647150     2.639506     2.631863
      2.624220     2.616577     2.608933     2.601290     2.593647     2.586004     2.578361     2.570717     2.563074     2.555431
      2.547788     2.540144     2.532501     2.524858     2.517215     2.509572     2.501928     2.494285     2.486642     2.478999
      2.471355     2.463712     2.456069     2.448426     2.440783     2.433139     2.425496     2.417853     2.410210     2.402566
      2.394923     2.387280     2.379637     2.371994     2.364350     2.356707     2.349064     2.341421     2.333777     2.326134
      2.318491     2.310848     2.303205     2.295561     2.287918     2.280275     2.272632     2.264988     2.257345     2.249702
      2.242059     2.234416     2.226772     2.219129     2.211486     2.203843     2.196199     2.188556     2.180913     2.173270
      2.165627     2.157983     2.150340     2.142697     2.135054     2.127410     2.119767     2.112124     2.104481     2.096838
      2.089194     2.081551     2.073908     2.066265     2.058621     2.050978     2.043335     2.035692     2.028049     2.020405
      2.012762     2.005119     1.997476     1.989833     1.982190     1.974546     1.966903     1.959260     1.951617     1.943974
      1.936331     1.928688     1.921045     1.913402     1.905759     1.898115     1.890472     1.882829     1.875186     1.867543
      1.859900     1.852257     1.844614     1.836971     1.829327     1.821684     1.814041     1.806398     1.798755     1.791112
      1.783469     1.775826     1.768183     1.760540     1.752896     1.745253     1.737610     1.729967     1.722324     1.714681
      1.707038     1.699395     1.691752     1.684108     1.676465     1.668822     1.661179     1.653536     1.645893     1.638250
      1.630607     1.622964     1.615321     1.607677     1.600034     1.592391     1.584748     1.577105     1.569462     1.561819
      1.554176     1.546533     1.538890     1.531246     1.523603     1.515960     1.508317     1.500674     1.493031     1.485388
      1.477745     1.470102     1.462458     1.454815     1.447172     1.439529     1.431886     1.424243     1.416600     1.408957
      1.401314     1.393671     1.386027     1.378384     1.370741     1.363098     1.355455     1.347812     1.340169     1.332526
      1.324883     1.317240     1.309596     1.301953     1.294310     1.286667     1.279024     1.271381     1.263738     1.256095
      1.248452     1.240808     1.233165     1.225522     1.217879     1.210236     1.202593     1.194950     1.187307     1.179664
      1.172021     1.164377     1.156734     1.149091     1.141448     1.133805     1.126162     1.118519     1.110876     1.103233
      1.095590     1.087946     1.080303     1.072660     1.065017     1.057374     1.049731     1.042088     1.034445     1.026802
      1.019158     1.011515     1.003872     0.996229     0.988586     0.980943     0.973300     0.965657     0.958014     0.950371
      0.942727     0.935084     0.927441     0.919798     0.912155     0.904512     0.896869     0.889226     0.881583     0.873940
      0.866296     0.858653     0.851010     0.843367     0.835724     0.828081     0.820438     0.812795     0.805152     0.797508
      0.789865     0.782222     0.774579     0.766936     0.759293     0.751650     0.744007     0.736364     0.728721     0.721077
      0.713434     0.705791     0.698148     0.690505     0.682862     0.675219     0.667576     0.659933     0.652290     0.644646
      0.637003     0.629360     0.621717     0.614074     0.606431     0.598788     0.591145     0.583502     0.575858     0.568215
      0.560572     0.552929     0.545286     0.537643     0.530000     0.522357     0.514714     0.507071     0.499427     0.491784
      0.484141     0.476498     0.468855     0.461212     0.453569     0.445925     0.438282     0.430639     0.422996     0.415353
      0.407710     0.400067     0.392424     0.384780     0.377137     0.369494     0.361851     0.354208     0.346565     0.338922
      0.331278     0.323635     0.315992     0.308349     0.300706     0.293063     0.285420     0.277777     0.270133     0.262490
      0.254847     0.247204     0.239561     0.231918     0.224275     0.216631     0.208988     0.201345
 NY phased data points follow
   2.91750E+00  2.27803E+00  3.46576E+00  1.65754E+00  2.59789E+00  2.26555E+00  4.64588E+00  2.14520E+00  3.66225E+00  2.08479E+00
   3.67148E+00  2.92048E+00  3.47443E+00  3.36031E+00  5.48009E+00  1.86744E+00  1.78134E+00  3.62299E+00  2.64077E+00  2.72351E+00
   1.69612E+00  2.79472E+00  2.18289E+00  2.38755E+00  1.27643E+00  3.73705E+00  1.86728E+00  2.23809E+00  3.41316E+00  2.50014E-01
   3.68070E+00  4.79761E+00  2.90792E+00  2.82369E+00  2.71521E+00  2.76598E+00  4.07484E+00  2.18296E+00  4.80922E-01  1.52660E+00
   3.84071E+00  1.91256E+00  4.26037E+00  1.26220E+00  2.63693E+00  2.68805E+00  2.16029E+00  2.78253E+00  3.56779E+00  1.75470E+00
   2.49102E+00  3.15589E+00  1.33695E+00  2.51398E+00  2.26826E+00  2.33902E+00  1.91634E+00  2.48652E+00  2.26994E+00  4.87788E+00
   3.31983E+00  3.15291E+00  1.60452E+00  2.01786E-02  6.73826E-01  1.49072E+00  1.54404E+00  1.79522E+00  1.43397E+00 -6.89483E-01
   3.19692E+00  1.10599E+00  1.41464E+00  4.08764E+00  3.32339E+00  1.22352E+00  2.05900E+00  1.41152E+00  1.39901E+00  3.65921E-01
   1.56307E+00  3.74488E-01 -1.18630E+00  1.32960E-01  7.69899E-02  6.75630E-01  2.43401E+00 -8.39140E-01  8.70636E-01  9.67778E-01
   1.47899E+00  2.04639E-01  1.90207E+00  1.89756E+00  2.99993E-01  1.36997E+00  2.39056E+00  1.81653E+00  3.21175E+00  3.58946E-01
   1.17426E+00  1.66640E+00 -1.64586E-01  1.56267E-01 -1.39131E+00 -5.65218E-01  2.42960E+00 -8.62558E-02  1.60443E+00  1.17953E+00
  -5.84363E-02  1.61038E-01 -1.59496E-01 -9.72424E-02  7.52809E-01 -2.55353E+00  1.64790E+00 -1.02520E+00  5.63899E-01  4.94177E-01
   7.85134E-01  2.23607E-01  7.83893E-01  1.25437E+00 -7.04018E-01  1.03792E+00 -4.24267E-01  3.78196E-01 -1.13669E+00  9.07716E-01
   8.35990E-02 -6.90670E-01 -4.81113E-01 -2.66015E-01  5.01744E-01  7.75254E-02 -1.58715E+00 -2.65956E-01 -1.58078E-02 -9.83644E-01
  -1.16518E-02  3.49054E-01 -2.00791E+00 -1.84156E-01 -2.22255E+00 -9.70927E-01  8.77217E-01 -5.27834E-01 -1.58322E+00 -3.84298E-01
  -2.12081E+00 -2.32097E-01 -3.76964E-01  1.76985E-01 -2.79050E+00 -2.09370E+00 -2.22217E+00 -1.04375E+00  2.72711E-02 -2.47377E+00
  -2.30412E+00 -4.70698E-01 -2.90766E+00 -1.03803E+00 -2.88099E+00 -2.12040E+00 -1.60489E+00 -2.98820E+00 -8.59407E-01 -8.94122E-01
  -5.26071E-01 -2.01591E+00 -1.97867E+00 -2.10783E+00 -3.09468E+00 -3.36993E+00 -2.00374E+00 -2.18244E+00 -1.91997E-01 -2.13339E+00
  -2.69181E+00 -5.35297E+00 -4.06465E+00 -2.14015E+00 -2.55605E+00 -7.12460E-01 -4.20445E+00 -1.85046E+00 -1.95884E+00 -1.57394E+00
  -2.48554E+00 -1.68981E+00 -2.88974E+00 -7.22083E-01 -1.55407E+00 -3.65162E+00 -1.66968E+00 -1.51061E+00 -1.83698E+00 -3.69697E+00
  -2.01103E+00 -2.75266E+00 -4.79662E+00 -5.76694E+00 -4.88078E+00 -4.57351E+00 -2.08416E+00 -2.51356E+00 -2.63060E+00 -1.95213E+00
  -1.98161E+00 -2.83852E+00 -4.63753E+00 -3.00907E+00 -2.81685E+00 -4.92656E+00 -3.89764E+00 -3.27967E+00 -4.68973E+00 -2.71388E+00
  -2.15538E+00 -5.85354E+00 -2.89483E+00 -4.27838E+00 -4.76339E+00 -3.05937E+00 -4.75197E+00 -2.57790E+00 -2.49060E+00 -5.22434E+00
  -4.80757E+00 -2.11743E+00 -6.42802E+00 -3.54509E+00 -4.38824E+00 -3.78449E+00 -5.26844E+00 -5.73323E+00 -5.27257E+00 -5.56087E+00
  -6.98312E+00 -6.86209E+00 -5.37970E+00 -6.23672E+00 -5.35178E+00 -3.95533E+00 -4.76312E+00 -6.70911E+00 -4.25291E+00 -8.17768E+00
  -5.57744E+00 -6.35782E+00 -5.36425E+00 -6.73786E+00 -7.20345E+00 -5.38112E+00 -4.93476E+00 -7.02995E+00 -6.43706E+00 -6.82244E+00
  -5.52974E+00 -5.71399E+00 -5.89522E+00 -6.51547E+00 -7.73507E+00 -8.97467E+00 -5.42768E+00 -8.11490E+00 -6.62144E+00 -1.05586E+01
  -9.91469E+00 -9.87625E+00 -9.31355E+00 -1.08267E+01 -1.19528E+01 -9.63388E+00 -9.48055E+00 -1.13305E+01 -1.02479E+01 -8.75578E+00
  -9.39474E+00 -9.61915E+00 -1.11676E+01 -1.10568E+01 -1.15150E+01 -1.17997E+01 -1.29778E+01 -1.16836E+01 -1.20187E+01 -1.26416E+01
  -1.12632E+01 -1.01785E+01 -1.12476E+01 -1.15779E+01 -1.24827E+01 -1.34970E+01 -1.23503E+01 -1.31332E+01 -1.39905E+01 -1.40477E+01
  -1.22651E+01 -1.26619E+01 -1.23760E+01 -1.33328E+01 -1.53603E+01 -1.49217E+01 -1.42208E+01 -1.50037E+01 -1.65468E+01 -1.46294E+01
  -1.42335E+01 -1.50896E+01 -1.53597E+01 -1.59679E+01 -1.59902E+01 -1.76585E+01 -1.67441E+01 -1.68569E+01 -1.83846E+01 -1.58526E+01
  -1.70246E+01 -1.62990E+01 -1.75027E+01 -1.69660E+01 -1.82007E+01 -1.65817E+01 -1.88336E+01 -1.92433E+01 -2.12052E+01 -1.80812E+01
  -2.08016E+01 -1.98610E+01 -2.16766E+01 -2.09740E+01 -2.25431E+01 -2.27129E+01 -2.33096E+01 -2.18696E+01 -2.16695E+01 -2.46663E+01
  -2.24711E+01 -2.37394E+01 -2.34810E+01 -2.28108E+01 -2.52979E+01 -2.37725E+01 -2.64962E+01 -2.51484E+01 -2.54113E+01 -2.68543E+01
  -2.60910E+01 -2.45828E+01 -2.71365E+01 -2.72588E+01 -2.97074E+01 -2.60541E+01 -2.82947E+01 -2.81847E+01 -2.85641E+01 -2.83092E+01
  -3.03470E+01 -2.75544E+01 -2.81849E+01 -2.77872E+01 -2.78837E+01 -2.64505E+01 -2.67564E+01 -2.64275E+01 -2.63012E+01 -2.68462E+01
  -2.95014E+01 -2.64986E+01 -2.76852E+01 -2.69300E+01 -2.63983E+01 -2.71829E+01 -2.63800E+01 -2.64863E+01 -2.64311E+01 -2.70366E+01
  -2.45429E+01 -2.64180E+01 -2.65099E+01 -2.59143E+01 -2.68879E+01 -2.63646E+01 -2.34523E+01 -2.49358E+01 -2.41593E+01 -2.19128E+01
  -2.47333E+01 -2.20837E+01 -2.02644E+01 -1.95769E+01 -1.92483E+01 -1.78612E+01 -1.98773E+01 -1.70387E+01 -1.59722E+01 -1.60168E+01
  -1.40019E+01 -1.22515E+01 -1.36399E+01 -1.37047E+01 -1.12850E+01 -9.84389E+00 -9.85423E+00 -8.42685E+00 -5.59468E+00 -8.69991E+00
  -7.92124E+00 -7.19324E+00 -5.68340E+00 -3.93155E+00 -3.10309E+00 -2.50799E+00 -2.93357E+00 -2.10046E+00  1.09082E+00  1.52716E+00
   1.80819E+00  1.30247E+00  3.77752E+00  4.62181E+00  4.61395E+00  7.79658E+00  7.79429E+00  1.00578E+01  1.09944E+01  1.07274E+01
   1.40615E+01  1.30677E+01  1.52202E+01  1.75727E+01  1.66619E+01  1.85600E+01  1.88191E+01  1.80752E+01  1.86501E+01  2.41383E+01
   2.45239E+01  2.48576E+01  2.55375E+01  2.63344E+01  2.73696E+01  2.68173E+01  2.91926E+01  2.96399E+01  2.94939E+01  3.13714E+01
   3.30231E+01  3.16923E+01  3.40263E+01  3.23406E+01  3.42566E+01  3.32993E+01  3.39617E+01  3.44878E+01  3.61293E+01  3.48068E+01
   3.63088E+01  3.86009E+01  3.73924E+01  3.71095E+01  3.76072E+01  3.86283E+01  3.90146E+01  3.96972E+01  3.87927E+01  3.86479E+01
   4.00559E+01  3.95930E+01  3.94208E+01  3.91502E+01  3.76294E+01  3.85268E+01  3.95105E+01  3.80505E+01  3.93522E+01  3.88957E+01
   3.82292E+01  3.71872E+01  3.76778E+01  3.88567E+01  3.72383E+01  3.70939E+01  3.85948E+01  3.62215E+01  3.62634E+01  3.53443E+01
   3.67286E+01  3.52636E+01  3.48531E+01  3.64825E+01  3.49278E+01  3.42568E+01  3.38307E+01  3.58195E+01
 NY points of the fit to the data follow
   2.85847E+00  2.85523E+00  2.84786E+00  2.84288E+00  2.84969E+00  2.86900E+00  2.89499E+00  2.92006E+00  2.94010E+00  2.95395E+00
   2.95874E+00  2.95323E+00  2.94133E+00  2.92650E+00  2.91220E+00  2.89624E+00  2.87059E+00  2.83217E+00  2.78366E+00  2.73490E+00
   2.69395E+00  2.66559E+00  2.65481E+00  2.65994E+00  2.67585E+00  2.69899E+00  2.72541E+00  2.75158E+00  2.77454E+00  2.78973E+00
   2.79066E+00  2.77573E+00  2.75105E+00  2.72436E+00  2.70034E+00  2.68234E+00  2.67309E+00  2.67370E+00  2.68020E+00  2.67910E+00
   2.66047E+00  2.62809E+00  2.58871E+00  2.54837E+00  2.50498E+00  2.45909E+00  2.41900E+00  2.39074E+00  2.37040E+00  2.35498E+00
   2.34292E+00  2.33186E+00  2.31726E+00  2.29323E+00  2.25688E+00  2.21209E+00  2.16296E+00  2.11246E+00  2.06426E+00  2.02227E+00
   1.98897E+00  1.96345E+00  1.94106E+00  1.91784E+00  1.89241E+00  1.86473E+00  1.83454E+00  1.80180E+00  1.76687E+00  1.73037E+00
   1.69297E+00  1.65580E+00  1.62041E+00  1.58709E+00  1.55481E+00  1.52256E+00  1.48838E+00  1.45060E+00  1.40841E+00  1.36220E+00
   1.31308E+00  1.26223E+00  1.21084E+00  1.15976E+00  1.11000E+00  1.06277E+00  1.01789E+00  9.74909E-01  9.34035E-01  8.94926E-01
   8.57331E-01  8.24792E-01  8.06616E-01  8.04275E-01  8.14277E-01  8.32727E-01  8.55148E-01  8.77388E-01  8.96059E-01  9.08599E-01
   9.12759E-01  9.07858E-01  8.94633E-01  8.73970E-01  8.46005E-01  8.10280E-01  7.65819E-01  7.11466E-01  6.46044E-01  5.68972E-01
   4.81184E-01  3.85841E-01  2.88042E-01  1.93900E-01  1.11721E-01  5.45576E-02  3.67221E-02  4.81052E-02  7.62887E-02  1.14136E-01
   1.55553E-01  1.95697E-01  2.31421E-01  2.61246E-01  2.83496E-01  2.96586E-01  2.99259E-01  2.90030E-01  2.67880E-01  2.32600E-01
   1.83906E-01  1.21595E-01  4.44570E-02 -4.82764E-02 -1.54989E-01 -2.71471E-01 -3.91588E-01 -5.07671E-01 -6.10591E-01 -6.90553E-01
  -7.44258E-01 -7.85878E-01 -8.23817E-01 -8.59403E-01 -8.93114E-01 -9.25110E-01 -9.55787E-01 -9.86915E-01 -1.02140E+00 -1.06069E+00
  -1.10487E+00 -1.15292E+00 -1.20246E+00 -1.25129E+00 -1.29811E+00 -1.34260E+00 -1.38583E+00 -1.42823E+00 -1.47013E+00 -1.51202E+00
  -1.55398E+00 -1.59554E+00 -1.63628E+00 -1.67633E+00 -1.71638E+00 -1.75751E+00 -1.80004E+00 -1.84330E+00 -1.88624E+00 -1.92775E+00
  -1.96795E+00 -2.00742E+00 -2.04677E+00 -2.08630E+00 -2.12579E+00 -2.16439E+00 -2.20138E+00 -2.23606E+00 -2.26757E+00 -2.29569E+00
  -2.31963E+00 -2.33844E+00 -2.35248E+00 -2.36335E+00 -2.37212E+00 -2.38047E+00 -2.39083E+00 -2.40568E+00 -2.42547E+00 -2.44853E+00
  -2.47198E+00 -2.49345E+00 -2.51260E+00 -2.53021E+00 -2.54749E+00 -2.56560E+00 -2.58587E+00 -2.60974E+00 -2.64012E+00 -2.67981E+00
  -2.72748E+00 -2.77821E+00 -2.82819E+00 -2.87511E+00 -2.91796E+00 -2.95788E+00 -2.99805E+00 -3.04166E+00 -3.09018E+00 -3.14453E+00
  -3.20443E+00 -3.26781E+00 -3.33010E+00 -3.38759E+00 -3.43838E+00 -3.48159E+00 -3.51780E+00 -3.54903E+00 -3.57833E+00 -3.60983E+00
  -3.64833E+00 -3.69773E+00 -3.75982E+00 -3.83328E+00 -3.91311E+00 -3.99661E+00 -4.08332E+00 -4.17139E+00 -4.26009E+00 -4.34982E+00
  -4.44072E+00 -4.53378E+00 -4.63099E+00 -4.73301E+00 -4.83941E+00 -4.94886E+00 -5.05982E+00 -5.17111E+00 -5.28236E+00 -5.39347E+00
  -5.50433E+00 -5.61525E+00 -5.72658E+00 -5.83843E+00 -5.94704E+00 -6.03840E+00 -6.10680E+00 -6.15578E+00 -6.18861E+00 -6.19716E+00
  -6.17100E+00 -6.11947E+00 -6.05721E+00 -5.99649E+00 -5.94755E+00 -5.91993E+00 -5.92036E+00 -5.95092E+00 -6.01203E+00 -6.10406E+00
  -6.22830E+00 -6.38686E+00 -6.58154E+00 -6.81153E+00 -7.07337E+00 -7.36226E+00 -7.67179E+00 -7.99170E+00 -8.30604E+00 -8.60036E+00
  -8.87796E+00 -9.13708E+00 -9.36459E+00 -9.54664E+00 -9.69223E+00 -9.82655E+00 -9.95746E+00 -1.00869E+01 -1.02156E+01 -1.03445E+01
  -1.04740E+01 -1.06045E+01 -1.07359E+01 -1.08681E+01 -1.10009E+01 -1.11340E+01 -1.12679E+01 -1.14027E+01 -1.15391E+01 -1.16777E+01
  -1.18192E+01 -1.19637E+01 -1.21111E+01 -1.22616E+01 -1.24151E+01 -1.25716E+01 -1.27311E+01 -1.28937E+01 -1.30597E+01 -1.32294E+01
  -1.34029E+01 -1.35805E+01 -1.37622E+01 -1.39480E+01 -1.41378E+01 -1.43314E+01 -1.45287E+01 -1.47297E+01 -1.49343E+01 -1.51425E+01
  -1.53539E+01 -1.55679E+01 -1.57836E+01 -1.59992E+01 -1.62112E+01 -1.64124E+01 -1.65874E+01 -1.67377E+01 -1.68954E+01 -1.70846E+01
  -1.73206E+01 -1.76129E+01 -1.79671E+01 -1.83863E+01 -1.88551E+01 -1.93289E+01 -1.97820E+01 -2.02058E+01 -2.06002E+01 -2.09706E+01
  -2.13242E+01 -2.16680E+01 -2.20052E+01 -2.23319E+01 -2.26347E+01 -2.28908E+01 -2.30688E+01 -2.31575E+01 -2.31812E+01 -2.31659E+01
  -2.31465E+01 -2.31881E+01 -2.33506E+01 -2.36414E+01 -2.40311E+01 -2.44757E+01 -2.49454E+01 -2.54108E+01 -2.58303E+01 -2.61762E+01
  -2.64738E+01 -2.67446E+01 -2.69980E+01 -2.72338E+01 -2.74440E+01 -2.76149E+01 -2.77321E+01 -2.77847E+01 -2.77675E+01 -2.76829E+01
  -2.75486E+01 -2.74154E+01 -2.73316E+01 -2.73003E+01 -2.73152E+01 -2.73667E+01 -2.74389E+01 -2.75042E+01 -2.75205E+01 -2.74771E+01
  -2.73936E+01 -2.72797E+01 -2.71397E+01 -2.69758E+01 -2.67896E+01 -2.65817E+01 -2.63529E+01 -2.61034E+01 -2.58338E+01 -2.55440E+01
  -2.52344E+01 -2.49050E+01 -2.45559E+01 -2.41872E+01 -2.37989E+01 -2.33911E+01 -2.29638E+01 -2.25169E+01 -2.20506E+01 -2.15647E+01
  -2.10594E+01 -2.05345E+01 -1.99901E+01 -1.94262E+01 -1.88427E+01 -1.82396E+01 -1.76169E+01 -1.69746E+01 -1.63126E+01 -1.56310E+01
  -1.49297E+01 -1.42086E+01 -1.34678E+01 -1.27072E+01 -1.19269E+01 -1.11267E+01 -1.03066E+01 -9.46663E+00 -8.60722E+00 -7.72944E+00
  -6.83441E+00 -5.92325E+00 -4.99709E+00 -4.05706E+00 -3.10428E+00 -2.13987E+00 -1.16496E+00 -1.80677E-01  8.11859E-01  1.81152E+00
   2.81719E+00  3.82774E+00  4.84205E+00  5.85899E+00  6.87743E+00  7.89627E+00  8.91436E+00  9.93059E+00  1.09438E+01  1.19530E+01
   1.29569E+01  1.39544E+01  1.49445E+01  1.59260E+01  1.68977E+01  1.78586E+01  1.88075E+01  1.97434E+01  2.06650E+01  2.15712E+01
   2.24610E+01  2.33333E+01  2.41868E+01  2.50204E+01  2.58331E+01  2.66238E+01  2.73912E+01  2.81343E+01  2.88520E+01  2.95430E+01
   3.02064E+01  3.08410E+01  3.14456E+01  3.20197E+01  3.25637E+01  3.30782E+01  3.35640E+01  3.40218E+01  3.44521E+01  3.48556E+01
   3.52331E+01  3.55851E+01  3.59123E+01  3.62154E+01  3.64951E+01  3.67520E+01  3.69868E+01  3.72001E+01  3.73927E+01  3.75651E+01
   3.77180E+01  3.78522E+01  3.79682E+01  3.80667E+01  3.81484E+01  3.82140E+01  3.82640E+01  3.82993E+01  3.83204E+01  3.83280E+01
   3.83227E+01  3.83053E+01  3.82764E+01  3.82366E+01  3.81867E+01  3.81272E+01  3.80589E+01  3.79824E+01  3.78984E+01  3.78075E+01
   3.77104E+01  3.76077E+01  3.75002E+01  3.73885E+01  3.72732E+01  3.71551E+01  3.70347E+01  3.69128E+01
 NY background values follow
     2.475E+00    2.472E+00    2.469E+00    2.466E+00    2.464E+00    2.462E+00    2.460E+00    2.458E+00    2.456E+00    2.454E+00
     2.453E+00    2.451E+00    2.450E+00    2.448E+00    2.446E+00    2.444E+00    2.443E+00    2.440E+00    2.438E+00    2.436E+00
     2.433E+00    2.430E+00    2.427E+00    2.423E+00    2.419E+00    2.415E+00    2.410E+00    2.405E+00    2.400E+00    2.393E+00
     2.387E+00    2.380E+00    2.372E+00    2.364E+00    2.355E+00    2.345E+00    2.335E+00    2.324E+00    2.312E+00    2.300E+00
     2.286E+00    2.272E+00    2.257E+00    2.241E+00    2.225E+00    2.207E+00    2.188E+00    2.169E+00    2.148E+00    2.127E+00
     2.104E+00    2.081E+00    2.057E+00    2.032E+00    2.007E+00    1.981E+00    1.954E+00    1.926E+00    1.898E+00    1.869E+00
     1.839E+00    1.809E+00    1.778E+00    1.747E+00    1.716E+00    1.683E+00    1.651E+00    1.618E+00    1.585E+00    1.551E+00
     1.517E+00    1.482E+00    1.448E+00    1.413E+00    1.378E+00    1.342E+00    1.307E+00    1.271E+00    1.236E+00    1.200E+00
     1.164E+00    1.128E+00    1.092E+00    1.056E+00    1.020E+00    9.845E-01    9.488E-01    9.132E-01    8.778E-01    8.425E-01
     8.075E-01    7.727E-01    7.382E-01    7.038E-01    6.697E-01    6.358E-01    6.021E-01    5.686E-01    5.352E-01    5.021E-01
     4.691E-01    4.362E-01    4.035E-01    3.709E-01    3.385E-01    3.061E-01    2.739E-01    2.417E-01    2.096E-01    1.776E-01
     1.457E-01    1.138E-01    8.198E-02    5.018E-02    1.840E-02   -1.336E-02   -4.511E-02   -7.687E-02   -1.086E-01   -1.404E-01
    -1.723E-01   -2.041E-01   -2.361E-01   -2.680E-01   -3.001E-01   -3.322E-01   -3.645E-01   -3.968E-01   -4.292E-01   -4.618E-01
    -4.945E-01   -5.273E-01   -5.603E-01   -5.934E-01   -6.267E-01   -6.602E-01   -6.938E-01   -7.277E-01   -7.617E-01   -7.959E-01
    -8.303E-01   -8.647E-01   -8.993E-01   -9.341E-01   -9.689E-01   -1.004E+00   -1.039E+00   -1.074E+00   -1.109E+00   -1.144E+00
    -1.179E+00   -1.215E+00   -1.250E+00   -1.285E+00   -1.320E+00   -1.355E+00   -1.391E+00   -1.426E+00   -1.461E+00   -1.496E+00
    -1.530E+00   -1.565E+00   -1.600E+00   -1.634E+00   -1.669E+00   -1.703E+00   -1.737E+00   -1.771E+00   -1.805E+00   -1.838E+00
    -1.871E+00   -1.905E+00   -1.937E+00   -1.970E+00   -2.002E+00   -2.035E+00   -2.066E+00   -2.098E+00   -2.129E+00   -2.160E+00
    -2.191E+00   -2.221E+00   -2.251E+00   -2.280E+00   -2.310E+00   -2.339E+00   -2.368E+00   -2.398E+00   -2.427E+00   -2.456E+00
    -2.486E+00   -2.516E+00   -2.546E+00   -2.577E+00   -2.608E+00   -2.639E+00   -2.671E+00   -2.704E+00   -2.738E+00   -2.772E+00
    -2.807E+00   -2.843E+00   -2.880E+00   -2.918E+00   -2.957E+00   -2.998E+00   -3.039E+00   -3.082E+00   -3.126E+00   -3.172E+00
    -3.219E+00   -3.268E+00   -3.318E+00   -3.370E+00   -3.424E+00   -3.479E+00   -3.537E+00   -3.596E+00   -3.657E+00   -3.721E+00
    -3.786E+00   -3.854E+00   -3.924E+00   -3.997E+00   -4.072E+00   -4.149E+00   -4.229E+00   -4.311E+00   -4.396E+00   -4.484E+00
    -4.573E+00   -4.666E+00   -4.760E+00   -4.856E+00   -4.955E+00   -5.056E+00   -5.158E+00   -5.262E+00   -5.369E+00   -5.477E+00
    -5.586E+00   -5.698E+00   -5.810E+00   -5.925E+00   -6.040E+00   -6.157E+00   -6.275E+00   -6.395E+00   -6.515E+00   -6.637E+00
    -6.759E+00   -6.883E+00   -7.007E+00   -7.132E+00   -7.257E+00   -7.383E+00   -7.510E+00   -7.637E+00   -7.765E+00   -7.893E+00
    -8.021E+00   -8.150E+00   -8.278E+00   -8.407E+00   -8.535E+00   -8.664E+00   -8.792E+00   -8.920E+00   -9.048E+00   -9.175E+00
    -9.302E+00   -9.428E+00   -9.554E+00   -9.679E+00   -9.805E+00   -9.930E+00   -1.005E+01   -1.018E+01   -1.031E+01   -1.043E+01
    -1.056E+01   -1.069E+01   -1.082E+01   -1.095E+01   -1.108E+01   -1.121E+01   -1.135E+01   -1.148E+01   -1.162E+01   -1.176E+01
    -1.191E+01   -1.206E+01   -1.221E+01   -1.236E+01   -1.251E+01   -1.267E+01   -1.283E+01   -1.300E+01   -1.317E+01   -1.335E+01
    -1.352E+01   -1.371E+01   -1.389E+01   -1.408E+01   -1.428E+01   -1.448E+01   -1.469E+01   -1.490E+01   -1.512E+01   -1.534E+01
    -1.557E+01   -1.581E+01   -1.605E+01   -1.630E+01   -1.655E+01   -1.682E+01   -1.708E+01   -1.736E+01   -1.764E+01   -1.793E+01
    -1.822E+01   -1.852E+01   -1.883E+01   -1.913E+01   -1.944E+01   -1.976E+01   -2.007E+01   -2.039E+01   -2.071E+01   -2.103E+01
    -2.135E+01   -2.167E+01   -2.198E+01   -2.230E+01   -2.261E+01   -2.292E+01   -2.323E+01   -2.353E+01   -2.383E+01   -2.412E+01
    -2.441E+01   -2.469E+01   -2.497E+01   -2.524E+01   -2.549E+01   -2.574E+01   -2.599E+01   -2.622E+01   -2.644E+01   -2.665E+01
    -2.685E+01   -2.704E+01   -2.721E+01   -2.738E+01   -2.752E+01   -2.766E+01   -2.778E+01   -2.788E+01   -2.797E+01   -2.804E+01
    -2.810E+01   -2.814E+01   -2.816E+01   -2.816E+01   -2.814E+01   -2.810E+01   -2.805E+01   -2.798E+01   -2.788E+01   -2.777E+01
    -2.765E+01   -2.750E+01   -2.733E+01   -2.715E+01   -2.694E+01   -2.672E+01   -2.648E+01   -2.622E+01   -2.594E+01   -2.565E+01
    -2.533E+01   -2.499E+01   -2.464E+01   -2.426E+01   -2.387E+01   -2.346E+01   -2.303E+01   -2.258E+01   -2.211E+01   -2.162E+01
    -2.111E+01   -2.059E+01   -2.004E+01   -1.947E+01   -1.889E+01   -1.828E+01   -1.766E+01   -1.701E+01   -1.635E+01   -1.567E+01
    -1.496E+01   -1.424E+01   -1.350E+01   -1.274E+01   -1.196E+01   -1.116E+01   -1.034E+01   -9.495E+00   -8.634E+00   -7.756E+00
    -6.860E+00   -5.948E+00   -5.021E+00   -4.081E+00   -3.127E+00   -2.162E+00   -1.187E+00   -2.019E-01    7.912E-01    1.791E+00
     2.797E+00    3.809E+00    4.823E+00    5.841E+00    6.859E+00    7.879E+00    8.897E+00    9.914E+00    1.093E+01    1.194E+01
     1.294E+01    1.394E+01    1.493E+01    1.591E+01    1.688E+01    1.784E+01    1.879E+01    1.973E+01    2.065E+01    2.156E+01
     2.245E+01    2.332E+01    2.417E+01    2.501E+01    2.582E+01    2.661E+01    2.738E+01    2.812E+01    2.884E+01    2.953E+01
     3.020E+01    3.083E+01    3.144E+01    3.201E+01    3.255E+01    3.307E+01    3.355E+01    3.401E+01    3.444E+01    3.485E+01
     3.522E+01    3.558E+01    3.590E+01    3.621E+01    3.649E+01    3.674E+01    3.698E+01    3.719E+01    3.738E+01    3.756E+01
     3.771E+01    3.784E+01    3.796E+01    3.806E+01    3.814E+01    3.821E+01    3.826E+01    3.829E+01    3.831E+01    3.832E+01
     3.832E+01    3.830E+01    3.827E+01    3.823E+01    3.818E+01    3.812E+01    3.805E+01    3.798E+01    3.789E+01    3.780E+01
     3.770E+01    3.760E+01    3.749E+01    3.738E+01    3.727E+01    3.715E+01    3.703E+01    3.691E+01
 Ala      Conc. = 1.98E+02
