 LCModel (Version 6.3-1L) Copyright: S.W. Provencher.          Ref.: Magn. Reson. Med. 30:672-679 (1993).                
 Slice#2 Row#14 Col#4  PD_05_press_1_raw_act
 36 lines in following concentration table = NCONC+1
    Conc.  %SD /Cr+PCr  Metabolite                                         
    0.000 999%   0.000 Ala                                                 
   23.442 106%   0.595 Asp                                                 
    0.000 999%   0.000 Cr                                                  
   39.431  69%   1.000 PCr                                                 
   14.648 102%   0.371 GABA                                                
   10.694 140%   0.271 Glc                                                 
    0.000 999%   0.000 Gln                                                 
    0.000 999%   0.000 Glu                                                 
    3.219 347% 8.2E-02 GPC                                                 
    0.000 999%   0.000 PCh                                                 
    0.000 999%   0.000 GSH                                                 
    0.000 999%   0.000 Ins                                                 
    0.000 999%   0.000 Lac                                                 
  474.845  11%  12.043 NAA                                                 
    0.000 999%   0.000 NAAG                                                
    2.027 237% 5.1E-02 Scyllo                                              
    6.780 362%   0.172 Tau                                                 
    2.767 175% 7.0E-02 -CrCH2                                              
    3.219 347% 8.2E-02 GPC+PCh                                             
  474.845  11%  12.043 NAA+NAAG                                            
   39.431  69%   1.000 Cr+PCr                                              
    0.000 999%   0.000 Glu+Gln                                             
    0.000 999%   0.000 Lip13a                                              
    0.000 999%   0.000 Lip13b                                              
    0.000 999%   0.000 Lip09                                               
   97.028  47%   2.461 MM09                                                
   69.331  68%   1.758 Lip20                                               
  604.327  22%  15.326 MM20                                                
   37.525 114%   0.952 MM12                                                
    0.000 999%   0.000 MM14                                                
    0.000 999%   0.000 MM17                                                
    0.000 999%   0.000 Lip13a+Lip13b                                       
   37.525 114%   0.952 MM14+Lip13a+Lip13b+MM12                             
   97.028  47%   2.461 MM09+Lip09                                          
  673.657  20%  17.085 MM20+Lip20                                          
   6 lines in following misc. output table
  FWHM = 0.229 ppm    S/N =   3                                            
  Data shift = 0.161 ppm                                                   
  Ph:  79 deg       0.4 deg/ppm                                            
  alphaB,S = 2.7E+00,   8.5E+01                                            
    8 spline knots.   Ns = 9(2)                                            
  (10) 7 infls.   ( 9) 3 extrs.                                            
  498 points on ppm-axis = NY
      4.000000     3.992357     3.984714     3.977070     3.969427     3.961784     3.954141     3.946497     3.938854     3.931211
      3.923568     3.915925     3.908281     3.900638     3.892995     3.885352     3.877708     3.870065     3.862422     3.854779
      3.847136     3.839492     3.831849     3.824206     3.816563     3.808919     3.801276     3.793633     3.785990     3.778347
      3.770703     3.763060     3.755417     3.747774     3.740130     3.732487     3.724844     3.717201     3.709558     3.701914
      3.694271     3.686628     3.678985     3.671341     3.663698     3.656055     3.648412     3.640769     3.633125     3.625482
      3.617839     3.610196     3.602552     3.594909     3.587266     3.579623     3.571980     3.564336     3.556693     3.549050
      3.541407     3.533763     3.526120     3.518477     3.510834     3.503191     3.495547     3.487904     3.480261     3.472618
      3.464974     3.457331     3.449688     3.442045     3.434402     3.426758     3.419115     3.411472     3.403829     3.396185
      3.388542     3.380899     3.373256     3.365613     3.357969     3.350326     3.342683     3.335040     3.327396     3.319753
      3.312110     3.304467     3.296824     3.289180     3.281537     3.273894     3.266251     3.258607     3.250964     3.243321
      3.235678     3.228034     3.220391     3.212748     3.205105     3.197462     3.189818     3.182175     3.174532     3.166889
      3.159245     3.151602     3.143959     3.136316     3.128673     3.121029     3.113386     3.105743     3.098100     3.090456
      3.082813     3.075170     3.067527     3.059884     3.052240     3.044597     3.036954     3.029311     3.021667     3.014024
      3.006381     2.998738     2.991095     2.983451     2.975808     2.968165     2.960522     2.952878     2.945235     2.937592
      2.929949     2.922306     2.914662     2.907019     2.899376     2.891733     2.884089     2.876446     2.868803     2.861160
      2.853517     2.845873     2.838230     2.830587     2.822944     2.815300     2.807657     2.800014     2.792371     2.784728
      2.777084     2.769441     2.761798     2.754155     2.746511     2.738868     2.731225     2.723582     2.715939     2.708295
      2.700652     2.693009     2.685366     2.677722     2.670079     2.662436     2.654793     2.647150     2.639506     2.631863
      2.624220     2.616577     2.608933     2.601290     2.593647     2.586004     2.578361     2.570717     2.563074     2.555431
      2.547788     2.540144     2.532501     2.524858     2.517215     2.509572     2.501928     2.494285     2.486642     2.478999
      2.471355     2.463712     2.456069     2.448426     2.440783     2.433139     2.425496     2.417853     2.410210     2.402566
      2.394923     2.387280     2.379637     2.371994     2.364350     2.356707     2.349064     2.341421     2.333777     2.326134
      2.318491     2.310848     2.303205     2.295561     2.287918     2.280275     2.272632     2.264988     2.257345     2.249702
      2.242059     2.234416     2.226772     2.219129     2.211486     2.203843     2.196199     2.188556     2.180913     2.173270
      2.165627     2.157983     2.150340     2.142697     2.135054     2.127410     2.119767     2.112124     2.104481     2.096838
      2.089194     2.081551     2.073908     2.066265     2.058621     2.050978     2.043335     2.035692     2.028049     2.020405
      2.012762     2.005119     1.997476     1.989833     1.982190     1.974546     1.966903     1.959260     1.951617     1.943974
      1.936331     1.928688     1.921045     1.913402     1.905759     1.898115     1.890472     1.882829     1.875186     1.867543
      1.859900     1.852257     1.844614     1.836971     1.829327     1.821684     1.814041     1.806398     1.798755     1.791112
      1.783469     1.775826     1.768183     1.760540     1.752896     1.745253     1.737610     1.729967     1.722324     1.714681
      1.707038     1.699395     1.691752     1.684108     1.676465     1.668822     1.661179     1.653536     1.645893     1.638250
      1.630607     1.622964     1.615321     1.607677     1.600034     1.592391     1.584748     1.577105     1.569462     1.561819
      1.554176     1.546533     1.538890     1.531246     1.523603     1.515960     1.508317     1.500674     1.493031     1.485388
      1.477745     1.470102     1.462458     1.454815     1.447172     1.439529     1.431886     1.424243     1.416600     1.408957
      1.401314     1.393671     1.386027     1.378384     1.370741     1.363098     1.355455     1.347812     1.340169     1.332526
      1.324883     1.317240     1.309596     1.301953     1.294310     1.286667     1.279024     1.271381     1.263738     1.256095
      1.248452     1.240808     1.233165     1.225522     1.217879     1.210236     1.202593     1.194950     1.187307     1.179664
      1.172021     1.164377     1.156734     1.149091     1.141448     1.133805     1.126162     1.118519     1.110876     1.103233
      1.095590     1.087946     1.080303     1.072660     1.065017     1.057374     1.049731     1.042088     1.034445     1.026802
      1.019158     1.011515     1.003872     0.996229     0.988586     0.980943     0.973300     0.965657     0.958014     0.950371
      0.942727     0.935084     0.927441     0.919798     0.912155     0.904512     0.896869     0.889226     0.881583     0.873940
      0.866296     0.858653     0.851010     0.843367     0.835724     0.828081     0.820438     0.812795     0.805152     0.797508
      0.789865     0.782222     0.774579     0.766936     0.759293     0.751650     0.744007     0.736364     0.728721     0.721077
      0.713434     0.705791     0.698148     0.690505     0.682862     0.675219     0.667576     0.659933     0.652290     0.644646
      0.637003     0.629360     0.621717     0.614074     0.606431     0.598788     0.591145     0.583502     0.575858     0.568215
      0.560572     0.552929     0.545286     0.537643     0.530000     0.522357     0.514714     0.507071     0.499427     0.491784
      0.484141     0.476498     0.468855     0.461212     0.453569     0.445925     0.438282     0.430639     0.422996     0.415353
      0.407710     0.400067     0.392424     0.384780     0.377137     0.369494     0.361851     0.354208     0.346565     0.338922
      0.331278     0.323635     0.315992     0.308349     0.300706     0.293063     0.285420     0.277777     0.270133     0.262490
      0.254847     0.247204     0.239561     0.231918     0.224275     0.216631     0.208988     0.201345
 NY phased data points follow
   2.38604E+01  2.34447E+01  2.22151E+01  2.33584E+01  2.20444E+01  2.32510E+01  2.34040E+01  2.25676E+01  2.32592E+01  2.28220E+01
   2.09028E+01  2.31615E+01  2.11816E+01  2.33554E+01  2.15209E+01  2.19056E+01  2.24716E+01  2.04564E+01  2.16372E+01  2.25853E+01
   2.20039E+01  2.20969E+01  2.10499E+01  1.99704E+01  2.01473E+01  1.92809E+01  1.96762E+01  1.85799E+01  1.97525E+01  1.99508E+01
   1.92959E+01  2.03592E+01  2.00474E+01  1.99725E+01  1.73678E+01  1.92388E+01  1.90125E+01  1.84062E+01  1.89595E+01  1.68791E+01
   1.76904E+01  1.70906E+01  1.76464E+01  1.59533E+01  1.87948E+01  1.83483E+01  1.68167E+01  1.54927E+01  1.58225E+01  1.58243E+01
   1.83692E+01  1.54780E+01  1.63113E+01  1.62144E+01  1.77657E+01  1.71556E+01  1.60735E+01  1.77614E+01  1.62253E+01  1.71693E+01
   1.51597E+01  1.56195E+01  1.62624E+01  1.53398E+01  1.60596E+01  1.67026E+01  1.67135E+01  1.67825E+01  1.37918E+01  1.64384E+01
   1.47839E+01  1.56708E+01  1.32673E+01  1.59207E+01  1.43422E+01  1.48508E+01  1.50367E+01  1.58383E+01  1.48789E+01  1.41748E+01
   1.37703E+01  1.29151E+01  1.37967E+01  1.46758E+01  1.40823E+01  1.48692E+01  1.43933E+01  1.57143E+01  1.43073E+01  1.35967E+01
   1.38728E+01  1.35726E+01  1.50397E+01  1.40484E+01  1.36335E+01  1.28841E+01  1.38281E+01  1.31699E+01  1.47874E+01  1.28166E+01
   1.40487E+01  1.38879E+01  1.37762E+01  1.35443E+01  1.08310E+01  1.37246E+01  1.28916E+01  1.28972E+01  1.25562E+01  1.45080E+01
   1.37551E+01  1.35155E+01  1.38239E+01  1.34578E+01  1.33624E+01  1.37348E+01  1.44764E+01  1.37603E+01  1.39670E+01  1.48510E+01
   1.33808E+01  1.29114E+01  1.33875E+01  1.35232E+01  1.25526E+01  1.27129E+01  1.35155E+01  1.32504E+01  1.30374E+01  1.26102E+01
   1.22440E+01  1.28871E+01  1.17026E+01  1.21058E+01  1.25533E+01  1.34642E+01  1.20167E+01  1.29181E+01  1.26650E+01  1.23975E+01
   1.26269E+01  1.26955E+01  1.36960E+01  1.11218E+01  1.30066E+01  1.14328E+01  1.08179E+01  1.24626E+01  1.18054E+01  1.32321E+01
   1.19959E+01  1.17141E+01  1.20757E+01  1.21103E+01  1.11100E+01  1.33057E+01  1.20808E+01  1.24467E+01  1.29653E+01  1.25690E+01
   1.25319E+01  1.28256E+01  1.31530E+01  1.20609E+01  1.33600E+01  1.03405E+01  1.12215E+01  1.20569E+01  1.23311E+01  1.06708E+01
   1.16483E+01  1.12423E+01  1.05952E+01  9.62487E+00  1.08143E+01  1.11352E+01  1.06154E+01  1.00099E+01  1.08040E+01  8.76173E+00
   1.13525E+01  1.20437E+01  1.06076E+01  1.03569E+01  1.01834E+01  1.01524E+01  9.77533E+00  1.06300E+01  1.10447E+01  1.17649E+01
   1.06888E+01  1.19983E+01  1.02708E+01  1.18733E+01  1.10815E+01  9.89816E+00  1.26684E+01  1.21157E+01  1.06291E+01  1.11071E+01
   1.15653E+01  1.17079E+01  1.11213E+01  1.02147E+01  9.63748E+00  1.16048E+01  1.08251E+01  1.12193E+01  1.13767E+01  1.07091E+01
   1.00818E+01  1.08346E+01  1.18343E+01  1.08547E+01  9.71818E+00  1.09553E+01  9.67907E+00  1.16318E+01  1.18546E+01  1.01282E+01
   1.11140E+01  1.01281E+01  1.09897E+01  1.14081E+01  1.03885E+01  1.00827E+01  1.22728E+01  1.22257E+01  9.01434E+00  1.03064E+01
   9.50782E+00  1.06141E+01  9.60183E+00  1.06899E+01  1.02534E+01  1.04783E+01  1.10449E+01  8.88206E+00  1.03618E+01  1.02338E+01
   9.78651E+00  1.15290E+01  1.12571E+01  1.07854E+01  1.18664E+01  1.08377E+01  1.22232E+01  1.15278E+01  1.24610E+01  1.12563E+01
   1.19775E+01  1.22893E+01  1.22411E+01  1.30511E+01  1.24102E+01  1.24162E+01  1.16410E+01  1.25117E+01  1.23002E+01  1.19356E+01
   1.26515E+01  1.10234E+01  1.27881E+01  1.16182E+01  1.24558E+01  1.16582E+01  1.25481E+01  1.14893E+01  1.28647E+01  1.27045E+01
   1.08552E+01  1.13318E+01  1.17932E+01  1.12833E+01  9.88523E+00  1.08701E+01  1.02737E+01  1.17786E+01  1.06822E+01  1.13850E+01
   9.79417E+00  9.01734E+00  9.09480E+00  7.65489E+00  8.28387E+00  6.95370E+00  7.39499E+00  5.67477E+00  7.02837E+00  5.15182E+00
   4.27233E+00  4.98120E+00  4.15347E+00  2.95835E+00  2.56569E+00  3.92064E+00  2.93255E+00  4.08766E+00  2.87479E+00  2.73016E+00
   2.85163E+00  3.80094E+00  2.77068E+00  4.30000E+00  2.54691E+00  2.64300E+00  4.01617E+00  3.07392E+00  1.23444E+00  1.51418E+00
   3.64965E+00  1.61259E+00  2.62519E+00  3.41138E+00  3.21284E+00  2.08059E+00  3.11492E+00  2.66621E+00  3.68942E+00  2.21378E+00
   3.42538E+00  3.22146E+00  3.78052E+00  1.84195E+00  1.51246E+00  3.11300E+00  3.83687E+00  3.99382E+00  3.90068E+00  3.93065E+00
   3.05587E+00  4.15945E+00  3.04508E+00  3.37040E+00  1.36866E+00  2.91863E+00  3.00599E+00  4.31288E+00  4.04399E+00  3.19996E+00
   2.64312E+00  2.52509E+00  9.85547E-01  3.81216E+00  2.78187E+00  2.63623E+00  1.04068E+00  2.02675E+00  2.70854E+00  3.22089E+00
   2.00024E+00  1.57104E+00  1.89544E+00  9.60837E-01  2.23549E+00  2.27693E+00  1.94355E+00  1.55470E+00  1.25564E+00  7.81747E-01
   2.04759E+00  2.42524E+00  2.00129E+00  3.57176E+00  2.65334E+00  2.07066E+00  2.56719E+00  2.78714E+00  2.77171E+00  2.21218E+00
   2.45082E+00  4.30766E+00  2.84837E+00  2.47577E+00  2.11110E+00  2.73756E+00  3.69813E+00  2.56633E+00  3.36447E+00  3.95778E+00
   3.53824E+00  2.94480E+00  1.77808E+00  5.39819E-01  2.49808E+00  3.43913E+00  2.76906E+00  3.24026E+00  8.90249E-01  1.98179E+00
   2.04464E+00  1.69509E+00  3.14423E+00  3.02832E+00  1.11934E+00  1.29836E+00  1.58041E+00  1.47530E+00  1.16626E+00  2.02152E+00
   2.14432E+00  1.76935E+00  2.40121E+00  2.50765E+00  2.26493E+00  2.98373E+00  3.32142E+00  3.49605E+00  1.26832E+00  2.63606E+00
   3.08435E+00  1.12583E+00  2.98346E+00  2.22190E+00  1.84346E+00  1.96371E+00  1.16413E+00  3.22820E+00  1.87491E+00  2.28364E+00
   2.30292E+00  3.47354E+00  3.98546E+00  1.99291E+00  2.22627E+00  2.05608E+00  2.51048E+00  3.83551E+00  3.54448E+00  1.92721E+00
   1.59728E+00  1.72379E+00  2.77919E+00  2.78763E+00  3.09381E+00  3.25901E+00  3.48230E+00  1.81642E+00  2.05158E+00  1.46810E+00
   1.62064E+00  1.74237E+00  2.61106E+00  2.95373E+00  2.55914E+00  2.31382E+00  2.75796E+00  2.37109E+00  2.40498E+00  1.82052E+00
   3.21407E+00  2.83117E+00  2.46683E+00  3.18212E+00  7.50670E-01  1.27690E+00  2.02310E+00  1.92637E+00  1.99420E+00  3.04051E+00
   2.36708E+00  3.71486E+00  2.31339E+00  1.59762E+00  1.94876E+00  1.81208E+00  2.03068E+00  2.47659E+00  3.47214E+00  1.38801E+00
   1.68582E+00  2.30765E+00  2.08417E+00  2.37776E+00  1.86860E+00  4.13789E+00  2.58498E+00  2.62059E+00  2.77367E+00  2.05269E+00
   3.77238E+00  2.87814E-01  4.23009E+00  1.83929E+00  2.33585E+00  2.37490E+00  2.84116E+00  1.86898E+00  1.69828E+00  3.22484E+00
   2.75790E+00  2.46710E+00  2.59303E+00  2.64300E+00  3.41486E+00  2.77204E+00  2.98614E+00  2.14344E+00
 NY points of the fit to the data follow
   2.27904E+01  2.27103E+01  2.25713E+01  2.24895E+01  2.23514E+01  2.22736E+01  2.21352E+01  2.20600E+01  2.19213E+01  2.18501E+01
   2.17107E+01  2.16460E+01  2.15041E+01  2.14431E+01  2.12970E+01  2.12365E+01  2.10853E+01  2.10220E+01  2.08684E+01  2.08031E+01
   2.06493E+01  2.05833E+01  2.04289E+01  2.03627E+01  2.01995E+01  2.01174E+01  1.99409E+01  1.98167E+01  1.96492E+01  1.94908E+01
   1.93751E+01  1.92642E+01  1.91553E+01  1.90514E+01  1.89453E+01  1.88433E+01  1.87387E+01  1.86401E+01  1.85429E+01  1.84439E+01
   1.83461E+01  1.82420E+01  1.81404E+01  1.80381E+01  1.79382E+01  1.78362E+01  1.77374E+01  1.76358E+01  1.75396E+01  1.74405E+01
   1.73463E+01  1.72500E+01  1.71570E+01  1.70620E+01  1.69698E+01  1.68762E+01  1.67850E+01  1.66949E+01  1.66051E+01  1.65181E+01
   1.64298E+01  1.63445E+01  1.62567E+01  1.61718E+01  1.60858E+01  1.60045E+01  1.59200E+01  1.58412E+01  1.57613E+01  1.56822E+01
   1.56018E+01  1.55244E+01  1.54449E+01  1.53693E+01  1.52914E+01  1.52176E+01  1.51421E+01  1.50703E+01  1.49973E+01  1.49262E+01
   1.48550E+01  1.47861E+01  1.47173E+01  1.46511E+01  1.45873E+01  1.45310E+01  1.44685E+01  1.44155E+01  1.43551E+01  1.43033E+01
   1.42434E+01  1.41926E+01  1.41318E+01  1.40818E+01  1.40193E+01  1.39706E+01  1.39082E+01  1.38661E+01  1.38100E+01  1.37732E+01
   1.37203E+01  1.36868E+01  1.36326E+01  1.36025E+01  1.35461E+01  1.35210E+01  1.34651E+01  1.34522E+01  1.34318E+01  1.34584E+01
   1.34293E+01  1.34684E+01  1.34246E+01  1.34674E+01  1.34164E+01  1.34618E+01  1.34066E+01  1.34589E+01  1.33929E+01  1.34382E+01
   1.33591E+01  1.33855E+01  1.33059E+01  1.33233E+01  1.32593E+01  1.32978E+01  1.32347E+01  1.32791E+01  1.32146E+01  1.32656E+01
   1.31933E+01  1.32459E+01  1.31617E+01  1.32120E+01  1.31143E+01  1.31573E+01  1.30520E+01  1.30892E+01  1.29825E+01  1.30178E+01
   1.29123E+01  1.29472E+01  1.28214E+01  1.28259E+01  1.26503E+01  1.25874E+01  1.24107E+01  1.23099E+01  1.22496E+01  1.22107E+01
   1.21631E+01  1.21231E+01  1.20762E+01  1.20398E+01  1.19926E+01  1.19594E+01  1.19121E+01  1.18733E+01  1.18201E+01  1.17647E+01
   1.17142E+01  1.16690E+01  1.16217E+01  1.15775E+01  1.15104E+01  1.14706E+01  1.14006E+01  1.13687E+01  1.13040E+01  1.12717E+01
   1.12000E+01  1.11809E+01  1.11099E+01  1.10967E+01  1.10266E+01  1.10168E+01  1.09468E+01  1.09418E+01  1.08806E+01  1.08955E+01
   1.08706E+01  1.08786E+01  1.08686E+01  1.08372E+01  1.07773E+01  1.07503E+01  1.06921E+01  1.07210E+01  1.06885E+01  1.07195E+01
   1.06803E+01  1.07119E+01  1.06751E+01  1.07215E+01  1.06933E+01  1.07517E+01  1.07065E+01  1.07619E+01  1.06962E+01  1.07107E+01
   1.06740E+01  1.07000E+01  1.06821E+01  1.06898E+01  1.06505E+01  1.06633E+01  1.06468E+01  1.06500E+01  1.06323E+01  1.05891E+01
   1.05338E+01  1.05033E+01  1.04489E+01  1.04169E+01  1.03508E+01  1.03113E+01  1.02326E+01  1.02100E+01  1.01328E+01  1.01595E+01
   1.00958E+01  1.01183E+01  1.00380E+01  1.00395E+01  9.94990E+00  9.93319E+00  9.87991E+00  9.88510E+00  9.84165E+00  9.86004E+00
   9.83402E+00  9.87032E+00  9.87705E+00  9.91857E+00  9.94979E+00  9.96420E+00  9.97503E+00  9.99474E+00  1.00155E+01  1.00446E+01
   1.00785E+01  1.01351E+01  1.02871E+01  1.07377E+01  1.09702E+01  1.14013E+01  1.15745E+01  1.18621E+01  1.19586E+01  1.21640E+01
   1.22244E+01  1.24423E+01  1.24565E+01  1.25926E+01  1.25324E+01  1.25433E+01  1.24393E+01  1.24570E+01  1.23415E+01  1.23533E+01
   1.22340E+01  1.22716E+01  1.21672E+01  1.22634E+01  1.21673E+01  1.22684E+01  1.21550E+01  1.22169E+01  1.20613E+01  1.20294E+01
   1.18326E+01  1.17475E+01  1.15372E+01  1.14540E+01  1.12491E+01  1.11883E+01  1.09025E+01  1.05452E+01  9.98584E+00  8.90194E+00
   8.08611E+00  6.63247E+00  6.12324E+00  5.90715E+00  5.75416E+00  5.62787E+00  5.51467E+00  5.41272E+00  5.31684E+00  5.22804E+00
   5.14371E+00  5.06128E+00  4.98159E+00  4.90409E+00  4.82784E+00  4.75441E+00  4.68239E+00  4.61343E+00  4.54729E+00  4.48429E+00
   4.42211E+00  4.36331E+00  4.30488E+00  4.24841E+00  4.19200E+00  4.13687E+00  4.08152E+00  4.02834E+00  3.97526E+00  3.92397E+00
   3.87280E+00  3.82368E+00  3.77497E+00  3.72761E+00  3.68114E+00  3.63555E+00  3.59070E+00  3.54676E+00  3.50355E+00  3.46122E+00
   3.41958E+00  3.37879E+00  3.33871E+00  3.29950E+00  3.26097E+00  3.22328E+00  3.18625E+00  3.15006E+00  3.11456E+00  3.07989E+00
   3.04591E+00  3.01275E+00  2.98029E+00  2.94868E+00  2.91780E+00  2.88779E+00  2.85853E+00  2.83015E+00  2.80256E+00  2.77591E+00
   2.75009E+00  2.72527E+00  2.70130E+00  2.67836E+00  2.65633E+00  2.63538E+00  2.61537E+00  2.59645E+00  2.57845E+00  2.56152E+00
   2.54548E+00  2.53046E+00  2.51622E+00  2.50285E+00  2.49011E+00  2.47805E+00  2.46641E+00  2.45522E+00  2.44418E+00  2.43331E+00
   2.42234E+00  2.41129E+00  2.39992E+00  2.38827E+00  2.37612E+00  2.36359E+00  2.35051E+00  2.33707E+00  2.32316E+00  2.30900E+00
   2.29456E+00  2.28012E+00  2.26570E+00  2.25162E+00  2.23791E+00  2.22492E+00  2.21269E+00  2.20159E+00  2.19167E+00  2.18329E+00
   2.17650E+00  2.17162E+00  2.16870E+00  2.16809E+00  2.16981E+00  2.17415E+00  2.18111E+00  2.19095E+00  2.20360E+00  2.21926E+00
   2.23776E+00  2.25916E+00  2.28314E+00  2.30961E+00  2.33809E+00  2.36828E+00  2.39950E+00  2.43128E+00  2.46277E+00  2.49337E+00
   2.52215E+00  2.54849E+00  2.57147E+00  2.59058E+00  2.60509E+00  2.61469E+00  2.61895E+00  2.61788E+00  2.61138E+00  2.59981E+00
   2.58340E+00  2.56281E+00  2.53852E+00  2.51138E+00  2.48197E+00  2.45121E+00  2.41968E+00  2.38823E+00  2.35732E+00  2.32763E+00
   2.29946E+00  2.27328E+00  2.24920E+00  2.22752E+00  2.20817E+00  2.19129E+00  2.17669E+00  2.16442E+00  2.15420E+00  2.14606E+00
   2.13967E+00  2.13502E+00  2.13181E+00  2.13003E+00  2.12941E+00  2.12996E+00  2.13141E+00  2.13380E+00  2.13688E+00  2.14074E+00
   2.14515E+00  2.15018E+00  2.15564E+00  2.16162E+00  2.16793E+00  2.17469E+00  2.18171E+00  2.18911E+00  2.19671E+00  2.20464E+00
   2.21273E+00  2.22111E+00  2.22962E+00  2.23837E+00  2.24722E+00  2.25629E+00  2.26543E+00  2.27478E+00  2.28416E+00  2.29372E+00
   2.30330E+00  2.31304E+00  2.32279E+00  2.33267E+00  2.34254E+00  2.35253E+00  2.36249E+00  2.37256E+00  2.38259E+00  2.39271E+00
   2.40277E+00  2.41290E+00  2.42296E+00  2.43309E+00  2.44314E+00  2.45323E+00  2.46323E+00  2.47326E+00  2.48318E+00  2.49314E+00
   2.50296E+00  2.51281E+00  2.52251E+00  2.53222E+00  2.54178E+00  2.55134E+00  2.56074E+00  2.57012E+00  2.57932E+00  2.58850E+00
   2.59751E+00  2.60647E+00  2.61524E+00  2.62396E+00  2.63247E+00  2.64094E+00  2.64920E+00  2.65739E+00
 NY background values follow
     2.263E+01    2.252E+01    2.241E+01    2.229E+01    2.218E+01    2.207E+01    2.196E+01    2.184E+01    2.173E+01    2.162E+01
     2.151E+01    2.139E+01    2.128E+01    2.117E+01    2.106E+01    2.095E+01    2.084E+01    2.073E+01    2.062E+01    2.051E+01
     2.040E+01    2.029E+01    2.018E+01    2.007E+01    1.996E+01    1.985E+01    1.975E+01    1.964E+01    1.953E+01    1.943E+01
     1.932E+01    1.922E+01    1.911E+01    1.901E+01    1.890E+01    1.880E+01    1.869E+01    1.859E+01    1.849E+01    1.839E+01
     1.828E+01    1.818E+01    1.808E+01    1.798E+01    1.788E+01    1.779E+01    1.769E+01    1.759E+01    1.749E+01    1.740E+01
     1.730E+01    1.720E+01    1.711E+01    1.702E+01    1.692E+01    1.683E+01    1.674E+01    1.665E+01    1.656E+01    1.647E+01
     1.638E+01    1.629E+01    1.620E+01    1.611E+01    1.603E+01    1.594E+01    1.586E+01    1.577E+01    1.569E+01    1.561E+01
     1.552E+01    1.544E+01    1.536E+01    1.528E+01    1.521E+01    1.513E+01    1.505E+01    1.498E+01    1.490E+01    1.483E+01
     1.475E+01    1.468E+01    1.461E+01    1.454E+01    1.447E+01    1.440E+01    1.434E+01    1.427E+01    1.420E+01    1.414E+01
     1.408E+01    1.401E+01    1.395E+01    1.389E+01    1.383E+01    1.378E+01    1.372E+01    1.366E+01    1.361E+01    1.355E+01
     1.350E+01    1.345E+01    1.340E+01    1.335E+01    1.330E+01    1.326E+01    1.321E+01    1.316E+01    1.312E+01    1.308E+01
     1.303E+01    1.299E+01    1.295E+01    1.291E+01    1.287E+01    1.283E+01    1.280E+01    1.276E+01    1.273E+01    1.269E+01
     1.266E+01    1.262E+01    1.259E+01    1.256E+01    1.253E+01    1.249E+01    1.246E+01    1.243E+01    1.240E+01    1.238E+01
     1.235E+01    1.232E+01    1.229E+01    1.227E+01    1.224E+01    1.221E+01    1.219E+01    1.216E+01    1.214E+01    1.211E+01
     1.209E+01    1.206E+01    1.204E+01    1.202E+01    1.199E+01    1.197E+01    1.195E+01    1.193E+01    1.190E+01    1.188E+01
     1.186E+01    1.184E+01    1.181E+01    1.179E+01    1.177E+01    1.175E+01    1.172E+01    1.170E+01    1.168E+01    1.166E+01
     1.164E+01    1.161E+01    1.159E+01    1.157E+01    1.154E+01    1.152E+01    1.150E+01    1.147E+01    1.145E+01    1.143E+01
     1.140E+01    1.138E+01    1.135E+01    1.132E+01    1.130E+01    1.127E+01    1.125E+01    1.122E+01    1.119E+01    1.116E+01
     1.113E+01    1.110E+01    1.107E+01    1.104E+01    1.101E+01    1.098E+01    1.095E+01    1.091E+01    1.088E+01    1.085E+01
     1.081E+01    1.077E+01    1.074E+01    1.070E+01    1.066E+01    1.062E+01    1.058E+01    1.054E+01    1.050E+01    1.046E+01
     1.041E+01    1.037E+01    1.033E+01    1.028E+01    1.023E+01    1.018E+01    1.014E+01    1.009E+01    1.004E+01    9.985E+00
     9.933E+00    9.880E+00    9.827E+00    9.773E+00    9.718E+00    9.663E+00    9.607E+00    9.550E+00    9.493E+00    9.435E+00
     9.377E+00    9.318E+00    9.258E+00    9.198E+00    9.137E+00    9.076E+00    9.014E+00    8.952E+00    8.890E+00    8.827E+00
     8.763E+00    8.699E+00    8.635E+00    8.570E+00    8.505E+00    8.440E+00    8.374E+00    8.308E+00    8.242E+00    8.175E+00
     8.108E+00    8.041E+00    7.974E+00    7.906E+00    7.838E+00    7.770E+00    7.702E+00    7.634E+00    7.565E+00    7.497E+00
     7.428E+00    7.359E+00    7.290E+00    7.222E+00    7.153E+00    7.084E+00    7.015E+00    6.946E+00    6.877E+00    6.808E+00
     6.739E+00    6.671E+00    6.602E+00    6.534E+00    6.465E+00    6.397E+00    6.329E+00    6.261E+00    6.193E+00    6.126E+00
     6.059E+00    5.992E+00    5.925E+00    5.858E+00    5.792E+00    5.726E+00    5.661E+00    5.595E+00    5.530E+00    5.466E+00
     5.402E+00    5.338E+00    5.275E+00    5.212E+00    5.150E+00    5.088E+00    5.026E+00    4.965E+00    4.905E+00    4.845E+00
     4.786E+00    4.727E+00    4.669E+00    4.611E+00    4.554E+00    4.498E+00    4.442E+00    4.387E+00    4.333E+00    4.279E+00
     4.226E+00    4.174E+00    4.122E+00    4.071E+00    4.021E+00    3.972E+00    3.923E+00    3.875E+00    3.827E+00    3.781E+00
     3.734E+00    3.689E+00    3.644E+00    3.600E+00    3.556E+00    3.514E+00    3.471E+00    3.430E+00    3.389E+00    3.349E+00
     3.309E+00    3.270E+00    3.231E+00    3.194E+00    3.156E+00    3.120E+00    3.084E+00    3.048E+00    3.014E+00    2.979E+00
     2.946E+00    2.913E+00    2.881E+00    2.849E+00    2.817E+00    2.787E+00    2.757E+00    2.727E+00    2.698E+00    2.670E+00
     2.642E+00    2.615E+00    2.588E+00    2.562E+00    2.536E+00    2.511E+00    2.487E+00    2.463E+00    2.439E+00    2.416E+00
     2.394E+00    2.372E+00    2.351E+00    2.330E+00    2.309E+00    2.289E+00    2.270E+00    2.251E+00    2.233E+00    2.215E+00
     2.198E+00    2.181E+00    2.164E+00    2.148E+00    2.133E+00    2.118E+00    2.104E+00    2.090E+00    2.076E+00    2.063E+00
     2.050E+00    2.038E+00    2.026E+00    2.015E+00    2.004E+00    1.994E+00    1.984E+00    1.974E+00    1.965E+00    1.956E+00
     1.948E+00    1.940E+00    1.932E+00    1.925E+00    1.919E+00    1.912E+00    1.907E+00    1.901E+00    1.896E+00    1.891E+00
     1.887E+00    1.883E+00    1.879E+00    1.876E+00    1.873E+00    1.871E+00    1.869E+00    1.867E+00    1.866E+00    1.865E+00
     1.864E+00    1.864E+00    1.864E+00    1.864E+00    1.865E+00    1.866E+00    1.867E+00    1.869E+00    1.871E+00    1.873E+00
     1.876E+00    1.878E+00    1.882E+00    1.885E+00    1.889E+00    1.893E+00    1.897E+00    1.901E+00    1.906E+00    1.911E+00
     1.916E+00    1.921E+00    1.927E+00    1.933E+00    1.939E+00    1.945E+00    1.952E+00    1.959E+00    1.966E+00    1.973E+00
     1.980E+00    1.988E+00    1.996E+00    2.003E+00    2.011E+00    2.020E+00    2.028E+00    2.037E+00    2.045E+00    2.054E+00
     2.063E+00    2.072E+00    2.081E+00    2.091E+00    2.100E+00    2.110E+00    2.120E+00    2.129E+00    2.139E+00    2.149E+00
     2.159E+00    2.170E+00    2.180E+00    2.190E+00    2.201E+00    2.211E+00    2.222E+00    2.232E+00    2.243E+00    2.253E+00
     2.264E+00    2.275E+00    2.286E+00    2.296E+00    2.307E+00    2.318E+00    2.329E+00    2.339E+00    2.350E+00    2.361E+00
     2.372E+00    2.382E+00    2.393E+00    2.404E+00    2.415E+00    2.425E+00    2.436E+00    2.446E+00    2.457E+00    2.467E+00
     2.477E+00    2.488E+00    2.498E+00    2.508E+00    2.518E+00    2.528E+00    2.538E+00    2.547E+00    2.557E+00    2.566E+00
     2.576E+00    2.585E+00    2.594E+00    2.603E+00    2.612E+00    2.620E+00    2.629E+00    2.637E+00
 Asp      Conc. = 2.34E+01
