 LCModel (Version 6.3-1L) Copyright: S.W. Provencher.          Ref.: Magn. Reson. Med. 30:672-679 (1993).                
 Slice#3 Row#8 Col#14  PD_05_press_1_raw_act
 36 lines in following concentration table = NCONC+1
    Conc.  %SD /Cr+PCr  Metabolite                                         
   28.210  75%   1.975 Ala                                                 
    3.780  39%   0.265 Asp                                                 
    0.000 999%   0.000 Cr                                                  
   14.285  64%   1.000 PCr                                                 
    2.243  40%   0.157 GABA                                                
    2.268  39%   0.159 Glc                                                 
    0.000 999%   0.000 Gln                                                 
    6.942 628%   0.486 Glu                                                 
    8.469  41%   0.593 GPC                                                 
    0.000 999%   0.000 PCh                                                 
   22.622  60%   1.584 GSH                                                 
    0.000 999%   0.000 Ins                                                 
    0.000 999%   0.000 Lac                                                 
   35.805  33%   2.506 NAA                                                 
    0.000 999%   0.000 NAAG                                                
    0.758  39% 5.3E-02 Scyllo                                              
    3.801  39%   0.266 Tau                                                 
    1.449 334%   0.101 -CrCH2                                              
    8.469  41%   0.593 GPC+PCh                                             
   35.805  33%   2.506 NAA+NAAG                                            
   14.285  64%   1.000 Cr+PCr                                              
    6.942 628%   0.486 Glu+Gln                                             
  859.836 326%  60.192 Lip13a                                              
 8.99E+03  37% 629.269 Lip13b                                              
 3.13E+03  11% 219.128 Lip09                                               
    0.000 999%   0.000 MM09                                                
    0.000 999%   0.000 Lip20                                               
   62.822 139%   4.398 MM20                                                
    0.000 999%   0.000 MM12                                                
 2.58E+03  19% 180.706 MM14                                                
 1.68E+03  15% 117.385 MM17                                                
 9.85E+03   7% 689.462 Lip13a+Lip13b                                       
 1.24E+04   4% 870.167 MM14+Lip13a+Lip13b+MM12                             
 3.13E+03  11% 219.128 MM09+Lip09                                          
   62.822 139%   4.398 MM20+Lip20                                          
   6 lines in following misc. output table
  FWHM = 0.054 ppm    S/N =  25                                            
  Data shift =-0.023 ppm                                                   
  Ph:-104 deg     -39.9 deg/ppm                                            
  alphaB,S = 8.5E+01,   2.9E+01                                            
   14 spline knots.   Ns = 5(1)                                            
  ( 4) 2 infls.   ( 1) 1 extrs.                                            
  498 points on ppm-axis = NY
      4.000000     3.992357     3.984714     3.977070     3.969427     3.961784     3.954141     3.946497     3.938854     3.931211
      3.923568     3.915925     3.908281     3.900638     3.892995     3.885352     3.877708     3.870065     3.862422     3.854779
      3.847136     3.839492     3.831849     3.824206     3.816563     3.808919     3.801276     3.793633     3.785990     3.778347
      3.770703     3.763060     3.755417     3.747774     3.740130     3.732487     3.724844     3.717201     3.709558     3.701914
      3.694271     3.686628     3.678985     3.671341     3.663698     3.656055     3.648412     3.640769     3.633125     3.625482
      3.617839     3.610196     3.602552     3.594909     3.587266     3.579623     3.571980     3.564336     3.556693     3.549050
      3.541407     3.533763     3.526120     3.518477     3.510834     3.503191     3.495547     3.487904     3.480261     3.472618
      3.464974     3.457331     3.449688     3.442045     3.434402     3.426758     3.419115     3.411472     3.403829     3.396185
      3.388542     3.380899     3.373256     3.365613     3.357969     3.350326     3.342683     3.335040     3.327396     3.319753
      3.312110     3.304467     3.296824     3.289180     3.281537     3.273894     3.266251     3.258607     3.250964     3.243321
      3.235678     3.228034     3.220391     3.212748     3.205105     3.197462     3.189818     3.182175     3.174532     3.166889
      3.159245     3.151602     3.143959     3.136316     3.128673     3.121029     3.113386     3.105743     3.098100     3.090456
      3.082813     3.075170     3.067527     3.059884     3.052240     3.044597     3.036954     3.029311     3.021667     3.014024
      3.006381     2.998738     2.991095     2.983451     2.975808     2.968165     2.960522     2.952878     2.945235     2.937592
      2.929949     2.922306     2.914662     2.907019     2.899376     2.891733     2.884089     2.876446     2.868803     2.861160
      2.853517     2.845873     2.838230     2.830587     2.822944     2.815300     2.807657     2.800014     2.792371     2.784728
      2.777084     2.769441     2.761798     2.754155     2.746511     2.738868     2.731225     2.723582     2.715939     2.708295
      2.700652     2.693009     2.685366     2.677722     2.670079     2.662436     2.654793     2.647150     2.639506     2.631863
      2.624220     2.616577     2.608933     2.601290     2.593647     2.586004     2.578361     2.570717     2.563074     2.555431
      2.547788     2.540144     2.532501     2.524858     2.517215     2.509572     2.501928     2.494285     2.486642     2.478999
      2.471355     2.463712     2.456069     2.448426     2.440783     2.433139     2.425496     2.417853     2.410210     2.402566
      2.394923     2.387280     2.379637     2.371994     2.364350     2.356707     2.349064     2.341421     2.333777     2.326134
      2.318491     2.310848     2.303205     2.295561     2.287918     2.280275     2.272632     2.264988     2.257345     2.249702
      2.242059     2.234416     2.226772     2.219129     2.211486     2.203843     2.196199     2.188556     2.180913     2.173270
      2.165627     2.157983     2.150340     2.142697     2.135054     2.127410     2.119767     2.112124     2.104481     2.096838
      2.089194     2.081551     2.073908     2.066265     2.058621     2.050978     2.043335     2.035692     2.028049     2.020405
      2.012762     2.005119     1.997476     1.989833     1.982190     1.974546     1.966903     1.959260     1.951617     1.943974
      1.936331     1.928688     1.921045     1.913402     1.905759     1.898115     1.890472     1.882829     1.875186     1.867543
      1.859900     1.852257     1.844614     1.836971     1.829327     1.821684     1.814041     1.806398     1.798755     1.791112
      1.783469     1.775826     1.768183     1.760540     1.752896     1.745253     1.737610     1.729967     1.722324     1.714681
      1.707038     1.699395     1.691752     1.684108     1.676465     1.668822     1.661179     1.653536     1.645893     1.638250
      1.630607     1.622964     1.615321     1.607677     1.600034     1.592391     1.584748     1.577105     1.569462     1.561819
      1.554176     1.546533     1.538890     1.531246     1.523603     1.515960     1.508317     1.500674     1.493031     1.485388
      1.477745     1.470102     1.462458     1.454815     1.447172     1.439529     1.431886     1.424243     1.416600     1.408957
      1.401314     1.393671     1.386027     1.378384     1.370741     1.363098     1.355455     1.347812     1.340169     1.332526
      1.324883     1.317240     1.309596     1.301953     1.294310     1.286667     1.279024     1.271381     1.263738     1.256095
      1.248452     1.240808     1.233165     1.225522     1.217879     1.210236     1.202593     1.194950     1.187307     1.179664
      1.172021     1.164377     1.156734     1.149091     1.141448     1.133805     1.126162     1.118519     1.110876     1.103233
      1.095590     1.087946     1.080303     1.072660     1.065017     1.057374     1.049731     1.042088     1.034445     1.026802
      1.019158     1.011515     1.003872     0.996229     0.988586     0.980943     0.973300     0.965657     0.958014     0.950371
      0.942727     0.935084     0.927441     0.919798     0.912155     0.904512     0.896869     0.889226     0.881583     0.873940
      0.866296     0.858653     0.851010     0.843367     0.835724     0.828081     0.820438     0.812795     0.805152     0.797508
      0.789865     0.782222     0.774579     0.766936     0.759293     0.751650     0.744007     0.736364     0.728721     0.721077
      0.713434     0.705791     0.698148     0.690505     0.682862     0.675219     0.667576     0.659933     0.652290     0.644646
      0.637003     0.629360     0.621717     0.614074     0.606431     0.598788     0.591145     0.583502     0.575858     0.568215
      0.560572     0.552929     0.545286     0.537643     0.530000     0.522357     0.514714     0.507071     0.499427     0.491784
      0.484141     0.476498     0.468855     0.461212     0.453569     0.445925     0.438282     0.430639     0.422996     0.415353
      0.407710     0.400067     0.392424     0.384780     0.377137     0.369494     0.361851     0.354208     0.346565     0.338922
      0.331278     0.323635     0.315992     0.308349     0.300706     0.293063     0.285420     0.277777     0.270133     0.262490
      0.254847     0.247204     0.239561     0.231918     0.224275     0.216631     0.208988     0.201345
 NY phased data points follow
   5.37136E-01 -1.03063E+00 -1.85651E+00 -1.40003E+00 -5.86924E-01  7.03505E-01 -7.30343E-01 -3.01947E-01  3.69494E-01 -2.44004E-01
   8.68013E-01 -2.05027E-01 -6.36183E-01 -1.39042E+00 -1.15310E-01 -3.44588E-01 -4.01272E-01  9.16184E-02  8.84827E-01 -9.44871E-02
   2.22933E-01  3.03460E-01 -2.85795E-01  2.38700E-01 -1.65980E-01 -2.26631E-01  5.85117E-01 -5.55520E-01  6.29687E-01  4.14900E-01
   1.22190E+00 -3.40660E-01  4.18233E-01  2.87342E-02  3.66730E-01  5.13318E-01  6.11512E-01  4.70814E-01  8.21498E-01  3.75939E-01
  -4.07591E-01  4.26968E-01  6.68001E-01 -7.81476E-02  5.65787E-02 -1.58993E-01  2.05476E-01 -2.16625E-01 -1.21179E+00 -4.53375E-01
  -2.12310E-01 -5.26353E-01 -2.72545E-01  1.16238E+00  9.67563E-01  1.61429E+00 -2.91554E-01 -8.92431E-02  1.46096E+00  8.67425E-01
   1.65877E+00  1.79018E+00  2.57707E+00  1.27625E+00  9.20906E-01 -3.31012E-01  4.63144E-02  1.10554E+00  1.53473E+00 -3.71078E-02
  -3.55001E-01  2.09005E+00  1.22915E+00  9.22881E-01  6.44469E-01  1.97206E+00  7.92099E-01  1.73758E+00  6.01763E-01  1.76689E+00
   2.85299E-01  3.68820E-01  7.22643E-01  1.64267E+00  9.91884E-01  2.07412E+00  2.32442E+00  5.09848E-01  1.75192E+00  1.34266E+00
   7.80697E-01  2.58090E+00  1.71237E+00  1.37276E+00  1.53637E+00  6.09249E-01  2.43811E+00  8.95691E-01  2.51886E+00  3.02297E+00
   2.18284E+00  1.90287E+00  2.81986E+00  2.53438E+00  2.37921E+00  1.29401E+00  9.46615E-01  2.37169E+00  4.20402E-01  1.19246E+00
   1.49227E+00  1.51677E+00  2.79471E+00  3.64801E+00  1.49273E+00  3.05756E+00  2.67697E+00  1.83639E+00  2.75566E+00  1.94366E+00
   1.85462E+00  3.06094E+00  1.59782E+00  2.90939E+00  3.31280E+00  2.20493E+00  2.98825E+00  2.57943E+00  1.53232E+00  2.59825E+00
   2.16560E+00  9.61810E-01  2.47433E+00  2.07085E+00  3.56617E+00  3.42488E+00  3.02678E+00  2.14484E+00  1.74610E+00  2.53037E+00
   2.42067E+00  1.89130E+00  2.75334E+00  2.30237E+00  2.30770E+00  3.35568E+00  1.94642E+00  2.45278E+00  1.84051E+00  2.08459E+00
   3.58131E+00  3.41618E+00  3.36598E+00  2.32480E+00  1.71986E+00  4.20464E+00  2.41019E+00  3.10952E+00  2.73358E+00  2.95360E+00
   2.50908E+00  4.08808E+00  3.10636E+00  2.87823E+00  2.69583E+00  3.93669E+00  4.58448E+00  4.08098E+00  2.59231E+00  4.21198E+00
   3.87772E+00  3.78914E+00  3.75349E+00  2.96946E+00  2.65330E+00  4.18125E+00  3.51068E+00  2.61937E+00  4.44175E+00  3.01268E+00
   3.62869E+00  4.36349E+00  3.79373E+00  3.03942E+00  4.23788E+00  3.23759E+00  6.22963E+00  4.46120E+00  5.42862E+00  4.39971E+00
   5.00813E+00  4.96783E+00  5.08751E+00  4.77350E+00  5.46919E+00  4.57482E+00  4.25770E+00  5.23469E+00  5.08127E+00  5.61069E+00
   4.80459E+00  6.72906E+00  4.92677E+00  5.62440E+00  6.21291E+00  4.84817E+00  6.09052E+00  5.80452E+00  6.92982E+00  6.56494E+00
   5.85824E+00  5.07257E+00  5.20842E+00  5.69406E+00  6.69570E+00  6.04043E+00  5.14054E+00  7.63544E+00  5.13251E+00  6.16074E+00
   7.29260E+00  5.48861E+00  5.97626E+00  6.05624E+00  6.55355E+00  6.47897E+00  5.79673E+00  6.30755E+00  6.38618E+00  7.15024E+00
   6.64171E+00  7.70110E+00  6.39088E+00  8.37655E+00  7.29791E+00  7.72851E+00  7.23738E+00  7.91469E+00  9.28291E+00  7.43635E+00
   8.45822E+00  6.15699E+00  7.53898E+00  8.68156E+00  8.45607E+00  9.32511E+00  9.47551E+00  7.88131E+00  8.77287E+00  9.89808E+00
   9.42443E+00  1.01335E+01  8.71952E+00  1.04210E+01  1.01621E+01  1.03720E+01  1.16938E+01  1.14003E+01  1.02457E+01  1.06944E+01
   1.13917E+01  1.39817E+01  1.11504E+01  1.22367E+01  1.07868E+01  1.16460E+01  1.14938E+01  1.22323E+01  1.29566E+01  1.37068E+01
   1.33556E+01  1.33386E+01  1.28182E+01  1.34058E+01  1.26823E+01  1.31642E+01  1.43719E+01  1.36880E+01  1.49172E+01  1.43229E+01
   1.42144E+01  1.48837E+01  1.51848E+01  1.65324E+01  1.51976E+01  1.54691E+01  1.54352E+01  1.52025E+01  1.63131E+01  1.54195E+01
   1.51823E+01  1.65733E+01  1.67605E+01  1.61528E+01  1.67014E+01  1.72533E+01  1.64035E+01  1.85694E+01  1.84902E+01  1.67788E+01
   1.80685E+01  1.86169E+01  1.84662E+01  1.92136E+01  1.86894E+01  1.86250E+01  2.00270E+01  1.99312E+01  1.95162E+01  1.83910E+01
   2.03738E+01  2.06123E+01  2.13394E+01  2.08537E+01  2.20835E+01  2.15837E+01  2.23467E+01  2.27052E+01  2.39493E+01  2.40540E+01
   2.54568E+01  2.45775E+01  2.53778E+01  2.69006E+01  2.66814E+01  2.68262E+01  2.80706E+01  2.82338E+01  2.91083E+01  2.90940E+01
   2.92197E+01  2.98302E+01  3.10675E+01  3.30398E+01  3.44919E+01  3.20620E+01  3.38629E+01  3.41128E+01  3.44102E+01  3.63489E+01
   3.68479E+01  3.77149E+01  3.75720E+01  3.84805E+01  3.95848E+01  4.06337E+01  4.23089E+01  4.11591E+01  4.14414E+01  4.26462E+01
   4.33976E+01  4.09532E+01  4.02059E+01  3.96632E+01  3.97374E+01  3.84484E+01  3.65719E+01  3.49149E+01  3.20308E+01  3.05386E+01
   2.76177E+01  2.68083E+01  2.38130E+01  2.18472E+01  1.91771E+01  1.54817E+01  1.49236E+01  1.22285E+01  9.21873E+00  8.73971E+00
   6.94160E+00  6.02534E+00  5.16833E+00  5.16590E+00  3.87442E+00  3.29661E+00  3.44272E+00  3.31246E+00  2.11119E+00  2.11223E+00
   3.50681E+00  2.96411E+00  2.48573E+00  2.91545E+00  2.48057E+00  2.39159E+00  2.04379E+00  3.29912E+00  2.95009E+00  3.99155E+00
   3.08642E+00  3.14188E+00  3.71521E+00  3.04387E+00  3.43230E+00  5.09586E+00  3.34950E+00  4.72439E+00  4.12026E+00  4.99089E+00
   3.28544E+00  3.25599E+00  4.05070E+00  3.94572E+00  3.33216E+00  3.54477E+00  2.77075E+00  3.05625E+00  2.32671E+00  2.93215E+00
   3.22334E+00  1.60524E+00  1.71010E+00  1.30571E+00 -3.47687E-01  1.86614E-01  1.45249E+00  8.34547E-02  3.24566E-01  3.59563E-01
  -5.03344E-01  5.98834E-01 -1.01698E+00 -7.70503E-01 -1.15007E+00 -1.06180E+00 -1.19037E+00 -2.01840E+00 -1.77696E+00 -1.68537E+00
  -2.17541E+00 -2.53657E+00 -2.66198E+00 -2.41168E+00 -1.49862E+00 -2.74344E+00 -2.21530E+00 -2.98938E+00 -3.29693E+00 -3.58508E+00
  -2.66359E+00 -3.69806E+00 -3.34239E+00 -2.56937E+00 -3.90708E+00 -3.43200E+00 -2.62088E+00 -4.12584E+00 -2.61106E+00 -2.08913E+00
  -2.47450E+00 -2.38055E+00 -2.57554E+00 -3.68925E+00 -2.57385E+00 -3.41727E+00 -2.80984E+00 -2.45456E+00 -2.10893E+00 -3.92412E+00
  -2.01633E+00 -2.87348E+00 -3.30324E+00 -3.64229E+00 -2.10277E+00 -3.60664E+00 -2.07871E+00 -3.59770E+00 -2.46947E+00 -2.35319E+00
  -2.46892E+00 -2.60783E+00 -2.59620E+00 -1.50667E+00 -2.93864E+00 -2.92661E+00 -2.84072E+00 -2.61298E+00 -1.90146E+00 -2.84137E+00
  -2.95250E+00 -2.99503E+00 -2.52999E+00 -1.37368E+00 -1.63426E+00 -1.76286E+00 -1.77843E+00 -1.39339E+00 -1.39556E+00 -1.26350E+00
  -2.89636E+00 -1.71759E+00 -2.70904E+00 -1.21773E+00 -1.76555E+00 -2.03034E+00 -1.64152E+00 -2.05305E+00
 NY points of the fit to the data follow
  -5.39728E-01 -5.00891E-01 -4.55070E-01 -3.93852E-01 -3.10446E-01 -2.29178E-01 -1.69544E-01 -1.31610E-01 -1.13578E-01 -1.20960E-01
  -1.57914E-01 -2.15254E-01 -2.74584E-01 -3.18507E-01 -3.34049E-01 -3.20771E-01 -2.89848E-01 -2.52947E-01 -2.13258E-01 -1.72702E-01
  -1.31352E-01 -9.63781E-02 -7.09875E-02 -4.88890E-02 -7.57399E-03  8.60051E-02  1.99440E-01  2.89388E-01  3.60038E-01  4.19585E-01
   4.44872E-01  4.05807E-01  3.08387E-01  1.90941E-01  9.49718E-02  4.07093E-02  2.88903E-02  4.74441E-02  7.66594E-02  1.05508E-01
   1.31899E-01  1.58004E-01  1.85029E-01  2.12718E-01  2.41748E-01  2.72130E-01  3.01037E-01  3.26675E-01  3.50726E-01  3.75727E-01
   4.01283E-01  4.24956E-01  4.45383E-01  4.62720E-01  4.78637E-01  4.95674E-01  5.15109E-01  5.36437E-01  5.59013E-01  5.82932E-01
   6.08296E-01  6.35010E-01  6.62232E-01  6.88885E-01  7.15124E-01  7.40656E-01  7.65436E-01  7.90023E-01  8.14843E-01  8.40463E-01
   8.68698E-01  8.99794E-01  9.31244E-01  9.61148E-01  9.89001E-01  1.01456E+00  1.03781E+00  1.05967E+00  1.08182E+00  1.10633E+00
   1.13595E+00  1.17367E+00  1.21577E+00  1.25549E+00  1.29019E+00  1.32061E+00  1.34731E+00  1.37001E+00  1.38888E+00  1.40645E+00
   1.42719E+00  1.45489E+00  1.49101E+00  1.53595E+00  1.58969E+00  1.65366E+00  1.73747E+00  1.87399E+00  2.07737E+00  2.26933E+00
   2.39537E+00  2.45804E+00  2.46649E+00  2.40425E+00  2.25545E+00  2.04647E+00  1.84022E+00  1.69662E+00  1.64233E+00  1.66326E+00
   1.71836E+00  1.77392E+00  1.82499E+00  1.87338E+00  1.91976E+00  1.96380E+00  2.00686E+00  2.05101E+00  2.09780E+00  2.15041E+00
   2.21654E+00  2.31560E+00  2.45279E+00  2.58348E+00  2.67853E+00  2.73917E+00  2.76829E+00  2.75628E+00  2.69899E+00  2.61023E+00
   2.51174E+00  2.43063E+00  2.38541E+00  2.37228E+00  2.37469E+00  2.38275E+00  2.40468E+00  2.45143E+00  2.52212E+00  2.60783E+00
   2.69378E+00  2.76321E+00  2.80549E+00  2.82235E+00  2.82451E+00  2.82403E+00  2.82970E+00  2.84443E+00  2.86683E+00  2.89334E+00
   2.92101E+00  2.95062E+00  2.98310E+00  3.01797E+00  3.05420E+00  3.09033E+00  3.12409E+00  3.15645E+00  3.18964E+00  3.22481E+00
   3.26275E+00  3.30180E+00  3.34230E+00  3.38536E+00  3.42917E+00  3.46996E+00  3.50529E+00  3.53634E+00  3.56695E+00  3.60005E+00
   3.63507E+00  3.66957E+00  3.70434E+00  3.74273E+00  3.78439E+00  3.82667E+00  3.86810E+00  3.91210E+00  3.96120E+00  4.01265E+00
   4.05980E+00  4.10127E+00  4.14172E+00  4.18972E+00  4.25083E+00  4.32453E+00  4.40726E+00  4.49431E+00  4.57886E+00  4.65399E+00
   4.71315E+00  4.75059E+00  4.76290E+00  4.75562E+00  4.75185E+00  4.76950E+00  4.81111E+00  4.87281E+00  4.95255E+00  5.04664E+00
   5.14305E+00  5.22900E+00  5.29802E+00  5.35152E+00  5.39462E+00  5.43255E+00  5.46978E+00  5.50766E+00  5.54712E+00  5.59255E+00
   5.64737E+00  5.71143E+00  5.77962E+00  5.84925E+00  5.92079E+00  5.99344E+00  6.06313E+00  6.12597E+00  6.18415E+00  6.24467E+00
   6.31257E+00  6.38860E+00  6.47165E+00  6.55950E+00  6.64819E+00  6.73203E+00  6.80441E+00  6.86683E+00  6.93095E+00  7.00541E+00
   7.09285E+00  7.19507E+00  7.31506E+00  7.44731E+00  7.57186E+00  7.67439E+00  7.75406E+00  7.81549E+00  7.86435E+00  7.91235E+00
   7.97984E+00  8.08244E+00  8.21946E+00  8.37981E+00  8.54921E+00  8.71371E+00  8.86300E+00  8.99355E+00  9.10915E+00  9.21868E+00
   9.33347E+00  9.46345E+00  9.61553E+00  9.79573E+00  1.00233E+01  1.03499E+01  1.07415E+01  1.10821E+01  1.13286E+01  1.14978E+01
   1.15891E+01  1.15722E+01  1.14448E+01  1.12702E+01  1.11435E+01  1.11344E+01  1.12579E+01  1.14754E+01  1.17255E+01  1.19755E+01
   1.22250E+01  1.24759E+01  1.27290E+01  1.29838E+01  1.32395E+01  1.34949E+01  1.37493E+01  1.40019E+01  1.42524E+01  1.45004E+01
   1.47453E+01  1.49863E+01  1.52219E+01  1.54504E+01  1.56703E+01  1.58799E+01  1.60780E+01  1.62634E+01  1.64356E+01  1.65944E+01
   1.67401E+01  1.68734E+01  1.69955E+01  1.71078E+01  1.72119E+01  1.73101E+01  1.74047E+01  1.74985E+01  1.75943E+01  1.76953E+01
   1.78046E+01  1.79253E+01  1.80606E+01  1.82134E+01  1.83866E+01  1.85826E+01  1.88036E+01  1.90515E+01  1.93276E+01  1.96330E+01
   1.99681E+01  2.03330E+01  2.07272E+01  2.11499E+01  2.15997E+01  2.20750E+01  2.25738E+01  2.30940E+01  2.36333E+01  2.41901E+01
   2.47638E+01  2.53561E+01  2.59572E+01  2.65192E+01  2.70254E+01  2.74952E+01  2.79431E+01  2.83691E+01  2.87801E+01  2.92145E+01
   2.97444E+01  3.03880E+01  3.11025E+01  3.18427E+01  3.25828E+01  3.33074E+01  3.40034E+01  3.46604E+01  3.52877E+01  3.59146E+01
   3.65735E+01  3.72831E+01  3.80373E+01  3.88079E+01  3.95652E+01  4.02825E+01  4.09301E+01  4.14753E+01  4.18829E+01  4.21167E+01
   4.21416E+01  4.19255E+01  4.14423E+01  4.06737E+01  3.96115E+01  3.82586E+01  3.66302E+01  3.47526E+01  3.26628E+01  3.04059E+01
   2.80326E+01  2.55963E+01  2.31501E+01  2.07438E+01  1.84215E+01  1.62205E+01  1.41697E+01  1.22894E+01  1.05922E+01  9.08301E+00
   7.76062E+00  6.61885E+00  5.64779E+00  4.83500E+00  4.16659E+00  3.62799E+00  3.20471E+00  2.88276E+00  2.64894E+00  2.49107E+00
   2.39805E+00  2.35981E+00  2.36736E+00  2.41260E+00  2.48832E+00  2.58803E+00  2.70589E+00  2.83661E+00  2.97540E+00  3.11786E+00
   3.25995E+00  3.39796E+00  3.52846E+00  3.64828E+00  3.75455E+00  3.84464E+00  3.91622E+00  3.96725E+00  3.99600E+00  4.00105E+00
   3.98137E+00  3.93627E+00  3.86542E+00  3.76889E+00  3.64713E+00  3.50093E+00  3.33146E+00  3.14020E+00  2.92894E+00  2.69971E+00
   2.45475E+00  2.19647E+00  1.92739E+00  1.65009E+00  1.36715E+00  1.08111E+00  7.94422E-01  5.09420E-01  2.28271E-01 -4.70507E-02
  -3.14782E-01 -5.73382E-01 -8.21539E-01 -1.05818E+00 -1.28245E+00 -1.49372E+00 -1.69159E+00 -1.87580E+00 -2.04629E+00 -2.20316E+00
  -2.34661E+00 -2.47698E+00 -2.59469E+00 -2.70023E+00 -2.79412E+00 -2.87697E+00 -2.94936E+00 -3.01193E+00 -3.06529E+00 -3.11006E+00
  -3.14684E+00 -3.17622E+00 -3.19875E+00 -3.21497E+00 -3.22539E+00 -3.23050E+00 -3.23073E+00 -3.22652E+00 -3.21825E+00 -3.20630E+00
  -3.19099E+00 -3.17264E+00 -3.15154E+00 -3.12795E+00 -3.10212E+00 -3.07427E+00 -3.04460E+00 -3.01331E+00 -2.98056E+00 -2.94651E+00
  -2.91130E+00 -2.87508E+00 -2.83794E+00 -2.80001E+00 -2.76138E+00 -2.72215E+00 -2.68239E+00 -2.64218E+00 -2.60159E+00 -2.56069E+00
  -2.51952E+00 -2.47814E+00 -2.43660E+00 -2.39493E+00 -2.35318E+00 -2.31139E+00 -2.26958E+00 -2.22778E+00 -2.18602E+00 -2.14433E+00
  -2.10271E+00 -2.06120E+00 -2.01981E+00 -1.97856E+00 -1.93745E+00 -1.89650E+00 -1.85573E+00 -1.81514E+00 -1.77474E+00 -1.73453E+00
  -1.69453E+00 -1.65474E+00 -1.61517E+00 -1.57581E+00 -1.53668E+00 -1.49777E+00 -1.45908E+00 -1.42062E+00
 NY background values follow
    -3.065E+00   -3.052E+00   -3.039E+00   -3.026E+00   -3.013E+00   -3.000E+00   -2.987E+00   -2.974E+00   -2.961E+00   -2.948E+00
    -2.935E+00   -2.922E+00   -2.909E+00   -2.896E+00   -2.883E+00   -2.870E+00   -2.857E+00   -2.844E+00   -2.831E+00   -2.818E+00
    -2.805E+00   -2.792E+00   -2.779E+00   -2.766E+00   -2.753E+00   -2.741E+00   -2.728E+00   -2.715E+00   -2.702E+00   -2.689E+00
    -2.676E+00   -2.663E+00   -2.650E+00   -2.638E+00   -2.625E+00   -2.612E+00   -2.599E+00   -2.586E+00   -2.573E+00   -2.561E+00
    -2.548E+00   -2.535E+00   -2.522E+00   -2.509E+00   -2.497E+00   -2.484E+00   -2.471E+00   -2.458E+00   -2.446E+00   -2.433E+00
    -2.420E+00   -2.407E+00   -2.395E+00   -2.382E+00   -2.369E+00   -2.356E+00   -2.344E+00   -2.331E+00   -2.318E+00   -2.306E+00
    -2.293E+00   -2.280E+00   -2.268E+00   -2.255E+00   -2.242E+00   -2.230E+00   -2.217E+00   -2.204E+00   -2.192E+00   -2.179E+00
    -2.167E+00   -2.154E+00   -2.141E+00   -2.129E+00   -2.116E+00   -2.104E+00   -2.091E+00   -2.078E+00   -2.066E+00   -2.053E+00
    -2.041E+00   -2.028E+00   -2.016E+00   -2.003E+00   -1.991E+00   -1.978E+00   -1.966E+00   -1.953E+00   -1.941E+00   -1.928E+00
    -1.916E+00   -1.903E+00   -1.891E+00   -1.878E+00   -1.866E+00   -1.853E+00   -1.841E+00   -1.829E+00   -1.816E+00   -1.804E+00
    -1.791E+00   -1.779E+00   -1.766E+00   -1.754E+00   -1.742E+00   -1.729E+00   -1.717E+00   -1.705E+00   -1.692E+00   -1.680E+00
    -1.668E+00   -1.655E+00   -1.643E+00   -1.631E+00   -1.618E+00   -1.606E+00   -1.594E+00   -1.581E+00   -1.569E+00   -1.557E+00
    -1.544E+00   -1.532E+00   -1.520E+00   -1.508E+00   -1.495E+00   -1.483E+00   -1.471E+00   -1.459E+00   -1.446E+00   -1.434E+00
    -1.422E+00   -1.410E+00   -1.398E+00   -1.385E+00   -1.373E+00   -1.361E+00   -1.349E+00   -1.337E+00   -1.325E+00   -1.312E+00
    -1.300E+00   -1.288E+00   -1.276E+00   -1.264E+00   -1.252E+00   -1.240E+00   -1.228E+00   -1.216E+00   -1.203E+00   -1.191E+00
    -1.179E+00   -1.167E+00   -1.155E+00   -1.143E+00   -1.131E+00   -1.119E+00   -1.107E+00   -1.095E+00   -1.083E+00   -1.071E+00
    -1.059E+00   -1.047E+00   -1.035E+00   -1.023E+00   -1.011E+00   -9.991E-01   -9.871E-01   -9.752E-01   -9.632E-01   -9.513E-01
    -9.394E-01   -9.274E-01   -9.155E-01   -9.036E-01   -8.917E-01   -8.798E-01   -8.679E-01   -8.561E-01   -8.442E-01   -8.323E-01
    -8.205E-01   -8.086E-01   -7.968E-01   -7.849E-01   -7.731E-01   -7.613E-01   -7.495E-01   -7.377E-01   -7.259E-01   -7.141E-01
    -7.023E-01   -6.905E-01   -6.787E-01   -6.670E-01   -6.552E-01   -6.435E-01   -6.317E-01   -6.200E-01   -6.083E-01   -5.965E-01
    -5.848E-01   -5.731E-01   -5.614E-01   -5.497E-01   -5.381E-01   -5.264E-01   -5.147E-01   -5.030E-01   -4.914E-01   -4.797E-01
    -4.681E-01   -4.565E-01   -4.448E-01   -4.332E-01   -4.216E-01   -4.100E-01   -3.984E-01   -3.868E-01   -3.753E-01   -3.637E-01
    -3.521E-01   -3.406E-01   -3.290E-01   -3.175E-01   -3.059E-01   -2.944E-01   -2.829E-01   -2.714E-01   -2.599E-01   -2.484E-01
    -2.369E-01   -2.254E-01   -2.139E-01   -2.024E-01   -1.910E-01   -1.795E-01   -1.681E-01   -1.566E-01   -1.452E-01   -1.338E-01
    -1.224E-01   -1.110E-01   -9.957E-02   -8.818E-02   -7.679E-02   -6.542E-02   -5.405E-02   -4.268E-02   -3.133E-02   -1.998E-02
    -8.642E-03    2.689E-03    1.401E-02    2.533E-02    3.664E-02    4.794E-02    5.923E-02    7.052E-02    8.180E-02    9.307E-02
     1.043E-01    1.156E-01    1.268E-01    1.381E-01    1.493E-01    1.605E-01    1.717E-01    1.830E-01    1.942E-01    2.054E-01
     2.165E-01    2.277E-01    2.389E-01    2.500E-01    2.612E-01    2.724E-01    2.835E-01    2.946E-01    3.057E-01    3.169E-01
     3.280E-01    3.391E-01    3.502E-01    3.612E-01    3.723E-01    3.834E-01    3.945E-01    4.055E-01    4.166E-01    4.276E-01
     4.386E-01    4.496E-01    4.607E-01    4.717E-01    4.827E-01    4.937E-01    5.046E-01    5.156E-01    5.266E-01    5.375E-01
     5.485E-01    5.594E-01    5.704E-01    5.813E-01    5.922E-01    6.031E-01    6.140E-01    6.249E-01    6.358E-01    6.467E-01
     6.576E-01    6.684E-01    6.793E-01    6.901E-01    7.010E-01    7.118E-01    7.226E-01    7.334E-01    7.443E-01    7.551E-01
     7.658E-01    7.766E-01    7.874E-01    7.982E-01    8.089E-01    8.197E-01    8.304E-01    8.412E-01    8.519E-01    8.626E-01
     8.733E-01    8.840E-01    8.947E-01    9.054E-01    9.161E-01    9.268E-01    9.374E-01    9.481E-01    9.587E-01    9.694E-01
     9.800E-01    9.906E-01    1.001E+00    1.012E+00    1.022E+00    1.033E+00    1.044E+00    1.054E+00    1.065E+00    1.075E+00
     1.086E+00    1.096E+00    1.107E+00    1.117E+00    1.128E+00    1.138E+00    1.149E+00    1.159E+00    1.170E+00    1.180E+00
     1.191E+00    1.201E+00    1.212E+00    1.222E+00    1.233E+00    1.243E+00    1.254E+00    1.264E+00    1.274E+00    1.285E+00
     1.295E+00    1.306E+00    1.316E+00    1.326E+00    1.337E+00    1.347E+00    1.357E+00    1.368E+00    1.378E+00    1.388E+00
     1.399E+00    1.409E+00    1.419E+00    1.429E+00    1.440E+00    1.450E+00    1.460E+00    1.470E+00    1.481E+00    1.491E+00
     1.501E+00    1.511E+00    1.522E+00    1.532E+00    1.542E+00    1.552E+00    1.562E+00    1.572E+00    1.583E+00    1.593E+00
     1.603E+00    1.613E+00    1.623E+00    1.633E+00    1.643E+00    1.653E+00    1.663E+00    1.674E+00    1.684E+00    1.694E+00
     1.704E+00    1.714E+00    1.724E+00    1.734E+00    1.744E+00    1.754E+00    1.764E+00    1.774E+00    1.784E+00    1.794E+00
     1.804E+00    1.814E+00    1.824E+00    1.834E+00    1.844E+00    1.853E+00    1.863E+00    1.873E+00    1.883E+00    1.893E+00
     1.903E+00    1.913E+00    1.923E+00    1.933E+00    1.942E+00    1.952E+00    1.962E+00    1.972E+00    1.982E+00    1.991E+00
     2.001E+00    2.011E+00    2.021E+00    2.031E+00    2.040E+00    2.050E+00    2.060E+00    2.070E+00    2.079E+00    2.089E+00
     2.099E+00    2.108E+00    2.118E+00    2.128E+00    2.137E+00    2.147E+00    2.157E+00    2.166E+00    2.176E+00    2.186E+00
     2.195E+00    2.205E+00    2.215E+00    2.224E+00    2.234E+00    2.243E+00    2.253E+00    2.262E+00    2.272E+00    2.282E+00
     2.291E+00    2.301E+00    2.310E+00    2.320E+00    2.329E+00    2.339E+00    2.348E+00    2.358E+00    2.367E+00    2.376E+00
     2.386E+00    2.395E+00    2.405E+00    2.414E+00    2.424E+00    2.433E+00    2.442E+00    2.452E+00    2.461E+00    2.470E+00
     2.480E+00    2.489E+00    2.499E+00    2.508E+00    2.517E+00    2.527E+00    2.536E+00    2.545E+00
 Ala      Conc. = 2.82E+01
