 LCModel (Version 6.3-1L) Copyright: S.W. Provencher.          Ref.: Magn. Reson. Med. 30:672-679 (1993).                
 Slice#2 Row#3 Col#3  PD_05_press_1_raw_act
 36 lines in following concentration table = NCONC+1
    Conc.  %SD /Cr+PCr  Metabolite                                         
    0.000 999%   0.000 Ala                                                 
    4.903 203% 8.0E-02 Asp                                                 
    0.000 999%   0.000 Cr                                                  
   61.144  35%   1.000 PCr                                                 
    3.451 173% 5.6E-02 GABA                                                
    3.640 165% 6.0E-02 Glc                                                 
    0.000 999%   0.000 Gln                                                 
    0.000 999%   0.000 Glu                                                 
    0.000 999%   0.000 GPC                                                 
   19.092  44%   0.312 PCh                                                 
    0.000 999%   0.000 GSH                                                 
   34.011 343%   0.556 Ins                                                 
  233.932  28%   3.826 Lac                                                 
    1.236 999% 2.0E-02 NAA                                                 
    0.000 999%   0.000 NAAG                                                
    1.266 158% 2.1E-02 Scyllo                                              
    7.897 126%   0.129 Tau                                                 
    0.000 999%   0.000 -CrCH2                                              
   19.092  44%   0.312 GPC+PCh                                             
    1.236 999% 2.0E-02 NAA+NAAG                                            
   61.144  35%   1.000 Cr+PCr                                              
    0.000 999%   0.000 Glu+Gln                                             
 2.57E+03  12%  42.055 Lip13a                                              
    0.000 999%   0.000 Lip13b                                              
   37.971 240%   0.621 Lip09                                               
    0.489 999% 8.0E-03 MM09                                                
  266.111  42%   4.352 Lip20                                               
    0.000 999%   0.000 MM20                                                
    0.236 999% 3.9E-03 MM12                                                
    6.698 228%   0.110 MM14                                                
    0.000 999%   0.000 MM17                                                
 2.57E+03  12%  42.055 Lip13a+Lip13b                                       
 2.58E+03  12%  42.168 MM14+Lip13a+Lip13b+MM12                             
   38.460 237%   0.629 MM09+Lip09                                          
  266.111  42%   4.352 MM20+Lip20                                          
   6 lines in following misc. output table
  FWHM = 0.069 ppm    S/N =   3                                            
  Data shift =-0.031 ppm                                                   
  Ph:  55 deg     -37.0 deg/ppm                                            
  alphaB,S = 4.1E-01,   5.0E+00                                            
   14 spline knots.   Ns = 5(1)                                            
  ( 4) 2 infls.   ( 1) 1 extrs.                                            
  498 points on ppm-axis = NY
      4.000000     3.992357     3.984714     3.977070     3.969427     3.961784     3.954141     3.946497     3.938854     3.931211
      3.923568     3.915925     3.908281     3.900638     3.892995     3.885352     3.877708     3.870065     3.862422     3.854779
      3.847136     3.839492     3.831849     3.824206     3.816563     3.808919     3.801276     3.793633     3.785990     3.778347
      3.770703     3.763060     3.755417     3.747774     3.740130     3.732487     3.724844     3.717201     3.709558     3.701914
      3.694271     3.686628     3.678985     3.671341     3.663698     3.656055     3.648412     3.640769     3.633125     3.625482
      3.617839     3.610196     3.602552     3.594909     3.587266     3.579623     3.571980     3.564336     3.556693     3.549050
      3.541407     3.533763     3.526120     3.518477     3.510834     3.503191     3.495547     3.487904     3.480261     3.472618
      3.464974     3.457331     3.449688     3.442045     3.434402     3.426758     3.419115     3.411472     3.403829     3.396185
      3.388542     3.380899     3.373256     3.365613     3.357969     3.350326     3.342683     3.335040     3.327396     3.319753
      3.312110     3.304467     3.296824     3.289180     3.281537     3.273894     3.266251     3.258607     3.250964     3.243321
      3.235678     3.228034     3.220391     3.212748     3.205105     3.197462     3.189818     3.182175     3.174532     3.166889
      3.159245     3.151602     3.143959     3.136316     3.128673     3.121029     3.113386     3.105743     3.098100     3.090456
      3.082813     3.075170     3.067527     3.059884     3.052240     3.044597     3.036954     3.029311     3.021667     3.014024
      3.006381     2.998738     2.991095     2.983451     2.975808     2.968165     2.960522     2.952878     2.945235     2.937592
      2.929949     2.922306     2.914662     2.907019     2.899376     2.891733     2.884089     2.876446     2.868803     2.861160
      2.853517     2.845873     2.838230     2.830587     2.822944     2.815300     2.807657     2.800014     2.792371     2.784728
      2.777084     2.769441     2.761798     2.754155     2.746511     2.738868     2.731225     2.723582     2.715939     2.708295
      2.700652     2.693009     2.685366     2.677722     2.670079     2.662436     2.654793     2.647150     2.639506     2.631863
      2.624220     2.616577     2.608933     2.601290     2.593647     2.586004     2.578361     2.570717     2.563074     2.555431
      2.547788     2.540144     2.532501     2.524858     2.517215     2.509572     2.501928     2.494285     2.486642     2.478999
      2.471355     2.463712     2.456069     2.448426     2.440783     2.433139     2.425496     2.417853     2.410210     2.402566
      2.394923     2.387280     2.379637     2.371994     2.364350     2.356707     2.349064     2.341421     2.333777     2.326134
      2.318491     2.310848     2.303205     2.295561     2.287918     2.280275     2.272632     2.264988     2.257345     2.249702
      2.242059     2.234416     2.226772     2.219129     2.211486     2.203843     2.196199     2.188556     2.180913     2.173270
      2.165627     2.157983     2.150340     2.142697     2.135054     2.127410     2.119767     2.112124     2.104481     2.096838
      2.089194     2.081551     2.073908     2.066265     2.058621     2.050978     2.043335     2.035692     2.028049     2.020405
      2.012762     2.005119     1.997476     1.989833     1.982190     1.974546     1.966903     1.959260     1.951617     1.943974
      1.936331     1.928688     1.921045     1.913402     1.905759     1.898115     1.890472     1.882829     1.875186     1.867543
      1.859900     1.852257     1.844614     1.836971     1.829327     1.821684     1.814041     1.806398     1.798755     1.791112
      1.783469     1.775826     1.768183     1.760540     1.752896     1.745253     1.737610     1.729967     1.722324     1.714681
      1.707038     1.699395     1.691752     1.684108     1.676465     1.668822     1.661179     1.653536     1.645893     1.638250
      1.630607     1.622964     1.615321     1.607677     1.600034     1.592391     1.584748     1.577105     1.569462     1.561819
      1.554176     1.546533     1.538890     1.531246     1.523603     1.515960     1.508317     1.500674     1.493031     1.485388
      1.477745     1.470102     1.462458     1.454815     1.447172     1.439529     1.431886     1.424243     1.416600     1.408957
      1.401314     1.393671     1.386027     1.378384     1.370741     1.363098     1.355455     1.347812     1.340169     1.332526
      1.324883     1.317240     1.309596     1.301953     1.294310     1.286667     1.279024     1.271381     1.263738     1.256095
      1.248452     1.240808     1.233165     1.225522     1.217879     1.210236     1.202593     1.194950     1.187307     1.179664
      1.172021     1.164377     1.156734     1.149091     1.141448     1.133805     1.126162     1.118519     1.110876     1.103233
      1.095590     1.087946     1.080303     1.072660     1.065017     1.057374     1.049731     1.042088     1.034445     1.026802
      1.019158     1.011515     1.003872     0.996229     0.988586     0.980943     0.973300     0.965657     0.958014     0.950371
      0.942727     0.935084     0.927441     0.919798     0.912155     0.904512     0.896869     0.889226     0.881583     0.873940
      0.866296     0.858653     0.851010     0.843367     0.835724     0.828081     0.820438     0.812795     0.805152     0.797508
      0.789865     0.782222     0.774579     0.766936     0.759293     0.751650     0.744007     0.736364     0.728721     0.721077
      0.713434     0.705791     0.698148     0.690505     0.682862     0.675219     0.667576     0.659933     0.652290     0.644646
      0.637003     0.629360     0.621717     0.614074     0.606431     0.598788     0.591145     0.583502     0.575858     0.568215
      0.560572     0.552929     0.545286     0.537643     0.530000     0.522357     0.514714     0.507071     0.499427     0.491784
      0.484141     0.476498     0.468855     0.461212     0.453569     0.445925     0.438282     0.430639     0.422996     0.415353
      0.407710     0.400067     0.392424     0.384780     0.377137     0.369494     0.361851     0.354208     0.346565     0.338922
      0.331278     0.323635     0.315992     0.308349     0.300706     0.293063     0.285420     0.277777     0.270133     0.262490
      0.254847     0.247204     0.239561     0.231918     0.224275     0.216631     0.208988     0.201345
 NY phased data points follow
   7.57956E+01  7.37369E+01  7.29194E+01  7.31142E+01  7.12491E+01  7.11726E+01  7.01233E+01  7.18116E+01  7.10441E+01  6.83633E+01
   6.80747E+01  6.74117E+01  6.65753E+01  6.53408E+01  6.46122E+01  6.43844E+01  6.37272E+01  6.26486E+01  6.14703E+01  6.19630E+01
   5.85836E+01  6.21089E+01  5.82437E+01  5.88000E+01  5.77588E+01  5.60886E+01  5.71015E+01  5.60982E+01  5.62628E+01  5.90332E+01
   5.65849E+01  5.43308E+01  5.47616E+01  5.49094E+01  5.37255E+01  5.36577E+01  5.15171E+01  5.18770E+01  5.34816E+01  5.09996E+01
   5.17143E+01  5.32049E+01  5.14510E+01  4.98058E+01  4.99634E+01  4.87167E+01  5.00987E+01  4.98773E+01  4.94692E+01  4.88245E+01
   4.84781E+01  4.82050E+01  4.88756E+01  4.88814E+01  4.68293E+01  4.85591E+01  4.42088E+01  4.75122E+01  4.79545E+01  4.52919E+01
   4.42718E+01  4.64417E+01  4.67482E+01  4.44117E+01  4.35377E+01  4.38105E+01  4.19345E+01  4.31432E+01  4.35683E+01  4.45895E+01
   4.45876E+01  4.11886E+01  4.25656E+01  4.27337E+01  4.23451E+01  4.16463E+01  4.04960E+01  4.16912E+01  4.15681E+01  4.09445E+01
   3.96499E+01  3.83805E+01  3.91563E+01  3.95558E+01  3.74409E+01  3.96306E+01  3.69994E+01  3.97786E+01  3.77805E+01  4.01697E+01
   3.67013E+01  3.70114E+01  3.37280E+01  3.44023E+01  3.73831E+01  3.63130E+01  3.70768E+01  3.45848E+01  3.59250E+01  3.46012E+01
   3.53609E+01  3.53685E+01  3.66132E+01  3.72576E+01  3.65570E+01  3.46537E+01  3.43277E+01  3.34270E+01  3.53429E+01  3.52868E+01
   3.29028E+01  3.41713E+01  3.36848E+01  3.36768E+01  3.35925E+01  3.33241E+01  3.17848E+01  2.95827E+01  3.31753E+01  3.04748E+01
   3.07929E+01  3.15563E+01  2.96357E+01  2.85083E+01  2.83501E+01  3.01581E+01  2.99461E+01  3.08103E+01  3.17624E+01  2.98507E+01
   3.16985E+01  2.89543E+01  3.02724E+01  2.70516E+01  2.85990E+01  2.86347E+01  2.92945E+01  2.81144E+01  2.83430E+01  2.85965E+01
   2.67294E+01  2.97346E+01  2.68761E+01  2.57416E+01  2.46129E+01  2.39030E+01  2.67780E+01  2.38511E+01  2.69746E+01  2.66049E+01
   2.54258E+01  2.37271E+01  2.68480E+01  2.57999E+01  2.30441E+01  2.50435E+01  2.42058E+01  2.60040E+01  2.46037E+01  2.63447E+01
   2.88857E+01  2.56054E+01  2.58052E+01  2.57037E+01  2.10750E+01  2.48482E+01  2.41463E+01  2.55174E+01  2.57554E+01  2.28661E+01
   2.18094E+01  2.20141E+01  2.26198E+01  2.21028E+01  2.17260E+01  2.19449E+01  1.96789E+01  2.03878E+01  2.33630E+01  2.11198E+01
   2.09244E+01  2.32194E+01  2.11170E+01  2.11962E+01  1.91808E+01  2.07366E+01  2.02157E+01  2.37263E+01  2.08462E+01  1.98481E+01
   2.13559E+01  2.09564E+01  2.01810E+01  2.00196E+01  1.92730E+01  2.04199E+01  2.10576E+01  1.82582E+01  1.88618E+01  1.88673E+01
   1.97386E+01  1.85262E+01  1.88867E+01  2.06350E+01  1.97399E+01  1.99508E+01  1.93352E+01  1.85625E+01  2.09162E+01  1.93277E+01
   1.67406E+01  1.72113E+01  1.81585E+01  2.06651E+01  2.00992E+01  1.88752E+01  1.90875E+01  1.76309E+01  1.69705E+01  1.75863E+01
   1.72058E+01  1.80668E+01  1.95061E+01  1.87048E+01  1.95260E+01  1.78416E+01  1.89270E+01  1.78610E+01  1.85543E+01  2.00300E+01
   1.59980E+01  1.74445E+01  1.92814E+01  2.01163E+01  1.81831E+01  1.84350E+01  1.73785E+01  1.67214E+01  1.84741E+01  2.04973E+01
   1.80257E+01  1.78603E+01  1.90257E+01  2.01534E+01  1.71683E+01  1.79805E+01  1.89292E+01  2.11556E+01  2.05049E+01  1.87019E+01
   1.77823E+01  1.92490E+01  1.64995E+01  2.00734E+01  1.70441E+01  1.95728E+01  1.62247E+01  1.84823E+01  2.02554E+01  1.85801E+01
   1.79313E+01  2.07575E+01  2.19173E+01  2.03794E+01  2.10117E+01  1.82175E+01  1.74006E+01  2.07540E+01  2.12591E+01  1.90416E+01
   1.92037E+01  1.93986E+01  1.94590E+01  1.96639E+01  1.80310E+01  1.85384E+01  1.86544E+01  1.88927E+01  1.88278E+01  1.93734E+01
   2.31866E+01  2.00276E+01  2.19228E+01  2.11339E+01  1.89127E+01  1.92643E+01  1.85771E+01  1.93985E+01  1.99062E+01  1.90497E+01
   1.93605E+01  2.03146E+01  2.06345E+01  2.00060E+01  2.00602E+01  2.10845E+01  2.23070E+01  2.00834E+01  2.21212E+01  1.98584E+01
   2.09126E+01  2.24100E+01  2.02182E+01  2.23123E+01  2.15663E+01  1.86516E+01  2.11829E+01  2.09443E+01  2.31835E+01  2.03222E+01
   2.51395E+01  2.28264E+01  2.42166E+01  2.16320E+01  2.39399E+01  2.27480E+01  2.45319E+01  2.27450E+01  2.31027E+01  2.25739E+01
   2.28400E+01  2.57892E+01  2.40220E+01  2.43521E+01  2.49214E+01  2.71838E+01  2.59111E+01  2.49789E+01  2.41056E+01  2.56658E+01
   2.38141E+01  2.47071E+01  2.42928E+01  2.49599E+01  2.35361E+01  2.65481E+01  2.43403E+01  2.69455E+01  2.46757E+01  2.61338E+01
   2.21719E+01  2.30086E+01  2.31659E+01  2.37494E+01  2.35392E+01  2.31183E+01  2.37062E+01  2.19962E+01  2.41968E+01  2.22280E+01
   2.36416E+01  2.23986E+01  1.82500E+01  2.48896E+01  2.16666E+01  2.02668E+01  2.13196E+01  2.38130E+01  2.05220E+01  2.35537E+01
   2.42865E+01  2.53079E+01  2.37230E+01  2.07427E+01  2.12027E+01  2.16125E+01  1.86062E+01  1.79092E+01  1.68649E+01  2.01728E+01
   1.60841E+01  1.51542E+01  1.57537E+01  1.43079E+01  1.74767E+01  1.68136E+01  1.40607E+01  1.33973E+01  1.52149E+01  1.44889E+01
   1.42189E+01  1.19229E+01  1.20438E+01  1.33928E+01  1.44895E+01  1.29388E+01  1.00872E+01  1.08815E+01  1.07004E+01  1.13234E+01
   1.16384E+01  1.05921E+01  1.12756E+01  1.20700E+01  1.14540E+01  1.21544E+01  8.20268E+00  9.97087E+00  1.02822E+01  1.35352E+01
   8.67525E+00  1.03299E+01  1.14447E+01  8.60543E+00  9.06598E+00  1.08110E+01  6.09765E+00  6.77280E+00  7.92493E+00  9.41313E+00
   7.61712E+00  1.00036E+01  7.06516E+00  6.10813E+00  9.60057E+00  8.66225E+00  7.98470E+00  4.84456E+00  9.01460E+00  7.27785E+00
   7.45202E+00  7.26860E+00  8.17218E+00  9.11649E+00  8.64141E+00  5.01383E+00  6.97484E+00  7.16036E+00  8.55839E+00  9.06940E+00
   6.17426E+00  7.52547E+00  4.98952E+00  8.17044E+00  6.24641E+00  5.65423E+00  6.01856E+00  8.02107E+00  4.97867E+00  6.99610E+00
   4.87944E+00  7.83059E+00  6.59041E+00  5.30969E+00  6.08016E+00  5.25351E+00  6.86636E+00  4.51805E+00  5.05483E+00  4.68207E+00
   6.15540E+00  6.40836E+00  3.18083E+00  6.36679E+00  5.77812E+00  5.19865E+00  5.96283E+00  6.09022E+00  2.71953E+00  4.89309E+00
   6.04261E+00  4.24918E+00  7.16587E-01  6.20097E+00  3.51821E+00  3.57062E+00  6.14239E+00  2.15366E+00  4.54304E+00  5.96365E+00
   4.84814E+00  5.89524E+00  5.25482E+00  4.58111E+00  4.71685E+00  2.93007E+00  3.83721E+00  6.86886E+00  5.34909E+00  2.78316E+00
   3.22839E+00  2.54396E+00  4.04957E+00  4.07183E+00  4.80856E+00  5.52693E+00  2.44627E+00  3.86205E+00  2.13427E+00  4.04538E+00
   6.16659E+00  3.33700E+00  2.82742E+00  3.30280E+00  4.67363E+00  3.63417E+00  3.01680E+00  3.85060E+00
 NY points of the fit to the data follow
   7.15824E+01  7.10132E+01  7.04381E+01  6.99328E+01  6.96718E+01  6.93719E+01  6.91953E+01  6.89588E+01  6.83581E+01  6.78248E+01
   6.74031E+01  6.69151E+01  6.64425E+01  6.60027E+01  6.54671E+01  6.43426E+01  6.34501E+01  6.29000E+01  6.24026E+01  6.19232E+01
   6.14483E+01  6.09754E+01  6.05035E+01  6.00350E+01  5.95743E+01  5.91190E+01  5.86688E+01  5.82155E+01  5.77606E+01  5.73106E+01
   5.68665E+01  5.64269E+01  5.59927E+01  5.55623E+01  5.51311E+01  5.47082E+01  5.42893E+01  5.38593E+01  5.34339E+01  5.30293E+01
   5.26161E+01  5.22073E+01  5.18317E+01  5.14522E+01  5.10601E+01  5.07164E+01  5.03708E+01  4.99809E+01  4.95926E+01  4.92377E+01
   4.88950E+01  4.85590E+01  4.82237E+01  4.78334E+01  4.73908E+01  4.69895E+01  4.66561E+01  4.63771E+01  4.60918E+01  4.57778E+01
   4.54640E+01  4.51512E+01  4.48404E+01  4.45331E+01  4.42454E+01  4.39438E+01  4.36229E+01  4.33171E+01  4.30032E+01  4.27213E+01
   4.24656E+01  4.21988E+01  4.19331E+01  4.16750E+01  4.14065E+01  4.11214E+01  4.08531E+01  4.05978E+01  4.03183E+01  4.00493E+01
   3.98014E+01  3.95424E+01  3.92613E+01  3.90134E+01  3.87731E+01  3.85133E+01  3.82662E+01  3.80350E+01  3.77939E+01  3.75556E+01
   3.73224E+01  3.70878E+01  3.68238E+01  3.65927E+01  3.64035E+01  3.62205E+01  3.60458E+01  3.58916E+01  3.58512E+01  3.58676E+01
   3.57519E+01  3.60087E+01  3.59725E+01  3.55493E+01  3.53574E+01  3.52166E+01  3.50051E+01  3.48424E+01  3.46909E+01  3.41800E+01
   3.30210E+01  3.25014E+01  3.22874E+01  3.21075E+01  3.19245E+01  3.17475E+01  3.15755E+01  3.14064E+01  3.12437E+01  3.10973E+01
   3.09835E+01  3.09964E+01  3.10943E+01  3.10069E+01  3.13199E+01  3.13888E+01  3.09944E+01  3.08226E+01  3.07431E+01  3.05607E+01
   3.04227E+01  3.03026E+01  2.98629E+01  2.86583E+01  2.80892E+01  2.79082E+01  2.77651E+01  2.76234E+01  2.74828E+01  2.73429E+01
   2.72044E+01  2.70694E+01  2.69286E+01  2.67901E+01  2.66529E+01  2.65091E+01  2.63653E+01  2.62228E+01  2.60836E+01  2.59441E+01
   2.58014E+01  2.56566E+01  2.55078E+01  2.53607E+01  2.52158E+01  2.50696E+01  2.49229E+01  2.47738E+01  2.46246E+01  2.44762E+01
   2.43269E+01  2.41770E+01  2.40283E+01  2.38792E+01  2.37322E+01  2.35874E+01  2.34441E+01  2.32997E+01  2.31553E+01  2.30120E+01
   2.28718E+01  2.27329E+01  2.25961E+01  2.24561E+01  2.23173E+01  2.21828E+01  2.20511E+01  2.19216E+01  2.17947E+01  2.16713E+01
   2.15499E+01  2.14295E+01  2.13148E+01  2.12014E+01  2.10881E+01  2.09783E+01  2.08712E+01  2.07658E+01  2.06627E+01  2.05631E+01
   2.04606E+01  2.03596E+01  2.02661E+01  2.01748E+01  2.00854E+01  1.99985E+01  1.99137E+01  1.98318E+01  1.97545E+01  1.96830E+01
   1.96099E+01  1.95379E+01  1.94684E+01  1.94011E+01  1.93375E+01  1.92771E+01  1.92197E+01  1.91652E+01  1.91137E+01  1.90651E+01
   1.90187E+01  1.89756E+01  1.89360E+01  1.88989E+01  1.88646E+01  1.88334E+01  1.88059E+01  1.87819E+01  1.87611E+01  1.87432E+01
   1.87273E+01  1.87135E+01  1.87008E+01  1.86874E+01  1.86741E+01  1.86603E+01  1.86477E+01  1.86362E+01  1.86241E+01  1.86120E+01
   1.86016E+01  1.85919E+01  1.85874E+01  1.85882E+01  1.85922E+01  1.85998E+01  1.86150E+01  1.86347E+01  1.86503E+01  1.86636E+01
   1.86815E+01  1.87039E+01  1.87301E+01  1.87596E+01  1.87920E+01  1.88267E+01  1.88633E+01  1.89009E+01  1.89390E+01  1.89770E+01
   1.90143E+01  1.90504E+01  1.90848E+01  1.91172E+01  1.91482E+01  1.91796E+01  1.92055E+01  1.92309E+01  1.92578E+01  1.92721E+01
   1.92826E+01  1.92974E+01  1.93100E+01  1.93207E+01  1.93322E+01  1.93439E+01  1.93438E+01  1.93428E+01  1.93606E+01  1.93841E+01
   1.94092E+01  1.94389E+01  1.94734E+01  1.95112E+01  1.95528E+01  1.95984E+01  1.96483E+01  1.97000E+01  1.97536E+01  1.98084E+01
   1.98653E+01  1.99240E+01  1.99830E+01  2.00437E+01  2.01081E+01  2.01742E+01  2.02410E+01  2.03098E+01  2.03794E+01  2.04493E+01
   2.05205E+01  2.05905E+01  2.06593E+01  2.07286E+01  2.07984E+01  2.08678E+01  2.09369E+01  2.10064E+01  2.10758E+01  2.11448E+01
   2.12143E+01  2.12837E+01  2.13528E+01  2.14216E+01  2.14903E+01  2.15588E+01  2.16274E+01  2.16960E+01  2.17646E+01  2.18332E+01
   2.19020E+01  2.19712E+01  2.20408E+01  2.21109E+01  2.21815E+01  2.22528E+01  2.23249E+01  2.23982E+01  2.24727E+01  2.25487E+01
   2.26263E+01  2.27061E+01  2.27882E+01  2.28731E+01  2.29608E+01  2.30515E+01  2.31454E+01  2.32429E+01  2.33440E+01  2.34490E+01
   2.35577E+01  2.36701E+01  2.37865E+01  2.39069E+01  2.40317E+01  2.41611E+01  2.42955E+01  2.44364E+01  2.45867E+01  2.47515E+01
   2.49413E+01  2.51805E+01  2.55185E+01  2.57398E+01  2.55502E+01  2.58451E+01  2.52299E+01  2.40914E+01  2.37424E+01  2.33890E+01
   2.30030E+01  2.28328E+01  2.22219E+01  2.19659E+01  2.10287E+01  2.12716E+01  2.20757E+01  2.26068E+01  2.28168E+01  2.30746E+01
   2.35590E+01  2.34489E+01  2.15850E+01  2.03650E+01  1.96738E+01  1.91281E+01  1.86399E+01  1.81828E+01  1.77471E+01  1.73287E+01
   1.69257E+01  1.65371E+01  1.61627E+01  1.58024E+01  1.54566E+01  1.51254E+01  1.48085E+01  1.45056E+01  1.42161E+01  1.39400E+01
   1.36767E+01  1.34258E+01  1.31866E+01  1.29583E+01  1.27403E+01  1.25320E+01  1.23329E+01  1.21424E+01  1.19597E+01  1.17841E+01
   1.16151E+01  1.14523E+01  1.12951E+01  1.11428E+01  1.09950E+01  1.08510E+01  1.07104E+01  1.05729E+01  1.04379E+01  1.03050E+01
   1.01737E+01  1.00438E+01  9.91494E+00  9.78708E+00  9.65997E+00  9.53346E+00  9.40750E+00  9.28219E+00  9.15768E+00  9.03407E+00
   8.91144E+00  8.78993E+00  8.66974E+00  8.55114E+00  8.43437E+00  8.31959E+00  8.20691E+00  8.09645E+00  7.98834E+00  7.88272E+00
   7.77963E+00  7.67903E+00  7.58085E+00  7.48505E+00  7.39159E+00  7.30042E+00  7.21142E+00  7.12446E+00  7.03939E+00  6.95613E+00
   6.87462E+00  6.79477E+00  6.71647E+00  6.63959E+00  6.56405E+00  6.48982E+00  6.41686E+00  6.34511E+00  6.27450E+00  6.20494E+00
   6.13642E+00  6.06894E+00  6.00247E+00  5.93698E+00  5.87241E+00  5.80871E+00  5.74590E+00  5.68398E+00  5.62294E+00  5.56273E+00
   5.50331E+00  5.44467E+00  5.38682E+00  5.32977E+00  5.27348E+00  5.21790E+00  5.16301E+00  5.10879E+00  5.05525E+00  5.00239E+00
   4.95016E+00  4.89852E+00  4.84745E+00  4.79695E+00  4.74703E+00  4.69767E+00  4.64882E+00  4.60044E+00  4.55253E+00  4.50510E+00
   4.45814E+00  4.41162E+00  4.36550E+00  4.31975E+00  4.27438E+00  4.22939E+00  4.18477E+00  4.14047E+00  4.09647E+00  4.05275E+00
   4.00932E+00  3.96617E+00  3.92328E+00  3.88062E+00  3.83815E+00  3.79588E+00  3.75381E+00  3.71194E+00  3.67021E+00  3.62862E+00
   3.58713E+00  3.54577E+00  3.50453E+00  3.46338E+00  3.42229E+00  3.38125E+00  3.34025E+00  3.29929E+00
 NY background values follow
     7.132E+01    7.080E+01    7.029E+01    6.977E+01    6.926E+01    6.874E+01    6.823E+01    6.772E+01    6.722E+01    6.671E+01
     6.621E+01    6.570E+01    6.520E+01    6.470E+01    6.421E+01    6.371E+01    6.322E+01    6.273E+01    6.225E+01    6.176E+01
     6.128E+01    6.080E+01    6.032E+01    5.985E+01    5.938E+01    5.891E+01    5.845E+01    5.799E+01    5.753E+01    5.708E+01
     5.663E+01    5.618E+01    5.573E+01    5.530E+01    5.486E+01    5.443E+01    5.400E+01    5.358E+01    5.316E+01    5.274E+01
     5.233E+01    5.193E+01    5.153E+01    5.113E+01    5.074E+01    5.035E+01    4.997E+01    4.959E+01    4.922E+01    4.885E+01
     4.848E+01    4.813E+01    4.777E+01    4.742E+01    4.708E+01    4.673E+01    4.640E+01    4.606E+01    4.574E+01    4.541E+01
     4.509E+01    4.477E+01    4.446E+01    4.415E+01    4.384E+01    4.354E+01    4.324E+01    4.294E+01    4.265E+01    4.236E+01
     4.207E+01    4.179E+01    4.151E+01    4.123E+01    4.095E+01    4.068E+01    4.041E+01    4.015E+01    3.988E+01    3.962E+01
     3.936E+01    3.910E+01    3.885E+01    3.859E+01    3.834E+01    3.809E+01    3.785E+01    3.760E+01    3.736E+01    3.711E+01
     3.687E+01    3.664E+01    3.640E+01    3.616E+01    3.593E+01    3.570E+01    3.546E+01    3.523E+01    3.501E+01    3.478E+01
     3.455E+01    3.433E+01    3.411E+01    3.389E+01    3.367E+01    3.345E+01    3.323E+01    3.302E+01    3.280E+01    3.259E+01
     3.238E+01    3.217E+01    3.196E+01    3.176E+01    3.155E+01    3.135E+01    3.115E+01    3.095E+01    3.075E+01    3.055E+01
     3.035E+01    3.016E+01    2.996E+01    2.977E+01    2.958E+01    2.939E+01    2.920E+01    2.901E+01    2.883E+01    2.864E+01
     2.846E+01    2.828E+01    2.810E+01    2.792E+01    2.774E+01    2.757E+01    2.739E+01    2.722E+01    2.704E+01    2.687E+01
     2.670E+01    2.654E+01    2.637E+01    2.620E+01    2.604E+01    2.587E+01    2.571E+01    2.555E+01    2.539E+01    2.523E+01
     2.508E+01    2.492E+01    2.477E+01    2.462E+01    2.446E+01    2.431E+01    2.416E+01    2.402E+01    2.387E+01    2.373E+01
     2.358E+01    2.344E+01    2.330E+01    2.316E+01    2.302E+01    2.288E+01    2.275E+01    2.261E+01    2.248E+01    2.235E+01
     2.222E+01    2.209E+01    2.196E+01    2.183E+01    2.170E+01    2.158E+01    2.146E+01    2.134E+01    2.121E+01    2.110E+01
     2.098E+01    2.086E+01    2.074E+01    2.063E+01    2.052E+01    2.041E+01    2.030E+01    2.019E+01    2.008E+01    1.997E+01
     1.987E+01    1.977E+01    1.967E+01    1.957E+01    1.947E+01    1.937E+01    1.928E+01    1.919E+01    1.910E+01    1.901E+01
     1.892E+01    1.883E+01    1.875E+01    1.867E+01    1.859E+01    1.851E+01    1.844E+01    1.836E+01    1.829E+01    1.822E+01
     1.816E+01    1.809E+01    1.803E+01    1.797E+01    1.791E+01    1.786E+01    1.780E+01    1.775E+01    1.770E+01    1.766E+01
     1.761E+01    1.757E+01    1.753E+01    1.750E+01    1.746E+01    1.743E+01    1.740E+01    1.738E+01    1.735E+01    1.733E+01
     1.731E+01    1.730E+01    1.728E+01    1.727E+01    1.726E+01    1.726E+01    1.725E+01    1.725E+01    1.725E+01    1.725E+01
     1.726E+01    1.726E+01    1.727E+01    1.728E+01    1.729E+01    1.730E+01    1.732E+01    1.734E+01    1.736E+01    1.738E+01
     1.740E+01    1.742E+01    1.744E+01    1.747E+01    1.750E+01    1.753E+01    1.756E+01    1.759E+01    1.762E+01    1.765E+01
     1.769E+01    1.772E+01    1.776E+01    1.780E+01    1.784E+01    1.788E+01    1.792E+01    1.796E+01    1.800E+01    1.804E+01
     1.809E+01    1.813E+01    1.817E+01    1.822E+01    1.826E+01    1.831E+01    1.836E+01    1.840E+01    1.845E+01    1.849E+01
     1.854E+01    1.858E+01    1.863E+01    1.867E+01    1.872E+01    1.876E+01    1.880E+01    1.885E+01    1.889E+01    1.893E+01
     1.896E+01    1.900E+01    1.904E+01    1.907E+01    1.911E+01    1.914E+01    1.917E+01    1.920E+01    1.922E+01    1.925E+01
     1.927E+01    1.929E+01    1.931E+01    1.933E+01    1.934E+01    1.935E+01    1.936E+01    1.937E+01    1.937E+01    1.938E+01
     1.937E+01    1.937E+01    1.936E+01    1.935E+01    1.934E+01    1.932E+01    1.930E+01    1.928E+01    1.925E+01    1.922E+01
     1.918E+01    1.915E+01    1.911E+01    1.906E+01    1.902E+01    1.897E+01    1.892E+01    1.886E+01    1.880E+01    1.874E+01
     1.868E+01    1.861E+01    1.854E+01    1.847E+01    1.840E+01    1.832E+01    1.824E+01    1.816E+01    1.808E+01    1.799E+01
     1.791E+01    1.782E+01    1.772E+01    1.763E+01    1.753E+01    1.744E+01    1.734E+01    1.724E+01    1.713E+01    1.703E+01
     1.692E+01    1.682E+01    1.671E+01    1.660E+01    1.648E+01    1.637E+01    1.626E+01    1.614E+01    1.602E+01    1.590E+01
     1.579E+01    1.566E+01    1.554E+01    1.542E+01    1.530E+01    1.517E+01    1.505E+01    1.493E+01    1.480E+01    1.467E+01
     1.455E+01    1.442E+01    1.429E+01    1.416E+01    1.403E+01    1.390E+01    1.378E+01    1.365E+01    1.352E+01    1.339E+01
     1.326E+01    1.313E+01    1.300E+01    1.287E+01    1.274E+01    1.261E+01    1.248E+01    1.236E+01    1.223E+01    1.210E+01
     1.197E+01    1.185E+01    1.172E+01    1.160E+01    1.147E+01    1.135E+01    1.123E+01    1.110E+01    1.098E+01    1.086E+01
     1.074E+01    1.063E+01    1.051E+01    1.039E+01    1.028E+01    1.017E+01    1.005E+01    9.943E+00    9.833E+00    9.725E+00
     9.618E+00    9.513E+00    9.409E+00    9.306E+00    9.204E+00    9.104E+00    9.004E+00    8.906E+00    8.810E+00    8.714E+00
     8.620E+00    8.527E+00    8.435E+00    8.344E+00    8.254E+00    8.165E+00    8.078E+00    7.991E+00    7.906E+00    7.822E+00
     7.739E+00    7.657E+00    7.576E+00    7.496E+00    7.417E+00    7.339E+00    7.262E+00    7.186E+00    7.111E+00    7.036E+00
     6.963E+00    6.891E+00    6.820E+00    6.749E+00    6.680E+00    6.611E+00    6.543E+00    6.477E+00    6.411E+00    6.345E+00
     6.281E+00    6.217E+00    6.155E+00    6.093E+00    6.031E+00    5.971E+00    5.911E+00    5.852E+00    5.794E+00    5.736E+00
     5.679E+00    5.623E+00    5.567E+00    5.512E+00    5.458E+00    5.404E+00    5.350E+00    5.297E+00    5.245E+00    5.193E+00
     5.142E+00    5.091E+00    5.040E+00    4.990E+00    4.941E+00    4.892E+00    4.843E+00    4.794E+00    4.746E+00    4.698E+00
     4.651E+00    4.603E+00    4.556E+00    4.510E+00    4.463E+00    4.417E+00    4.371E+00    4.325E+00    4.279E+00    4.234E+00
     4.189E+00    4.143E+00    4.098E+00    4.053E+00    4.008E+00    3.963E+00    3.919E+00    3.874E+00
 Asp      Conc. = 4.90E+00
