 LCModel (Version 6.3-1L) Copyright: S.W. Provencher.          Ref.: Magn. Reson. Med. 30:672-679 (1993).                
 Slice#3 Row#7 Col#1  PD_05_press_1_raw_act
 36 lines in following concentration table = NCONC+1
    Conc.  %SD /Cr+PCr  Metabolite                                         
   24.320 100%   0.894 Ala                                                 
    2.995  66%   0.110 Asp                                                 
   27.213  41%   1.000 Cr                                                  
    0.000 999%   0.000 PCr                                                 
    1.796  66% 6.6E-02 GABA                                                
    1.789  66% 6.6E-02 Glc                                                 
    0.000 999%   0.000 Gln                                                 
   75.205  72%   2.764 Glu                                                 
    0.000 999%   0.000 GPC                                                 
    0.000 999%   0.000 PCh                                                 
   47.784  36%   1.756 GSH                                                 
    0.000 999%   0.000 Ins                                                 
   32.577  82%   1.197 Lac                                                 
   32.703  43%   1.202 NAA                                                 
    0.000 999%   0.000 NAAG                                                
    0.574  69% 2.1E-02 Scyllo                                              
    2.869  69%   0.105 Tau                                                 
    0.000 999%   0.000 -CrCH2                                              
    0.000 999%   0.000 GPC+PCh                                             
   32.703  43%   1.202 NAA+NAAG                                            
   27.213  41%   1.000 Cr+PCr                                              
   75.205  72%   2.764 Glu+Gln                                             
    0.000 999%   0.000 Lip13a                                              
   31.163  89%   1.145 Lip13b                                              
    7.806 115%   0.287 Lip09                                               
  113.429  36%   4.168 MM09                                                
    4.813 113%   0.177 Lip20                                               
  196.331  32%   7.215 MM20                                                
   32.626  48%   1.199 MM12                                                
   86.708  54%   3.186 MM14                                                
   38.798  80%   1.426 MM17                                                
   31.163  89%   1.145 Lip13a+Lip13b                                       
  150.498  42%   5.530 MM14+Lip13a+Lip13b+MM12                             
  121.234  34%   4.455 MM09+Lip09                                          
  201.144  32%   7.391 MM20+Lip20                                          
   6 lines in following misc. output table
  FWHM = 0.046 ppm    S/N =   1                                            
  Data shift = 0.061 ppm                                                   
  Ph: 171 deg       4.0 deg/ppm                                            
  alphaB,S = 1.2E+00,   2.6E+01                                            
   14 spline knots.   Ns = 5(1)                                            
  ( 8) 2 infls.   ( 9) 1 extrs.                                            
  498 points on ppm-axis = NY
      4.000000     3.992357     3.984714     3.977070     3.969427     3.961784     3.954141     3.946497     3.938854     3.931211
      3.923568     3.915925     3.908281     3.900638     3.892995     3.885352     3.877708     3.870065     3.862422     3.854779
      3.847136     3.839492     3.831849     3.824206     3.816563     3.808919     3.801276     3.793633     3.785990     3.778347
      3.770703     3.763060     3.755417     3.747774     3.740130     3.732487     3.724844     3.717201     3.709558     3.701914
      3.694271     3.686628     3.678985     3.671341     3.663698     3.656055     3.648412     3.640769     3.633125     3.625482
      3.617839     3.610196     3.602552     3.594909     3.587266     3.579623     3.571980     3.564336     3.556693     3.549050
      3.541407     3.533763     3.526120     3.518477     3.510834     3.503191     3.495547     3.487904     3.480261     3.472618
      3.464974     3.457331     3.449688     3.442045     3.434402     3.426758     3.419115     3.411472     3.403829     3.396185
      3.388542     3.380899     3.373256     3.365613     3.357969     3.350326     3.342683     3.335040     3.327396     3.319753
      3.312110     3.304467     3.296824     3.289180     3.281537     3.273894     3.266251     3.258607     3.250964     3.243321
      3.235678     3.228034     3.220391     3.212748     3.205105     3.197462     3.189818     3.182175     3.174532     3.166889
      3.159245     3.151602     3.143959     3.136316     3.128673     3.121029     3.113386     3.105743     3.098100     3.090456
      3.082813     3.075170     3.067527     3.059884     3.052240     3.044597     3.036954     3.029311     3.021667     3.014024
      3.006381     2.998738     2.991095     2.983451     2.975808     2.968165     2.960522     2.952878     2.945235     2.937592
      2.929949     2.922306     2.914662     2.907019     2.899376     2.891733     2.884089     2.876446     2.868803     2.861160
      2.853517     2.845873     2.838230     2.830587     2.822944     2.815300     2.807657     2.800014     2.792371     2.784728
      2.777084     2.769441     2.761798     2.754155     2.746511     2.738868     2.731225     2.723582     2.715939     2.708295
      2.700652     2.693009     2.685366     2.677722     2.670079     2.662436     2.654793     2.647150     2.639506     2.631863
      2.624220     2.616577     2.608933     2.601290     2.593647     2.586004     2.578361     2.570717     2.563074     2.555431
      2.547788     2.540144     2.532501     2.524858     2.517215     2.509572     2.501928     2.494285     2.486642     2.478999
      2.471355     2.463712     2.456069     2.448426     2.440783     2.433139     2.425496     2.417853     2.410210     2.402566
      2.394923     2.387280     2.379637     2.371994     2.364350     2.356707     2.349064     2.341421     2.333777     2.326134
      2.318491     2.310848     2.303205     2.295561     2.287918     2.280275     2.272632     2.264988     2.257345     2.249702
      2.242059     2.234416     2.226772     2.219129     2.211486     2.203843     2.196199     2.188556     2.180913     2.173270
      2.165627     2.157983     2.150340     2.142697     2.135054     2.127410     2.119767     2.112124     2.104481     2.096838
      2.089194     2.081551     2.073908     2.066265     2.058621     2.050978     2.043335     2.035692     2.028049     2.020405
      2.012762     2.005119     1.997476     1.989833     1.982190     1.974546     1.966903     1.959260     1.951617     1.943974
      1.936331     1.928688     1.921045     1.913402     1.905759     1.898115     1.890472     1.882829     1.875186     1.867543
      1.859900     1.852257     1.844614     1.836971     1.829327     1.821684     1.814041     1.806398     1.798755     1.791112
      1.783469     1.775826     1.768183     1.760540     1.752896     1.745253     1.737610     1.729967     1.722324     1.714681
      1.707038     1.699395     1.691752     1.684108     1.676465     1.668822     1.661179     1.653536     1.645893     1.638250
      1.630607     1.622964     1.615321     1.607677     1.600034     1.592391     1.584748     1.577105     1.569462     1.561819
      1.554176     1.546533     1.538890     1.531246     1.523603     1.515960     1.508317     1.500674     1.493031     1.485388
      1.477745     1.470102     1.462458     1.454815     1.447172     1.439529     1.431886     1.424243     1.416600     1.408957
      1.401314     1.393671     1.386027     1.378384     1.370741     1.363098     1.355455     1.347812     1.340169     1.332526
      1.324883     1.317240     1.309596     1.301953     1.294310     1.286667     1.279024     1.271381     1.263738     1.256095
      1.248452     1.240808     1.233165     1.225522     1.217879     1.210236     1.202593     1.194950     1.187307     1.179664
      1.172021     1.164377     1.156734     1.149091     1.141448     1.133805     1.126162     1.118519     1.110876     1.103233
      1.095590     1.087946     1.080303     1.072660     1.065017     1.057374     1.049731     1.042088     1.034445     1.026802
      1.019158     1.011515     1.003872     0.996229     0.988586     0.980943     0.973300     0.965657     0.958014     0.950371
      0.942727     0.935084     0.927441     0.919798     0.912155     0.904512     0.896869     0.889226     0.881583     0.873940
      0.866296     0.858653     0.851010     0.843367     0.835724     0.828081     0.820438     0.812795     0.805152     0.797508
      0.789865     0.782222     0.774579     0.766936     0.759293     0.751650     0.744007     0.736364     0.728721     0.721077
      0.713434     0.705791     0.698148     0.690505     0.682862     0.675219     0.667576     0.659933     0.652290     0.644646
      0.637003     0.629360     0.621717     0.614074     0.606431     0.598788     0.591145     0.583502     0.575858     0.568215
      0.560572     0.552929     0.545286     0.537643     0.530000     0.522357     0.514714     0.507071     0.499427     0.491784
      0.484141     0.476498     0.468855     0.461212     0.453569     0.445925     0.438282     0.430639     0.422996     0.415353
      0.407710     0.400067     0.392424     0.384780     0.377137     0.369494     0.361851     0.354208     0.346565     0.338922
      0.331278     0.323635     0.315992     0.308349     0.300706     0.293063     0.285420     0.277777     0.270133     0.262490
      0.254847     0.247204     0.239561     0.231918     0.224275     0.216631     0.208988     0.201345
 NY phased data points follow
   3.40430E+01  3.15938E+01  3.24047E+01  3.18007E+01  2.91813E+01  3.10571E+01  2.99714E+01  3.02859E+01  3.14979E+01  3.01003E+01
   3.07041E+01  2.94966E+01  3.09733E+01  3.01788E+01  2.92226E+01  2.97860E+01  2.89798E+01  2.82522E+01  2.96776E+01  2.77222E+01
   2.82835E+01  2.60800E+01  2.84904E+01  2.68751E+01  2.70109E+01  2.80078E+01  2.90106E+01  2.72368E+01  2.73851E+01  2.69187E+01
   2.84210E+01  2.56119E+01  2.54140E+01  2.66955E+01  2.61901E+01  2.42203E+01  2.57739E+01  2.55786E+01  2.48748E+01  2.59712E+01
   2.30164E+01  2.42151E+01  2.43569E+01  2.36428E+01  2.29850E+01  2.33996E+01  2.34941E+01  2.35493E+01  2.15310E+01  2.25958E+01
   2.19468E+01  2.27256E+01  2.27514E+01  2.23056E+01  2.19239E+01  2.05972E+01  2.27892E+01  2.15684E+01  2.07988E+01  2.15030E+01
   2.10111E+01  2.12877E+01  2.16680E+01  2.08465E+01  2.02803E+01  1.96316E+01  1.91795E+01  2.03931E+01  1.89732E+01  1.96721E+01
   2.13100E+01  1.96311E+01  1.96266E+01  1.90598E+01  1.80438E+01  1.97472E+01  1.93632E+01  1.92951E+01  1.85942E+01  1.79375E+01
   1.80568E+01  1.67586E+01  1.64339E+01  1.70657E+01  1.70640E+01  1.78192E+01  1.82311E+01  1.87032E+01  1.74722E+01  1.81705E+01
   1.62598E+01  1.70503E+01  1.55935E+01  1.76793E+01  1.68507E+01  1.60700E+01  1.71920E+01  1.61069E+01  1.62709E+01  1.61136E+01
   1.65965E+01  1.47873E+01  1.50093E+01  1.52272E+01  1.47707E+01  1.45229E+01  1.61574E+01  1.47459E+01  1.47077E+01  1.53870E+01
   1.75460E+01  1.45028E+01  1.47296E+01  1.51730E+01  1.57202E+01  1.19036E+01  1.42976E+01  1.29320E+01  1.47666E+01  1.44612E+01
   1.44694E+01  1.43195E+01  1.31611E+01  1.39815E+01  1.51409E+01  1.48552E+01  1.45674E+01  1.37157E+01  1.51661E+01  1.32162E+01
   1.23931E+01  1.30667E+01  1.18384E+01  1.32028E+01  1.20271E+01  1.37014E+01  1.21613E+01  1.30198E+01  1.18368E+01  1.20898E+01
   1.30465E+01  1.38451E+01  1.09529E+01  1.31836E+01  1.37042E+01  1.00647E+01  1.12772E+01  1.09133E+01  1.22732E+01  1.34234E+01
   1.04764E+01  1.11488E+01  1.39988E+01  1.03800E+01  1.19855E+01  1.04402E+01  1.10903E+01  1.04161E+01  1.23562E+01  1.24116E+01
   1.24108E+01  1.18338E+01  1.10199E+01  1.22478E+01  1.09312E+01  1.20918E+01  1.06917E+01  1.00434E+01  1.04136E+01  9.52904E+00
   9.86797E+00  9.04050E+00  1.03252E+01  9.65801E+00  1.14576E+01  1.09265E+01  9.14782E+00  8.61025E+00  1.06439E+01  9.57997E+00
   9.85510E+00  9.75344E+00  1.18971E+01  1.07155E+01  1.08724E+01  9.13319E+00  1.14711E+01  1.05888E+01  1.12450E+01  1.04633E+01
   8.02291E+00  1.05806E+01  1.16304E+01  1.01076E+01  1.02609E+01  1.13521E+01  1.10820E+01  1.04644E+01  1.11580E+01  9.51691E+00
   1.01196E+01  9.93864E+00  1.16003E+01  1.02327E+01  1.06173E+01  1.03612E+01  1.00955E+01  1.06191E+01  1.06520E+01  8.45721E+00
   1.03533E+01  9.59822E+00  1.03305E+01  9.74328E+00  1.08616E+01  1.05778E+01  8.43564E+00  9.73107E+00  1.00617E+01  9.50887E+00
   1.01897E+01  9.57325E+00  9.92838E+00  1.07725E+01  9.19340E+00  1.19842E+01  1.04588E+01  1.07222E+01  9.62354E+00  9.37514E+00
   1.17689E+01  9.85649E+00  9.20353E+00  9.45580E+00  1.10020E+01  1.03446E+01  1.02373E+01  9.18971E+00  1.02267E+01  8.97413E+00
   1.07934E+01  9.62126E+00  1.02556E+01  1.01716E+01  1.23802E+01  1.09904E+01  1.23940E+01  1.09772E+01  8.81651E+00  8.45329E+00
   9.55012E+00  1.14296E+01  1.05235E+01  1.04631E+01  8.32622E+00  9.35947E+00  1.03341E+01  1.14581E+01  1.09660E+01  9.56040E+00
   1.11144E+01  1.09992E+01  1.15183E+01  9.68355E+00  8.68633E+00  7.98234E+00  1.05651E+01  9.49070E+00  1.08063E+01  1.02768E+01
   9.51531E+00  9.37152E+00  1.11919E+01  9.07482E+00  8.19768E+00  1.04486E+01  1.01884E+01  9.31988E+00  9.17170E+00  8.66914E+00
   1.05798E+01  9.88320E+00  1.10754E+01  9.96369E+00  9.53225E+00  9.11390E+00  9.03113E+00  7.10617E+00  9.02403E+00  8.92201E+00
   9.72261E+00  8.38989E+00  8.72966E+00  7.82193E+00  8.39915E+00  1.02581E+01  9.13047E+00  7.90642E+00  7.35710E+00  9.88843E+00
   8.05101E+00  7.79191E+00  8.39543E+00  8.38790E+00  8.45561E+00  8.02896E+00  8.78903E+00  5.81796E+00  8.25449E+00  8.92656E+00
   6.81011E+00  6.01639E+00  7.78617E+00  9.65047E+00  9.16917E+00  7.54869E+00  9.14539E+00  9.71835E+00  8.20520E+00  9.42716E+00
   8.71169E+00  8.61562E+00  8.46640E+00  7.80347E+00  9.06620E+00  8.98751E+00  8.03877E+00  7.45341E+00  8.37961E+00  7.11985E+00
   7.73771E+00  8.80753E+00  7.66910E+00  5.78871E+00  8.18239E+00  7.73981E+00  7.76218E+00  7.08154E+00  8.35392E+00  8.30256E+00
   8.71948E+00  1.00305E+01  7.52777E+00  8.79047E+00  8.81686E+00  7.02327E+00  8.46410E+00  7.51024E+00  6.53862E+00  7.71314E+00
   7.57075E+00  8.13036E+00  6.37707E+00  7.47673E+00  1.02417E+01  7.06831E+00  7.85130E+00  6.82604E+00  7.35063E+00  7.55857E+00
   8.80582E+00  8.58782E+00  7.26385E+00  8.55420E+00  8.27604E+00  6.58046E+00  6.85512E+00  7.60491E+00  6.53825E+00  5.74961E+00
   5.45719E+00  6.66359E+00  6.26608E+00  6.04512E+00  8.26761E+00  6.70801E+00  6.23235E+00  5.94865E+00  5.51824E+00  5.74339E+00
   5.52530E+00  6.68748E+00  7.64814E+00  6.35901E+00  7.08641E+00  5.52934E+00  8.51517E+00  6.78131E+00  7.26336E+00  7.83767E+00
   6.58068E+00  7.36877E+00  8.45173E+00  6.24431E+00  7.55573E+00  5.87957E+00  7.11294E+00  6.57905E+00  7.19919E+00  6.37659E+00
   5.77164E+00  6.81580E+00  6.27260E+00  7.44449E+00  6.72615E+00  6.67701E+00  6.59322E+00  6.69689E+00  7.63668E+00  7.33747E+00
   6.08676E+00  5.72418E+00  8.06745E+00  6.88623E+00  5.88651E+00  6.51378E+00  6.39122E+00  6.86830E+00  4.27446E+00  6.36858E+00
   6.97084E+00  6.71687E+00  6.63363E+00  6.72980E+00  5.47955E+00  4.95153E+00  5.98693E+00  7.65606E+00  5.15546E+00  6.57927E+00
   5.34279E+00  6.15653E+00  6.08200E+00  4.69436E+00  5.41787E+00  5.11618E+00  5.77612E+00  6.59917E+00  6.63533E+00  6.13205E+00
   5.94882E+00  6.07209E+00  7.57472E+00  4.88726E+00  5.38954E+00  5.73577E+00  5.05637E+00  5.73411E+00  5.12840E+00  6.27935E+00
   6.19093E+00  6.27716E+00  4.73778E+00  5.73325E+00  4.51265E+00  3.91741E+00  5.05038E+00  6.16455E+00  5.50777E+00  5.52912E+00
   4.58727E+00  5.67636E+00  4.67216E+00  6.58386E+00  5.11664E+00  3.76440E+00  6.21596E+00  5.05385E+00  5.54546E+00  4.94052E+00
   2.83814E+00  5.27549E+00  4.17991E+00  6.40995E+00  5.41612E+00  5.51972E+00  4.62515E+00  4.70280E+00  3.66652E+00  4.89670E+00
   5.30179E+00  5.37316E+00  3.83266E+00  5.52575E+00  5.01112E+00  5.60855E+00  4.13412E+00  5.50834E+00  4.47732E+00  3.79915E+00
   6.00902E+00  1.95442E+00  3.92104E+00  3.50285E+00  4.43347E+00  5.53463E+00  4.85200E+00  3.64474E+00
 NY points of the fit to the data follow
   3.06715E+01  3.05223E+01  3.03734E+01  3.02240E+01  3.00765E+01  2.99459E+01  2.98957E+01  2.99395E+01  2.99697E+01  2.99119E+01
   2.97602E+01  2.95389E+01  2.92712E+01  2.89779E+01  2.86913E+01  2.84365E+01  2.82190E+01  2.80381E+01  2.78835E+01  2.77320E+01
   2.75798E+01  2.74307E+01  2.72769E+01  2.71117E+01  2.70440E+01  2.71977E+01  2.73979E+01  2.74700E+01  2.73986E+01  2.72304E+01
   2.69695E+01  2.66100E+01  2.62098E+01  2.58219E+01  2.54587E+01  2.51411E+01  2.48952E+01  2.47213E+01  2.45780E+01  2.44430E+01
   2.43104E+01  2.41748E+01  2.40294E+01  2.38744E+01  2.37153E+01  2.35539E+01  2.33915E+01  2.32313E+01  2.30734E+01  2.29175E+01
   2.27632E+01  2.26104E+01  2.24589E+01  2.23080E+01  2.21578E+01  2.20087E+01  2.18608E+01  2.17140E+01  2.15681E+01  2.14232E+01
   2.12795E+01  2.11370E+01  2.09959E+01  2.08547E+01  2.07136E+01  2.05721E+01  2.04300E+01  2.02883E+01  2.01479E+01  2.00091E+01
   1.98741E+01  1.97439E+01  1.96150E+01  1.94841E+01  1.93500E+01  1.92132E+01  1.90752E+01  1.89386E+01  1.88051E+01  1.86750E+01
   1.85486E+01  1.84291E+01  1.83155E+01  1.82006E+01  1.80802E+01  1.79549E+01  1.78269E+01  1.76979E+01  1.75687E+01  1.74394E+01
   1.73108E+01  1.71844E+01  1.70614E+01  1.69443E+01  1.68339E+01  1.67266E+01  1.66193E+01  1.65114E+01  1.64025E+01  1.62925E+01
   1.61827E+01  1.60743E+01  1.59680E+01  1.58642E+01  1.57627E+01  1.56629E+01  1.55646E+01  1.54674E+01  1.53714E+01  1.52769E+01
   1.51840E+01  1.50931E+01  1.50048E+01  1.49195E+01  1.48337E+01  1.47438E+01  1.46522E+01  1.45634E+01  1.44806E+01  1.44098E+01
   1.43584E+01  1.43481E+01  1.44717E+01  1.47148E+01  1.49133E+01  1.49742E+01  1.49033E+01  1.47498E+01  1.45695E+01  1.43733E+01
   1.41351E+01  1.38557E+01  1.35559E+01  1.32671E+01  1.30483E+01  1.29191E+01  1.28778E+01  1.28996E+01  1.29338E+01  1.29464E+01
   1.29265E+01  1.28718E+01  1.27857E+01  1.26816E+01  1.25739E+01  1.24675E+01  1.23653E+01  1.22680E+01  1.21773E+01  1.20908E+01
   1.20069E+01  1.19318E+01  1.18675E+01  1.18109E+01  1.17577E+01  1.17042E+01  1.16450E+01  1.15803E+01  1.15162E+01  1.14582E+01
   1.14095E+01  1.13645E+01  1.13181E+01  1.12703E+01  1.12213E+01  1.11717E+01  1.11225E+01  1.10752E+01  1.10308E+01  1.09870E+01
   1.09391E+01  1.08841E+01  1.08251E+01  1.07719E+01  1.07279E+01  1.06890E+01  1.06484E+01  1.06049E+01  1.05645E+01  1.05264E+01
   1.04803E+01  1.04281E+01  1.03760E+01  1.03350E+01  1.03246E+01  1.03588E+01  1.04321E+01  1.05180E+01  1.05765E+01  1.05844E+01
   1.05405E+01  1.04496E+01  1.03124E+01  1.01587E+01  1.00511E+01  1.00126E+01  1.00265E+01  1.00680E+01  1.01218E+01  1.01791E+01
   1.02258E+01  1.02542E+01  1.02578E+01  1.02368E+01  1.01988E+01  1.01382E+01  1.00646E+01  9.99286E+00  9.93532E+00  9.91073E+00
   9.93971E+00  1.00528E+01  1.02007E+01  1.02985E+01  1.03099E+01  1.02396E+01  1.00972E+01  9.87877E+00  9.61968E+00  9.41493E+00
   9.33514E+00  9.36925E+00  9.48108E+00  9.63731E+00  9.79647E+00  9.91526E+00  9.95391E+00  9.92208E+00  9.87347E+00  9.84320E+00
   9.84651E+00  9.89574E+00  9.99823E+00  1.01113E+01  1.01629E+01  1.01227E+01  1.00110E+01  9.86930E+00  9.72014E+00  9.60372E+00
   9.57793E+00  9.65220E+00  9.77980E+00  9.91847E+00  1.00413E+01  1.01192E+01  1.01308E+01  1.00863E+01  1.00222E+01  9.96846E+00
   9.93471E+00  9.92119E+00  9.92593E+00  9.93514E+00  9.96478E+00  1.01297E+01  1.04703E+01  1.07936E+01  1.09576E+01  1.09510E+01
   1.08119E+01  1.05753E+01  1.02900E+01  1.00124E+01  9.77730E+00  9.58460E+00  9.43079E+00  9.32265E+00  9.25584E+00  9.20986E+00
   9.17777E+00  9.15418E+00  9.13304E+00  9.11018E+00  9.08428E+00  9.05351E+00  9.01721E+00  8.97822E+00  8.93962E+00  8.90294E+00
   8.86948E+00  8.84010E+00  8.81445E+00  8.79137E+00  8.76992E+00  8.74990E+00  8.73118E+00  8.71342E+00  8.69661E+00  8.68103E+00
   8.66670E+00  8.65346E+00  8.64117E+00  8.62968E+00  8.61877E+00  8.60815E+00  8.59757E+00  8.58681E+00  8.57569E+00  8.56403E+00
   8.55159E+00  8.53813E+00  8.52349E+00  8.50762E+00  8.49053E+00  8.47230E+00  8.45308E+00  8.43308E+00  8.41252E+00  8.39169E+00
   8.37091E+00  8.35056E+00  8.33100E+00  8.31266E+00  8.29595E+00  8.28138E+00  8.26953E+00  8.26114E+00  8.25732E+00  8.25996E+00
   8.27294E+00  8.30631E+00  8.37344E+00  8.42106E+00  8.38614E+00  8.27738E+00  8.13376E+00  7.98502E+00  7.84470E+00  7.72271E+00
   7.67291E+00  7.73878E+00  7.87513E+00  8.02162E+00  8.14418E+00  8.22423E+00  8.25584E+00  8.24634E+00  8.21280E+00  8.17451E+00
   8.14477E+00  8.14111E+00  8.19347E+00  8.24055E+00  8.18454E+00  8.02861E+00  7.82547E+00  7.61841E+00  7.42844E+00  7.28096E+00
   7.26735E+00  7.40793E+00  7.61964E+00  7.82442E+00  7.98374E+00  8.07436E+00  8.08605E+00  8.03058E+00  7.93299E+00  7.81529E+00
   7.68910E+00  7.56405E+00  7.45493E+00  7.36431E+00  7.28768E+00  7.22311E+00  7.16911E+00  7.12402E+00  7.08606E+00  7.05353E+00
   7.02500E+00  6.99934E+00  6.97576E+00  6.95377E+00  6.93312E+00  6.91374E+00  6.89569E+00  6.87909E+00  6.86409E+00  6.85087E+00
   6.83966E+00  6.83065E+00  6.82406E+00  6.82007E+00  6.81886E+00  6.82058E+00  6.82535E+00  6.83324E+00  6.84425E+00  6.85829E+00
   6.87518E+00  6.89463E+00  6.91625E+00  6.93949E+00  6.96369E+00  6.98806E+00  7.01172E+00  7.03370E+00  7.05299E+00  7.06855E+00
   7.07940E+00  7.08463E+00  7.08345E+00  7.07526E+00  7.05965E+00  7.03644E+00  7.00568E+00  6.96766E+00  6.92289E+00  6.87209E+00
   6.81613E+00  6.75597E+00  6.69268E+00  6.62730E+00  6.56089E+00  6.49440E+00  6.42872E+00  6.36459E+00  6.30262E+00  6.24327E+00
   6.18688E+00  6.13364E+00  6.08363E+00  6.03684E+00  5.99317E+00  5.95246E+00  5.91451E+00  5.87910E+00  5.84597E+00  5.81491E+00
   5.78566E+00  5.75801E+00  5.73175E+00  5.70669E+00  5.68268E+00  5.65955E+00  5.63719E+00  5.61548E+00  5.59433E+00  5.57365E+00
   5.55337E+00  5.53343E+00  5.51378E+00  5.49437E+00  5.47517E+00  5.45614E+00  5.43726E+00  5.41849E+00  5.39982E+00  5.38124E+00
   5.36271E+00  5.34423E+00  5.32578E+00  5.30735E+00  5.28894E+00  5.27054E+00  5.25215E+00  5.23375E+00  5.21535E+00  5.19694E+00
   5.17853E+00  5.16011E+00  5.14167E+00  5.12322E+00  5.10475E+00  5.08627E+00  5.06777E+00  5.04926E+00  5.03073E+00  5.01218E+00
   4.99362E+00  4.97504E+00  4.95644E+00  4.93783E+00  4.91921E+00  4.90057E+00  4.88192E+00  4.86326E+00  4.84459E+00  4.82590E+00
   4.80721E+00  4.78851E+00  4.76981E+00  4.75110E+00  4.73238E+00  4.71367E+00  4.69495E+00  4.67623E+00  4.65751E+00  4.63880E+00
   4.62010E+00  4.60140E+00  4.58271E+00  4.56403E+00  4.54536E+00  4.52671E+00  4.50807E+00  4.48946E+00
 NY background values follow
     3.064E+01    3.047E+01    3.031E+01    3.015E+01    2.999E+01    2.983E+01    2.967E+01    2.950E+01    2.934E+01    2.918E+01
     2.902E+01    2.886E+01    2.870E+01    2.854E+01    2.837E+01    2.821E+01    2.805E+01    2.789E+01    2.773E+01    2.757E+01
     2.741E+01    2.725E+01    2.709E+01    2.693E+01    2.677E+01    2.661E+01    2.645E+01    2.629E+01    2.613E+01    2.597E+01
     2.581E+01    2.566E+01    2.550E+01    2.534E+01    2.518E+01    2.503E+01    2.487E+01    2.471E+01    2.456E+01    2.440E+01
     2.425E+01    2.409E+01    2.394E+01    2.379E+01    2.363E+01    2.348E+01    2.333E+01    2.317E+01    2.302E+01    2.287E+01
     2.272E+01    2.257E+01    2.242E+01    2.227E+01    2.213E+01    2.198E+01    2.183E+01    2.169E+01    2.154E+01    2.139E+01
     2.125E+01    2.111E+01    2.096E+01    2.082E+01    2.068E+01    2.054E+01    2.040E+01    2.026E+01    2.012E+01    1.998E+01
     1.984E+01    1.970E+01    1.957E+01    1.943E+01    1.930E+01    1.917E+01    1.903E+01    1.890E+01    1.877E+01    1.864E+01
     1.851E+01    1.838E+01    1.825E+01    1.813E+01    1.800E+01    1.787E+01    1.775E+01    1.763E+01    1.750E+01    1.738E+01
     1.726E+01    1.714E+01    1.702E+01    1.691E+01    1.679E+01    1.668E+01    1.656E+01    1.645E+01    1.634E+01    1.622E+01
     1.611E+01    1.600E+01    1.590E+01    1.579E+01    1.568E+01    1.558E+01    1.547E+01    1.537E+01    1.527E+01    1.517E+01
     1.507E+01    1.497E+01    1.487E+01    1.477E+01    1.467E+01    1.458E+01    1.449E+01    1.439E+01    1.430E+01    1.421E+01
     1.412E+01    1.403E+01    1.394E+01    1.386E+01    1.377E+01    1.369E+01    1.360E+01    1.352E+01    1.344E+01    1.336E+01
     1.328E+01    1.320E+01    1.312E+01    1.305E+01    1.297E+01    1.290E+01    1.282E+01    1.275E+01    1.268E+01    1.261E+01
     1.254E+01    1.248E+01    1.241E+01    1.234E+01    1.228E+01    1.221E+01    1.215E+01    1.209E+01    1.203E+01    1.197E+01
     1.191E+01    1.185E+01    1.180E+01    1.174E+01    1.169E+01    1.163E+01    1.158E+01    1.153E+01    1.147E+01    1.142E+01
     1.137E+01    1.133E+01    1.128E+01    1.123E+01    1.118E+01    1.114E+01    1.109E+01    1.105E+01    1.101E+01    1.096E+01
     1.092E+01    1.088E+01    1.084E+01    1.080E+01    1.076E+01    1.073E+01    1.069E+01    1.065E+01    1.062E+01    1.058E+01
     1.055E+01    1.051E+01    1.048E+01    1.045E+01    1.042E+01    1.038E+01    1.035E+01    1.032E+01    1.029E+01    1.027E+01
     1.024E+01    1.021E+01    1.018E+01    1.016E+01    1.013E+01    1.010E+01    1.008E+01    1.005E+01    1.003E+01    1.001E+01
     9.984E+00    9.961E+00    9.938E+00    9.916E+00    9.895E+00    9.873E+00    9.852E+00    9.832E+00    9.811E+00    9.792E+00
     9.772E+00    9.753E+00    9.734E+00    9.715E+00    9.696E+00    9.678E+00    9.660E+00    9.642E+00    9.625E+00    9.608E+00
     9.590E+00    9.573E+00    9.557E+00    9.540E+00    9.523E+00    9.507E+00    9.491E+00    9.475E+00    9.458E+00    9.442E+00
     9.427E+00    9.411E+00    9.395E+00    9.379E+00    9.364E+00    9.348E+00    9.333E+00    9.317E+00    9.302E+00    9.286E+00
     9.271E+00    9.256E+00    9.240E+00    9.225E+00    9.210E+00    9.195E+00    9.179E+00    9.164E+00    9.149E+00    9.133E+00
     9.118E+00    9.103E+00    9.087E+00    9.072E+00    9.057E+00    9.041E+00    9.025E+00    9.010E+00    8.994E+00    8.978E+00
     8.963E+00    8.947E+00    8.931E+00    8.915E+00    8.898E+00    8.882E+00    8.866E+00    8.849E+00    8.833E+00    8.816E+00
     8.799E+00    8.782E+00    8.765E+00    8.747E+00    8.730E+00    8.712E+00    8.695E+00    8.677E+00    8.659E+00    8.641E+00
     8.623E+00    8.604E+00    8.586E+00    8.567E+00    8.549E+00    8.530E+00    8.511E+00    8.492E+00    8.473E+00    8.453E+00
     8.434E+00    8.415E+00    8.395E+00    8.376E+00    8.356E+00    8.336E+00    8.316E+00    8.296E+00    8.276E+00    8.256E+00
     8.236E+00    8.216E+00    8.195E+00    8.175E+00    8.154E+00    8.134E+00    8.113E+00    8.093E+00    8.072E+00    8.051E+00
     8.030E+00    8.009E+00    7.989E+00    7.968E+00    7.947E+00    7.925E+00    7.904E+00    7.883E+00    7.862E+00    7.841E+00
     7.820E+00    7.798E+00    7.777E+00    7.756E+00    7.734E+00    7.713E+00    7.692E+00    7.670E+00    7.649E+00    7.627E+00
     7.606E+00    7.584E+00    7.563E+00    7.542E+00    7.520E+00    7.499E+00    7.477E+00    7.456E+00    7.435E+00    7.413E+00
     7.392E+00    7.371E+00    7.350E+00    7.328E+00    7.307E+00    7.286E+00    7.265E+00    7.244E+00    7.223E+00    7.202E+00
     7.181E+00    7.160E+00    7.139E+00    7.118E+00    7.098E+00    7.077E+00    7.056E+00    7.036E+00    7.015E+00    6.995E+00
     6.975E+00    6.954E+00    6.934E+00    6.914E+00    6.894E+00    6.874E+00    6.854E+00    6.835E+00    6.815E+00    6.795E+00
     6.776E+00    6.756E+00    6.737E+00    6.718E+00    6.698E+00    6.679E+00    6.660E+00    6.641E+00    6.622E+00    6.603E+00
     6.584E+00    6.566E+00    6.547E+00    6.528E+00    6.510E+00    6.491E+00    6.473E+00    6.454E+00    6.436E+00    6.418E+00
     6.400E+00    6.382E+00    6.364E+00    6.346E+00    6.328E+00    6.310E+00    6.292E+00    6.274E+00    6.256E+00    6.239E+00
     6.221E+00    6.204E+00    6.186E+00    6.169E+00    6.151E+00    6.134E+00    6.117E+00    6.100E+00    6.082E+00    6.065E+00
     6.048E+00    6.031E+00    6.014E+00    5.997E+00    5.980E+00    5.963E+00    5.946E+00    5.930E+00    5.913E+00    5.896E+00
     5.879E+00    5.862E+00    5.846E+00    5.829E+00    5.812E+00    5.795E+00    5.779E+00    5.762E+00    5.745E+00    5.728E+00
     5.712E+00    5.695E+00    5.678E+00    5.661E+00    5.645E+00    5.628E+00    5.611E+00    5.594E+00    5.577E+00    5.560E+00
     5.543E+00    5.526E+00    5.509E+00    5.492E+00    5.475E+00    5.458E+00    5.441E+00    5.424E+00    5.406E+00    5.389E+00
     5.372E+00    5.354E+00    5.337E+00    5.319E+00    5.302E+00    5.284E+00    5.266E+00    5.248E+00    5.231E+00    5.213E+00
     5.195E+00    5.177E+00    5.159E+00    5.140E+00    5.122E+00    5.104E+00    5.086E+00    5.068E+00    5.049E+00    5.031E+00
     5.013E+00    4.994E+00    4.976E+00    4.957E+00    4.939E+00    4.920E+00    4.902E+00    4.883E+00    4.864E+00    4.846E+00
     4.827E+00    4.808E+00    4.790E+00    4.771E+00    4.752E+00    4.733E+00    4.715E+00    4.696E+00    4.677E+00    4.658E+00
     4.640E+00    4.621E+00    4.602E+00    4.583E+00    4.565E+00    4.546E+00    4.527E+00    4.508E+00
 Ala      Conc. = 2.43E+01
