 LCModel (Version 6.3-1L) Copyright: S.W. Provencher.          Ref.: Magn. Reson. Med. 30:672-679 (1993).                
 Slice#1 Row#10 Col#8  PD_05_press_1_raw_act
 36 lines in following concentration table = NCONC+1
    Conc.  %SD /Cr+PCr  Metabolite                                         
  135.897  52%   0.186 Ala                                                 
  211.493  62%   0.289 Asp                                                 
  500.968  22%   0.685 Cr                                                  
  230.053  49%   0.315 PCr                                                 
   18.378 438% 2.5E-02 GABA                                                
   17.028 494% 2.3E-02 Glc                                                 
  519.037  27%   0.710 Gln                                                 
  831.502  19%   1.137 Glu                                                 
  221.149   7%   0.303 GPC                                                 
    0.000 999%   0.000 PCh                                                 
  232.258  22%   0.318 GSH                                                 
  829.002  20%   1.134 Ins                                                 
    0.000 999%   0.000 Lac                                                 
 1.43E+03   4%   1.953 NAA                                                 
    0.000 999%   0.000 NAAG                                                
   46.466  38% 6.4E-02 Scyllo                                              
  150.481  77%   0.206 Tau                                                 
    0.000 999%   0.000 -CrCH2                                              
  221.149   7%   0.303 GPC+PCh                                             
 1.43E+03   4%   1.953 NAA+NAAG                                            
  731.021   6%   1.000 Cr+PCr                                              
 1.35E+03  15%   1.847 Glu+Gln                                             
  857.143  44%   1.173 Lip13a                                              
    0.000 999%   0.000 Lip13b                                              
   11.418 999% 1.6E-02 Lip09                                               
 1.25E+03  18%   1.708 MM09                                                
   69.366 185% 9.5E-02 Lip20                                               
 2.52E+03  11%   3.444 MM20                                                
  479.939  31%   0.657 MM12                                                
 1.66E+03  19%   2.269 MM14                                                
  849.215  24%   1.162 MM17                                                
  857.143  44%   1.173 Lip13a+Lip13b                                       
 3.00E+03  10%   4.098 MM14+Lip13a+Lip13b+MM12                             
 1.26E+03  12%   1.723 MM09+Lip09                                          
 2.59E+03  11%   3.539 MM20+Lip20                                          
   6 lines in following misc. output table
  FWHM = 0.038 ppm    S/N =  11                                            
  Data shift = 0.008 ppm                                                   
  Ph:  -3 deg       8.6 deg/ppm                                            
  alphaB,S = 3.6E+00,   5.9E+01                                            
   14 spline knots.   Ns = 5(1)                                            
  ( 5) 4 infls.   ( 5) 1 extrs.                                            
  498 points on ppm-axis = NY
      4.000000     3.992357     3.984714     3.977070     3.969427     3.961784     3.954141     3.946497     3.938854     3.931211
      3.923568     3.915925     3.908281     3.900638     3.892995     3.885352     3.877708     3.870065     3.862422     3.854779
      3.847136     3.839492     3.831849     3.824206     3.816563     3.808919     3.801276     3.793633     3.785990     3.778347
      3.770703     3.763060     3.755417     3.747774     3.740130     3.732487     3.724844     3.717201     3.709558     3.701914
      3.694271     3.686628     3.678985     3.671341     3.663698     3.656055     3.648412     3.640769     3.633125     3.625482
      3.617839     3.610196     3.602552     3.594909     3.587266     3.579623     3.571980     3.564336     3.556693     3.549050
      3.541407     3.533763     3.526120     3.518477     3.510834     3.503191     3.495547     3.487904     3.480261     3.472618
      3.464974     3.457331     3.449688     3.442045     3.434402     3.426758     3.419115     3.411472     3.403829     3.396185
      3.388542     3.380899     3.373256     3.365613     3.357969     3.350326     3.342683     3.335040     3.327396     3.319753
      3.312110     3.304467     3.296824     3.289180     3.281537     3.273894     3.266251     3.258607     3.250964     3.243321
      3.235678     3.228034     3.220391     3.212748     3.205105     3.197462     3.189818     3.182175     3.174532     3.166889
      3.159245     3.151602     3.143959     3.136316     3.128673     3.121029     3.113386     3.105743     3.098100     3.090456
      3.082813     3.075170     3.067527     3.059884     3.052240     3.044597     3.036954     3.029311     3.021667     3.014024
      3.006381     2.998738     2.991095     2.983451     2.975808     2.968165     2.960522     2.952878     2.945235     2.937592
      2.929949     2.922306     2.914662     2.907019     2.899376     2.891733     2.884089     2.876446     2.868803     2.861160
      2.853517     2.845873     2.838230     2.830587     2.822944     2.815300     2.807657     2.800014     2.792371     2.784728
      2.777084     2.769441     2.761798     2.754155     2.746511     2.738868     2.731225     2.723582     2.715939     2.708295
      2.700652     2.693009     2.685366     2.677722     2.670079     2.662436     2.654793     2.647150     2.639506     2.631863
      2.624220     2.616577     2.608933     2.601290     2.593647     2.586004     2.578361     2.570717     2.563074     2.555431
      2.547788     2.540144     2.532501     2.524858     2.517215     2.509572     2.501928     2.494285     2.486642     2.478999
      2.471355     2.463712     2.456069     2.448426     2.440783     2.433139     2.425496     2.417853     2.410210     2.402566
      2.394923     2.387280     2.379637     2.371994     2.364350     2.356707     2.349064     2.341421     2.333777     2.326134
      2.318491     2.310848     2.303205     2.295561     2.287918     2.280275     2.272632     2.264988     2.257345     2.249702
      2.242059     2.234416     2.226772     2.219129     2.211486     2.203843     2.196199     2.188556     2.180913     2.173270
      2.165627     2.157983     2.150340     2.142697     2.135054     2.127410     2.119767     2.112124     2.104481     2.096838
      2.089194     2.081551     2.073908     2.066265     2.058621     2.050978     2.043335     2.035692     2.028049     2.020405
      2.012762     2.005119     1.997476     1.989833     1.982190     1.974546     1.966903     1.959260     1.951617     1.943974
      1.936331     1.928688     1.921045     1.913402     1.905759     1.898115     1.890472     1.882829     1.875186     1.867543
      1.859900     1.852257     1.844614     1.836971     1.829327     1.821684     1.814041     1.806398     1.798755     1.791112
      1.783469     1.775826     1.768183     1.760540     1.752896     1.745253     1.737610     1.729967     1.722324     1.714681
      1.707038     1.699395     1.691752     1.684108     1.676465     1.668822     1.661179     1.653536     1.645893     1.638250
      1.630607     1.622964     1.615321     1.607677     1.600034     1.592391     1.584748     1.577105     1.569462     1.561819
      1.554176     1.546533     1.538890     1.531246     1.523603     1.515960     1.508317     1.500674     1.493031     1.485388
      1.477745     1.470102     1.462458     1.454815     1.447172     1.439529     1.431886     1.424243     1.416600     1.408957
      1.401314     1.393671     1.386027     1.378384     1.370741     1.363098     1.355455     1.347812     1.340169     1.332526
      1.324883     1.317240     1.309596     1.301953     1.294310     1.286667     1.279024     1.271381     1.263738     1.256095
      1.248452     1.240808     1.233165     1.225522     1.217879     1.210236     1.202593     1.194950     1.187307     1.179664
      1.172021     1.164377     1.156734     1.149091     1.141448     1.133805     1.126162     1.118519     1.110876     1.103233
      1.095590     1.087946     1.080303     1.072660     1.065017     1.057374     1.049731     1.042088     1.034445     1.026802
      1.019158     1.011515     1.003872     0.996229     0.988586     0.980943     0.973300     0.965657     0.958014     0.950371
      0.942727     0.935084     0.927441     0.919798     0.912155     0.904512     0.896869     0.889226     0.881583     0.873940
      0.866296     0.858653     0.851010     0.843367     0.835724     0.828081     0.820438     0.812795     0.805152     0.797508
      0.789865     0.782222     0.774579     0.766936     0.759293     0.751650     0.744007     0.736364     0.728721     0.721077
      0.713434     0.705791     0.698148     0.690505     0.682862     0.675219     0.667576     0.659933     0.652290     0.644646
      0.637003     0.629360     0.621717     0.614074     0.606431     0.598788     0.591145     0.583502     0.575858     0.568215
      0.560572     0.552929     0.545286     0.537643     0.530000     0.522357     0.514714     0.507071     0.499427     0.491784
      0.484141     0.476498     0.468855     0.461212     0.453569     0.445925     0.438282     0.430639     0.422996     0.415353
      0.407710     0.400067     0.392424     0.384780     0.377137     0.369494     0.361851     0.354208     0.346565     0.338922
      0.331278     0.323635     0.315992     0.308349     0.300706     0.293063     0.285420     0.277777     0.270133     0.262490
      0.254847     0.247204     0.239561     0.231918     0.224275     0.216631     0.208988     0.201345
 NY phased data points follow
   9.94950E+00  1.05964E+01  8.36640E+00  1.08557E+01  2.81782E+00  6.58336E+00  5.22671E+00  1.06704E+01  1.61619E+01  1.94732E+01
   2.07503E+01  2.44682E+01  2.36541E+01  2.52179E+01  1.94126E+01  1.75407E+01  1.34516E+01  1.23988E+01  1.12099E+01  8.26627E+00
   1.06250E+01  9.91263E+00  9.47016E+00  1.14793E+01  1.47282E+01  5.70860E+00  5.60618E+00  5.54400E+00  8.22124E+00  1.18383E+01
   9.65436E+00  1.65279E+01  1.24622E+01  1.08832E+01  7.94955E+00  9.41811E+00  5.37485E+00  1.01048E+01  7.21903E+00  1.13562E+01
   6.98234E+00  1.01061E+01  9.23737E+00  1.02987E+01  7.13327E+00  1.12652E+01  7.83128E+00  1.15716E+01  1.31517E+01  1.42515E+01
   1.63399E+01  7.01613E+00  5.42512E+00  8.16333E+00  1.14360E+01  7.10635E+00  9.29537E+00  9.11357E+00  1.02240E+01  1.49649E+01
   1.02843E+01  8.37084E+00  8.81711E+00  1.04101E+01  1.82385E+00  4.03946E+00  3.17402E+00  4.77286E+00  3.56980E+00  4.11250E+00
   5.35109E+00  2.31641E+00  4.50171E+00  5.80827E+00  3.54865E+00  1.01130E+01  6.46083E+00 -2.56245E+00  4.92640E+00  3.12049E+00
   5.24939E-01  5.88236E+00  1.76822E+00  2.39705E+00  7.15459E+00  2.81810E+00  1.13948E+01  5.42917E+00  3.04091E+00  6.26234E+00
   7.01197E+00  6.77172E+00  6.76602E+00  3.12276E+00  1.27191E+01  9.64337E+00  5.81834E+00  5.19457E+00  7.08520E+00  7.42803E+00
   1.15322E+01  1.02691E+01  2.28427E+01  2.98610E+01  2.86201E+01  2.81049E+01  1.81245E+01  1.73071E+01  1.30606E+01  7.64010E+00
   1.49014E+01  6.73037E+00  7.04706E+00  6.83120E+00  4.31647E+00  6.77254E+00  4.14779E+00  3.49960E+00  8.44318E+00  9.37695E+00
   7.99107E-01  3.44388E+00 -6.12875E-01  4.54529E-01  6.19465E+00  1.28628E+01  2.93340E+01  3.32575E+01  3.96552E+01  3.23609E+01
   2.47911E+01  2.14124E+01  1.68009E+01  1.19322E+01  1.31494E+01  1.04653E+01  6.26088E+00  6.90947E+00  7.10651E+00  9.42762E+00
   6.45540E-01  3.07203E+00  6.46401E+00  2.89895E+00  5.80222E+00  2.30407E+00  3.69804E+00  1.01737E+01  1.11418E+00  3.02041E+00
   2.64463E+00  1.71742E+00  2.65494E+00  2.43208E+00  1.11359E+00 -2.03481E+00  2.94208E+00  2.40181E-01  1.34692E+00  1.70998E-01
   2.13521E+00  4.64554E-01 -4.12602E+00  2.31801E-01  3.05957E+00 -1.55295E+00  3.85252E+00  1.24371E+00  6.88936E-01 -4.67760E+00
  -1.07732E+00  9.86644E-01 -1.99417E+00 -9.26452E+00 -2.00280E+00 -5.23209E+00 -9.23921E+00 -5.90787E+00 -7.55253E+00 -7.44177E+00
  -7.07323E+00 -6.60668E+00 -2.55357E+00 -3.52622E+00 -1.03840E+00 -2.02469E+00  3.73355E+00  6.91263E-01  1.62085E+00  2.11259E+00
  -2.68425E+00  3.16283E+00 -4.13698E-01 -1.79465E+00  3.80424E-01 -4.93067E+00 -2.00151E+00 -7.20856E+00 -4.67101E+00 -1.57281E+00
  -2.05133E+00  5.67493E+00  2.95416E+00  4.12591E+00  7.59673E+00  7.16348E+00  3.92839E+00  1.18500E+00  4.03324E+00 -6.61163E-01
  -2.59657E-01 -5.40223E+00  2.69857E-01  5.82807E+00  5.88228E+00  1.01202E+01  1.00819E+01  9.06485E+00  8.18799E+00  6.78162E+00
   1.15941E+00  1.10361E+00 -1.50396E+00 -3.63875E+00 -1.12598E+00  8.88987E+00  5.54079E+00  8.46667E+00  5.10033E+00  8.46317E+00
   1.02464E+01  7.06387E+00  8.17306E+00  7.26908E+00  6.94548E+00  9.91722E+00  1.01405E+01  7.53300E+00  7.10945E+00  7.37035E+00
   8.73799E+00  8.27865E+00  4.08666E+00  4.84014E+00  4.83343E+00  1.03666E+01  1.40007E+01  1.07340E+01  1.36839E+01  1.52282E+01
   1.33595E+01  1.56895E+01  1.86793E+01  1.86527E+01  1.09699E+01  1.20138E+01  1.43230E+01  2.21917E+01  3.81409E+01  5.39678E+01
   7.25656E+01  7.93570E+01  5.91736E+01  4.20632E+01  3.06098E+01  2.32819E+01  2.16674E+01  1.61025E+01  8.96574E+00  7.46378E+00
   7.06100E+00 -1.18631E+00  3.11684E+00  1.81701E+00  4.42497E+00  3.80957E+00 -2.64527E+00  1.42937E+00 -7.53695E-01  4.50585E-02
   3.81747E+00 -1.92538E+00 -1.84709E+00  4.24540E+00  5.44148E+00 -2.24431E+00 -5.08434E+00  5.63444E+00 -1.34078E+00  5.58140E+00
  -8.98218E-01  1.31862E+00  1.86011E+00  3.07419E+00  4.70860E+00 -8.17501E-01  4.14670E+00  2.07430E+00 -2.98907E-01  9.76203E-01
   4.91435E+00  8.94559E+00  1.26107E+00  4.66811E+00  4.29950E+00  9.79582E+00  6.81632E+00  8.15351E+00  1.01864E+01  5.41817E+00
   6.15840E+00  9.15714E+00  5.35071E+00  1.15695E+01  1.23005E+01  1.44909E+01  9.15646E+00  1.34550E+01  5.31185E+00  8.54803E+00
   8.27391E+00  7.76084E+00  6.93726E+00  8.55906E+00  1.01287E+01  1.07615E+01  1.19284E+01  9.71927E+00  8.48545E+00  6.04433E+00
   6.83938E+00  5.60421E+00  1.12367E+01  1.11297E+01  9.93281E+00  1.27103E+01  1.12797E+01  1.27630E+01  1.09352E+01  1.44336E+01
   1.40348E+01  6.99377E+00  9.04306E+00  5.45335E+00  9.82055E+00  1.10105E+01  6.78875E+00  4.68848E+00  5.81830E+00  6.64848E+00
   8.90679E+00  8.45343E+00  9.79884E+00  7.61810E+00  7.90273E+00  8.93511E+00  6.94814E+00  7.53417E+00  5.74804E+00  1.74328E+00
   1.06514E+01  4.26873E+00  6.40659E+00  1.22168E+01  9.15283E+00  5.03000E+00  6.57785E+00  6.75289E+00  4.61709E+00  4.52657E+00
   7.30080E+00  8.61454E+00  4.17809E+00  1.55906E+00  6.10659E+00  8.46049E+00  2.78654E+00  6.34827E+00  3.71393E+00  2.64700E+00
   6.15424E+00  1.98390E+00  4.26504E+00  4.87542E-01  4.24063E+00  4.63595E+00  8.31329E-01  3.16680E+00  2.54304E-01  4.26740E+00
   3.40363E+00  3.02232E+00  2.85972E+00  6.54830E+00  5.16700E+00  5.89646E+00  6.29743E+00  8.19871E+00  5.94377E+00  4.30877E+00
   7.63640E+00  5.16315E+00  9.16316E+00  8.57446E+00  9.56804E+00  7.30218E+00  5.38213E+00  1.00806E+01  9.12369E+00  5.21346E+00
   4.22884E+00  5.18965E+00  6.88109E+00  7.91982E+00  4.85858E+00  5.84470E+00  5.55950E+00  4.84108E+00  1.94607E+00  3.45145E+00
   2.87011E+00 -9.61266E-01  4.62204E+00 -2.73066E+00  3.62554E-01 -3.66030E+00  4.22027E+00  1.24217E+00 -3.86191E+00 -3.24555E+00
  -1.87863E+00  5.05254E+00 -1.38940E+00  3.88808E+00 -1.05055E+00 -3.25516E+00  2.06839E-01 -2.79188E+00 -2.26015E+00 -1.71607E+00
   4.68411E-01 -6.39761E+00  4.39339E-01  5.66231E-01  1.77841E+00 -4.61754E-01 -2.56139E+00 -7.17587E+00 -3.29990E+00 -3.45558E+00
   2.11755E+00  1.26678E+00 -1.92556E+00 -2.52078E+00  3.51561E-01 -2.72563E+00  4.16728E+00 -3.31094E+00  1.38677E+00  7.05205E-01
  -1.17459E+00  1.14546E+00 -1.72223E+00 -1.53322E+00 -3.45122E+00 -3.50897E+00 -1.64597E-02  1.12246E+00  2.24807E-01 -8.20743E-02
   1.42512E+00 -2.30446E+00 -5.04777E-01 -1.09979E+00 -1.87356E+00 -9.69910E-01  2.43889E+00  8.05291E-01 -5.32446E+00 -5.56629E-01
  -4.75202E-01  1.75342E+00  2.42282E+00 -9.99757E-02 -4.15459E+00  3.26691E+00  3.00920E-01 -8.54695E-01  1.45152E+00 -4.78898E-01
  -8.62834E-01 -3.99338E-01 -3.23181E+00 -2.15703E+00  1.80878E+00 -1.04261E+00  8.43143E-01  3.99741E+00
 NY points of the fit to the data follow
   7.13378E+00  6.75342E+00  6.49886E+00  6.44915E+00  6.61706E+00  7.09616E+00  8.22855E+00  1.01421E+01  1.31771E+01  1.73195E+01
   2.15955E+01  2.46783E+01  2.54890E+01  2.36535E+01  2.00022E+01  1.60842E+01  1.30813E+01  1.09522E+01  8.87515E+00  7.61424E+00
   7.42851E+00  7.65665E+00  7.88571E+00  7.88073E+00  7.45018E+00  6.64583E+00  6.09525E+00  6.43260E+00  8.04081E+00  1.06188E+01
   1.31151E+01  1.45176E+01  1.46418E+01  1.37259E+01  1.20875E+01  9.86003E+00  7.64523E+00  6.39381E+00  5.89060E+00  5.79209E+00
   5.88235E+00  6.05843E+00  6.32512E+00  6.76355E+00  7.71885E+00  9.40996E+00  1.16040E+01  1.35316E+01  1.41514E+01  1.29909E+01
   1.07493E+01  8.58906E+00  7.00052E+00  5.82863E+00  5.00081E+00  4.71256E+00  4.96347E+00  5.54674E+00  6.37510E+00  7.30325E+00
   8.00268E+00  8.12361E+00  7.60274E+00  6.73631E+00  5.92123E+00  5.35731E+00  5.09757E+00  5.12222E+00  5.31679E+00  5.65328E+00
   6.05286E+00  6.46733E+00  6.86087E+00  7.11600E+00  7.15262E+00  6.97161E+00  6.60089E+00  6.06015E+00  5.44245E+00  5.02287E+00
   4.90059E+00  4.94280E+00  5.17527E+00  5.72768E+00  6.45735E+00  7.03729E+00  7.06423E+00  6.30255E+00  5.05263E+00  4.01794E+00
   3.60570E+00  3.62024E+00  3.64704E+00  3.69050E+00  3.96354E+00  4.32907E+00  4.62893E+00  4.77833E+00  4.82771E+00  5.54265E+00
   8.70416E+00  1.49204E+01  2.27672E+01  2.91056E+01  3.07892E+01  2.72364E+01  2.12638E+01  1.60460E+01  1.23611E+01  9.08073E+00
   6.11785E+00  4.91993E+00  4.59180E+00  4.47861E+00  4.42875E+00  4.42682E+00  4.43912E+00  4.44479E+00  4.44467E+00  4.46263E+00
   4.54648E+00  4.75560E+00  5.15944E+00  6.35418E+00  1.00743E+01  1.71810E+01  2.63110E+01  3.41476E+01  3.70208E+01  3.38049E+01
   2.72429E+01  2.11232E+01  1.66960E+01  1.26398E+01  8.37953E+00  5.62487E+00  4.30070E+00  3.76793E+00  3.82905E+00  4.18878E+00
   4.60829E+00  4.92443E+00  5.00796E+00  4.93392E+00  4.80852E+00  4.60949E+00  4.31280E+00  3.92478E+00  3.53571E+00  3.22727E+00
   2.96397E+00  2.72329E+00  2.50655E+00  2.36152E+00  2.29045E+00  2.26285E+00  2.24452E+00  2.09334E+00  1.67342E+00  1.02018E+00
   3.45853E-01  8.39576E-03  2.27018E-01  8.57311E-01  1.48570E+00  1.75601E+00  1.63012E+00  1.33981E+00  1.03859E+00  7.66950E-01
   5.20641E-01  2.41272E-01 -3.49130E-02 -4.37102E-01 -9.62860E-01 -1.37440E+00 -1.42306E+00 -1.08991E+00 -6.95099E-01 -6.09393E-01
  -8.53915E-01 -1.05728E+00 -8.92102E-01 -5.87773E-01 -6.13990E-01 -8.27060E-01 -8.15493E-01 -1.61200E-01  1.08839E+00  2.42101E+00
   3.30938E+00  3.52719E+00  3.21757E+00  2.69561E+00  2.07370E+00  1.43088E+00  9.59653E-01  7.76038E-01  1.04980E+00  1.85503E+00
   3.06981E+00  4.46538E+00  5.80468E+00  6.75824E+00  7.06265E+00  6.37927E+00  4.54777E+00  1.95259E+00 -5.86332E-01 -2.38361E+00
  -3.03522E+00 -2.34412E+00 -4.64484E-01  2.21099E+00  5.19366E+00  7.82762E+00  9.18676E+00  8.48436E+00  6.32119E+00  3.64156E+00
   9.08033E-01 -1.36320E+00 -2.46478E+00 -1.67679E+00  5.99436E-01  3.15310E+00  5.15629E+00  6.43899E+00  7.13193E+00  7.19945E+00
   6.69481E+00  6.08651E+00  5.78360E+00  5.81335E+00  6.15322E+00  6.79594E+00  7.77303E+00  8.96240E+00  9.85847E+00  9.97821E+00
   9.44894E+00  8.69649E+00  8.06716E+00  7.78834E+00  8.21498E+00  9.19672E+00  1.01796E+01  1.08777E+01  1.13965E+01  1.18334E+01
   1.21013E+01  1.23712E+01  1.27687E+01  1.32308E+01  1.35417E+01  1.37247E+01  1.57439E+01  2.38827E+01  3.90154E+01  5.72047E+01
   7.07923E+01  7.24967E+01  6.19486E+01  4.67006E+01  3.42883E+01  2.56161E+01  1.74329E+01  1.03075E+01  7.64464E+00  6.53449E+00
   5.75237E+00  5.22701E+00  4.93354E+00  4.75682E+00  4.63760E+00  4.48781E+00  4.26706E+00  3.98954E+00  3.68505E+00  3.35468E+00
   3.02380E+00  2.74185E+00  2.52737E+00  2.36844E+00  2.24734E+00  2.15298E+00  2.08447E+00  2.03863E+00  2.00602E+00  1.99476E+00
   2.01180E+00  2.05851E+00  2.13698E+00  2.25171E+00  2.40623E+00  2.60129E+00  2.83765E+00  3.11736E+00  3.43867E+00  3.79784E+00
   4.19227E+00  4.61737E+00  5.06651E+00  5.53025E+00  5.99706E+00  6.45526E+00  6.89444E+00  7.30516E+00  7.67821E+00  8.00497E+00
   8.27941E+00  8.49870E+00  8.66299E+00  8.77573E+00  8.84279E+00  8.87240E+00  8.87517E+00  8.86401E+00  8.85358E+00  8.85965E+00
   8.89964E+00  8.99603E+00  9.19856E+00  9.59840E+00  1.01166E+01  1.04970E+01  1.04604E+01  9.87982E+00  8.94234E+00  8.05696E+00
   7.47410E+00  7.23600E+00  7.35822E+00  7.95180E+00  9.10252E+00  1.03555E+01  1.11819E+01  1.14189E+01  1.12715E+01  1.10243E+01
   1.07438E+01  1.03222E+01  9.89099E+00  9.55941E+00  9.27698E+00  9.02173E+00  8.78761E+00  8.57296E+00  8.37711E+00  8.19941E+00
   8.03893E+00  7.89438E+00  7.76369E+00  7.64394E+00  7.53147E+00  7.42240E+00  7.31306E+00  7.20005E+00  7.08011E+00  6.95017E+00
   6.80767E+00  6.65090E+00  6.47916E+00  6.29251E+00  6.09156E+00  5.87735E+00  5.65161E+00  5.41682E+00  5.17608E+00  4.93267E+00
   4.68987E+00  4.45095E+00  4.21934E+00  3.99867E+00  3.79246E+00  3.60393E+00  3.43586E+00  3.29085E+00  3.17148E+00  3.08026E+00
   3.01945E+00  2.99088E+00  2.99603E+00  3.03624E+00  3.11280E+00  3.22671E+00  3.37843E+00  3.56768E+00  3.79352E+00  4.05443E+00
   4.34815E+00  4.67140E+00  5.01963E+00  5.38699E+00  5.76663E+00  6.15080E+00  6.53099E+00  6.89790E+00  7.24164E+00  7.55229E+00
   7.82044E+00  8.03761E+00  8.19652E+00  8.29127E+00  8.31763E+00  8.27347E+00  8.15897E+00  7.97656E+00  7.73055E+00  7.42686E+00
   7.07281E+00  6.67688E+00  6.24842E+00  5.79702E+00  5.33197E+00  4.86194E+00  4.39481E+00  3.93762E+00  3.49637E+00  3.07580E+00
   2.67926E+00  2.30891E+00  1.96596E+00  1.65087E+00  1.36342E+00  1.10265E+00  8.67054E-01  6.54799E-01  4.64036E-01  2.92961E-01
   1.39743E-01  2.46213E-03 -1.20784E-01 -2.31697E-01 -3.31681E-01 -4.21931E-01 -5.03592E-01 -5.77810E-01 -6.45620E-01 -7.07823E-01
  -7.64984E-01 -8.17593E-01 -8.66191E-01 -9.11357E-01 -9.53559E-01 -9.93078E-01 -1.03007E+00 -1.06474E+00 -1.09740E+00 -1.12836E+00
  -1.15782E+00 -1.18581E+00 -1.21237E+00 -1.23761E+00 -1.26176E+00 -1.28500E+00 -1.30737E+00 -1.32882E+00 -1.34937E+00 -1.36913E+00
  -1.38829E+00 -1.40693E+00 -1.42501E+00 -1.44244E+00 -1.45926E+00 -1.47561E+00 -1.49162E+00 -1.50730E+00 -1.52256E+00 -1.53735E+00
  -1.55173E+00 -1.56585E+00 -1.57976E+00 -1.59343E+00 -1.60674E+00 -1.61968E+00 -1.63237E+00 -1.64492E+00 -1.65734E+00 -1.66953E+00
  -1.68142E+00 -1.69305E+00 -1.70453E+00 -1.71594E+00 -1.72723E+00 -1.73830E+00 -1.74910E+00 -1.75973E+00 -1.77028E+00 -1.78078E+00
  -1.79115E+00 -1.80128E+00 -1.81118E+00 -1.82098E+00 -1.83073E+00 -1.84041E+00 -1.84990E+00 -1.85914E+00
 NY background values follow
     4.884E+00    4.863E+00    4.843E+00    4.822E+00    4.802E+00    4.781E+00    4.761E+00    4.741E+00    4.720E+00    4.700E+00
     4.679E+00    4.659E+00    4.638E+00    4.618E+00    4.598E+00    4.577E+00    4.557E+00    4.536E+00    4.516E+00    4.495E+00
     4.475E+00    4.455E+00    4.434E+00    4.414E+00    4.393E+00    4.373E+00    4.353E+00    4.332E+00    4.312E+00    4.291E+00
     4.271E+00    4.251E+00    4.230E+00    4.210E+00    4.189E+00    4.169E+00    4.149E+00    4.128E+00    4.108E+00    4.087E+00
     4.067E+00    4.047E+00    4.026E+00    4.006E+00    3.986E+00    3.965E+00    3.945E+00    3.925E+00    3.904E+00    3.884E+00
     3.864E+00    3.843E+00    3.823E+00    3.803E+00    3.782E+00    3.762E+00    3.742E+00    3.722E+00    3.701E+00    3.681E+00
     3.661E+00    3.641E+00    3.620E+00    3.600E+00    3.580E+00    3.560E+00    3.539E+00    3.519E+00    3.499E+00    3.479E+00
     3.459E+00    3.439E+00    3.419E+00    3.398E+00    3.378E+00    3.358E+00    3.338E+00    3.318E+00    3.298E+00    3.278E+00
     3.258E+00    3.238E+00    3.218E+00    3.198E+00    3.178E+00    3.158E+00    3.138E+00    3.118E+00    3.099E+00    3.079E+00
     3.059E+00    3.039E+00    3.019E+00    2.999E+00    2.980E+00    2.960E+00    2.940E+00    2.921E+00    2.901E+00    2.881E+00
     2.861E+00    2.842E+00    2.822E+00    2.803E+00    2.783E+00    2.764E+00    2.744E+00    2.725E+00    2.705E+00    2.686E+00
     2.666E+00    2.647E+00    2.628E+00    2.608E+00    2.589E+00    2.570E+00    2.550E+00    2.531E+00    2.512E+00    2.493E+00
     2.474E+00    2.454E+00    2.435E+00    2.416E+00    2.397E+00    2.378E+00    2.359E+00    2.340E+00    2.322E+00    2.303E+00
     2.284E+00    2.265E+00    2.246E+00    2.228E+00    2.209E+00    2.190E+00    2.172E+00    2.153E+00    2.134E+00    2.116E+00
     2.097E+00    2.079E+00    2.060E+00    2.042E+00    2.024E+00    2.005E+00    1.987E+00    1.969E+00    1.951E+00    1.933E+00
     1.915E+00    1.896E+00    1.878E+00    1.860E+00    1.843E+00    1.825E+00    1.807E+00    1.789E+00    1.771E+00    1.753E+00
     1.736E+00    1.718E+00    1.701E+00    1.683E+00    1.666E+00    1.648E+00    1.631E+00    1.613E+00    1.596E+00    1.579E+00
     1.562E+00    1.544E+00    1.527E+00    1.510E+00    1.493E+00    1.476E+00    1.459E+00    1.442E+00    1.426E+00    1.409E+00
     1.392E+00    1.376E+00    1.359E+00    1.342E+00    1.326E+00    1.310E+00    1.293E+00    1.277E+00    1.261E+00    1.244E+00
     1.228E+00    1.212E+00    1.196E+00    1.180E+00    1.164E+00    1.148E+00    1.132E+00    1.116E+00    1.101E+00    1.085E+00
     1.069E+00    1.054E+00    1.038E+00    1.023E+00    1.007E+00    9.917E-01    9.764E-01    9.610E-01    9.458E-01    9.306E-01
     9.154E-01    9.003E-01    8.852E-01    8.702E-01    8.553E-01    8.403E-01    8.255E-01    8.106E-01    7.959E-01    7.811E-01
     7.665E-01    7.518E-01    7.372E-01    7.227E-01    7.082E-01    6.938E-01    6.794E-01    6.650E-01    6.507E-01    6.365E-01
     6.222E-01    6.081E-01    5.940E-01    5.799E-01    5.658E-01    5.519E-01    5.379E-01    5.240E-01    5.102E-01    4.964E-01
     4.826E-01    4.689E-01    4.553E-01    4.417E-01    4.281E-01    4.146E-01    4.011E-01    3.877E-01    3.743E-01    3.609E-01
     3.476E-01    3.344E-01    3.212E-01    3.080E-01    2.949E-01    2.819E-01    2.688E-01    2.559E-01    2.429E-01    2.300E-01
     2.172E-01    2.044E-01    1.917E-01    1.790E-01    1.663E-01    1.537E-01    1.411E-01    1.286E-01    1.161E-01    1.037E-01
     9.131E-02    7.897E-02    6.668E-02    5.443E-02    4.222E-02    3.006E-02    1.794E-02    5.868E-03   -6.161E-03   -1.815E-02
    -3.009E-02   -4.199E-02   -5.384E-02   -6.565E-02   -7.742E-02   -8.915E-02   -1.008E-01   -1.125E-01   -1.241E-01   -1.356E-01
    -1.472E-01   -1.586E-01   -1.701E-01   -1.815E-01   -1.928E-01   -2.041E-01   -2.154E-01   -2.266E-01   -2.378E-01   -2.490E-01
    -2.601E-01   -2.711E-01   -2.822E-01   -2.932E-01   -3.041E-01   -3.150E-01   -3.259E-01   -3.368E-01   -3.476E-01   -3.583E-01
    -3.691E-01   -3.797E-01   -3.904E-01   -4.010E-01   -4.116E-01   -4.221E-01   -4.326E-01   -4.431E-01   -4.535E-01   -4.639E-01
    -4.743E-01   -4.846E-01   -4.949E-01   -5.051E-01   -5.154E-01   -5.255E-01   -5.357E-01   -5.458E-01   -5.559E-01   -5.659E-01
    -5.760E-01   -5.859E-01   -5.959E-01   -6.058E-01   -6.157E-01   -6.256E-01   -6.354E-01   -6.452E-01   -6.549E-01   -6.646E-01
    -6.743E-01   -6.840E-01   -6.936E-01   -7.032E-01   -7.128E-01   -7.224E-01   -7.319E-01   -7.414E-01   -7.508E-01   -7.602E-01
    -7.696E-01   -7.790E-01   -7.883E-01   -7.977E-01   -8.069E-01   -8.162E-01   -8.254E-01   -8.346E-01   -8.438E-01   -8.530E-01
    -8.621E-01   -8.712E-01   -8.803E-01   -8.893E-01   -8.983E-01   -9.073E-01   -9.163E-01   -9.252E-01   -9.341E-01   -9.430E-01
    -9.519E-01   -9.608E-01   -9.696E-01   -9.784E-01   -9.871E-01   -9.959E-01   -1.005E+00   -1.013E+00   -1.022E+00   -1.031E+00
    -1.039E+00   -1.048E+00   -1.056E+00   -1.065E+00   -1.074E+00   -1.082E+00   -1.091E+00   -1.099E+00   -1.107E+00   -1.116E+00
    -1.124E+00   -1.133E+00   -1.141E+00   -1.149E+00   -1.158E+00   -1.166E+00   -1.174E+00   -1.182E+00   -1.191E+00   -1.199E+00
    -1.207E+00   -1.215E+00   -1.223E+00   -1.231E+00   -1.240E+00   -1.248E+00   -1.256E+00   -1.264E+00   -1.272E+00   -1.280E+00
    -1.288E+00   -1.296E+00   -1.304E+00   -1.312E+00   -1.319E+00   -1.327E+00   -1.335E+00   -1.343E+00   -1.351E+00   -1.359E+00
    -1.366E+00   -1.374E+00   -1.382E+00   -1.390E+00   -1.398E+00   -1.405E+00   -1.413E+00   -1.421E+00   -1.428E+00   -1.436E+00
    -1.444E+00   -1.451E+00   -1.459E+00   -1.466E+00   -1.474E+00   -1.482E+00   -1.489E+00   -1.497E+00   -1.504E+00   -1.512E+00
    -1.519E+00   -1.527E+00   -1.534E+00   -1.542E+00   -1.549E+00   -1.557E+00   -1.564E+00   -1.572E+00   -1.579E+00   -1.586E+00
    -1.594E+00   -1.601E+00   -1.609E+00   -1.616E+00   -1.623E+00   -1.631E+00   -1.638E+00   -1.645E+00   -1.653E+00   -1.660E+00
    -1.667E+00   -1.675E+00   -1.682E+00   -1.689E+00   -1.697E+00   -1.704E+00   -1.711E+00   -1.718E+00   -1.726E+00   -1.733E+00
    -1.740E+00   -1.748E+00   -1.755E+00   -1.762E+00   -1.769E+00   -1.777E+00   -1.784E+00   -1.791E+00   -1.798E+00   -1.805E+00
    -1.813E+00   -1.820E+00   -1.827E+00   -1.834E+00   -1.842E+00   -1.849E+00   -1.856E+00   -1.863E+00   -1.870E+00   -1.878E+00
    -1.885E+00   -1.892E+00   -1.899E+00   -1.907E+00   -1.914E+00   -1.921E+00   -1.928E+00   -1.935E+00
 Ala      Conc. = 1.36E+02
