 LCModel (Version 6.3-1L) Copyright: S.W. Provencher.          Ref.: Magn. Reson. Med. 30:672-679 (1993).                
 Slice#2 Row#5 Col#13  PD_05_press_1_raw_act
 36 lines in following concentration table = NCONC+1
    Conc.  %SD /Cr+PCr  Metabolite                                         
 3.45E+03  26% 1.1E+03 Ala                                                 
   10.926 133%   3.340 Asp                                                 
    3.271 999%   1.000 Cr                                                  
    0.000 999%   0.000 PCr                                                 
    7.022 125%   2.147 GABA                                                
    7.584 116%   2.319 Glc                                                 
  166.618 247%  50.942 Gln                                                 
 1.93E+03  26% 589.801 Glu                                                 
    0.000 999%   0.000 GPC                                                 
   67.742  31%  20.712 PCh                                                 
    0.000 999%   0.000 GSH                                                 
  270.037  85%  82.562 Ins                                                 
 1.08E+03 116% 329.416 Lac                                                 
   20.947 369%   6.404 NAA                                                 
    0.000 999%   0.000 NAAG                                                
    3.219  91%   0.984 Scyllo                                              
   14.742  99%   4.507 Tau                                                 
    5.196 452%   1.589 -CrCH2                                              
   67.742  31%  20.712 GPC+PCh                                             
   20.947 369%   6.404 NAA+NAAG                                            
    3.271 999%   1.000 Cr+PCr                                              
 2.10E+03  34% 640.744 Glu+Gln                                             
 2.03E+04  16% 6.2E+03 Lip13a                                              
    0.000 999%   0.000 Lip13b                                              
 6.94E+03  14% 2.1E+03 Lip09                                               
 3.32E+03  23% 1.0E+03 MM09                                                
  783.813  53% 239.645 Lip20                                               
  842.127  51% 257.474 MM20                                                
 2.59E+03  32% 792.204 MM12                                                
 1.05E+04  23% 3.2E+03 MM14                                                
 2.10E+04  11% 6.4E+03+MM17                                                
 2.03E+04  16% 6.2E+03 Lip13a+Lip13b                                       
 3.34E+04  10% 1.0E+04 MM14+Lip13a+Lip13b+MM12                             
 1.03E+04  10% 3.1E+03 MM09+Lip09                                          
 1.63E+03  20% 497.120 MM20+Lip20                                          
   6 lines in following misc. output table
  FWHM = 0.153 ppm    S/N =  34                                            
  Data shift = 0.183 ppm                                                   
  Ph: 123 deg      24.5 deg/ppm                                            
  alphaB,S = 8.5E+01,   2.0E+02                                            
    6 spline knots.   Ns = 9(2)                                            
   2 inflections.     1 extrema                                            
  498 points on ppm-axis = NY
      4.000000     3.992357     3.984714     3.977070     3.969427     3.961784     3.954141     3.946497     3.938854     3.931211
      3.923568     3.915925     3.908281     3.900638     3.892995     3.885352     3.877708     3.870065     3.862422     3.854779
      3.847136     3.839492     3.831849     3.824206     3.816563     3.808919     3.801276     3.793633     3.785990     3.778347
      3.770703     3.763060     3.755417     3.747774     3.740130     3.732487     3.724844     3.717201     3.709558     3.701914
      3.694271     3.686628     3.678985     3.671341     3.663698     3.656055     3.648412     3.640769     3.633125     3.625482
      3.617839     3.610196     3.602552     3.594909     3.587266     3.579623     3.571980     3.564336     3.556693     3.549050
      3.541407     3.533763     3.526120     3.518477     3.510834     3.503191     3.495547     3.487904     3.480261     3.472618
      3.464974     3.457331     3.449688     3.442045     3.434402     3.426758     3.419115     3.411472     3.403829     3.396185
      3.388542     3.380899     3.373256     3.365613     3.357969     3.350326     3.342683     3.335040     3.327396     3.319753
      3.312110     3.304467     3.296824     3.289180     3.281537     3.273894     3.266251     3.258607     3.250964     3.243321
      3.235678     3.228034     3.220391     3.212748     3.205105     3.197462     3.189818     3.182175     3.174532     3.166889
      3.159245     3.151602     3.143959     3.136316     3.128673     3.121029     3.113386     3.105743     3.098100     3.090456
      3.082813     3.075170     3.067527     3.059884     3.052240     3.044597     3.036954     3.029311     3.021667     3.014024
      3.006381     2.998738     2.991095     2.983451     2.975808     2.968165     2.960522     2.952878     2.945235     2.937592
      2.929949     2.922306     2.914662     2.907019     2.899376     2.891733     2.884089     2.876446     2.868803     2.861160
      2.853517     2.845873     2.838230     2.830587     2.822944     2.815300     2.807657     2.800014     2.792371     2.784728
      2.777084     2.769441     2.761798     2.754155     2.746511     2.738868     2.731225     2.723582     2.715939     2.708295
      2.700652     2.693009     2.685366     2.677722     2.670079     2.662436     2.654793     2.647150     2.639506     2.631863
      2.624220     2.616577     2.608933     2.601290     2.593647     2.586004     2.578361     2.570717     2.563074     2.555431
      2.547788     2.540144     2.532501     2.524858     2.517215     2.509572     2.501928     2.494285     2.486642     2.478999
      2.471355     2.463712     2.456069     2.448426     2.440783     2.433139     2.425496     2.417853     2.410210     2.402566
      2.394923     2.387280     2.379637     2.371994     2.364350     2.356707     2.349064     2.341421     2.333777     2.326134
      2.318491     2.310848     2.303205     2.295561     2.287918     2.280275     2.272632     2.264988     2.257345     2.249702
      2.242059     2.234416     2.226772     2.219129     2.211486     2.203843     2.196199     2.188556     2.180913     2.173270
      2.165627     2.157983     2.150340     2.142697     2.135054     2.127410     2.119767     2.112124     2.104481     2.096838
      2.089194     2.081551     2.073908     2.066265     2.058621     2.050978     2.043335     2.035692     2.028049     2.020405
      2.012762     2.005119     1.997476     1.989833     1.982190     1.974546     1.966903     1.959260     1.951617     1.943974
      1.936331     1.928688     1.921045     1.913402     1.905759     1.898115     1.890472     1.882829     1.875186     1.867543
      1.859900     1.852257     1.844614     1.836971     1.829327     1.821684     1.814041     1.806398     1.798755     1.791112
      1.783469     1.775826     1.768183     1.760540     1.752896     1.745253     1.737610     1.729967     1.722324     1.714681
      1.707038     1.699395     1.691752     1.684108     1.676465     1.668822     1.661179     1.653536     1.645893     1.638250
      1.630607     1.622964     1.615321     1.607677     1.600034     1.592391     1.584748     1.577105     1.569462     1.561819
      1.554176     1.546533     1.538890     1.531246     1.523603     1.515960     1.508317     1.500674     1.493031     1.485388
      1.477745     1.470102     1.462458     1.454815     1.447172     1.439529     1.431886     1.424243     1.416600     1.408957
      1.401314     1.393671     1.386027     1.378384     1.370741     1.363098     1.355455     1.347812     1.340169     1.332526
      1.324883     1.317240     1.309596     1.301953     1.294310     1.286667     1.279024     1.271381     1.263738     1.256095
      1.248452     1.240808     1.233165     1.225522     1.217879     1.210236     1.202593     1.194950     1.187307     1.179664
      1.172021     1.164377     1.156734     1.149091     1.141448     1.133805     1.126162     1.118519     1.110876     1.103233
      1.095590     1.087946     1.080303     1.072660     1.065017     1.057374     1.049731     1.042088     1.034445     1.026802
      1.019158     1.011515     1.003872     0.996229     0.988586     0.980943     0.973300     0.965657     0.958014     0.950371
      0.942727     0.935084     0.927441     0.919798     0.912155     0.904512     0.896869     0.889226     0.881583     0.873940
      0.866296     0.858653     0.851010     0.843367     0.835724     0.828081     0.820438     0.812795     0.805152     0.797508
      0.789865     0.782222     0.774579     0.766936     0.759293     0.751650     0.744007     0.736364     0.728721     0.721077
      0.713434     0.705791     0.698148     0.690505     0.682862     0.675219     0.667576     0.659933     0.652290     0.644646
      0.637003     0.629360     0.621717     0.614074     0.606431     0.598788     0.591145     0.583502     0.575858     0.568215
      0.560572     0.552929     0.545286     0.537643     0.530000     0.522357     0.514714     0.507071     0.499427     0.491784
      0.484141     0.476498     0.468855     0.461212     0.453569     0.445925     0.438282     0.430639     0.422996     0.415353
      0.407710     0.400067     0.392424     0.384780     0.377137     0.369494     0.361851     0.354208     0.346565     0.338922
      0.331278     0.323635     0.315992     0.308349     0.300706     0.293063     0.285420     0.277777     0.270133     0.262490
      0.254847     0.247204     0.239561     0.231918     0.224275     0.216631     0.208988     0.201345
 NY phased data points follow
  -6.21888E+00 -7.35409E+00 -9.32751E+00 -6.75720E+00 -7.23841E+00 -6.34097E+00 -6.04148E+00 -7.19102E+00 -4.51787E+00 -6.01702E+00
  -5.51795E+00 -5.51252E+00 -5.50534E+00 -8.16294E+00 -8.67678E+00 -5.60566E+00 -5.99612E+00 -9.40977E+00 -6.09257E+00 -5.50697E+00
  -5.84806E+00 -6.45576E+00 -5.43600E+00 -4.19662E+00 -4.93915E+00 -6.13857E+00 -7.47400E+00 -7.97626E+00 -6.59996E+00 -7.01326E+00
  -6.43456E+00 -7.76387E+00 -7.47566E+00 -6.06368E+00 -5.48846E+00 -6.76495E+00 -6.23795E+00 -6.84600E+00 -7.01903E+00 -5.65839E+00
  -7.52264E+00 -7.17006E+00 -4.60513E+00 -7.91863E+00 -7.55769E+00 -5.34973E+00 -6.21715E+00 -6.29897E+00 -8.07193E+00 -4.94846E+00
  -6.20110E+00 -5.33035E+00 -7.31227E+00 -6.17820E+00 -7.25215E+00 -7.75126E+00 -5.72467E+00 -4.92110E+00 -1.01861E+01 -7.55617E+00
  -6.52169E+00 -7.32157E+00 -7.32757E+00 -6.67683E+00 -5.53080E+00 -7.24813E+00 -5.88739E+00 -7.77709E+00 -6.18074E+00 -5.77632E+00
  -7.73620E+00 -7.36426E+00 -5.85075E+00 -7.17565E+00 -7.88010E+00 -5.99184E+00 -5.21053E+00 -5.67223E+00 -6.56762E+00 -9.13203E+00
  -4.85783E+00 -6.70348E+00 -5.59534E+00 -6.59616E+00 -7.60924E+00 -5.77289E+00 -5.13732E+00 -6.83543E+00 -6.79504E+00 -7.56006E+00
  -6.10493E+00 -8.06009E+00 -7.17419E+00 -7.55469E+00 -7.60028E+00 -6.23803E+00 -4.06899E+00 -5.18136E+00 -4.87987E+00 -4.64656E+00
  -8.15510E+00 -5.34091E+00 -7.54598E+00 -5.34342E+00 -5.39925E+00 -6.87204E+00 -6.83909E+00 -5.38912E+00 -7.52243E+00 -5.88962E+00
  -6.74235E+00 -7.87934E+00 -6.30358E+00 -8.83034E+00 -6.52153E+00 -6.55007E+00 -7.58676E+00 -6.30759E+00 -7.83539E+00 -7.54158E+00
  -7.05357E+00 -7.50087E+00 -7.78006E+00 -7.19671E+00 -7.14865E+00 -7.33455E+00 -6.07656E+00 -7.85894E+00 -8.65619E+00 -6.71836E+00
  -9.34621E+00 -7.16060E+00 -7.57573E+00 -7.44459E+00 -7.28745E+00 -6.24742E+00 -9.17101E+00 -7.29651E+00 -8.40596E+00 -7.95809E+00
  -7.03593E+00 -7.61388E+00 -8.36707E+00 -7.31514E+00 -8.56987E+00 -6.44420E+00 -7.20426E+00 -7.09112E+00 -7.99843E+00 -7.49787E+00
  -8.72270E+00 -6.87645E+00 -6.70906E+00 -5.08652E+00 -7.85802E+00 -8.42472E+00 -5.58678E+00 -6.08267E+00 -8.35331E+00 -6.20909E+00
  -7.54538E+00 -5.76062E+00 -5.57139E+00 -7.00329E+00 -7.06715E+00 -6.60246E+00 -7.59879E+00 -7.01528E+00 -6.92652E+00 -7.55958E+00
  -8.05874E+00 -7.74269E+00 -6.43076E+00 -8.26606E+00 -1.02719E+01 -7.92376E+00 -7.72849E+00 -8.37679E+00 -6.95107E+00 -9.06565E+00
  -7.59391E+00 -8.99388E+00 -6.54465E+00 -7.00553E+00 -6.78215E+00 -6.24633E+00 -6.19912E+00 -5.80102E+00 -6.78595E+00 -7.40817E+00
  -8.55313E+00 -7.03733E+00 -5.14455E+00 -7.37459E+00 -6.10026E+00 -8.40740E+00 -7.93596E+00 -7.10431E+00 -8.21489E+00 -8.11777E+00
  -6.17338E+00 -6.71458E+00 -6.52706E+00 -7.50366E+00 -7.77050E+00 -5.62755E+00 -8.87241E+00 -8.96942E+00 -6.61645E+00 -8.31270E+00
  -6.23435E+00 -6.71414E+00 -8.02010E+00 -8.28996E+00 -6.38425E+00 -7.99175E+00 -3.79904E+00 -7.60616E+00 -6.55898E+00 -7.71683E+00
  -4.79294E+00 -7.65980E+00 -5.78450E+00 -4.94266E+00 -5.05636E+00 -5.04985E+00 -5.25091E+00 -3.62826E+00 -4.26685E+00 -4.14160E+00
  -3.51530E+00 -2.47383E+00 -1.25205E+00 -4.87037E-01 -2.02342E+00 -1.08360E+00 -4.94229E-01 -3.18008E-01  1.97602E+00 -2.35974E+00
   9.97892E-01 -2.71187E+00 -1.55145E+00  1.44778E+00  1.12585E+00  3.36453E+00  1.16577E+00  2.22028E+00  2.54925E+00  3.67472E+00
   4.69816E+00  2.84107E+00  2.98593E+00  4.65283E+00  6.50146E+00  5.37710E+00  5.17169E+00  5.74003E+00  5.20530E+00  5.91979E+00
   6.26868E+00  6.70666E+00  7.27068E+00  6.62871E+00  1.00773E+01  8.86896E+00  1.00993E+01  1.15567E+01  1.01959E+01  1.19964E+01
   1.22196E+01  1.29480E+01  1.46795E+01  1.54812E+01  1.70124E+01  1.73322E+01  1.86765E+01  1.76645E+01  1.98709E+01  2.14998E+01
   2.28721E+01  2.36124E+01  2.50246E+01  2.77655E+01  2.91129E+01  3.06360E+01  3.33779E+01  3.71103E+01  3.77586E+01  4.04027E+01
   4.39421E+01  4.71198E+01  4.91822E+01  5.21976E+01  5.39889E+01  5.80127E+01  5.80646E+01  6.41048E+01  6.41091E+01  6.90828E+01
   7.30111E+01  7.42406E+01  7.63794E+01  8.07182E+01  8.17089E+01  8.69173E+01  8.76359E+01  8.82582E+01  9.18210E+01  9.23056E+01
   9.36108E+01  9.52039E+01  9.43860E+01  9.30212E+01  9.15586E+01  9.26741E+01  9.23981E+01  9.06883E+01  9.00088E+01  8.90029E+01
   8.49737E+01  8.44439E+01  8.39601E+01  8.45565E+01  8.15089E+01  7.97179E+01  7.79390E+01  7.64232E+01  7.64258E+01  7.54868E+01
   7.44312E+01  7.38509E+01  7.11914E+01  7.08919E+01  7.18313E+01  7.04874E+01  6.79716E+01  6.89295E+01  6.85202E+01  6.96833E+01
   6.91299E+01  7.01230E+01  6.75769E+01  6.59000E+01  6.76933E+01  6.69447E+01  6.51605E+01  6.77204E+01  6.73592E+01  6.91176E+01
   6.55153E+01  6.60002E+01  6.76883E+01  6.81717E+01  6.95269E+01  6.59020E+01  6.91617E+01  7.00188E+01  6.94648E+01  6.89227E+01
   6.77919E+01  7.02355E+01  6.85906E+01  6.75964E+01  7.00229E+01  6.74624E+01  6.87478E+01  6.50608E+01  6.52164E+01  6.63575E+01
   6.45686E+01  6.56763E+01  6.37071E+01  6.08494E+01  6.33955E+01  6.00721E+01  5.89650E+01  5.89092E+01  5.88401E+01  5.69639E+01
   5.51871E+01  5.51361E+01  5.52698E+01  5.22901E+01  5.34211E+01  5.35720E+01  5.29622E+01  5.08811E+01  4.91079E+01  4.92406E+01
   4.65898E+01  4.87547E+01  4.82707E+01  4.55603E+01  4.45068E+01  4.24050E+01  4.53521E+01  4.17921E+01  4.02819E+01  4.09813E+01
   3.94142E+01  3.69134E+01  3.63426E+01  3.50581E+01  3.60325E+01  3.37235E+01  3.53541E+01  3.31230E+01  3.31829E+01  3.21688E+01
   3.16481E+01  2.94062E+01  2.82743E+01  2.96388E+01  2.74568E+01  2.68181E+01  2.53570E+01  2.43010E+01  2.31164E+01  2.39486E+01
   2.18307E+01  2.25875E+01  1.68976E+01  1.98874E+01  1.80493E+01  1.91459E+01  1.74412E+01  1.76348E+01  1.58604E+01  1.65798E+01
   1.61398E+01  1.40276E+01  1.17421E+01  1.16557E+01  1.10824E+01  1.18251E+01  1.14753E+01  1.03444E+01  9.38145E+00  8.75273E+00
   1.09557E+01  9.17086E+00  7.09754E+00  6.64779E+00  8.14818E+00  5.12320E+00  6.49774E+00  6.03865E+00  4.12148E+00  3.68853E+00
   3.18184E+00  1.69595E+00  2.86653E+00  2.50370E+00  2.16083E-01  7.67221E-01  1.39633E+00  3.46611E-01 -5.41988E-01  3.43700E-01
  -1.47023E+00 -1.56340E+00 -1.72231E+00 -2.44843E+00 -2.47521E+00 -2.09914E+00  1.69933E-02 -3.63650E+00 -3.95196E+00 -3.99623E+00
  -4.05268E+00 -4.67076E+00 -4.88419E+00 -3.31411E+00 -3.64563E+00 -5.21457E+00 -4.39151E+00 -4.80975E+00 -5.09104E+00 -6.44521E+00
  -3.78208E+00 -6.29113E+00 -7.21848E+00 -6.96457E+00 -4.13333E+00 -5.86821E+00 -8.36750E+00 -6.98392E+00 -6.65317E+00 -7.58205E+00
  -7.83379E+00 -6.68191E+00 -7.59167E+00 -8.04199E+00 -6.47443E+00 -5.05151E+00 -8.74361E+00 -6.69208E+00
 NY points of the fit to the data follow
  -6.68944E+00 -6.54456E+00 -6.88382E+00 -6.64724E+00 -6.84100E+00 -6.46807E+00 -6.46473E+00 -5.88905E+00 -6.08030E+00 -5.70061E+00
  -6.18451E+00 -5.96031E+00 -6.62025E+00 -6.40952E+00 -7.05725E+00 -6.45067E+00 -6.89390E+00 -6.22732E+00 -6.61063E+00 -6.09253E+00
  -6.48278E+00 -5.99414E+00 -6.38683E+00 -6.03824E+00 -6.34450E+00 -6.19422E+00 -6.37952E+00 -6.39539E+00 -6.44063E+00 -6.51501E+00
  -6.33254E+00 -6.45353E+00 -6.07316E+00 -6.28964E+00 -5.82219E+00 -6.13155E+00 -5.63832E+00 -6.06484E+00 -5.65197E+00 -6.22582E+00
  -5.90387E+00 -6.43543E+00 -6.11186E+00 -6.57123E+00 -6.22243E+00 -6.55761E+00 -6.17331E+00 -6.41891E+00 -6.17293E+00 -6.46460E+00
  -6.34858E+00 -6.63159E+00 -6.61178E+00 -6.87610E+00 -6.86480E+00 -6.97997E+00 -6.91028E+00 -6.99028E+00 -6.92667E+00 -7.00230E+00
  -6.96427E+00 -7.02358E+00 -7.01751E+00 -7.09169E+00 -7.08902E+00 -7.16324E+00 -7.16196E+00 -7.22991E+00 -7.22118E+00 -7.28484E+00
  -7.27454E+00 -7.34901E+00 -7.34665E+00 -7.43076E+00 -7.42870E+00 -7.51728E+00 -7.51385E+00 -7.60439E+00 -7.59524E+00 -7.68424E+00
  -7.67343E+00 -7.75178E+00 -7.73230E+00 -7.78615E+00 -7.69128E+00 -7.53308E+00 -7.42930E+00 -7.19631E+00 -7.13380E+00 -6.87918E+00
  -6.86076E+00 -6.57923E+00 -6.59636E+00 -6.27682E+00 -6.33719E+00 -6.01752E+00 -6.13342E+00 -5.84312E+00 -6.00011E+00 -5.72758E+00
  -5.92652E+00 -5.70075E+00 -5.94128E+00 -5.79269E+00 -6.05528E+00 -5.97514E+00 -6.24891E+00 -6.24976E+00 -6.51181E+00 -6.56941E+00
  -6.79666E+00 -6.86538E+00 -7.04832E+00 -7.11727E+00 -7.24948E+00 -7.29203E+00 -7.38744E+00 -7.42833E+00 -7.49319E+00 -7.53176E+00
  -7.57221E+00 -7.60839E+00 -7.62689E+00 -7.65567E+00 -7.63810E+00 -7.60760E+00 -7.58005E+00 -7.54906E+00 -7.52284E+00 -7.49498E+00
  -7.47177E+00 -7.44824E+00 -7.42802E+00 -7.40800E+00 -7.38967E+00 -7.37166E+00 -7.35435E+00 -7.33746E+00 -7.32048E+00 -7.30356E+00
  -7.28668E+00 -7.26999E+00 -7.25356E+00 -7.23718E+00 -7.22088E+00 -7.20480E+00 -7.18879E+00 -7.17289E+00 -7.15788E+00 -7.14200E+00
  -7.12978E+00 -7.11623E+00 -7.10814E+00 -7.09885E+00 -7.09645E+00 -7.09291E+00 -7.09718E+00 -7.10010E+00 -7.11236E+00 -7.12256E+00
  -7.14224E+00 -7.15975E+00 -7.18671E+00 -7.21131E+00 -7.24382E+00 -7.27360E+00 -7.30909E+00 -7.34211E+00 -7.37998E+00 -7.41468E+00
  -7.45128E+00 -7.48507E+00 -7.51849E+00 -7.54951E+00 -7.57774E+00 -7.60516E+00 -7.63057E+00 -7.65292E+00 -7.67662E+00 -7.69303E+00
  -7.70649E+00 -7.71353E+00 -7.71352E+00 -7.69876E+00 -7.67067E+00 -7.62661E+00 -7.56690E+00 -7.47578E+00 -7.40198E+00 -7.34679E+00
  -7.23768E+00 -7.31615E+00 -7.23592E+00 -7.39645E+00 -7.27703E+00 -7.41412E+00 -7.13149E+00 -7.05860E+00 -6.50668E+00 -6.57015E+00
  -5.90093E+00 -6.21767E+00 -5.54884E+00 -6.24243E+00 -5.73053E+00 -6.61026E+00 -5.94933E+00 -6.89278E+00 -6.07151E+00 -7.01699E+00
  -6.09599E+00 -6.99507E+00 -6.04473E+00 -6.91932E+00 -5.94756E+00 -6.77455E+00 -5.81582E+00 -6.56354E+00 -5.69703E+00 -6.34286E+00
  -5.53490E+00 -6.00539E+00 -5.27776E+00 -5.48840E+00 -4.87101E+00 -4.84536E+00 -4.23866E+00 -3.99285E+00 -3.47285E+00 -3.16381E+00
  -2.78063E+00 -2.50739E+00 -2.32225E+00 -2.09339E+00 -1.99068E+00 -1.67059E+00 -1.52622E+00 -1.04580E+00 -8.51750E-01 -3.92310E-01
  -2.33093E-01  2.38395E-01  4.17739E-01  9.02895E-01  1.05447E+00  1.60105E+00  1.82581E+00  2.36462E+00  2.63468E+00  3.17604E+00
   3.47287E+00  3.99908E+00  4.28647E+00  4.75502E+00  5.02503E+00  5.46196E+00  5.76007E+00  6.16943E+00  6.48053E+00  6.85334E+00
   7.18982E+00  7.52265E+00  7.87592E+00  8.19712E+00  8.58617E+00  8.92476E+00  9.39027E+00  9.78784E+00  1.03387E+01  1.08352E+01
   1.14910E+01  1.21154E+01  1.28882E+01  1.36599E+01  1.45885E+01  1.55498E+01  1.66570E+01  1.78143E+01  1.91158E+01  2.04776E+01
   2.19791E+01  2.35853E+01  2.53313E+01  2.72029E+01  2.91978E+01  3.13428E+01  3.35930E+01  3.59800E+01  3.84709E+01  4.10817E+01
   4.37775E+01  4.65677E+01  4.94158E+01  5.23227E+01  5.52564E+01  5.82127E+01  6.11540E+01  6.40690E+01  6.69242E+01  6.97057E+01
   7.23856E+01  7.49511E+01  7.73818E+01  7.96759E+01  8.18264E+01  8.38501E+01  8.57750E+01  8.76900E+01  8.98172E+01  9.21923E+01
   9.31886E+01  9.47330E+01  9.44346E+01  9.50087E+01  9.35788E+01  9.31968E+01  9.06489E+01  9.07868E+01  8.83635E+01  8.85832E+01
   8.61909E+01  8.61150E+01  8.37320E+01  8.34564E+01  8.10322E+01  8.05813E+01  7.83615E+01  7.77048E+01  7.60475E+01  7.54956E+01
   7.39774E+01  7.31868E+01  7.21283E+01  7.12312E+01  7.07651E+01  6.97587E+01  6.95637E+01  6.90410E+01  6.91860E+01  6.88275E+01
   6.87879E+01  6.82355E+01  6.79471E+01  6.75260E+01  6.71360E+01  6.69287E+01  6.65439E+01  6.67388E+01  6.67134E+01  6.73278E+01
   6.71551E+01  6.77422E+01  6.75415E+01  6.81479E+01  6.79402E+01  6.84538E+01  6.81267E+01  6.88516E+01  6.87582E+01  6.93574E+01
   6.91932E+01  6.94400E+01  6.91297E+01  6.90762E+01  6.86154E+01  6.82701E+01  6.76645E+01  6.71476E+01  6.64761E+01  6.58547E+01
   6.50083E+01  6.41539E+01  6.31969E+01  6.21974E+01  6.11914E+01  6.01063E+01  5.91134E+01  5.81875E+01  5.73158E+01  5.64952E+01
   5.57225E+01  5.49935E+01  5.43015E+01  5.36381E+01  5.29927E+01  5.23545E+01  5.17112E+01  5.10519E+01  5.03658E+01  4.96446E+01
   4.88814E+01  4.80725E+01  4.72160E+01  4.63135E+01  4.53684E+01  4.43866E+01  4.33753E+01  4.23433E+01  4.12996E+01  4.02536E+01
   3.92138E+01  3.81885E+01  3.71840E+01  3.62059E+01  3.52575E+01  3.43413E+01  3.34574E+01  3.26053E+01  3.17826E+01  3.09866E+01
   3.02133E+01  2.94587E+01  2.87182E+01  2.79877E+01  2.72627E+01  2.65398E+01  2.58154E+01  2.50870E+01  2.43524E+01  2.36104E+01
   2.28598E+01  2.21008E+01  2.13334E+01  2.05588E+01  1.97779E+01  1.89926E+01  1.82044E+01  1.74156E+01  1.66281E+01  1.58442E+01
   1.50659E+01  1.42954E+01  1.35344E+01  1.27851E+01  1.20487E+01  1.13270E+01  1.06210E+01  9.93196E+00  9.26053E+00  8.60766E+00
   7.97354E+00  7.35880E+00  6.76333E+00  6.18745E+00  5.63078E+00  5.09345E+00  4.57487E+00  4.07498E+00  3.59307E+00  3.12897E+00
   2.68186E+00  2.25152E+00  1.83707E+00  1.43826E+00  1.05421E+00  6.84630E-01  3.28651E-01 -1.39832E-02 -3.44140E-01 -6.62050E-01
  -9.68550E-01 -1.26384E+00 -1.54872E+00 -1.82335E+00 -2.08849E+00 -2.34428E+00 -2.59144E+00 -2.83006E+00 -3.06082E+00 -3.28378E+00
  -3.49959E+00 -3.70828E+00 -3.91046E+00 -4.10613E+00 -4.29587E+00 -4.47965E+00 -4.65802E+00 -4.83094E+00 -4.99893E+00 -5.16190E+00
  -5.32038E+00 -5.47425E+00 -5.62401E+00 -5.76954E+00 -5.91132E+00 -6.04919E+00 -6.18363E+00 -6.31447E+00 -6.44218E+00 -6.56656E+00
  -6.68807E+00 -6.80653E+00 -6.92235E+00 -7.03535E+00 -7.14594E+00 -7.25392E+00 -7.35970E+00 -7.46305E+00
 NY background values follow
    -9.826E+00   -9.837E+00   -9.847E+00   -9.857E+00   -9.868E+00   -9.878E+00   -9.888E+00   -9.899E+00   -9.909E+00   -9.920E+00
    -9.930E+00   -9.940E+00   -9.951E+00   -9.961E+00   -9.972E+00   -9.982E+00   -9.993E+00   -1.000E+01   -1.001E+01   -1.002E+01
    -1.003E+01   -1.005E+01   -1.006E+01   -1.007E+01   -1.008E+01   -1.009E+01   -1.010E+01   -1.011E+01   -1.012E+01   -1.013E+01
    -1.014E+01   -1.015E+01   -1.016E+01   -1.017E+01   -1.018E+01   -1.019E+01   -1.020E+01   -1.021E+01   -1.022E+01   -1.024E+01
    -1.025E+01   -1.026E+01   -1.027E+01   -1.028E+01   -1.029E+01   -1.030E+01   -1.031E+01   -1.032E+01   -1.033E+01   -1.034E+01
    -1.035E+01   -1.036E+01   -1.037E+01   -1.038E+01   -1.040E+01   -1.041E+01   -1.042E+01   -1.043E+01   -1.044E+01   -1.045E+01
    -1.046E+01   -1.047E+01   -1.048E+01   -1.049E+01   -1.050E+01   -1.051E+01   -1.052E+01   -1.053E+01   -1.055E+01   -1.056E+01
    -1.057E+01   -1.058E+01   -1.059E+01   -1.060E+01   -1.061E+01   -1.062E+01   -1.063E+01   -1.064E+01   -1.065E+01   -1.066E+01
    -1.067E+01   -1.069E+01   -1.070E+01   -1.071E+01   -1.072E+01   -1.073E+01   -1.074E+01   -1.075E+01   -1.076E+01   -1.077E+01
    -1.078E+01   -1.079E+01   -1.080E+01   -1.081E+01   -1.083E+01   -1.084E+01   -1.085E+01   -1.086E+01   -1.087E+01   -1.088E+01
    -1.089E+01   -1.090E+01   -1.091E+01   -1.092E+01   -1.093E+01   -1.094E+01   -1.095E+01   -1.096E+01   -1.098E+01   -1.099E+01
    -1.100E+01   -1.101E+01   -1.102E+01   -1.103E+01   -1.104E+01   -1.105E+01   -1.106E+01   -1.107E+01   -1.108E+01   -1.109E+01
    -1.110E+01   -1.111E+01   -1.113E+01   -1.114E+01   -1.115E+01   -1.116E+01   -1.117E+01   -1.118E+01   -1.119E+01   -1.120E+01
    -1.121E+01   -1.122E+01   -1.123E+01   -1.124E+01   -1.125E+01   -1.126E+01   -1.127E+01   -1.128E+01   -1.130E+01   -1.131E+01
    -1.132E+01   -1.133E+01   -1.134E+01   -1.135E+01   -1.136E+01   -1.137E+01   -1.138E+01   -1.139E+01   -1.140E+01   -1.141E+01
    -1.142E+01   -1.143E+01   -1.144E+01   -1.145E+01   -1.146E+01   -1.147E+01   -1.148E+01   -1.149E+01   -1.151E+01   -1.152E+01
    -1.153E+01   -1.154E+01   -1.155E+01   -1.156E+01   -1.157E+01   -1.158E+01   -1.159E+01   -1.160E+01   -1.161E+01   -1.162E+01
    -1.163E+01   -1.164E+01   -1.165E+01   -1.166E+01   -1.167E+01   -1.168E+01   -1.169E+01   -1.170E+01   -1.171E+01   -1.172E+01
    -1.173E+01   -1.174E+01   -1.175E+01   -1.176E+01   -1.177E+01   -1.178E+01   -1.179E+01   -1.180E+01   -1.181E+01   -1.182E+01
    -1.183E+01   -1.184E+01   -1.185E+01   -1.186E+01   -1.187E+01   -1.188E+01   -1.189E+01   -1.190E+01   -1.191E+01   -1.192E+01
    -1.193E+01   -1.194E+01   -1.195E+01   -1.196E+01   -1.197E+01   -1.198E+01   -1.199E+01   -1.200E+01   -1.201E+01   -1.202E+01
    -1.203E+01   -1.204E+01   -1.205E+01   -1.206E+01   -1.207E+01   -1.208E+01   -1.209E+01   -1.210E+01   -1.211E+01   -1.212E+01
    -1.213E+01   -1.214E+01   -1.215E+01   -1.216E+01   -1.217E+01   -1.218E+01   -1.219E+01   -1.220E+01   -1.221E+01   -1.222E+01
    -1.223E+01   -1.224E+01   -1.225E+01   -1.226E+01   -1.227E+01   -1.228E+01   -1.229E+01   -1.230E+01   -1.231E+01   -1.232E+01
    -1.233E+01   -1.234E+01   -1.235E+01   -1.236E+01   -1.237E+01   -1.238E+01   -1.239E+01   -1.240E+01   -1.241E+01   -1.242E+01
    -1.243E+01   -1.243E+01   -1.244E+01   -1.245E+01   -1.246E+01   -1.247E+01   -1.248E+01   -1.249E+01   -1.250E+01   -1.251E+01
    -1.252E+01   -1.253E+01   -1.254E+01   -1.255E+01   -1.256E+01   -1.257E+01   -1.258E+01   -1.259E+01   -1.260E+01   -1.261E+01
    -1.262E+01   -1.263E+01   -1.264E+01   -1.265E+01   -1.265E+01   -1.266E+01   -1.267E+01   -1.268E+01   -1.269E+01   -1.270E+01
    -1.271E+01   -1.272E+01   -1.273E+01   -1.274E+01   -1.275E+01   -1.276E+01   -1.277E+01   -1.278E+01   -1.279E+01   -1.280E+01
    -1.281E+01   -1.282E+01   -1.283E+01   -1.283E+01   -1.284E+01   -1.285E+01   -1.286E+01   -1.287E+01   -1.288E+01   -1.289E+01
    -1.290E+01   -1.291E+01   -1.292E+01   -1.293E+01   -1.294E+01   -1.295E+01   -1.296E+01   -1.297E+01   -1.298E+01   -1.299E+01
    -1.299E+01   -1.300E+01   -1.301E+01   -1.302E+01   -1.303E+01   -1.304E+01   -1.305E+01   -1.306E+01   -1.307E+01   -1.308E+01
    -1.309E+01   -1.310E+01   -1.311E+01   -1.312E+01   -1.313E+01   -1.313E+01   -1.314E+01   -1.315E+01   -1.316E+01   -1.317E+01
    -1.318E+01   -1.319E+01   -1.320E+01   -1.321E+01   -1.322E+01   -1.323E+01   -1.324E+01   -1.325E+01   -1.326E+01   -1.326E+01
    -1.327E+01   -1.328E+01   -1.329E+01   -1.330E+01   -1.331E+01   -1.332E+01   -1.333E+01   -1.334E+01   -1.335E+01   -1.336E+01
    -1.337E+01   -1.338E+01   -1.339E+01   -1.339E+01   -1.340E+01   -1.341E+01   -1.342E+01   -1.343E+01   -1.344E+01   -1.345E+01
    -1.346E+01   -1.347E+01   -1.348E+01   -1.349E+01   -1.350E+01   -1.351E+01   -1.351E+01   -1.352E+01   -1.353E+01   -1.354E+01
    -1.355E+01   -1.356E+01   -1.357E+01   -1.358E+01   -1.359E+01   -1.360E+01   -1.361E+01   -1.362E+01   -1.363E+01   -1.363E+01
    -1.364E+01   -1.365E+01   -1.366E+01   -1.367E+01   -1.368E+01   -1.369E+01   -1.370E+01   -1.371E+01   -1.372E+01   -1.373E+01
    -1.374E+01   -1.374E+01   -1.375E+01   -1.376E+01   -1.377E+01   -1.378E+01   -1.379E+01   -1.380E+01   -1.381E+01   -1.382E+01
    -1.383E+01   -1.384E+01   -1.385E+01   -1.385E+01   -1.386E+01   -1.387E+01   -1.388E+01   -1.389E+01   -1.390E+01   -1.391E+01
    -1.392E+01   -1.393E+01   -1.394E+01   -1.395E+01   -1.396E+01   -1.396E+01   -1.397E+01   -1.398E+01   -1.399E+01   -1.400E+01
    -1.401E+01   -1.402E+01   -1.403E+01   -1.404E+01   -1.405E+01   -1.406E+01   -1.407E+01   -1.407E+01   -1.408E+01   -1.409E+01
    -1.410E+01   -1.411E+01   -1.412E+01   -1.413E+01   -1.414E+01   -1.415E+01   -1.416E+01   -1.417E+01   -1.418E+01   -1.418E+01
    -1.419E+01   -1.420E+01   -1.421E+01   -1.422E+01   -1.423E+01   -1.424E+01   -1.425E+01   -1.426E+01   -1.427E+01   -1.428E+01
    -1.428E+01   -1.429E+01   -1.430E+01   -1.431E+01   -1.432E+01   -1.433E+01   -1.434E+01   -1.435E+01   -1.436E+01   -1.437E+01
    -1.438E+01   -1.439E+01   -1.439E+01   -1.440E+01   -1.441E+01   -1.442E+01   -1.443E+01   -1.444E+01   -1.445E+01   -1.446E+01
    -1.447E+01   -1.448E+01   -1.449E+01   -1.449E+01   -1.450E+01   -1.451E+01   -1.452E+01   -1.453E+01   -1.454E+01   -1.455E+01
    -1.456E+01   -1.457E+01   -1.458E+01   -1.459E+01   -1.459E+01   -1.460E+01   -1.461E+01   -1.462E+01   -1.463E+01   -1.464E+01
    -1.465E+01   -1.466E+01   -1.467E+01   -1.468E+01   -1.469E+01   -1.469E+01   -1.470E+01   -1.471E+01
 Ala      Conc. = 3.45E+03
