 LCModel (Version 6.3-1L) Copyright: S.W. Provencher.          Ref.: Magn. Reson. Med. 30:672-679 (1993).                
 Slice#1 Row#12 Col#10  PD_05_press_1_raw_act
 36 lines in following concentration table = NCONC+1
    Conc.  %SD /Cr+PCr  Metabolite                                         
  102.973  52%   0.201 Ala                                                 
    0.000 999%   0.000 Asp                                                 
  342.774  25%   0.669 Cr                                                  
  169.814  52%   0.331 PCr                                                 
   70.416  96%   0.137 GABA                                                
   41.833 160% 8.2E-02 Glc                                                 
  392.750  29%   0.766 Gln                                                 
  818.923  16%   1.598 Glu                                                 
  167.638   6%   0.327 GPC                                                 
    0.000 999%   0.000 PCh                                                 
  170.547  21%   0.333 GSH                                                 
  614.835  19%   1.199 Ins                                                 
   47.696 124% 9.3E-02 Lac                                                 
 1.11E+03   6%   2.161 NAA                                                 
  120.739  63%   0.236 NAAG                                                
   31.496  39% 6.1E-02 Scyllo                                              
   40.574 221% 7.9E-02 Tau                                                 
  109.921  45%   0.214 -CrCH2                                              
  167.638   6%   0.327 GPC+PCh                                             
 1.23E+03   4%   2.396 NAA+NAAG                                            
  512.587   5%   1.000 Cr+PCr                                              
 1.21E+03  15%   2.364 Glu+Gln                                             
  399.422  44%   0.779 Lip13a                                              
    0.000 999%   0.000 Lip13b                                              
   17.236 535% 3.4E-02 Lip09                                               
  615.160  17%   1.200 MM09                                                
   81.360  78%   0.159 Lip20                                               
 1.34E+03  12%   2.622 MM20                                                
  180.824  39%   0.353 MM12                                                
  490.612  30%   0.957 MM14                                                
  348.565  27%   0.680 MM17                                                
  399.422  44%   0.779 Lip13a+Lip13b                                       
 1.07E+03  13%   2.089 MM14+Lip13a+Lip13b+MM12                             
  632.396  12%   1.234 MM09+Lip09                                          
 1.43E+03  11%   2.780 MM20+Lip20                                          
   6 lines in following misc. output table
  FWHM = 0.054 ppm    S/N =  13                                            
  Data shift = 0.015 ppm                                                   
  Ph: -25 deg      -0.2 deg/ppm                                            
  alphaB,S = 2.7E+00,   1.2E+02                                            
   14 spline knots.   Ns = 7(1)                                            
  (12) 5 infls.   (11) 1 extrs.                                            
  498 points on ppm-axis = NY
      4.000000     3.992357     3.984714     3.977070     3.969427     3.961784     3.954141     3.946497     3.938854     3.931211
      3.923568     3.915925     3.908281     3.900638     3.892995     3.885352     3.877708     3.870065     3.862422     3.854779
      3.847136     3.839492     3.831849     3.824206     3.816563     3.808919     3.801276     3.793633     3.785990     3.778347
      3.770703     3.763060     3.755417     3.747774     3.740130     3.732487     3.724844     3.717201     3.709558     3.701914
      3.694271     3.686628     3.678985     3.671341     3.663698     3.656055     3.648412     3.640769     3.633125     3.625482
      3.617839     3.610196     3.602552     3.594909     3.587266     3.579623     3.571980     3.564336     3.556693     3.549050
      3.541407     3.533763     3.526120     3.518477     3.510834     3.503191     3.495547     3.487904     3.480261     3.472618
      3.464974     3.457331     3.449688     3.442045     3.434402     3.426758     3.419115     3.411472     3.403829     3.396185
      3.388542     3.380899     3.373256     3.365613     3.357969     3.350326     3.342683     3.335040     3.327396     3.319753
      3.312110     3.304467     3.296824     3.289180     3.281537     3.273894     3.266251     3.258607     3.250964     3.243321
      3.235678     3.228034     3.220391     3.212748     3.205105     3.197462     3.189818     3.182175     3.174532     3.166889
      3.159245     3.151602     3.143959     3.136316     3.128673     3.121029     3.113386     3.105743     3.098100     3.090456
      3.082813     3.075170     3.067527     3.059884     3.052240     3.044597     3.036954     3.029311     3.021667     3.014024
      3.006381     2.998738     2.991095     2.983451     2.975808     2.968165     2.960522     2.952878     2.945235     2.937592
      2.929949     2.922306     2.914662     2.907019     2.899376     2.891733     2.884089     2.876446     2.868803     2.861160
      2.853517     2.845873     2.838230     2.830587     2.822944     2.815300     2.807657     2.800014     2.792371     2.784728
      2.777084     2.769441     2.761798     2.754155     2.746511     2.738868     2.731225     2.723582     2.715939     2.708295
      2.700652     2.693009     2.685366     2.677722     2.670079     2.662436     2.654793     2.647150     2.639506     2.631863
      2.624220     2.616577     2.608933     2.601290     2.593647     2.586004     2.578361     2.570717     2.563074     2.555431
      2.547788     2.540144     2.532501     2.524858     2.517215     2.509572     2.501928     2.494285     2.486642     2.478999
      2.471355     2.463712     2.456069     2.448426     2.440783     2.433139     2.425496     2.417853     2.410210     2.402566
      2.394923     2.387280     2.379637     2.371994     2.364350     2.356707     2.349064     2.341421     2.333777     2.326134
      2.318491     2.310848     2.303205     2.295561     2.287918     2.280275     2.272632     2.264988     2.257345     2.249702
      2.242059     2.234416     2.226772     2.219129     2.211486     2.203843     2.196199     2.188556     2.180913     2.173270
      2.165627     2.157983     2.150340     2.142697     2.135054     2.127410     2.119767     2.112124     2.104481     2.096838
      2.089194     2.081551     2.073908     2.066265     2.058621     2.050978     2.043335     2.035692     2.028049     2.020405
      2.012762     2.005119     1.997476     1.989833     1.982190     1.974546     1.966903     1.959260     1.951617     1.943974
      1.936331     1.928688     1.921045     1.913402     1.905759     1.898115     1.890472     1.882829     1.875186     1.867543
      1.859900     1.852257     1.844614     1.836971     1.829327     1.821684     1.814041     1.806398     1.798755     1.791112
      1.783469     1.775826     1.768183     1.760540     1.752896     1.745253     1.737610     1.729967     1.722324     1.714681
      1.707038     1.699395     1.691752     1.684108     1.676465     1.668822     1.661179     1.653536     1.645893     1.638250
      1.630607     1.622964     1.615321     1.607677     1.600034     1.592391     1.584748     1.577105     1.569462     1.561819
      1.554176     1.546533     1.538890     1.531246     1.523603     1.515960     1.508317     1.500674     1.493031     1.485388
      1.477745     1.470102     1.462458     1.454815     1.447172     1.439529     1.431886     1.424243     1.416600     1.408957
      1.401314     1.393671     1.386027     1.378384     1.370741     1.363098     1.355455     1.347812     1.340169     1.332526
      1.324883     1.317240     1.309596     1.301953     1.294310     1.286667     1.279024     1.271381     1.263738     1.256095
      1.248452     1.240808     1.233165     1.225522     1.217879     1.210236     1.202593     1.194950     1.187307     1.179664
      1.172021     1.164377     1.156734     1.149091     1.141448     1.133805     1.126162     1.118519     1.110876     1.103233
      1.095590     1.087946     1.080303     1.072660     1.065017     1.057374     1.049731     1.042088     1.034445     1.026802
      1.019158     1.011515     1.003872     0.996229     0.988586     0.980943     0.973300     0.965657     0.958014     0.950371
      0.942727     0.935084     0.927441     0.919798     0.912155     0.904512     0.896869     0.889226     0.881583     0.873940
      0.866296     0.858653     0.851010     0.843367     0.835724     0.828081     0.820438     0.812795     0.805152     0.797508
      0.789865     0.782222     0.774579     0.766936     0.759293     0.751650     0.744007     0.736364     0.728721     0.721077
      0.713434     0.705791     0.698148     0.690505     0.682862     0.675219     0.667576     0.659933     0.652290     0.644646
      0.637003     0.629360     0.621717     0.614074     0.606431     0.598788     0.591145     0.583502     0.575858     0.568215
      0.560572     0.552929     0.545286     0.537643     0.530000     0.522357     0.514714     0.507071     0.499427     0.491784
      0.484141     0.476498     0.468855     0.461212     0.453569     0.445925     0.438282     0.430639     0.422996     0.415353
      0.407710     0.400067     0.392424     0.384780     0.377137     0.369494     0.361851     0.354208     0.346565     0.338922
      0.331278     0.323635     0.315992     0.308349     0.300706     0.293063     0.285420     0.277777     0.270133     0.262490
      0.254847     0.247204     0.239561     0.231918     0.224275     0.216631     0.208988     0.201345
 NY phased data points follow
   3.51682E+00  1.50394E+00  1.70169E+00  2.93369E+00  2.33232E+00  2.34340E+00  2.48444E+00  5.84192E+00  5.79234E+00  6.60159E+00
   7.32394E+00  7.79898E+00  9.45278E+00  9.23770E+00  7.73198E+00  7.96483E+00  4.50095E+00  3.15072E+00  3.51753E+00  3.69907E+00
   3.57704E+00  1.61239E+00  4.67457E+00  3.94017E+00  2.64524E+00  1.54176E+00  4.24183E+00  2.59420E+00  3.20276E+00  1.05136E+00
   4.77869E+00  4.65563E+00  6.39172E+00  4.77059E+00  3.44164E+00  1.61367E+00  3.06312E+00  2.79188E+00 -2.77087E-01 -3.45386E-01
   1.98976E+00  2.78439E+00  1.97122E+00  3.97669E+00  2.40109E+00  3.73224E+00  5.13132E+00  4.04793E+00  6.38658E+00  4.99206E+00
   5.43733E+00  5.78472E+00  4.02272E+00  1.35641E+00  3.24256E+00  1.62326E+00  5.02581E+00  3.05802E+00  3.16776E-05  4.05885E+00
   2.13893E+00  2.40369E+00  5.48950E-01  1.15513E-01 -2.05936E-01  3.43839E-01 -1.96917E-01 -5.23171E-01  5.68652E-01 -2.72138E-01
   2.43601E+00  1.63384E+00  2.55866E-01 -1.10776E+00  1.64966E+00  2.39992E+00  1.15584E-01  1.87876E+00 -3.72803E-01  5.91651E-01
   1.55497E+00  1.10186E+00 -5.34422E-01 -2.26212E-01  1.42754E-01 -3.12270E-01 -1.27719E+00  8.96934E-01  1.80800E+00  1.25669E+00
   1.09012E+00  7.19405E-01 -1.23186E+00 -1.11444E+00  2.22737E+00  3.12227E+00  3.07429E+00  7.06729E-01  2.29262E+00  3.99851E+00
   6.93436E+00  1.01438E+01  1.11865E+01  1.44705E+01  1.47336E+01  1.57147E+01  1.09942E+01  6.26649E+00  3.85922E+00  3.02632E+00
   4.17397E+00  3.02205E+00  4.88119E-01  5.42461E-01  1.96930E+00  1.68439E+00  1.92849E+00  4.25708E+00  3.50644E+00  1.62856E+00
   3.51605E+00  1.23791E+00  3.69509E+00  7.65196E+00  1.06803E+01  1.00872E+01  1.35562E+01  1.76720E+01  1.92123E+01  1.58096E+01
   1.29072E+01  9.53434E+00  5.21048E+00  5.49895E+00  3.97607E+00  3.63639E+00  2.21788E+00 -4.64443E-01 -5.06005E-01  1.87771E+00
   7.43873E-01 -6.28290E-02 -1.36886E+00  4.08762E+00  2.24224E+00  1.82434E+00  3.23567E+00  4.40486E+00  2.23885E+00  2.30367E+00
   9.06063E-01  6.63698E-01  2.82711E+00  6.78691E-01  4.34313E-01 -8.00928E-01 -3.69780E-01  1.01226E+00  2.41914E+00  7.61784E-01
  -1.50423E+00  1.86269E+00  2.37846E-01  3.01531E+00 -1.42783E-01 -1.74882E+00 -1.03718E+00 -2.86718E+00 -3.62583E+00 -4.51200E+00
  -6.72120E+00 -4.09480E+00 -5.53326E+00 -6.96763E+00 -4.69392E+00 -7.06507E+00 -4.55194E+00 -5.59918E+00 -4.29923E+00 -7.92385E+00
  -6.41413E+00 -4.84309E+00 -6.04132E+00 -2.67716E+00 -1.06321E+00 -4.28989E+00 -4.67687E+00 -2.28318E+00 -5.05236E+00 -9.81000E-01
  -3.07935E+00 -2.00382E+00 -2.43927E+00 -4.74218E+00 -4.37074E+00 -5.85640E+00 -4.38132E+00 -3.76157E+00 -3.75449E+00 -1.81257E+00
  -3.71048E+00 -8.53092E-01 -2.76858E-02 -2.62888E+00 -5.57625E-02 -9.25502E-01 -2.21279E+00 -3.46187E-01 -3.37853E+00 -6.07400E-01
  -1.62770E+00 -6.61841E-01 -7.86469E-01  1.60735E+00  4.11807E+00  3.58198E+00  3.95659E+00  5.16844E+00  2.42022E+00  1.42358E+00
  -5.95490E-01 -3.07932E+00 -3.09008E+00 -2.03808E+00 -2.57013E+00  8.83998E-01 -9.49434E-02  2.67925E+00  2.43072E+00  1.29484E+00
   1.06122E+00  3.00929E+00  2.26752E+00  4.28195E+00  1.91149E+00  3.94548E+00  4.48423E+00  3.78626E+00  3.13778E+00  2.32527E+00
   2.64707E+00 -2.28597E-01  8.41491E-01  1.11569E-02  3.07941E+00  3.95034E+00  5.84406E+00  6.10923E+00  4.65634E+00  7.25347E+00
   8.43057E+00  6.93700E+00  8.77413E+00  1.35039E+01  1.52740E+01  2.14064E+01  2.32219E+01  2.96095E+01  3.33521E+01  4.13906E+01
   4.23969E+01  4.21282E+01  3.80886E+01  2.65904E+01  1.51684E+01  9.89512E+00  9.34524E+00  6.51665E+00  5.12631E+00  1.46217E+00
   2.58330E+00  1.31277E+00 -1.37842E+00  7.16016E-01  1.04715E-01  1.60364E+00  1.67940E+00  2.60656E+00 -1.81947E-01  1.55883E+00
   1.20663E+00 -5.51880E-01  2.87524E+00 -4.73675E-01  1.62538E-01 -2.01413E+00 -1.93382E+00  3.69561E-01  5.27838E-01  1.09468E+00
   8.33689E-01  1.55308E+00  1.13658E+00  5.42383E-02  3.20781E-01 -2.17256E-01  9.82618E-01  1.41456E+00 -1.28154E+00  1.58227E+00
   1.93237E+00  2.84239E+00 -7.57741E-01  1.42163E+00 -3.39035E-02  1.36190E+00  1.45794E+00 -1.49263E-01  4.26458E+00  3.55768E+00
   1.24132E-01  3.02962E-01  2.26190E-01  2.55346E+00  1.47141E+00  2.79840E+00  1.22749E+00  3.32124E-01  2.88979E+00  3.73326E+00
   2.48618E+00  1.00301E+00  1.86828E+00  2.64300E+00  1.32039E+00  6.42829E-02  1.92967E+00  1.46634E+00  7.54832E-01  6.21328E-01
   1.42741E+00 -1.10208E+00  3.98607E+00  5.91059E-01 -5.76626E-01 -1.18322E+00  3.14527E+00  1.98736E+00  2.00810E+00  4.18212E+00
   2.11727E+00  2.70986E+00  2.52892E+00  3.65010E+00  3.64219E+00  2.90291E+00  5.62275E+00  5.12861E+00  2.82280E+00  3.64063E+00
   1.33030E+00  1.54497E+00  1.73652E+00  2.74409E+00  2.89219E+00  1.92457E+00  1.10153E+00  2.15455E+00  1.57345E+00  1.71413E+00
   3.04511E+00  2.17235E+00  1.56842E+00  2.30469E+00  1.62549E+00  2.85439E+00  2.98751E+00  1.03383E-01  2.51865E+00  1.11603E+00
   2.28687E+00  2.62548E-01  1.85449E+00 -8.28590E-01  5.88506E-01  5.29096E-01  2.26589E-01  2.54258E-01 -2.13815E+00  7.91375E-01
   8.63984E-01 -5.94042E-02  1.98608E+00 -1.67506E+00 -1.88328E+00 -2.52565E-01  3.92854E-01  6.24534E-01 -9.87155E-02 -8.39545E-01
   1.08070E-01  1.63697E+00  1.58766E+00  8.93734E-01  2.42754E+00  1.55508E-01  2.35608E+00  3.65521E+00  2.22627E+00  4.54497E+00
   3.15088E+00  5.42861E+00  3.51561E+00  5.96290E+00  3.43806E+00  6.01646E+00  5.37243E+00  4.34608E+00  2.43623E+00  3.45235E+00
   2.40368E+00  2.43886E+00  2.96938E+00  2.61828E+00  2.30227E+00 -2.58519E-01  7.35978E-01  2.69445E+00 -1.21313E+00  2.27190E+00
   4.97833E-01 -4.79480E-02 -3.63448E-01 -1.97117E+00  1.60985E-01  2.39149E-01 -2.85398E-02 -1.10175E+00  5.02172E-01  2.77842E-01
  -8.95134E-01 -1.46803E+00 -4.37874E+00 -1.28757E+00 -6.49863E-02 -1.60060E+00  1.56460E+00 -2.51096E+00 -1.65442E+00 -1.46069E+00
  -1.55489E+00 -1.53945E+00  1.68506E+00 -1.18299E-01 -7.73096E-02 -1.81364E+00  1.62344E+00 -1.73227E+00  2.29595E+00 -6.70382E-01
   9.53772E-02 -1.20139E+00  1.16366E+00 -2.22858E-01 -7.01318E-01 -5.45695E-01 -6.70463E-01 -1.22077E+00 -1.08432E+00 -2.28375E+00
  -2.13478E+00 -6.01904E-01 -1.57200E+00  6.96276E-01 -3.19583E-01 -6.81874E-01 -1.43524E+00  1.93191E-01  1.27560E-01 -3.25371E-01
  -7.12533E-01  6.95245E-01 -2.34599E+00 -2.96290E+00 -2.82460E+00 -4.20130E-01  7.82733E-01  8.70141E-02 -2.15416E+00 -2.90020E-01
   2.37568E-02 -1.35580E-01 -1.63182E+00  6.55696E-03 -2.21979E+00 -1.33605E+00 -2.87473E-01 -1.17187E+00 -1.14766E+00  1.13834E-01
   5.44877E-01 -3.51725E-01 -1.66156E+00 -2.75902E+00  4.47461E-01 -1.58663E+00  5.27291E-01 -2.60154E-01
 NY points of the fit to the data follow
   1.28680E+00  1.02606E+00  1.01318E+00  1.14410E+00  1.47276E+00  2.26412E+00  3.33892E+00  4.48781E+00  5.66737E+00  6.86988E+00
   8.02576E+00  8.93070E+00  9.31208E+00  8.97711E+00  7.89114E+00  6.31427E+00  4.79168E+00  3.79612E+00  3.28729E+00  2.84827E+00
   2.41074E+00  2.13023E+00  1.96169E+00  1.95979E+00  2.04053E+00  2.13337E+00  2.31092E+00  2.70794E+00  3.40252E+00  4.29581E+00
   5.20643E+00  5.90590E+00  6.10630E+00  5.69689E+00  4.84544E+00  3.85044E+00  2.94392E+00  2.12033E+00  1.44363E+00  1.15255E+00
   1.26937E+00  1.67056E+00  2.19679E+00  2.77221E+00  3.39955E+00  4.05539E+00  4.71781E+00  5.28004E+00  5.51046E+00  5.22206E+00
   4.37605E+00  3.17434E+00  2.06627E+00  1.40060E+00  1.13830E+00  1.08094E+00  1.12628E+00  1.29194E+00  1.54864E+00  1.80889E+00
   1.99919E+00  2.04903E+00  1.89756E+00  1.54813E+00  1.10760E+00  7.71253E-01  6.41417E-01  6.78904E-01  8.23880E-01  1.03177E+00
   1.24221E+00  1.42586E+00  1.55584E+00  1.61243E+00  1.58226E+00  1.46429E+00  1.28880E+00  1.10298E+00  9.41025E-01  8.36687E-01
   8.13603E-01  8.26739E-01  8.38970E-01  8.51480E-01  8.76956E-01  8.95404E-01  8.37704E-01  6.38579E-01  2.90647E-01 -1.31371E-01
  -4.74801E-01 -6.14312E-01 -5.39222E-01 -3.88582E-01 -2.88721E-01 -1.49696E-01  5.34570E-01  1.90776E+00  3.43341E+00  5.07168E+00
   7.05909E+00  9.53827E+00  1.22457E+01  1.44450E+01  1.52352E+01  1.40829E+01  1.12201E+01  7.72437E+00  4.91009E+00  3.27789E+00
   2.29138E+00  1.32334E+00  5.69895E-01  3.00419E-01  1.96489E-01  1.40835E-01  1.00780E-01  7.79938E-02  1.06616E-01  3.57996E-01
   1.20254E+00  2.74280E+00  4.58816E+00  6.65914E+00  9.10156E+00  1.19332E+01  1.48186E+01  1.70090E+01  1.76241E+01  1.62321E+01
   1.31991E+01  9.62860E+00  6.70511E+00  4.79542E+00  3.39620E+00  2.05014E+00  9.63301E-01  4.46553E-01  3.44374E-01  4.99400E-01
   7.59211E-01  9.77200E-01  1.08342E+00  1.05871E+00  9.13557E-01  7.18693E-01  5.32045E-01  3.61245E-01  2.06215E-01  6.14485E-02
  -7.08026E-02 -1.80346E-01 -2.71635E-01 -3.66450E-01 -4.98406E-01 -6.25059E-01 -7.23550E-01 -7.93792E-01 -8.58073E-01 -1.00404E+00
  -1.21271E+00 -1.38150E+00 -1.42110E+00 -1.32815E+00 -1.19991E+00 -1.19002E+00 -1.39518E+00 -1.76257E+00 -2.14361E+00 -2.45579E+00
  -2.66850E+00 -2.79432E+00 -2.92331E+00 -3.08905E+00 -3.28164E+00 -3.44427E+00 -3.48770E+00 -3.37678E+00 -3.18797E+00 -3.06045E+00
  -3.10015E+00 -3.21115E+00 -3.23669E+00 -3.07539E+00 -2.77276E+00 -2.46003E+00 -2.15156E+00 -1.73876E+00 -1.16265E+00 -4.99779E-01
   3.09106E-02  2.24767E-01  9.46749E-02 -1.98682E-01 -4.93411E-01 -7.14864E-01 -8.10903E-01 -6.71112E-01 -3.12580E-01  2.09635E-01
   8.27707E-01  1.40318E+00  1.73283E+00  1.67411E+00  1.26180E+00  5.22010E-01 -5.29684E-01 -1.72736E+00 -2.74327E+00 -3.18878E+00
  -2.93297E+00 -2.15912E+00 -1.00625E+00  3.58484E-01  1.66802E+00  2.62938E+00  2.97293E+00  2.56019E+00  1.41831E+00 -2.28684E-01
  -1.83910E+00 -2.95143E+00 -3.37605E+00 -3.08381E+00 -2.19256E+00 -8.32859E-01  6.51682E-01  1.71935E+00  2.13556E+00  2.11699E+00
   2.02958E+00  1.98959E+00  1.97616E+00  2.09870E+00  2.43214E+00  2.85615E+00  3.23713E+00  3.52054E+00  3.67726E+00  3.62802E+00
   3.27266E+00  2.74109E+00  2.34834E+00  2.30106E+00  2.60163E+00  3.17990E+00  3.91863E+00  4.61460E+00  5.17841E+00  5.76128E+00
   6.38598E+00  7.06395E+00  8.26585E+00  1.14451E+01  1.59327E+01  2.05012E+01  2.50542E+01  2.99208E+01  3.51292E+01  3.98505E+01
   4.24596E+01  4.13288E+01  3.58003E+01  2.71152E+01  1.83912E+01  1.24207E+01  9.18450E+00  6.70921E+00  4.10153E+00  2.58903E+00
   2.04532E+00  1.74026E+00  1.55422E+00  1.47812E+00  1.46141E+00  1.42192E+00  1.33124E+00  1.17823E+00  9.76837E-01  7.63799E-01
   5.72878E-01  4.10543E-01  2.79782E-01  1.90913E-01  1.43835E-01  1.27004E-01  1.25259E-01  1.28911E-01  1.39666E-01  1.61242E-01
   1.92639E-01  2.37171E-01  2.95455E-01  3.63045E-01  4.36232E-01  5.14916E-01  5.99214E-01  6.89201E-01  7.84912E-01  8.84503E-01
   9.85435E-01  1.08680E+00  1.18588E+00  1.27676E+00  1.35472E+00  1.41761E+00  1.46533E+00  1.49760E+00  1.51407E+00  1.51618E+00
   1.50606E+00  1.48572E+00  1.45795E+00  1.42585E+00  1.39289E+00  1.36299E+00  1.34089E+00  1.33216E+00  1.34447E+00  1.39183E+00
   1.49894E+00  1.62926E+00  1.72227E+00  1.79118E+00  1.84634E+00  1.86354E+00  1.78496E+00  1.54832E+00  1.18075E+00  8.02294E-01
   5.03133E-01  3.90620E-01  5.28110E-01  8.78507E-01  1.35066E+00  1.88027E+00  2.42576E+00  2.87198E+00  3.09256E+00  3.10841E+00
   3.05273E+00  3.03193E+00  3.03331E+00  3.00505E+00  2.94945E+00  2.90489E+00  2.83331E+00  2.69433E+00  2.50191E+00  2.29375E+00
   2.10764E+00  2.00130E+00  2.01248E+00  2.12476E+00  2.28574E+00  2.45100E+00  2.59577E+00  2.67255E+00  2.63297E+00  2.50058E+00
   2.33789E+00  2.18915E+00  2.04889E+00  1.89302E+00  1.73426E+00  1.58850E+00  1.44954E+00  1.31480E+00  1.18428E+00  1.05853E+00
   9.38535E-01  8.25323E-01  7.20119E-01  6.23946E-01  5.37802E-01  4.62457E-01  3.98810E-01  3.47694E-01  3.10094E-01  2.86821E-01
   2.78778E-01  2.86787E-01  3.11923E-01  3.55249E-01  4.17953E-01  5.00998E-01  6.05327E-01  7.31610E-01  8.80425E-01  1.05185E+00
   1.24548E+00  1.46005E+00  1.69360E+00  1.94321E+00  2.20520E+00  2.47480E+00  2.74639E+00  3.01344E+00  3.26896E+00  3.50560E+00
   3.71619E+00  3.89375E+00  4.03207E+00  4.12587E+00  4.17138E+00  4.16635E+00  4.11041E+00  4.00475E+00  3.85233E+00  3.65751E+00
   3.42610E+00  3.16478E+00  2.88089E+00  2.58179E+00  2.27483E+00  1.96678E+00  1.66388E+00  1.37139E+00  1.09359E+00  8.33585E-01
   5.93550E-01  3.74650E-01  1.77378E-01  1.39990E-03 -1.54101E-01 -2.90495E-01 -4.09275E-01 -5.12142E-01 -6.00711E-01 -6.76719E-01
  -7.41750E-01 -7.97388E-01 -8.44916E-01 -8.85540E-01 -9.20202E-01 -9.49867E-01 -9.75285E-01 -9.97186E-01 -1.01604E+00 -1.03230E+00
  -1.04629E+00 -1.05839E+00 -1.06886E+00 -1.07799E+00 -1.08587E+00 -1.09267E+00 -1.09846E+00 -1.10347E+00 -1.10776E+00 -1.11145E+00
  -1.11451E+00 -1.11705E+00 -1.11906E+00 -1.12071E+00 -1.12197E+00 -1.12292E+00 -1.12350E+00 -1.12377E+00 -1.12375E+00 -1.12355E+00
  -1.12312E+00 -1.12250E+00 -1.12162E+00 -1.12057E+00 -1.11934E+00 -1.11801E+00 -1.11653E+00 -1.11491E+00 -1.11310E+00 -1.11119E+00
  -1.10917E+00 -1.10709E+00 -1.10488E+00 -1.10256E+00 -1.10009E+00 -1.09756E+00 -1.09496E+00 -1.09230E+00 -1.08952E+00 -1.08666E+00
  -1.08367E+00 -1.08066E+00 -1.07757E+00 -1.07443E+00 -1.07115E+00 -1.06780E+00 -1.06435E+00 -1.06086E+00 -1.05729E+00 -1.05364E+00
  -1.04984E+00 -1.04595E+00 -1.04196E+00 -1.03791E+00 -1.03372E+00 -1.02940E+00 -1.02489E+00 -1.02025E+00
 NY background values follow
     6.362E-02    5.641E-02    4.920E-02    4.200E-02    3.478E-02    2.757E-02    2.036E-02    1.315E-02    5.933E-03   -1.281E-03
    -8.496E-03   -1.571E-02   -2.293E-02   -3.014E-02   -3.736E-02   -4.458E-02   -5.179E-02   -5.901E-02   -6.623E-02   -7.344E-02
    -8.066E-02   -8.787E-02   -9.508E-02   -1.023E-01   -1.095E-01   -1.167E-01   -1.239E-01   -1.311E-01   -1.383E-01   -1.456E-01
    -1.528E-01   -1.600E-01   -1.672E-01   -1.744E-01   -1.816E-01   -1.887E-01   -1.959E-01   -2.031E-01   -2.103E-01   -2.175E-01
    -2.247E-01   -2.319E-01   -2.390E-01   -2.462E-01   -2.534E-01   -2.606E-01   -2.677E-01   -2.749E-01   -2.820E-01   -2.892E-01
    -2.963E-01   -3.035E-01   -3.106E-01   -3.178E-01   -3.249E-01   -3.320E-01   -3.392E-01   -3.463E-01   -3.534E-01   -3.605E-01
    -3.676E-01   -3.747E-01   -3.818E-01   -3.889E-01   -3.960E-01   -4.031E-01   -4.101E-01   -4.172E-01   -4.243E-01   -4.313E-01
    -4.384E-01   -4.454E-01   -4.524E-01   -4.595E-01   -4.665E-01   -4.735E-01   -4.805E-01   -4.875E-01   -4.945E-01   -5.015E-01
    -5.085E-01   -5.154E-01   -5.224E-01   -5.294E-01   -5.363E-01   -5.432E-01   -5.502E-01   -5.571E-01   -5.640E-01   -5.709E-01
    -5.778E-01   -5.847E-01   -5.916E-01   -5.984E-01   -6.053E-01   -6.122E-01   -6.190E-01   -6.258E-01   -6.326E-01   -6.394E-01
    -6.462E-01   -6.530E-01   -6.598E-01   -6.666E-01   -6.733E-01   -6.801E-01   -6.868E-01   -6.935E-01   -7.002E-01   -7.069E-01
    -7.136E-01   -7.203E-01   -7.269E-01   -7.336E-01   -7.402E-01   -7.468E-01   -7.534E-01   -7.600E-01   -7.666E-01   -7.732E-01
    -7.797E-01   -7.863E-01   -7.928E-01   -7.993E-01   -8.058E-01   -8.123E-01   -8.187E-01   -8.252E-01   -8.316E-01   -8.380E-01
    -8.444E-01   -8.508E-01   -8.572E-01   -8.635E-01   -8.699E-01   -8.762E-01   -8.825E-01   -8.888E-01   -8.950E-01   -9.013E-01
    -9.075E-01   -9.137E-01   -9.199E-01   -9.261E-01   -9.322E-01   -9.383E-01   -9.444E-01   -9.505E-01   -9.566E-01   -9.626E-01
    -9.686E-01   -9.745E-01   -9.805E-01   -9.864E-01   -9.923E-01   -9.981E-01   -1.004E+00   -1.010E+00   -1.015E+00   -1.021E+00
    -1.027E+00   -1.033E+00   -1.038E+00   -1.044E+00   -1.049E+00   -1.055E+00   -1.060E+00   -1.066E+00   -1.071E+00   -1.076E+00
    -1.082E+00   -1.087E+00   -1.092E+00   -1.097E+00   -1.103E+00   -1.108E+00   -1.113E+00   -1.118E+00   -1.123E+00   -1.127E+00
    -1.132E+00   -1.137E+00   -1.142E+00   -1.147E+00   -1.151E+00   -1.156E+00   -1.160E+00   -1.165E+00   -1.169E+00   -1.174E+00
    -1.178E+00   -1.182E+00   -1.187E+00   -1.191E+00   -1.195E+00   -1.199E+00   -1.203E+00   -1.207E+00   -1.211E+00   -1.215E+00
    -1.219E+00   -1.223E+00   -1.227E+00   -1.230E+00   -1.234E+00   -1.238E+00   -1.241E+00   -1.245E+00   -1.248E+00   -1.252E+00
    -1.255E+00   -1.259E+00   -1.262E+00   -1.265E+00   -1.268E+00   -1.272E+00   -1.275E+00   -1.278E+00   -1.281E+00   -1.284E+00
    -1.287E+00   -1.290E+00   -1.292E+00   -1.295E+00   -1.298E+00   -1.301E+00   -1.303E+00   -1.306E+00   -1.308E+00   -1.311E+00
    -1.314E+00   -1.316E+00   -1.318E+00   -1.321E+00   -1.323E+00   -1.325E+00   -1.327E+00   -1.330E+00   -1.332E+00   -1.334E+00
    -1.336E+00   -1.338E+00   -1.340E+00   -1.342E+00   -1.344E+00   -1.345E+00   -1.347E+00   -1.349E+00   -1.351E+00   -1.352E+00
    -1.354E+00   -1.355E+00   -1.357E+00   -1.359E+00   -1.360E+00   -1.361E+00   -1.363E+00   -1.364E+00   -1.365E+00   -1.367E+00
    -1.368E+00   -1.369E+00   -1.370E+00   -1.371E+00   -1.372E+00   -1.373E+00   -1.374E+00   -1.375E+00   -1.376E+00   -1.377E+00
    -1.378E+00   -1.378E+00   -1.379E+00   -1.380E+00   -1.380E+00   -1.381E+00   -1.382E+00   -1.382E+00   -1.383E+00   -1.383E+00
    -1.383E+00   -1.384E+00   -1.384E+00   -1.385E+00   -1.385E+00   -1.385E+00   -1.385E+00   -1.385E+00   -1.386E+00   -1.386E+00
    -1.386E+00   -1.386E+00   -1.386E+00   -1.386E+00   -1.386E+00   -1.385E+00   -1.385E+00   -1.385E+00   -1.385E+00   -1.385E+00
    -1.384E+00   -1.384E+00   -1.384E+00   -1.383E+00   -1.383E+00   -1.382E+00   -1.382E+00   -1.381E+00   -1.381E+00   -1.380E+00
    -1.380E+00   -1.379E+00   -1.378E+00   -1.377E+00   -1.377E+00   -1.376E+00   -1.375E+00   -1.374E+00   -1.373E+00   -1.372E+00
    -1.371E+00   -1.371E+00   -1.370E+00   -1.368E+00   -1.367E+00   -1.366E+00   -1.365E+00   -1.364E+00   -1.363E+00   -1.362E+00
    -1.360E+00   -1.359E+00   -1.358E+00   -1.357E+00   -1.355E+00   -1.354E+00   -1.352E+00   -1.351E+00   -1.349E+00   -1.348E+00
    -1.346E+00   -1.345E+00   -1.343E+00   -1.342E+00   -1.340E+00   -1.338E+00   -1.337E+00   -1.335E+00   -1.333E+00   -1.331E+00
    -1.330E+00   -1.328E+00   -1.326E+00   -1.324E+00   -1.322E+00   -1.320E+00   -1.318E+00   -1.316E+00   -1.314E+00   -1.312E+00
    -1.310E+00   -1.308E+00   -1.306E+00   -1.304E+00   -1.302E+00   -1.299E+00   -1.297E+00   -1.295E+00   -1.293E+00   -1.290E+00
    -1.288E+00   -1.286E+00   -1.283E+00   -1.281E+00   -1.279E+00   -1.276E+00   -1.274E+00   -1.271E+00   -1.269E+00   -1.266E+00
    -1.264E+00   -1.261E+00   -1.258E+00   -1.256E+00   -1.253E+00   -1.251E+00   -1.248E+00   -1.245E+00   -1.243E+00   -1.240E+00
    -1.237E+00   -1.234E+00   -1.231E+00   -1.229E+00   -1.226E+00   -1.223E+00   -1.220E+00   -1.217E+00   -1.214E+00   -1.211E+00
    -1.208E+00   -1.205E+00   -1.202E+00   -1.199E+00   -1.196E+00   -1.193E+00   -1.190E+00   -1.187E+00   -1.184E+00   -1.181E+00
    -1.178E+00   -1.175E+00   -1.171E+00   -1.168E+00   -1.165E+00   -1.162E+00   -1.159E+00   -1.155E+00   -1.152E+00   -1.149E+00
    -1.146E+00   -1.142E+00   -1.139E+00   -1.136E+00   -1.132E+00   -1.129E+00   -1.125E+00   -1.122E+00   -1.119E+00   -1.115E+00
    -1.112E+00   -1.108E+00   -1.105E+00   -1.102E+00   -1.098E+00   -1.095E+00   -1.091E+00   -1.088E+00   -1.084E+00   -1.081E+00
    -1.077E+00   -1.074E+00   -1.070E+00   -1.067E+00   -1.063E+00   -1.060E+00   -1.056E+00   -1.052E+00   -1.049E+00   -1.045E+00
    -1.042E+00   -1.038E+00   -1.035E+00   -1.031E+00   -1.028E+00   -1.024E+00   -1.020E+00   -1.017E+00   -1.013E+00   -1.010E+00
    -1.006E+00   -1.002E+00   -9.987E-01   -9.951E-01   -9.915E-01   -9.879E-01   -9.843E-01   -9.807E-01   -9.770E-01   -9.734E-01
    -9.698E-01   -9.662E-01   -9.625E-01   -9.589E-01   -9.553E-01   -9.517E-01   -9.480E-01   -9.444E-01   -9.407E-01   -9.371E-01
    -9.335E-01   -9.298E-01   -9.262E-01   -9.226E-01   -9.189E-01   -9.153E-01   -9.116E-01   -9.080E-01   -9.043E-01   -9.007E-01
    -8.971E-01   -8.934E-01   -8.898E-01   -8.861E-01   -8.825E-01   -8.789E-01   -8.752E-01   -8.716E-01
 Ala      Conc. = 1.03E+02
