 LCModel (Version 6.3-1L) Copyright: S.W. Provencher.          Ref.: Magn. Reson. Med. 30:672-679 (1993).                
 Slice#2 Row#12 Col#2  PD_05_press_1_raw_act
 36 lines in following concentration table = NCONC+1
    Conc.  %SD /Cr+PCr  Metabolite                                         
  626.955  82%   1.271 Ala                                                 
    0.000 999%   0.000 Asp                                                 
  493.337  13%   1.000 Cr                                                  
    0.000 999%   0.000 PCr                                                 
   71.367 155%   0.145 GABA                                                
   80.950 134%   0.164 Glc                                                 
 4.97E+03  12%  10.076 Gln                                                 
    0.000 999%   0.000 Glu                                                 
    0.000 999%   0.000 GPC                                                 
  181.156  20%   0.367 PCh                                                 
  935.182  15%   1.896 GSH                                                 
 3.33E+03  14%   6.753 Ins                                                 
  899.129  48%   1.823 Lac                                                 
  337.343  26%   0.684 NAA                                                 
    0.000 999%   0.000 NAAG                                                
  145.633  19%   0.295+Scyllo                                              
  586.719  28%   1.189 Tau                                                 
    0.000 999%   0.000 -CrCH2                                              
  181.156  20%   0.367 GPC+PCh                                             
  337.343  26%   0.684 NAA+NAAG                                            
  493.337  13%   1.000 Cr+PCr                                              
 4.97E+03  12%  10.076 Glu+Gln                                             
    0.000 999%   0.000 Lip13a                                              
  107.636 123%   0.218 Lip13b                                              
   28.412 125% 5.8E-02 Lip09                                               
 1.35E+03  13%   2.743 MM09                                                
   16.233 123% 3.3E-02 Lip20                                               
 2.03E+03  13%   4.117 MM20                                                
  405.970  13%   0.823 MM12                                                
 1.01E+03  13%   2.057 MM14                                                
  507.381  13%   1.028 MM17                                                
  107.636 123%   0.218 Lip13a+Lip13b                                       
 1.53E+03  13%   3.098 MM14+Lip13a+Lip13b+MM12                             
 1.38E+03  12%   2.800 MM09+Lip09                                          
 2.05E+03  13%   4.150 MM20+Lip20                                          
   6 lines in following misc. output table
  FWHM = 0.214 ppm    S/N =   4                                            
  Data shift = 0.054 ppm                                                   
  Ph:  -5 deg     -62.6 deg/ppm                                            
  alphaB,S = 1.9E+00,   1.1E+02                                            
    8 spline knots.   Ns = 9(2)                                            
  (17)13 infls.   (11) 1 extrs.                                            
  498 points on ppm-axis = NY
      4.000000     3.992357     3.984714     3.977070     3.969427     3.961784     3.954141     3.946497     3.938854     3.931211
      3.923568     3.915925     3.908281     3.900638     3.892995     3.885352     3.877708     3.870065     3.862422     3.854779
      3.847136     3.839492     3.831849     3.824206     3.816563     3.808919     3.801276     3.793633     3.785990     3.778347
      3.770703     3.763060     3.755417     3.747774     3.740130     3.732487     3.724844     3.717201     3.709558     3.701914
      3.694271     3.686628     3.678985     3.671341     3.663698     3.656055     3.648412     3.640769     3.633125     3.625482
      3.617839     3.610196     3.602552     3.594909     3.587266     3.579623     3.571980     3.564336     3.556693     3.549050
      3.541407     3.533763     3.526120     3.518477     3.510834     3.503191     3.495547     3.487904     3.480261     3.472618
      3.464974     3.457331     3.449688     3.442045     3.434402     3.426758     3.419115     3.411472     3.403829     3.396185
      3.388542     3.380899     3.373256     3.365613     3.357969     3.350326     3.342683     3.335040     3.327396     3.319753
      3.312110     3.304467     3.296824     3.289180     3.281537     3.273894     3.266251     3.258607     3.250964     3.243321
      3.235678     3.228034     3.220391     3.212748     3.205105     3.197462     3.189818     3.182175     3.174532     3.166889
      3.159245     3.151602     3.143959     3.136316     3.128673     3.121029     3.113386     3.105743     3.098100     3.090456
      3.082813     3.075170     3.067527     3.059884     3.052240     3.044597     3.036954     3.029311     3.021667     3.014024
      3.006381     2.998738     2.991095     2.983451     2.975808     2.968165     2.960522     2.952878     2.945235     2.937592
      2.929949     2.922306     2.914662     2.907019     2.899376     2.891733     2.884089     2.876446     2.868803     2.861160
      2.853517     2.845873     2.838230     2.830587     2.822944     2.815300     2.807657     2.800014     2.792371     2.784728
      2.777084     2.769441     2.761798     2.754155     2.746511     2.738868     2.731225     2.723582     2.715939     2.708295
      2.700652     2.693009     2.685366     2.677722     2.670079     2.662436     2.654793     2.647150     2.639506     2.631863
      2.624220     2.616577     2.608933     2.601290     2.593647     2.586004     2.578361     2.570717     2.563074     2.555431
      2.547788     2.540144     2.532501     2.524858     2.517215     2.509572     2.501928     2.494285     2.486642     2.478999
      2.471355     2.463712     2.456069     2.448426     2.440783     2.433139     2.425496     2.417853     2.410210     2.402566
      2.394923     2.387280     2.379637     2.371994     2.364350     2.356707     2.349064     2.341421     2.333777     2.326134
      2.318491     2.310848     2.303205     2.295561     2.287918     2.280275     2.272632     2.264988     2.257345     2.249702
      2.242059     2.234416     2.226772     2.219129     2.211486     2.203843     2.196199     2.188556     2.180913     2.173270
      2.165627     2.157983     2.150340     2.142697     2.135054     2.127410     2.119767     2.112124     2.104481     2.096838
      2.089194     2.081551     2.073908     2.066265     2.058621     2.050978     2.043335     2.035692     2.028049     2.020405
      2.012762     2.005119     1.997476     1.989833     1.982190     1.974546     1.966903     1.959260     1.951617     1.943974
      1.936331     1.928688     1.921045     1.913402     1.905759     1.898115     1.890472     1.882829     1.875186     1.867543
      1.859900     1.852257     1.844614     1.836971     1.829327     1.821684     1.814041     1.806398     1.798755     1.791112
      1.783469     1.775826     1.768183     1.760540     1.752896     1.745253     1.737610     1.729967     1.722324     1.714681
      1.707038     1.699395     1.691752     1.684108     1.676465     1.668822     1.661179     1.653536     1.645893     1.638250
      1.630607     1.622964     1.615321     1.607677     1.600034     1.592391     1.584748     1.577105     1.569462     1.561819
      1.554176     1.546533     1.538890     1.531246     1.523603     1.515960     1.508317     1.500674     1.493031     1.485388
      1.477745     1.470102     1.462458     1.454815     1.447172     1.439529     1.431886     1.424243     1.416600     1.408957
      1.401314     1.393671     1.386027     1.378384     1.370741     1.363098     1.355455     1.347812     1.340169     1.332526
      1.324883     1.317240     1.309596     1.301953     1.294310     1.286667     1.279024     1.271381     1.263738     1.256095
      1.248452     1.240808     1.233165     1.225522     1.217879     1.210236     1.202593     1.194950     1.187307     1.179664
      1.172021     1.164377     1.156734     1.149091     1.141448     1.133805     1.126162     1.118519     1.110876     1.103233
      1.095590     1.087946     1.080303     1.072660     1.065017     1.057374     1.049731     1.042088     1.034445     1.026802
      1.019158     1.011515     1.003872     0.996229     0.988586     0.980943     0.973300     0.965657     0.958014     0.950371
      0.942727     0.935084     0.927441     0.919798     0.912155     0.904512     0.896869     0.889226     0.881583     0.873940
      0.866296     0.858653     0.851010     0.843367     0.835724     0.828081     0.820438     0.812795     0.805152     0.797508
      0.789865     0.782222     0.774579     0.766936     0.759293     0.751650     0.744007     0.736364     0.728721     0.721077
      0.713434     0.705791     0.698148     0.690505     0.682862     0.675219     0.667576     0.659933     0.652290     0.644646
      0.637003     0.629360     0.621717     0.614074     0.606431     0.598788     0.591145     0.583502     0.575858     0.568215
      0.560572     0.552929     0.545286     0.537643     0.530000     0.522357     0.514714     0.507071     0.499427     0.491784
      0.484141     0.476498     0.468855     0.461212     0.453569     0.445925     0.438282     0.430639     0.422996     0.415353
      0.407710     0.400067     0.392424     0.384780     0.377137     0.369494     0.361851     0.354208     0.346565     0.338922
      0.331278     0.323635     0.315992     0.308349     0.300706     0.293063     0.285420     0.277777     0.270133     0.262490
      0.254847     0.247204     0.239561     0.231918     0.224275     0.216631     0.208988     0.201345
 NY phased data points follow
   5.74122E+00  7.30551E+00  4.95000E+00  5.88562E+00  5.67951E+00  5.14183E+00  5.57894E+00  6.34426E+00  6.73779E+00  5.79382E+00
   6.54486E+00  5.74406E+00  8.70107E+00  8.31438E+00  7.78970E+00  1.04610E+01  6.88195E+00  8.60486E+00  9.48284E+00  8.02938E+00
   1.06402E+01  9.97685E+00  9.80893E+00  9.37914E+00  8.80290E+00  1.07726E+01  1.05553E+01  1.06020E+01  1.15097E+01  1.04020E+01
   1.09464E+01  1.24486E+01  1.06211E+01  1.10435E+01  1.13146E+01  1.33285E+01  1.26260E+01  1.10384E+01  1.19669E+01  1.32987E+01
   1.25861E+01  1.23144E+01  1.31599E+01  1.42284E+01  1.23905E+01  1.32303E+01  1.11969E+01  1.43443E+01  1.21830E+01  1.17748E+01
   1.35822E+01  1.35507E+01  1.35365E+01  1.33280E+01  1.21419E+01  1.16331E+01  1.36735E+01  1.30313E+01  1.28992E+01  1.14026E+01
   1.43779E+01  1.40872E+01  1.37821E+01  1.48766E+01  1.41840E+01  1.42623E+01  1.43538E+01  1.35849E+01  1.29663E+01  1.34525E+01
   1.36690E+01  1.39772E+01  1.37881E+01  1.36220E+01  1.58146E+01  1.25000E+01  1.37513E+01  1.32208E+01  1.35228E+01  1.19363E+01
   1.38382E+01  1.44553E+01  1.36446E+01  1.34149E+01  1.45456E+01  1.19217E+01  1.32488E+01  1.30970E+01  1.23112E+01  1.45705E+01
   1.47426E+01  1.23811E+01  1.38008E+01  1.27290E+01  1.38971E+01  1.30549E+01  1.29551E+01  1.13587E+01  1.26557E+01  1.37657E+01
   1.33654E+01  1.25829E+01  1.11481E+01  1.23296E+01  1.12214E+01  1.17190E+01  1.10027E+01  1.19547E+01  1.23274E+01  1.07928E+01
   1.34807E+01  1.16985E+01  1.21339E+01  1.03054E+01  1.11015E+01  1.29754E+01  1.14760E+01  1.15889E+01  1.21549E+01  1.09104E+01
   1.08295E+01  1.29583E+01  1.31219E+01  1.34859E+01  1.28734E+01  1.34174E+01  1.36561E+01  1.37154E+01  1.20656E+01  1.25876E+01
   1.30105E+01  1.42788E+01  1.25543E+01  1.33450E+01  1.33249E+01  1.26144E+01  1.30012E+01  1.41887E+01  1.55179E+01  1.47555E+01
   1.05984E+01  1.40779E+01  1.21771E+01  1.37105E+01  1.26471E+01  1.28457E+01  1.29153E+01  1.12997E+01  1.14482E+01  1.22543E+01
   1.08370E+01  9.04628E+00  9.74784E+00  9.36629E+00  9.06744E+00  7.48678E+00  7.45356E+00  7.02798E+00  7.80539E+00  8.09518E+00
   6.46852E+00  6.56591E+00  6.46918E+00  4.79085E+00  6.10864E+00  4.90489E+00  3.97297E+00  4.61776E+00  2.93271E+00  2.29900E+00
   3.08025E+00  2.33169E+00  1.66461E+00  8.62819E-01  2.26598E+00  1.53121E+00  1.14802E-01  9.24712E-01 -1.01760E-01 -1.42231E-01
  -7.59628E-01 -3.34943E-01 -2.53484E-01 -1.47481E+00 -1.48051E-01 -1.24197E+00 -4.39450E-01 -2.95451E+00 -1.87977E+00 -1.00284E+00
  -1.55163E+00 -1.14719E+00 -4.14676E-01 -9.39550E-01 -1.01006E+00  6.47355E-01  4.48485E-01 -6.13991E-02  2.78387E+00  4.27496E+00
   9.46303E-01  3.88917E+00  4.39565E+00  6.32447E+00  3.03722E+00  6.01078E+00  4.29459E+00  5.01267E+00  7.95663E+00  5.73200E+00
   5.71164E+00  7.70211E+00  8.20420E+00  7.26125E+00  6.85008E+00  7.37415E+00  9.16462E+00  8.62027E+00  7.46546E+00  8.85404E+00
   8.41763E+00  8.72944E+00  7.86019E+00  9.64083E+00  7.96710E+00  9.93842E+00  8.73561E+00  8.88464E+00  1.02816E+01  1.04233E+01
   1.05722E+01  1.00642E+01  1.14022E+01  9.56629E+00  1.04355E+01  1.12773E+01  1.03712E+01  1.10423E+01  1.12360E+01  1.12403E+01
   1.27087E+01  9.67501E+00  1.15459E+01  1.09648E+01  1.06420E+01  1.03221E+01  1.03234E+01  9.58530E+00  1.00046E+01  1.02144E+01
   1.12876E+01  9.92208E+00  1.08368E+01  1.19358E+01  1.15122E+01  1.12952E+01  1.05968E+01  1.13477E+01  9.64204E+00  1.17955E+01
   1.13139E+01  1.03427E+01  8.59160E+00  9.82827E+00  8.31114E+00  8.62923E+00  8.08991E+00  7.90567E+00  7.17401E+00  7.70729E+00
   8.66798E+00  8.80582E+00  6.18731E+00  7.76437E+00  8.65565E+00  8.12316E+00  6.55508E+00  6.50446E+00  8.66397E+00  8.42791E+00
   5.52196E+00  6.04136E+00  6.39270E+00  5.39872E+00  5.10214E+00  5.81834E+00  4.47062E+00  6.92588E+00  5.49117E+00  3.66726E+00
   5.27235E+00  3.95105E+00  3.92861E+00  4.34180E+00  3.68925E+00  3.37596E+00  3.32550E+00  2.83574E+00  2.57187E+00  2.75171E+00
   2.16880E+00 -2.07410E-01  2.48298E+00  1.14756E+00  2.25605E+00  1.57281E+00  1.13610E+00  1.81677E+00  1.99730E+00  2.84648E+00
   7.35292E-01  2.27323E+00  1.22794E+00  1.27320E+00  1.44091E+00  1.43776E+00  2.78263E+00  2.60210E+00  3.22451E+00  1.77946E+00
   3.46965E+00  2.40881E+00  3.01928E+00  2.77342E+00  3.11225E+00  2.78492E+00  3.28576E+00  4.26817E+00  1.98610E+00  3.58448E+00
   2.92641E+00  4.54787E+00  3.59228E+00  4.19346E+00  2.76239E+00  3.41687E+00  3.85838E+00  4.57674E+00  4.21722E+00  2.95743E+00
   2.50845E+00  3.29695E+00  4.34531E+00  3.11842E+00  3.27829E+00  1.99599E+00  4.17510E+00  3.14871E+00  3.81830E+00  1.71569E+00
   2.24251E+00  2.83529E+00  3.42089E+00  1.43342E+00  2.23206E+00  1.59670E+00  2.86726E+00  2.85518E+00  2.85496E+00  2.38603E+00
   7.89328E-01  1.16875E+00  2.72828E+00  1.02858E+00  2.85269E-01  2.01983E+00  2.69849E-01 -1.11177E-01 -6.10233E-01  1.05456E-01
   9.45886E-01 -1.63258E+00 -1.21928E+00 -1.72024E+00 -3.32183E-01 -1.87940E-01 -2.02623E-01 -1.30543E+00 -2.09964E+00 -2.64530E-01
  -1.42921E+00  4.33331E-01  4.59563E-02 -1.84522E+00 -2.27996E+00 -3.70463E+00 -2.29469E+00 -1.25346E+00 -2.93913E+00 -2.54726E+00
  -2.23203E+00 -2.71486E+00 -1.72839E+00 -3.27200E+00 -2.60004E+00 -3.89737E+00 -4.61455E+00 -2.74294E+00 -2.99861E+00 -1.86149E+00
  -4.43604E+00 -4.86762E+00 -4.15281E+00 -3.87755E+00 -3.29452E+00 -3.95926E+00 -4.44271E+00 -3.94272E+00 -4.42099E+00 -4.15718E+00
  -4.66638E+00 -4.66423E+00 -6.17670E+00 -5.53683E+00 -5.64653E+00 -4.41091E+00 -4.90893E+00 -4.81622E+00 -4.08745E+00 -7.20594E+00
  -5.72144E+00 -6.49713E+00 -5.78626E+00 -6.94828E+00 -5.86524E+00 -5.74888E+00 -7.01580E+00 -6.38721E+00 -5.67027E+00 -7.65269E+00
  -7.35629E+00 -7.39568E+00 -6.28221E+00 -7.03672E+00 -6.75868E+00 -6.09987E+00 -8.33960E+00 -7.77628E+00 -5.42861E+00 -8.02031E+00
  -5.69613E+00 -5.80252E+00 -7.46954E+00 -7.94057E+00 -6.86004E+00 -9.49134E+00 -7.76691E+00 -7.58625E+00 -7.85958E+00 -7.70653E+00
  -8.85485E+00 -8.21181E+00 -8.18675E+00 -6.29034E+00 -6.93578E+00 -7.68027E+00 -7.52590E+00 -7.59905E+00 -9.25561E+00 -8.88390E+00
  -8.01824E+00 -6.78514E+00 -7.79726E+00 -7.51316E+00 -8.69377E+00 -7.14521E+00 -9.63044E+00 -7.82035E+00 -8.87152E+00 -7.15842E+00
  -7.38402E+00 -1.01167E+01 -7.09487E+00 -7.77468E+00 -8.01587E+00 -7.71319E+00 -7.67422E+00 -8.40652E+00 -8.31666E+00 -8.47076E+00
  -8.43933E+00 -8.79560E+00 -8.24054E+00 -1.01153E+01 -1.12605E+01 -8.28265E+00 -8.51821E+00 -8.29460E+00 -8.10597E+00 -8.00402E+00
  -8.03852E+00 -8.01175E+00 -9.49345E+00 -9.02081E+00 -8.37686E+00 -7.81811E+00 -1.01980E+01 -6.95830E+00
 NY points of the fit to the data follow
   5.36141E+00  5.82831E+00  5.77909E+00  6.17519E+00  6.08085E+00  6.58368E+00  6.50568E+00  7.01200E+00  6.48818E+00  6.68574E+00
   6.16250E+00  6.94471E+00  6.37827E+00  7.17326E+00  7.30118E+00  7.78457E+00  7.50814E+00  8.15571E+00  7.90867E+00  8.53854E+00
   8.41445E+00  9.28845E+00  9.45816E+00  1.03202E+01  1.01552E+01  1.09564E+01  1.08115E+01  1.13500E+01  1.13096E+01  1.19308E+01
   1.18507E+01  1.24807E+01  1.26698E+01  1.30207E+01  1.32379E+01  1.35425E+01  1.34644E+01  1.35313E+01  1.35180E+01  1.37773E+01
   1.37977E+01  1.37753E+01  1.35387E+01  1.35297E+01  1.34423E+01  1.34884E+01  1.40236E+01  1.42160E+01  1.40124E+01  1.31150E+01
   1.28659E+01  1.27313E+01  1.20011E+01  1.18129E+01  1.20708E+01  1.21981E+01  1.27539E+01  1.29896E+01  1.35831E+01  1.31500E+01
   1.34812E+01  1.31079E+01  1.35659E+01  1.31562E+01  1.35640E+01  1.31744E+01  1.35191E+01  1.31634E+01  1.37289E+01  1.29415E+01
   1.29356E+01  1.23123E+01  1.31532E+01  1.28119E+01  1.36281E+01  1.30940E+01  1.37925E+01  1.30518E+01  1.36331E+01  1.27838E+01
   1.35389E+01  1.27309E+01  1.31170E+01  1.22124E+01  1.27151E+01  1.25543E+01  1.31978E+01  1.27996E+01  1.32472E+01  1.27032E+01
   1.29117E+01  1.24480E+01  1.26205E+01  1.24026E+01  1.23812E+01  1.20090E+01  1.20254E+01  1.20543E+01  1.21113E+01  1.22850E+01
   1.21465E+01  1.21789E+01  1.18885E+01  1.20182E+01  1.17114E+01  1.16848E+01  1.10385E+01  1.12148E+01  1.10335E+01  1.15491E+01
   1.19768E+01  1.25242E+01  1.26019E+01  1.30377E+01  1.31549E+01  1.34135E+01  1.32414E+01  1.32549E+01  1.30622E+01  1.29509E+01
   1.29692E+01  1.31045E+01  1.30370E+01  1.29067E+01  1.28456E+01  1.34709E+01  1.33397E+01  1.40169E+01  1.36753E+01  1.44124E+01
   1.38141E+01  1.44445E+01  1.36218E+01  1.41966E+01  1.32921E+01  1.38497E+01  1.28123E+01  1.33597E+01  1.23654E+01  1.29307E+01
   1.17721E+01  1.22255E+01  1.10386E+01  1.13711E+01  1.01573E+01  1.03618E+01  9.20164E+00  9.24421E+00  7.76891E+00  7.72787E+00
   7.08323E+00  7.21069E+00  6.59726E+00  6.61948E+00  6.35468E+00  6.58944E+00  6.33954E+00  6.45121E+00  6.13891E+00  5.97212E+00
   5.67381E+00  5.38979E+00  5.22838E+00  5.05459E+00  4.93538E+00  4.80859E+00  4.66642E+00  4.52349E+00  4.37710E+00  4.25025E+00
   4.16345E+00  4.13554E+00  4.14574E+00  4.19314E+00  4.19901E+00  4.12446E+00  3.91108E+00  3.76147E+00  3.28480E+00  2.95044E+00
   2.63432E+00  2.42242E+00  2.23609E+00  2.34126E+00  2.52365E+00  2.76609E+00  2.91688E+00  3.32847E+00  3.43370E+00  3.66873E+00
   3.40939E+00  3.09573E+00  1.90145E+00  1.88007E+00  1.37192E+00  1.69025E+00  1.34215E+00  1.81330E+00  1.57306E+00  2.15319E+00
   1.81475E+00  2.65897E+00  2.53117E+00  3.14787E+00  2.69709E+00  3.33275E+00  2.76891E+00  3.49631E+00  3.25969E+00  3.94501E+00
   3.60944E+00  4.54314E+00  4.58422E+00  5.59994E+00  5.93217E+00  6.89410E+00  7.22337E+00  7.96298E+00  7.43626E+00  7.95888E+00
   7.43603E+00  7.89842E+00  7.67535E+00  8.63975E+00  8.64942E+00  8.85576E+00  8.85657E+00  9.38008E+00  9.66228E+00  1.03760E+01
   1.11777E+01  1.08907E+01  1.00639E+01  9.82332E+00  9.55904E+00  9.45469E+00  9.28020E+00  9.24628E+00  9.22642E+00  8.97991E+00
   9.20266E+00  8.90347E+00  9.47982E+00  9.26960E+00  9.76652E+00  9.50762E+00  9.98050E+00  9.90672E+00  1.05262E+01  1.03898E+01
   1.11162E+01  1.11017E+01  1.14544E+01  1.10029E+01  1.12844E+01  1.10559E+01  1.16909E+01  1.11163E+01  1.10085E+01  1.04754E+01
   1.01849E+01  9.70036E+00  9.60477E+00  1.01347E+01  9.85151E+00  1.00614E+01  9.81704E+00  9.90755E+00  9.41107E+00  9.37112E+00
   8.75498E+00  8.48933E+00  7.75811E+00  7.61371E+00  7.02757E+00  6.98494E+00  6.59861E+00  6.68533E+00  6.29071E+00  6.36855E+00
   5.75438E+00  5.48900E+00  5.42769E+00  5.40042E+00  5.36494E+00  5.31788E+00  5.25997E+00  5.18426E+00  5.08317E+00  4.96495E+00
   4.82148E+00  4.65110E+00  4.45901E+00  4.24912E+00  4.02285E+00  3.78939E+00  3.54303E+00  3.29906E+00  3.06113E+00  2.83429E+00
   2.61555E+00  2.41798E+00  2.23714E+00  2.08170E+00  1.94971E+00  1.84907E+00  1.78501E+00  1.78090E+00  1.88357E+00  2.09334E+00
   1.94337E+00  2.00635E+00  1.80620E+00  1.86980E+00  1.63165E+00  1.67681E+00  1.37304E+00  1.78075E+00  1.63262E+00  2.00868E+00
   1.91374E+00  2.35761E+00  2.23593E+00  2.70054E+00  2.50781E+00  3.00010E+00  2.90220E+00  3.40635E+00  3.33488E+00  4.08652E+00
   3.91553E+00  4.18765E+00  4.05457E+00  4.11508E+00  3.92612E+00  3.80207E+00  3.62066E+00  3.79027E+00  3.83118E+00  3.58261E+00
   3.68228E+00  3.40648E+00  3.58103E+00  3.15842E+00  3.31990E+00  2.76037E+00  3.05385E+00  2.24690E+00  2.89963E+00  2.35533E+00
   2.95858E+00  2.42091E+00  3.12894E+00  2.59900E+00  3.23802E+00  2.35029E+00  2.67598E+00  1.99592E+00  2.32183E+00  1.46620E+00
   1.68517E+00  9.19170E-01  1.10946E+00  4.06624E-01  5.29069E-01 -7.48577E-02  1.41557E-03 -7.57185E-01 -5.00228E-01 -4.30506E-01
  -2.39981E-01 -3.06195E-01 -2.00681E-01 -3.13861E-01 -2.77897E-01 -9.16307E-01 -1.31757E+00 -1.55241E+00 -1.70995E+00 -1.81977E+00
  -1.89505E+00 -1.94314E+00 -1.96890E+00 -1.97607E+00 -1.96794E+00 -1.94768E+00 -1.91842E+00 -1.88326E+00 -1.84522E+00 -1.80727E+00
  -1.77231E+00 -1.74320E+00 -1.72258E+00 -1.71288E+00 -1.71617E+00 -1.73423E+00 -1.76849E+00 -1.82005E+00 -1.88959E+00 -1.97737E+00
  -2.08328E+00 -2.20684E+00 -2.34723E+00 -2.50337E+00 -2.67385E+00 -2.85704E+00 -3.05116E+00 -3.25429E+00 -3.46451E+00 -3.67988E+00
  -3.89847E+00 -4.11843E+00 -4.33801E+00 -4.55563E+00 -4.76988E+00 -4.97952E+00 -5.18346E+00 -5.38079E+00 -5.57081E+00 -5.75299E+00
  -5.92694E+00 -6.09244E+00 -6.24936E+00 -6.39770E+00 -6.53754E+00 -6.66908E+00 -6.79257E+00 -6.90828E+00 -7.01652E+00 -7.11762E+00
  -7.21196E+00 -7.29991E+00 -7.38182E+00 -7.45806E+00 -7.52894E+00 -7.59482E+00 -7.65601E+00 -7.71283E+00 -7.76556E+00 -7.81445E+00
  -7.85975E+00 -7.90171E+00 -7.94055E+00 -7.97648E+00 -8.00970E+00 -8.04035E+00 -8.06862E+00 -8.09467E+00 -8.11865E+00 -8.14068E+00
  -8.16090E+00 -8.17941E+00 -8.19634E+00 -8.21179E+00 -8.22587E+00 -8.23867E+00 -8.25026E+00 -8.26074E+00 -8.27018E+00 -8.27867E+00
  -8.28628E+00 -8.29307E+00 -8.29910E+00 -8.30444E+00 -8.30915E+00 -8.31330E+00 -8.31692E+00 -8.32008E+00 -8.32282E+00 -8.32520E+00
  -8.32726E+00 -8.32907E+00 -8.33063E+00 -8.33202E+00 -8.33325E+00 -8.33440E+00 -8.33549E+00 -8.33656E+00 -8.33764E+00 -8.33878E+00
  -8.34000E+00 -8.34135E+00 -8.34286E+00 -8.34455E+00 -8.34646E+00 -8.34863E+00 -8.35108E+00 -8.35384E+00 -8.35693E+00 -8.36038E+00
  -8.36420E+00 -8.36843E+00 -8.37307E+00 -8.37812E+00 -8.38360E+00 -8.38948E+00 -8.39576E+00 -8.40237E+00
 NY background values follow
    -5.897E+00   -5.770E+00   -5.642E+00   -5.514E+00   -5.385E+00   -5.256E+00   -5.127E+00   -4.997E+00   -4.867E+00   -4.737E+00
    -4.607E+00   -4.476E+00   -4.346E+00   -4.215E+00   -4.084E+00   -3.953E+00   -3.822E+00   -3.691E+00   -3.560E+00   -3.428E+00
    -3.297E+00   -3.166E+00   -3.035E+00   -2.904E+00   -2.773E+00   -2.643E+00   -2.512E+00   -2.382E+00   -2.252E+00   -2.122E+00
    -1.992E+00   -1.863E+00   -1.734E+00   -1.605E+00   -1.477E+00   -1.349E+00   -1.221E+00   -1.094E+00   -9.673E-01   -8.410E-01
    -7.152E-01   -5.899E-01   -4.652E-01   -3.410E-01   -2.174E-01   -9.441E-02    2.795E-02    1.497E-01    2.707E-01    3.910E-01
     5.106E-01    6.295E-01    7.476E-01    8.649E-01    9.814E-01    1.097E+00    1.212E+00    1.326E+00    1.439E+00    1.551E+00
     1.662E+00    1.772E+00    1.881E+00    1.989E+00    2.096E+00    2.202E+00    2.307E+00    2.411E+00    2.513E+00    2.615E+00
     2.715E+00    2.814E+00    2.912E+00    3.009E+00    3.104E+00    3.198E+00    3.290E+00    3.382E+00    3.472E+00    3.560E+00
     3.647E+00    3.733E+00    3.817E+00    3.900E+00    3.981E+00    4.060E+00    4.138E+00    4.215E+00    4.290E+00    4.363E+00
     4.434E+00    4.504E+00    4.572E+00    4.639E+00    4.704E+00    4.766E+00    4.828E+00    4.887E+00    4.944E+00    5.000E+00
     5.054E+00    5.105E+00    5.155E+00    5.203E+00    5.250E+00    5.294E+00    5.337E+00    5.378E+00    5.417E+00    5.454E+00
     5.490E+00    5.524E+00    5.556E+00    5.587E+00    5.616E+00    5.644E+00    5.670E+00    5.694E+00    5.717E+00    5.738E+00
     5.758E+00    5.776E+00    5.793E+00    5.808E+00    5.822E+00    5.834E+00    5.845E+00    5.855E+00    5.864E+00    5.871E+00
     5.876E+00    5.881E+00    5.884E+00    5.886E+00    5.887E+00    5.886E+00    5.885E+00    5.882E+00    5.878E+00    5.873E+00
     5.866E+00    5.859E+00    5.851E+00    5.841E+00    5.831E+00    5.819E+00    5.807E+00    5.793E+00    5.779E+00    5.764E+00
     5.747E+00    5.730E+00    5.712E+00    5.694E+00    5.674E+00    5.654E+00    5.632E+00    5.610E+00    5.588E+00    5.564E+00
     5.540E+00    5.515E+00    5.489E+00    5.463E+00    5.436E+00    5.409E+00    5.381E+00    5.352E+00    5.323E+00    5.294E+00
     5.263E+00    5.233E+00    5.202E+00    5.170E+00    5.138E+00    5.106E+00    5.073E+00    5.040E+00    5.006E+00    4.972E+00
     4.938E+00    4.904E+00    4.869E+00    4.834E+00    4.799E+00    4.763E+00    4.728E+00    4.692E+00    4.656E+00    4.620E+00
     4.584E+00    4.548E+00    4.512E+00    4.475E+00    4.439E+00    4.403E+00    4.366E+00    4.330E+00    4.294E+00    4.257E+00
     4.221E+00    4.185E+00    4.149E+00    4.113E+00    4.077E+00    4.042E+00    4.006E+00    3.970E+00    3.934E+00    3.898E+00
     3.863E+00    3.827E+00    3.791E+00    3.755E+00    3.719E+00    3.683E+00    3.647E+00    3.611E+00    3.574E+00    3.538E+00
     3.502E+00    3.465E+00    3.428E+00    3.391E+00    3.354E+00    3.317E+00    3.280E+00    3.242E+00    3.205E+00    3.167E+00
     3.129E+00    3.090E+00    3.052E+00    3.013E+00    2.974E+00    2.934E+00    2.895E+00    2.855E+00    2.815E+00    2.774E+00
     2.733E+00    2.692E+00    2.651E+00    2.609E+00    2.567E+00    2.524E+00    2.481E+00    2.438E+00    2.395E+00    2.350E+00
     2.306E+00    2.261E+00    2.216E+00    2.170E+00    2.124E+00    2.077E+00    2.030E+00    1.983E+00    1.935E+00    1.886E+00
     1.837E+00    1.787E+00    1.737E+00    1.686E+00    1.635E+00    1.583E+00    1.531E+00    1.478E+00    1.425E+00    1.371E+00
     1.316E+00    1.261E+00    1.205E+00    1.148E+00    1.091E+00    1.033E+00    9.743E-01    9.151E-01    8.551E-01    7.945E-01
     7.332E-01    6.711E-01    6.084E-01    5.449E-01    4.806E-01    4.156E-01    3.498E-01    2.833E-01    2.159E-01    1.478E-01
     7.884E-02    9.079E-03   -6.150E-02   -1.329E-01   -2.052E-01   -2.783E-01   -3.523E-01   -4.271E-01   -5.029E-01   -5.795E-01
    -6.570E-01   -7.354E-01   -8.146E-01   -8.946E-01   -9.753E-01   -1.057E+00   -1.139E+00   -1.222E+00   -1.306E+00   -1.390E+00
    -1.475E+00   -1.560E+00   -1.646E+00   -1.733E+00   -1.820E+00   -1.908E+00   -1.996E+00   -2.085E+00   -2.174E+00   -2.263E+00
    -2.353E+00   -2.443E+00   -2.533E+00   -2.624E+00   -2.715E+00   -2.807E+00   -2.898E+00   -2.990E+00   -3.082E+00   -3.174E+00
    -3.266E+00   -3.358E+00   -3.451E+00   -3.543E+00   -3.636E+00   -3.728E+00   -3.820E+00   -3.913E+00   -4.005E+00   -4.097E+00
    -4.189E+00   -4.281E+00   -4.373E+00   -4.465E+00   -4.556E+00   -4.647E+00   -4.738E+00   -4.828E+00   -4.918E+00   -5.008E+00
    -5.098E+00   -5.187E+00   -5.276E+00   -5.364E+00   -5.451E+00   -5.539E+00   -5.625E+00   -5.711E+00   -5.797E+00   -5.882E+00
    -5.966E+00   -6.050E+00   -6.133E+00   -6.215E+00   -6.297E+00   -6.378E+00   -6.458E+00   -6.537E+00   -6.616E+00   -6.693E+00
    -6.770E+00   -6.846E+00   -6.921E+00   -6.995E+00   -7.068E+00   -7.140E+00   -7.211E+00   -7.281E+00   -7.350E+00   -7.417E+00
    -7.484E+00   -7.550E+00   -7.614E+00   -7.677E+00   -7.739E+00   -7.799E+00   -7.859E+00   -7.917E+00   -7.974E+00   -8.029E+00
    -8.083E+00   -8.136E+00   -8.187E+00   -8.237E+00   -8.285E+00   -8.332E+00   -8.377E+00   -8.421E+00   -8.463E+00   -8.503E+00
    -8.542E+00   -8.580E+00   -8.616E+00   -8.650E+00   -8.683E+00   -8.715E+00   -8.745E+00   -8.774E+00   -8.801E+00   -8.827E+00
    -8.852E+00   -8.875E+00   -8.898E+00   -8.919E+00   -8.938E+00   -8.957E+00   -8.974E+00   -8.991E+00   -9.006E+00   -9.020E+00
    -9.033E+00   -9.045E+00   -9.056E+00   -9.066E+00   -9.075E+00   -9.083E+00   -9.090E+00   -9.096E+00   -9.101E+00   -9.105E+00
    -9.109E+00   -9.112E+00   -9.114E+00   -9.115E+00   -9.116E+00   -9.115E+00   -9.115E+00   -9.113E+00   -9.111E+00   -9.108E+00
    -9.105E+00   -9.101E+00   -9.096E+00   -9.091E+00   -9.086E+00   -9.080E+00   -9.074E+00   -9.067E+00   -9.060E+00   -9.052E+00
    -9.044E+00   -9.036E+00   -9.028E+00   -9.019E+00   -9.010E+00   -9.000E+00   -8.991E+00   -8.981E+00   -8.972E+00   -8.962E+00
    -8.952E+00   -8.942E+00   -8.931E+00   -8.921E+00   -8.911E+00   -8.901E+00   -8.891E+00   -8.881E+00   -8.871E+00   -8.861E+00
    -8.851E+00   -8.842E+00   -8.832E+00   -8.823E+00   -8.814E+00   -8.806E+00   -8.797E+00   -8.789E+00   -8.781E+00   -8.774E+00
    -8.767E+00   -8.761E+00   -8.754E+00   -8.749E+00   -8.743E+00   -8.739E+00   -8.735E+00   -8.731E+00   -8.728E+00   -8.725E+00
    -8.724E+00   -8.722E+00   -8.722E+00   -8.722E+00   -8.723E+00   -8.725E+00   -8.727E+00   -8.730E+00
 Ala      Conc. = 6.27E+02
