 LCModel (Version 6.3-1L) Copyright: S.W. Provencher.          Ref.: Magn. Reson. Med. 30:672-679 (1993).                
 Slice#2 Row#11 Col#11  PD_05_press_1_raw_act
 36 lines in following concentration table = NCONC+1
    Conc.  %SD /Cr+PCr  Metabolite                                         
  200.997  44%   0.252 Ala                                                 
    0.000 999%   0.000 Asp                                                 
  454.829  36%   0.571 Cr                                                  
  342.312  48%   0.429 PCr                                                 
   22.047 439% 2.8E-02 GABA                                                
    0.000 999%   0.000 Glc                                                 
  841.516  23%   1.056 Gln                                                 
 1.18E+03  19%   1.483 Glu                                                 
  232.839   6%   0.292 GPC                                                 
    0.000 999%   0.000 PCh                                                 
  230.255  20%   0.289 GSH                                                 
  989.322  15%   1.241 Ins                                                 
   86.122 157%   0.108 Lac                                                 
 1.42E+03   7%   1.779 NAA                                                 
  105.760 108%   0.133 NAAG                                                
   92.792  18%   0.116 Scyllo                                              
  114.036  99%   0.143 Tau                                                 
  274.232  24%   0.344 -CrCH2                                              
  232.839   6%   0.292 GPC+PCh                                             
 1.52E+03   3%   1.912 NAA+NAAG                                            
  797.142   4%   1.000 Cr+PCr                                              
 2.02E+03  17%   2.539 Glu+Gln                                             
    0.000 999%   0.000 Lip13a                                              
  283.712  30%   0.356 Lip13b                                              
   65.906  55% 8.3E-02 Lip09                                               
  581.213  14%   0.729 MM09                                                
   46.728  50% 5.9E-02 Lip20                                               
 1.50E+03  12%   1.876 MM20                                                
   90.100  75%   0.113 MM12                                                
  871.081  19%   1.093 MM14                                                
  488.839  21%   0.613 MM17                                                
  283.712  30%   0.356 Lip13a+Lip13b                                       
 1.24E+03  11%   1.562 MM14+Lip13a+Lip13b+MM12                             
  647.119  12%   0.812 MM09+Lip09                                          
 1.54E+03  11%   1.934 MM20+Lip20                                          
   6 lines in following misc. output table
  FWHM = 0.069 ppm    S/N =  12                                            
  Data shift = 0.015 ppm                                                   
  Ph: -30 deg     -14.5 deg/ppm                                            
  alphaB,S = 8.5E+01,   2.8E+02                                            
   14 spline knots.   Ns = 9(1)                                            
   3 inflections.     1 extrema                                            
  498 points on ppm-axis = NY
      4.000000     3.992357     3.984714     3.977070     3.969427     3.961784     3.954141     3.946497     3.938854     3.931211
      3.923568     3.915925     3.908281     3.900638     3.892995     3.885352     3.877708     3.870065     3.862422     3.854779
      3.847136     3.839492     3.831849     3.824206     3.816563     3.808919     3.801276     3.793633     3.785990     3.778347
      3.770703     3.763060     3.755417     3.747774     3.740130     3.732487     3.724844     3.717201     3.709558     3.701914
      3.694271     3.686628     3.678985     3.671341     3.663698     3.656055     3.648412     3.640769     3.633125     3.625482
      3.617839     3.610196     3.602552     3.594909     3.587266     3.579623     3.571980     3.564336     3.556693     3.549050
      3.541407     3.533763     3.526120     3.518477     3.510834     3.503191     3.495547     3.487904     3.480261     3.472618
      3.464974     3.457331     3.449688     3.442045     3.434402     3.426758     3.419115     3.411472     3.403829     3.396185
      3.388542     3.380899     3.373256     3.365613     3.357969     3.350326     3.342683     3.335040     3.327396     3.319753
      3.312110     3.304467     3.296824     3.289180     3.281537     3.273894     3.266251     3.258607     3.250964     3.243321
      3.235678     3.228034     3.220391     3.212748     3.205105     3.197462     3.189818     3.182175     3.174532     3.166889
      3.159245     3.151602     3.143959     3.136316     3.128673     3.121029     3.113386     3.105743     3.098100     3.090456
      3.082813     3.075170     3.067527     3.059884     3.052240     3.044597     3.036954     3.029311     3.021667     3.014024
      3.006381     2.998738     2.991095     2.983451     2.975808     2.968165     2.960522     2.952878     2.945235     2.937592
      2.929949     2.922306     2.914662     2.907019     2.899376     2.891733     2.884089     2.876446     2.868803     2.861160
      2.853517     2.845873     2.838230     2.830587     2.822944     2.815300     2.807657     2.800014     2.792371     2.784728
      2.777084     2.769441     2.761798     2.754155     2.746511     2.738868     2.731225     2.723582     2.715939     2.708295
      2.700652     2.693009     2.685366     2.677722     2.670079     2.662436     2.654793     2.647150     2.639506     2.631863
      2.624220     2.616577     2.608933     2.601290     2.593647     2.586004     2.578361     2.570717     2.563074     2.555431
      2.547788     2.540144     2.532501     2.524858     2.517215     2.509572     2.501928     2.494285     2.486642     2.478999
      2.471355     2.463712     2.456069     2.448426     2.440783     2.433139     2.425496     2.417853     2.410210     2.402566
      2.394923     2.387280     2.379637     2.371994     2.364350     2.356707     2.349064     2.341421     2.333777     2.326134
      2.318491     2.310848     2.303205     2.295561     2.287918     2.280275     2.272632     2.264988     2.257345     2.249702
      2.242059     2.234416     2.226772     2.219129     2.211486     2.203843     2.196199     2.188556     2.180913     2.173270
      2.165627     2.157983     2.150340     2.142697     2.135054     2.127410     2.119767     2.112124     2.104481     2.096838
      2.089194     2.081551     2.073908     2.066265     2.058621     2.050978     2.043335     2.035692     2.028049     2.020405
      2.012762     2.005119     1.997476     1.989833     1.982190     1.974546     1.966903     1.959260     1.951617     1.943974
      1.936331     1.928688     1.921045     1.913402     1.905759     1.898115     1.890472     1.882829     1.875186     1.867543
      1.859900     1.852257     1.844614     1.836971     1.829327     1.821684     1.814041     1.806398     1.798755     1.791112
      1.783469     1.775826     1.768183     1.760540     1.752896     1.745253     1.737610     1.729967     1.722324     1.714681
      1.707038     1.699395     1.691752     1.684108     1.676465     1.668822     1.661179     1.653536     1.645893     1.638250
      1.630607     1.622964     1.615321     1.607677     1.600034     1.592391     1.584748     1.577105     1.569462     1.561819
      1.554176     1.546533     1.538890     1.531246     1.523603     1.515960     1.508317     1.500674     1.493031     1.485388
      1.477745     1.470102     1.462458     1.454815     1.447172     1.439529     1.431886     1.424243     1.416600     1.408957
      1.401314     1.393671     1.386027     1.378384     1.370741     1.363098     1.355455     1.347812     1.340169     1.332526
      1.324883     1.317240     1.309596     1.301953     1.294310     1.286667     1.279024     1.271381     1.263738     1.256095
      1.248452     1.240808     1.233165     1.225522     1.217879     1.210236     1.202593     1.194950     1.187307     1.179664
      1.172021     1.164377     1.156734     1.149091     1.141448     1.133805     1.126162     1.118519     1.110876     1.103233
      1.095590     1.087946     1.080303     1.072660     1.065017     1.057374     1.049731     1.042088     1.034445     1.026802
      1.019158     1.011515     1.003872     0.996229     0.988586     0.980943     0.973300     0.965657     0.958014     0.950371
      0.942727     0.935084     0.927441     0.919798     0.912155     0.904512     0.896869     0.889226     0.881583     0.873940
      0.866296     0.858653     0.851010     0.843367     0.835724     0.828081     0.820438     0.812795     0.805152     0.797508
      0.789865     0.782222     0.774579     0.766936     0.759293     0.751650     0.744007     0.736364     0.728721     0.721077
      0.713434     0.705791     0.698148     0.690505     0.682862     0.675219     0.667576     0.659933     0.652290     0.644646
      0.637003     0.629360     0.621717     0.614074     0.606431     0.598788     0.591145     0.583502     0.575858     0.568215
      0.560572     0.552929     0.545286     0.537643     0.530000     0.522357     0.514714     0.507071     0.499427     0.491784
      0.484141     0.476498     0.468855     0.461212     0.453569     0.445925     0.438282     0.430639     0.422996     0.415353
      0.407710     0.400067     0.392424     0.384780     0.377137     0.369494     0.361851     0.354208     0.346565     0.338922
      0.331278     0.323635     0.315992     0.308349     0.300706     0.293063     0.285420     0.277777     0.270133     0.262490
      0.254847     0.247204     0.239561     0.231918     0.224275     0.216631     0.208988     0.201345
 NY phased data points follow
   3.66960E+00  4.60833E+00  4.25560E+00  5.95186E+00  3.65163E+00  5.54063E+00  5.00615E+00  8.09939E+00  6.18153E+00  9.91657E+00
   1.12430E+01  1.01225E+01  1.16917E+01  1.07070E+01  1.11229E+01  1.01109E+01  8.24728E+00  6.86391E+00  7.19566E+00  2.76601E+00
   4.40485E+00  4.86467E+00  5.85729E+00  4.26046E+00  4.96569E+00  5.60260E+00  5.74107E+00  6.52049E+00  5.05291E+00  6.71298E+00
   6.37844E+00  4.17395E+00  6.14849E+00  6.73002E+00  5.57951E+00  4.92674E+00  5.79414E+00  5.04116E+00  5.98105E+00  4.29034E+00
   6.67469E+00  5.63600E+00  7.79005E+00  6.50440E+00  7.59427E+00  7.16872E+00  8.69384E+00  6.26416E+00  8.18349E+00  7.71813E+00
   8.09258E+00  8.34880E+00  7.56044E+00  5.01855E+00  6.07599E+00  5.30712E+00  5.48074E+00  3.67407E+00  5.91977E+00  3.00529E+00
   3.25865E+00  5.51054E+00  2.87705E+00  2.99220E+00  9.73247E-01  1.59076E+00  8.94560E-01 -2.41729E-01  3.55317E+00  3.83216E+00
   1.75593E+00  2.36121E+00  2.74107E+00  1.28988E+00  2.45036E+00  5.04522E+00  6.34080E+00  2.67837E+00  2.43844E+00  2.96449E+00
   3.12603E+00  2.13557E+00  1.65991E+00  2.78150E+00  3.04023E+00  3.47869E+00  4.27953E+00  5.26052E+00  3.97901E+00  5.15188E+00
   5.02183E+00  5.72564E+00  2.70924E+00  4.64816E+00  5.56064E+00  6.63297E+00  8.14620E+00  8.59440E+00  1.01896E+01  1.04365E+01
   1.27628E+01  1.26054E+01  1.48241E+01  1.64434E+01  1.71588E+01  1.65257E+01  1.52709E+01  1.13492E+01  1.19909E+01  6.74348E+00
   4.95017E+00  4.71750E+00  5.18454E+00  3.28560E+00  1.41745E+00  6.71898E+00  4.51593E+00  3.41448E+00  7.50705E+00  7.08094E+00
   7.76969E+00  9.72020E+00  9.64849E+00  9.72545E+00  1.44336E+01  1.75033E+01  1.97483E+01  2.21865E+01  2.54261E+01  2.34136E+01
   1.94012E+01  1.78235E+01  1.35434E+01  8.51302E+00  5.41944E+00  5.81802E+00  1.40337E+00  4.35783E+00  4.14068E+00  2.45276E+00
   2.82891E+00  1.12503E+00  5.07243E+00  2.32763E+00  2.96667E+00  3.55526E+00  3.51408E+00  3.64890E+00  3.21682E+00  2.55859E+00
   4.81683E+00  2.37351E+00  5.43744E+00  3.15788E+00  2.97529E+00  2.68795E+00  3.83573E+00  4.13072E+00  1.83056E+00  4.27806E-01
   8.62559E-01  5.93996E-01  2.65033E+00  1.24551E+00  6.26544E-01 -7.02745E-01 -1.35481E+00 -1.66320E+00 -5.31805E-01 -3.05595E+00
  -1.61764E+00 -3.93590E+00 -3.42599E+00 -4.72003E+00 -5.44527E+00 -5.28321E+00 -3.88980E+00 -8.18358E+00 -5.18222E+00 -4.37947E+00
  -2.51646E+00 -5.52048E+00 -2.33244E+00 -1.60239E+00 -1.41208E+00 -2.22252E+00 -2.80236E+00 -3.89667E+00 -3.27665E+00 -3.90970E+00
  -1.30483E+00  7.98920E-01  9.76027E-02 -1.16362E+00 -6.28330E-01 -2.09586E-01 -3.03962E+00 -2.23722E+00 -2.36402E+00 -2.32350E+00
  -9.33585E-01 -2.23758E+00  1.23801E-01  1.40021E+00  3.20558E+00  4.62931E-01  4.01233E+00  1.76449E-01  3.84905E-01  1.34284E+00
   2.45854E+00  2.01031E+00  2.92078E+00  3.61562E+00  7.48745E+00  3.62388E+00  7.49838E+00  8.45109E+00  5.97184E+00  5.32326E+00
   1.97907E+00  2.94930E+00  7.94765E-01  9.50053E-01  4.53804E-01  1.32490E+00  1.22606E+00  4.37053E+00  4.00538E+00  5.67613E+00
   5.42454E+00  6.13519E+00  5.70826E+00  5.80926E+00  6.43737E+00  5.57663E+00  4.39258E+00  6.17252E+00  2.38131E+00  6.90535E+00
   3.39868E+00  2.83691E+00  3.60894E+00  3.95342E+00  3.48341E+00  4.06446E+00  4.00159E+00  6.33554E+00  8.35727E+00  1.00368E+01
   1.00368E+01  1.18093E+01  1.40975E+01  1.88710E+01  1.93743E+01  2.67955E+01  3.06825E+01  3.24409E+01  3.56882E+01  4.25820E+01
   4.43341E+01  4.27297E+01  4.25912E+01  3.71028E+01  3.12978E+01  2.24055E+01  1.72180E+01  1.07352E+01  9.63900E+00  5.99197E+00
   3.14536E+00  4.41313E+00  6.35653E+00  5.54731E+00  6.41077E+00  5.20639E+00  6.21493E-01  4.97632E+00  4.47866E+00  2.78773E+00
   3.90098E+00  4.69547E+00  3.91379E+00  1.95931E+00  3.26692E+00  2.74721E+00  4.30001E+00  3.67469E+00  2.38117E+00  2.66671E+00
   3.47839E+00  3.66642E+00  3.65174E+00  3.46384E+00  3.90337E+00  3.65253E+00  3.39673E+00  3.00503E+00  2.75943E+00  4.37686E+00
   3.29195E+00  3.28250E+00  2.97930E+00  4.85813E+00  3.60341E+00  4.71718E+00  3.83481E+00  3.16789E+00  4.82424E+00  4.87019E+00
   4.63816E+00  4.19202E+00  1.28088E+00  3.44448E+00  2.55150E+00  2.57263E+00  2.35192E+00  3.47596E+00  4.06107E+00  2.49955E+00
   5.84971E+00  3.24735E+00  3.23164E+00  2.92324E+00  3.02299E+00  4.26167E+00  2.17505E+00  3.90462E+00  2.97098E+00  3.41368E+00
   3.78468E+00  2.65470E+00  3.90495E+00  4.43117E+00  5.44624E+00  6.92730E+00  6.86300E+00  8.26226E+00  5.18804E+00  5.66454E+00
   9.06154E+00  7.08049E+00  8.61367E+00  8.39448E+00  8.47589E+00  8.01259E+00  8.22691E+00  6.89282E+00  9.09387E+00  6.34556E+00
   5.45422E+00  7.35836E+00  7.15647E+00  6.51727E+00  5.47583E+00  7.82943E+00  6.04568E+00  6.71869E+00  4.60127E+00  5.17247E+00
   4.57268E+00  3.96801E+00  3.04238E+00  1.67359E+00 -3.11728E-01  9.53037E-01  1.08495E+00  1.30963E+00  4.68761E-01 -2.39644E-01
   1.74644E+00  7.17076E-01  2.00795E+00  4.64874E-01 -3.54723E-01 -2.55126E+00  6.40866E-01 -6.78557E-01  1.06309E+00 -8.23938E-01
   3.79638E-01 -3.43301E-01  2.61732E-01  1.97382E+00  1.58254E-01  1.44929E-01 -5.02520E-01  9.87791E-01  5.54913E-01  1.97031E+00
   3.71543E+00  1.82792E+00  1.50924E+00  2.94684E+00  8.13689E-01  2.33317E+00  4.32843E+00  4.08999E+00  5.57089E+00  3.73481E+00
   4.81225E+00  3.29992E+00  5.59100E+00  4.44378E+00  4.97085E+00  4.78221E+00  5.21417E+00  3.95638E+00  3.01455E+00  3.35044E+00
   5.89054E+00  6.37294E+00  3.58520E+00  2.80983E+00  3.41367E+00  3.10014E+00  3.09842E+00  1.63469E+00  3.06890E+00  2.07263E+00
   2.64259E+00 -1.86658E-01  1.97097E+00  6.65071E-01  3.12614E+00  8.06558E-01  2.91668E-01  1.43035E+00  1.82477E+00  3.51651E-01
  -5.36242E-01  8.33386E-01  9.79692E-01  2.10537E+00  2.72776E+00  2.09869E+00  1.40529E+00  3.07716E+00  1.05954E+00  7.87156E-01
   2.00907E+00  2.68677E+00  1.87957E+00  1.19900E+00  8.51825E-02  2.64348E-01 -4.89736E-01 -2.44546E-01  2.64725E-01 -1.20434E+00
  -1.14425E+00 -9.39497E-01 -1.10454E+00 -2.30013E+00 -1.32926E+00 -7.01647E-01 -1.13353E+00  4.29034E-01 -2.21098E-01 -1.11004E+00
   6.95394E-01  1.14416E+00 -3.10140E-01  9.61274E-03 -6.89306E-01 -4.08042E-01 -6.15013E-01 -9.94720E-01  1.59531E+00 -3.13137E+00
  -4.13394E-01  9.76797E-01  1.37432E+00  1.44234E+00 -1.92901E-01 -6.67135E-01 -8.20409E-01  7.81813E-01 -6.10488E-01 -7.93654E-01
   6.20571E-01 -9.03785E-01 -8.35171E-01  2.77853E+00 -9.34018E-02  1.10251E+00 -4.64775E-01  1.84995E+00  8.15529E-01  4.94492E-02
  -5.11237E-01 -1.10053E+00 -1.00815E+00  1.83491E-01  3.47054E-02 -6.72440E-02  1.60085E+00  8.98754E-02
 NY points of the fit to the data follow
   3.47443E+00  3.20560E+00  3.33743E+00  3.87245E+00  4.60026E+00  5.39906E+00  6.27265E+00  7.25084E+00  8.32616E+00  9.43305E+00
   1.04437E+01  1.11774E+01  1.14738E+01  1.12580E+01  1.05525E+01  9.48339E+00  8.23018E+00  6.96845E+00  5.87335E+00  4.98396E+00
   4.34790E+00  4.07142E+00  4.11455E+00  4.31307E+00  4.54657E+00  4.80647E+00  5.10266E+00  5.42304E+00  5.82318E+00  6.37399E+00
   7.00586E+00  7.58833E+00  7.98719E+00  8.07687E+00  7.79423E+00  7.14598E+00  6.24144E+00  5.29810E+00  4.58668E+00  4.27220E+00
   4.33300E+00  4.64939E+00  5.10271E+00  5.63893E+00  6.23699E+00  6.87751E+00  7.49523E+00  7.96953E+00  8.17116E+00  7.99996E+00
   7.45497E+00  6.63471E+00  5.67959E+00  4.76112E+00  4.01231E+00  3.50618E+00  3.25464E+00  3.22885E+00  3.38683E+00  3.64562E+00
   3.90140E+00  4.05513E+00  4.05319E+00  3.92290E+00  3.70061E+00  3.43388E+00  3.20366E+00  3.08573E+00  3.09220E+00  3.19438E+00
   3.35567E+00  3.52541E+00  3.65568E+00  3.72493E+00  3.72040E+00  3.63747E+00  3.48717E+00  3.31306E+00  3.24442E+00  3.29440E+00
   3.35200E+00  3.39745E+00  3.47178E+00  3.61668E+00  3.83683E+00  4.10615E+00  4.35952E+00  4.51917E+00  4.51188E+00  4.29943E+00
   3.91061E+00  3.41439E+00  2.94881E+00  2.88730E+00  3.68981E+00  4.99018E+00  6.34714E+00  7.66064E+00  9.02474E+00  1.05500E+01
   1.23012E+01  1.42154E+01  1.60039E+01  1.72518E+01  1.76054E+01  1.68816E+01  1.51301E+01  1.26570E+01  9.92359E+00  7.38164E+00
   5.32947E+00  3.83714E+00  2.82651E+00  2.22514E+00  1.95430E+00  1.84312E+00  1.84992E+00  2.23635E+00  3.53912E+00  5.40259E+00
   7.29906E+00  9.11253E+00  1.09692E+01  1.30302E+01  1.54112E+01  1.80136E+01  2.04349E+01  2.21433E+01  2.27026E+01  2.18947E+01
   1.98009E+01  1.67874E+01  1.34122E+01  1.02113E+01  7.53878E+00  5.50719E+00  4.05351E+00  3.12234E+00  2.67396E+00  2.51783E+00
   2.52044E+00  2.60416E+00  2.69589E+00  2.74047E+00  2.71123E+00  2.60091E+00  2.42578E+00  2.22589E+00  2.03214E+00  1.86142E+00
   1.72136E+00  1.58728E+00  1.41914E+00  1.23735E+00  1.07682E+00  9.67497E-01  9.17836E-01  8.65478E-01  7.68140E-01  6.24553E-01
   4.57141E-01  2.95991E-01  1.71549E-01  9.68750E-02  5.36200E-02 -1.69480E-03 -1.22156E-01 -3.54260E-01 -6.58071E-01 -9.53354E-01
  -1.20479E+00 -1.42440E+00 -1.65070E+00 -1.86393E+00 -2.03615E+00 -2.14805E+00 -2.20148E+00 -2.22015E+00 -2.22901E+00 -2.18777E+00
  -2.07217E+00 -1.89386E+00 -1.67199E+00 -1.42206E+00 -1.16907E+00 -9.05609E-01 -6.20271E-01 -2.98368E-01  6.70941E-02  4.32886E-01
   7.74077E-01  1.06795E+00  1.28498E+00  1.39761E+00  1.42796E+00  1.47328E+00  1.59029E+00  1.81085E+00  2.13944E+00  2.51651E+00
   2.82493E+00  3.02542E+00  3.15872E+00  3.13364E+00  2.80605E+00  2.18048E+00  1.35016E+00  5.26965E-01 -1.26899E-01 -5.69632E-01
  -6.86131E-01 -3.70063E-01  3.80293E-01  1.39626E+00  2.44095E+00  3.37247E+00  4.07683E+00  4.36668E+00  4.12090E+00  3.35077E+00
   2.20017E+00  9.49590E-01 -8.73043E-02 -6.53036E-01 -5.92844E-01  5.07845E-02  1.05062E+00  2.21206E+00  3.35422E+00  4.26514E+00
   4.84382E+00  5.13495E+00  5.19944E+00  5.08002E+00  4.88470E+00  4.77510E+00  4.85159E+00  5.08486E+00  5.34982E+00  5.51533E+00
   5.49895E+00  5.28396E+00  4.91587E+00  4.52700E+00  4.30711E+00  4.38051E+00  4.78136E+00  5.52697E+00  6.49708E+00  7.51373E+00
   8.83504E+00  1.15746E+01  1.54045E+01  1.92452E+01  2.27724E+01  2.61620E+01  2.96395E+01  3.33306E+01  3.71632E+01  4.06318E+01
   4.29081E+01  4.32500E+01  4.12698E+01  3.70306E+01  3.11263E+01  2.45442E+01  1.83205E+01  1.32051E+01  9.44241E+00  6.85705E+00
   5.22783E+00  4.41940E+00  4.04655E+00  3.82307E+00  3.67963E+00  3.58491E+00  3.50786E+00  3.42219E+00  3.31914E+00  3.19735E+00
   3.06560E+00  2.93976E+00  2.83453E+00  2.75891E+00  2.71747E+00  2.70969E+00  2.72982E+00  2.77034E+00  2.82565E+00  2.89289E+00
   2.97078E+00  3.05865E+00  3.15518E+00  3.25869E+00  3.36617E+00  3.47323E+00  3.57503E+00  3.66738E+00  3.74702E+00  3.81153E+00
   3.85921E+00  3.88871E+00  3.89910E+00  3.88984E+00  3.86071E+00  3.81198E+00  3.74494E+00  3.66198E+00  3.56668E+00  3.46334E+00
   3.35687E+00  3.25267E+00  3.15643E+00  3.07406E+00  3.01221E+00  2.97884E+00  2.98544E+00  3.05435E+00  3.21567E+00  3.40163E+00
   3.53696E+00  3.63221E+00  3.71731E+00  3.80259E+00  3.87328E+00  3.89483E+00  3.88997E+00  3.88805E+00  3.84754E+00  3.75629E+00
   3.65920E+00  3.63797E+00  3.77952E+00  4.14376E+00  4.73137E+00  5.47226E+00  6.25557E+00  6.97921E+00  7.57097E+00  7.94604E+00
   8.06164E+00  7.97278E+00  7.76899E+00  7.52899E+00  7.29668E+00  7.09044E+00  6.95354E+00  6.89307E+00  6.86628E+00  6.84751E+00
   6.83055E+00  6.81745E+00  6.81013E+00  6.80065E+00  6.76258E+00  6.65281E+00  6.42883E+00  6.06859E+00  5.57644E+00  4.97530E+00
   4.30995E+00  3.64164E+00  3.02544E+00  2.49773E+00  2.07129E+00  1.74296E+00  1.50519E+00  1.34027E+00  1.22697E+00  1.14983E+00
   1.09784E+00  1.06323E+00  1.04090E+00  1.02761E+00  1.02161E+00  1.02202E+00  1.02865E+00  1.04162E+00  1.06137E+00  1.08844E+00
   1.12357E+00  1.16756E+00  1.22136E+00  1.28588E+00  1.36213E+00  1.45106E+00  1.55364E+00  1.67071E+00  1.80300E+00  1.95091E+00
   2.11457E+00  2.29366E+00  2.48740E+00  2.69440E+00  2.91262E+00  3.13928E+00  3.37093E+00  3.60345E+00  3.83215E+00  4.05186E+00
   4.25714E+00  4.44241E+00  4.60231E+00  4.73188E+00  4.82687E+00  4.88386E+00  4.90056E+00  4.87582E+00  4.80987E+00  4.70415E+00
   4.56141E+00  4.38533E+00  4.18056E+00  3.95230E+00  3.70621E+00  3.44802E+00  3.18336E+00  2.91746E+00  2.65506E+00  2.40021E+00
   2.15630E+00  1.92589E+00  1.71083E+00  1.51220E+00  1.33053E+00  1.16577E+00  1.01750E+00  8.84888E-01  7.66945E-01  6.62450E-01
   5.70189E-01  4.88887E-01  4.17365E-01  3.54431E-01  2.99035E-01  2.50164E-01  2.06985E-01  1.68714E-01  1.34719E-01  1.04381E-01
   7.72190E-02  5.27708E-02  3.07133E-02  1.07158E-02 -7.45456E-03 -2.40674E-02 -3.92945E-02 -5.33308E-02 -6.62727E-02 -7.82653E-02
  -8.93872E-02 -9.97733E-02 -1.09475E-01 -1.18583E-01 -1.27113E-01 -1.35146E-01 -1.42705E-01 -1.49875E-01 -1.56658E-01 -1.63108E-01
  -1.69211E-01 -1.75030E-01 -1.80567E-01 -1.85879E-01 -1.90946E-01 -1.95803E-01 -2.00431E-01 -2.04880E-01 -2.09145E-01 -2.13267E-01
  -2.17214E-01 -2.21015E-01 -2.24647E-01 -2.28159E-01 -2.31532E-01 -2.34797E-01 -2.37915E-01 -2.40917E-01 -2.43780E-01 -2.46550E-01
  -2.49199E-01 -2.51752E-01 -2.54165E-01 -2.56471E-01 -2.58645E-01 -2.60727E-01 -2.62678E-01 -2.64513E-01 -2.66191E-01 -2.67742E-01
  -2.69138E-01 -2.70406E-01 -2.71495E-01 -2.72413E-01 -2.73110E-01 -2.73611E-01 -2.73869E-01 -2.73887E-01
 NY background values follow
     9.480E-01    9.460E-01    9.441E-01    9.421E-01    9.402E-01    9.382E-01    9.363E-01    9.343E-01    9.323E-01    9.304E-01
     9.284E-01    9.265E-01    9.245E-01    9.226E-01    9.206E-01    9.187E-01    9.167E-01    9.147E-01    9.128E-01    9.108E-01
     9.088E-01    9.069E-01    9.049E-01    9.030E-01    9.010E-01    8.990E-01    8.971E-01    8.951E-01    8.931E-01    8.912E-01
     8.892E-01    8.872E-01    8.852E-01    8.833E-01    8.813E-01    8.793E-01    8.774E-01    8.754E-01    8.734E-01    8.714E-01
     8.695E-01    8.675E-01    8.655E-01    8.635E-01    8.615E-01    8.596E-01    8.576E-01    8.556E-01    8.536E-01    8.516E-01
     8.497E-01    8.477E-01    8.457E-01    8.437E-01    8.417E-01    8.397E-01    8.377E-01    8.357E-01    8.338E-01    8.318E-01
     8.298E-01    8.278E-01    8.258E-01    8.238E-01    8.218E-01    8.198E-01    8.178E-01    8.158E-01    8.138E-01    8.118E-01
     8.099E-01    8.079E-01    8.059E-01    8.039E-01    8.019E-01    7.999E-01    7.979E-01    7.959E-01    7.939E-01    7.919E-01
     7.899E-01    7.879E-01    7.859E-01    7.839E-01    7.818E-01    7.798E-01    7.778E-01    7.758E-01    7.738E-01    7.718E-01
     7.698E-01    7.678E-01    7.658E-01    7.638E-01    7.618E-01    7.598E-01    7.578E-01    7.557E-01    7.537E-01    7.517E-01
     7.497E-01    7.477E-01    7.457E-01    7.437E-01    7.416E-01    7.396E-01    7.376E-01    7.356E-01    7.336E-01    7.316E-01
     7.295E-01    7.275E-01    7.255E-01    7.235E-01    7.215E-01    7.194E-01    7.174E-01    7.154E-01    7.134E-01    7.114E-01
     7.093E-01    7.073E-01    7.053E-01    7.033E-01    7.012E-01    6.992E-01    6.972E-01    6.952E-01    6.931E-01    6.911E-01
     6.891E-01    6.870E-01    6.850E-01    6.830E-01    6.810E-01    6.789E-01    6.769E-01    6.749E-01    6.728E-01    6.708E-01
     6.688E-01    6.667E-01    6.647E-01    6.627E-01    6.606E-01    6.586E-01    6.566E-01    6.545E-01    6.525E-01    6.505E-01
     6.484E-01    6.464E-01    6.443E-01    6.423E-01    6.403E-01    6.382E-01    6.362E-01    6.342E-01    6.321E-01    6.301E-01
     6.280E-01    6.260E-01    6.240E-01    6.219E-01    6.199E-01    6.178E-01    6.158E-01    6.137E-01    6.117E-01    6.097E-01
     6.076E-01    6.056E-01    6.035E-01    6.015E-01    5.994E-01    5.974E-01    5.953E-01    5.933E-01    5.912E-01    5.892E-01
     5.872E-01    5.851E-01    5.831E-01    5.810E-01    5.790E-01    5.769E-01    5.749E-01    5.728E-01    5.708E-01    5.687E-01
     5.667E-01    5.646E-01    5.626E-01    5.605E-01    5.585E-01    5.564E-01    5.544E-01    5.523E-01    5.503E-01    5.482E-01
     5.461E-01    5.441E-01    5.420E-01    5.400E-01    5.379E-01    5.359E-01    5.338E-01    5.318E-01    5.297E-01    5.277E-01
     5.256E-01    5.236E-01    5.215E-01    5.194E-01    5.174E-01    5.153E-01    5.133E-01    5.112E-01    5.092E-01    5.071E-01
     5.050E-01    5.030E-01    5.009E-01    4.989E-01    4.968E-01    4.947E-01    4.927E-01    4.906E-01    4.886E-01    4.865E-01
     4.845E-01    4.824E-01    4.803E-01    4.783E-01    4.762E-01    4.742E-01    4.721E-01    4.700E-01    4.680E-01    4.659E-01
     4.638E-01    4.618E-01    4.597E-01    4.577E-01    4.556E-01    4.535E-01    4.515E-01    4.494E-01    4.473E-01    4.453E-01
     4.432E-01    4.412E-01    4.391E-01    4.370E-01    4.350E-01    4.329E-01    4.308E-01    4.288E-01    4.267E-01    4.246E-01
     4.226E-01    4.205E-01    4.185E-01    4.164E-01    4.143E-01    4.123E-01    4.102E-01    4.081E-01    4.061E-01    4.040E-01
     4.019E-01    3.999E-01    3.978E-01    3.957E-01    3.937E-01    3.916E-01    3.895E-01    3.875E-01    3.854E-01    3.833E-01
     3.813E-01    3.792E-01    3.771E-01    3.751E-01    3.730E-01    3.709E-01    3.689E-01    3.668E-01    3.647E-01    3.627E-01
     3.606E-01    3.585E-01    3.565E-01    3.544E-01    3.523E-01    3.503E-01    3.482E-01    3.461E-01    3.441E-01    3.420E-01
     3.399E-01    3.379E-01    3.358E-01    3.337E-01    3.316E-01    3.296E-01    3.275E-01    3.254E-01    3.234E-01    3.213E-01
     3.192E-01    3.172E-01    3.151E-01    3.130E-01    3.110E-01    3.089E-01    3.068E-01    3.048E-01    3.027E-01    3.006E-01
     2.986E-01    2.965E-01    2.944E-01    2.924E-01    2.903E-01    2.882E-01    2.862E-01    2.841E-01    2.820E-01    2.800E-01
     2.779E-01    2.758E-01    2.738E-01    2.717E-01    2.696E-01    2.676E-01    2.655E-01    2.634E-01    2.614E-01    2.593E-01
     2.572E-01    2.552E-01    2.531E-01    2.510E-01    2.490E-01    2.469E-01    2.448E-01    2.428E-01    2.407E-01    2.386E-01
     2.366E-01    2.345E-01    2.324E-01    2.304E-01    2.283E-01    2.262E-01    2.242E-01    2.221E-01    2.200E-01    2.180E-01
     2.159E-01    2.138E-01    2.118E-01    2.097E-01    2.076E-01    2.056E-01    2.035E-01    2.015E-01    1.994E-01    1.973E-01
     1.953E-01    1.932E-01    1.911E-01    1.891E-01    1.870E-01    1.849E-01    1.829E-01    1.808E-01    1.788E-01    1.767E-01
     1.746E-01    1.726E-01    1.705E-01    1.685E-01    1.664E-01    1.643E-01    1.623E-01    1.602E-01    1.581E-01    1.561E-01
     1.540E-01    1.520E-01    1.499E-01    1.478E-01    1.458E-01    1.437E-01    1.417E-01    1.396E-01    1.376E-01    1.355E-01
     1.334E-01    1.314E-01    1.293E-01    1.273E-01    1.252E-01    1.232E-01    1.211E-01    1.190E-01    1.170E-01    1.149E-01
     1.129E-01    1.108E-01    1.088E-01    1.067E-01    1.047E-01    1.026E-01    1.005E-01    9.849E-02    9.644E-02    9.438E-02
     9.233E-02    9.028E-02    8.822E-02    8.617E-02    8.412E-02    8.207E-02    8.002E-02    7.796E-02    7.591E-02    7.386E-02
     7.181E-02    6.976E-02    6.771E-02    6.566E-02    6.361E-02    6.156E-02    5.952E-02    5.747E-02    5.542E-02    5.337E-02
     5.132E-02    4.928E-02    4.723E-02    4.518E-02    4.314E-02    4.109E-02    3.905E-02    3.700E-02    3.496E-02    3.291E-02
     3.087E-02    2.882E-02    2.678E-02    2.473E-02    2.269E-02    2.065E-02    1.861E-02    1.656E-02    1.452E-02    1.248E-02
     1.044E-02    8.400E-03    6.360E-03    4.320E-03    2.280E-03    2.412E-04   -1.798E-03   -3.836E-03   -5.874E-03   -7.912E-03
    -9.949E-03   -1.199E-02   -1.402E-02   -1.606E-02   -1.810E-02   -2.013E-02   -2.217E-02   -2.420E-02   -2.623E-02   -2.827E-02
    -3.030E-02   -3.234E-02   -3.437E-02   -3.640E-02   -3.843E-02   -4.046E-02   -4.250E-02   -4.453E-02   -4.656E-02   -4.859E-02
    -5.062E-02   -5.264E-02   -5.467E-02   -5.670E-02   -5.873E-02   -6.076E-02   -6.278E-02   -6.481E-02
 Ala      Conc. = 2.01E+02
