 LCModel (Version 6.3-1L) Copyright: S.W. Provencher.          Ref.: Magn. Reson. Med. 30:672-679 (1993).                
 Slice#3 Row#1 Col#10  PD_05_press_1_raw_act
 36 lines in following concentration table = NCONC+1
    Conc.  %SD /Cr+PCr  Metabolite                                         
   74.770  56%  23.047 Ala                                                 
    5.712 131%   1.761 Asp                                                 
    0.000 999%   0.000 Cr                                                  
    3.244 566%   1.000 PCr                                                 
    3.243 138%   1.000 GABA                                                
    3.348 134%   1.032 Glc                                                 
   50.700 151%  15.628 Gln                                                 
   55.161 153%  17.003 Glu                                                 
    8.987  80%   2.770 GPC                                                 
    0.000 999%   0.000 PCh                                                 
   16.104 168%   4.964 GSH                                                 
  172.661  49%  53.221 Ins                                                 
    0.000 999%   0.000 Lac                                                 
   77.564  31%  23.908 NAA                                                 
    0.000 999%   0.000 NAAG                                                
    0.888 168%   0.274 Scyllo                                              
    4.687 159%   1.445 Tau                                                 
 7.86E-03 999% 2.4E-03 -CrCH2                                              
    8.987  80%   2.770 GPC+PCh                                             
   77.564  31%  23.908 NAA+NAAG                                            
    3.244 566%   1.000 Cr+PCr                                              
  105.861 106%  32.631 Glu+Gln                                             
    0.000 999%   0.000 Lip13a                                              
    0.000 999%   0.000 Lip13b                                              
 1.14E-04 999% 3.5E-05 Lip09                                               
  983.267  10% 303.083 MM09                                                
    0.000 999%   0.000 Lip20                                               
  494.631  33% 152.465 MM20                                                
   32.938 290%  10.153 MM12                                                
 1.11E+03  15% 342.405 MM14                                                
 1.08E+03  16% 332.786 MM17                                                
    0.000 999%   0.000 Lip13a+Lip13b                                       
 1.14E+03  16% 352.558 MM14+Lip13a+Lip13b+MM12                             
  983.267  10% 303.083 MM09+Lip09                                          
  494.631  33% 152.465 MM20+Lip20                                          
   6 lines in following misc. output table
  FWHM = 0.046 ppm    S/N =   2                                            
  Data shift = 0.008 ppm                                                   
  Ph: 156 deg      17.9 deg/ppm                                            
  alphaB,S = 8.5E+01,   2.6E+01                                            
   14 spline knots.   Ns = 5(1)                                            
   2 inflections.     1 extrema                                            
  498 points on ppm-axis = NY
      4.000000     3.992357     3.984714     3.977070     3.969427     3.961784     3.954141     3.946497     3.938854     3.931211
      3.923568     3.915925     3.908281     3.900638     3.892995     3.885352     3.877708     3.870065     3.862422     3.854779
      3.847136     3.839492     3.831849     3.824206     3.816563     3.808919     3.801276     3.793633     3.785990     3.778347
      3.770703     3.763060     3.755417     3.747774     3.740130     3.732487     3.724844     3.717201     3.709558     3.701914
      3.694271     3.686628     3.678985     3.671341     3.663698     3.656055     3.648412     3.640769     3.633125     3.625482
      3.617839     3.610196     3.602552     3.594909     3.587266     3.579623     3.571980     3.564336     3.556693     3.549050
      3.541407     3.533763     3.526120     3.518477     3.510834     3.503191     3.495547     3.487904     3.480261     3.472618
      3.464974     3.457331     3.449688     3.442045     3.434402     3.426758     3.419115     3.411472     3.403829     3.396185
      3.388542     3.380899     3.373256     3.365613     3.357969     3.350326     3.342683     3.335040     3.327396     3.319753
      3.312110     3.304467     3.296824     3.289180     3.281537     3.273894     3.266251     3.258607     3.250964     3.243321
      3.235678     3.228034     3.220391     3.212748     3.205105     3.197462     3.189818     3.182175     3.174532     3.166889
      3.159245     3.151602     3.143959     3.136316     3.128673     3.121029     3.113386     3.105743     3.098100     3.090456
      3.082813     3.075170     3.067527     3.059884     3.052240     3.044597     3.036954     3.029311     3.021667     3.014024
      3.006381     2.998738     2.991095     2.983451     2.975808     2.968165     2.960522     2.952878     2.945235     2.937592
      2.929949     2.922306     2.914662     2.907019     2.899376     2.891733     2.884089     2.876446     2.868803     2.861160
      2.853517     2.845873     2.838230     2.830587     2.822944     2.815300     2.807657     2.800014     2.792371     2.784728
      2.777084     2.769441     2.761798     2.754155     2.746511     2.738868     2.731225     2.723582     2.715939     2.708295
      2.700652     2.693009     2.685366     2.677722     2.670079     2.662436     2.654793     2.647150     2.639506     2.631863
      2.624220     2.616577     2.608933     2.601290     2.593647     2.586004     2.578361     2.570717     2.563074     2.555431
      2.547788     2.540144     2.532501     2.524858     2.517215     2.509572     2.501928     2.494285     2.486642     2.478999
      2.471355     2.463712     2.456069     2.448426     2.440783     2.433139     2.425496     2.417853     2.410210     2.402566
      2.394923     2.387280     2.379637     2.371994     2.364350     2.356707     2.349064     2.341421     2.333777     2.326134
      2.318491     2.310848     2.303205     2.295561     2.287918     2.280275     2.272632     2.264988     2.257345     2.249702
      2.242059     2.234416     2.226772     2.219129     2.211486     2.203843     2.196199     2.188556     2.180913     2.173270
      2.165627     2.157983     2.150340     2.142697     2.135054     2.127410     2.119767     2.112124     2.104481     2.096838
      2.089194     2.081551     2.073908     2.066265     2.058621     2.050978     2.043335     2.035692     2.028049     2.020405
      2.012762     2.005119     1.997476     1.989833     1.982190     1.974546     1.966903     1.959260     1.951617     1.943974
      1.936331     1.928688     1.921045     1.913402     1.905759     1.898115     1.890472     1.882829     1.875186     1.867543
      1.859900     1.852257     1.844614     1.836971     1.829327     1.821684     1.814041     1.806398     1.798755     1.791112
      1.783469     1.775826     1.768183     1.760540     1.752896     1.745253     1.737610     1.729967     1.722324     1.714681
      1.707038     1.699395     1.691752     1.684108     1.676465     1.668822     1.661179     1.653536     1.645893     1.638250
      1.630607     1.622964     1.615321     1.607677     1.600034     1.592391     1.584748     1.577105     1.569462     1.561819
      1.554176     1.546533     1.538890     1.531246     1.523603     1.515960     1.508317     1.500674     1.493031     1.485388
      1.477745     1.470102     1.462458     1.454815     1.447172     1.439529     1.431886     1.424243     1.416600     1.408957
      1.401314     1.393671     1.386027     1.378384     1.370741     1.363098     1.355455     1.347812     1.340169     1.332526
      1.324883     1.317240     1.309596     1.301953     1.294310     1.286667     1.279024     1.271381     1.263738     1.256095
      1.248452     1.240808     1.233165     1.225522     1.217879     1.210236     1.202593     1.194950     1.187307     1.179664
      1.172021     1.164377     1.156734     1.149091     1.141448     1.133805     1.126162     1.118519     1.110876     1.103233
      1.095590     1.087946     1.080303     1.072660     1.065017     1.057374     1.049731     1.042088     1.034445     1.026802
      1.019158     1.011515     1.003872     0.996229     0.988586     0.980943     0.973300     0.965657     0.958014     0.950371
      0.942727     0.935084     0.927441     0.919798     0.912155     0.904512     0.896869     0.889226     0.881583     0.873940
      0.866296     0.858653     0.851010     0.843367     0.835724     0.828081     0.820438     0.812795     0.805152     0.797508
      0.789865     0.782222     0.774579     0.766936     0.759293     0.751650     0.744007     0.736364     0.728721     0.721077
      0.713434     0.705791     0.698148     0.690505     0.682862     0.675219     0.667576     0.659933     0.652290     0.644646
      0.637003     0.629360     0.621717     0.614074     0.606431     0.598788     0.591145     0.583502     0.575858     0.568215
      0.560572     0.552929     0.545286     0.537643     0.530000     0.522357     0.514714     0.507071     0.499427     0.491784
      0.484141     0.476498     0.468855     0.461212     0.453569     0.445925     0.438282     0.430639     0.422996     0.415353
      0.407710     0.400067     0.392424     0.384780     0.377137     0.369494     0.361851     0.354208     0.346565     0.338922
      0.331278     0.323635     0.315992     0.308349     0.300706     0.293063     0.285420     0.277777     0.270133     0.262490
      0.254847     0.247204     0.239561     0.231918     0.224275     0.216631     0.208988     0.201345
 NY phased data points follow
   4.03260E+00  1.60166E+00  8.52598E-01  1.58544E+00  3.22907E+00  3.87230E+00  2.67068E+00  9.52595E-01  9.74651E-01  2.09872E+00
   2.39259E+00  2.92416E-01 -2.10147E+00  2.69057E+00  1.68539E+00  2.15105E-01  1.34278E+00  1.60525E+00  5.06080E-01  1.43626E+00
   1.67981E+00  2.27028E+00  3.18311E+00  1.32084E+00  1.34390E+00  2.93904E+00  2.48182E+00  2.43341E+00  3.27734E-01  1.47003E+00
   7.88342E-01  1.70530E+00  4.45202E-01  1.24152E+00  1.03725E+00  1.28610E+00  1.97700E+00  2.81598E+00  1.03026E+00  1.96075E+00
  -5.14485E-01  1.61722E+00  1.90955E+00  8.58564E-01  3.00712E-01  2.12266E+00  6.10241E-01  1.68533E+00  3.39504E-01  4.09278E+00
   9.36411E-01  6.88219E-01  4.20975E+00 -9.88256E-02  2.96311E+00  1.22487E+00  2.13541E+00  1.96013E+00  2.46977E+00 -8.02420E-01
   1.20068E+00  2.18808E+00  2.08211E+00  4.06933E+00 -4.84014E-01  1.46166E+00  2.28406E+00  5.80398E-01  4.87542E-01 -4.88290E-01
   5.92119E-01  1.12103E+00  1.83103E+00  8.77720E-01  1.70134E+00  2.05812E+00  8.27691E-01  7.58721E-02  1.13504E+00  1.00054E+00
  -8.71702E-01 -1.58221E+00  1.96014E+00 -2.54989E-01 -7.50171E-01  6.33691E-01  1.86442E+00 -2.02574E-01  1.52013E-01  2.76584E-01
  -7.39338E-01  2.98495E-01 -7.79690E-01  6.71724E-01  1.64488E+00 -3.33869E-02  2.96165E-01  1.70645E+00  4.36379E-01  1.54807E+00
  -5.61281E-01 -7.28404E-01  1.49069E+00  1.50585E+00  2.88453E+00  6.58373E-01  2.62990E+00  6.37150E-01  1.27734E+00  3.68331E-01
   9.48434E-01  2.88507E-01  8.12819E-01 -4.58570E-03  3.79465E+00  2.88697E-01  1.72011E+00  1.60356E-01  2.93173E+00  2.07301E+00
   2.72924E-01  1.84720E-01  1.25954E+00  3.08577E+00  4.04510E-01 -2.24414E-02 -4.87636E-02  3.00060E+00  2.50108E+00  2.50681E-01
   1.80229E+00  2.07296E-01 -1.99117E+00  6.07371E-01  2.86567E+00  7.76854E-01 -1.74758E+00 -2.62302E-01  7.05474E-02  9.87105E-01
   2.25401E+00  1.30471E+00  6.97339E-01  2.08777E+00  1.29019E+00  1.88901E+00  9.69688E-01  1.30616E+00  2.20453E-01  8.49662E-01
  -4.39540E-01 -5.80366E-01  2.55903E-01  1.26694E+00  9.65393E-01  3.46410E-01  1.12898E+00  8.87128E-01  1.42978E+00 -5.34788E-01
  -8.80450E-01  1.14245E+00 -9.72279E-01 -7.49248E-01  1.13461E+00  2.42494E-01  1.41896E+00 -1.50180E+00  1.49313E+00 -1.41018E+00
   8.88258E-01 -1.32764E-01 -2.06640E+00 -3.66082E-01  1.78309E+00  1.73585E+00  7.41954E-01  8.29326E-01 -1.53814E+00  3.79099E-01
   1.37242E+00 -2.22426E-01  1.10057E+00  2.76080E+00  1.67139E+00 -8.12793E-01  2.21394E+00 -5.73669E-01  2.79757E+00  1.02464E+00
   7.65056E-01 -1.05764E+00  1.16862E+00  1.45392E+00  5.45570E-02  4.95188E-01  1.66684E-01  2.01342E+00  1.04494E+00 -1.08518E-01
   3.72345E-01 -1.88507E+00  2.87077E+00 -8.52060E-01  6.27379E-01  6.91657E-01  1.63761E+00  2.43946E+00  1.36479E+00  2.24560E+00
   5.57659E-01  4.20202E-01  1.08049E+00 -5.38607E-02 -8.89925E-01  5.02301E-01 -9.94688E-01  4.12338E+00  2.69447E+00  2.48181E+00
   2.69856E+00  1.25299E+00  2.24040E+00  9.97767E-01  1.95293E+00  2.95655E-01  8.57722E-01  2.29649E+00  1.89243E+00  6.45157E-01
  -7.90292E-01  2.14647E+00 -2.95068E-01  5.79899E-02  2.73105E+00  2.50418E+00  3.42686E+00  2.21917E+00  9.04766E-01  1.16067E+00
   3.41849E+00  2.32258E+00  5.88202E-01  1.98527E+00  1.59862E+00 -5.53319E-01  3.71681E+00  2.64618E+00  9.74418E-01  2.61922E+00
   3.25303E+00  2.88566E+00  2.56916E+00  1.29700E+00  2.64595E+00  1.37840E-01  3.58053E+00  1.98720E+00  2.88909E+00  4.70576E+00
   5.82465E+00  3.63539E+00  6.82004E+00  3.71382E+00  6.59547E+00  5.37494E+00  3.52359E+00  1.72601E+00  1.86633E+00  3.09299E+00
   4.92106E+00  6.65515E+00  7.20592E+00  4.37084E+00  5.05352E+00  7.23441E+00  4.78471E+00  3.46545E+00  6.05276E+00  6.20067E+00
   5.51701E+00  2.35146E+00  3.25885E+00  3.92185E+00  3.97619E+00  6.25355E+00  4.29530E+00  3.59073E+00  1.49602E-01  2.23170E+00
   5.87977E+00  4.55922E+00  6.21530E+00  5.78099E+00  3.85669E+00  3.83763E+00  3.51023E+00  5.55427E+00  3.43081E+00  5.64769E+00
   7.18868E+00  2.10970E+00  4.92773E+00  4.95055E+00  2.92508E+00  4.10720E+00  4.91477E+00  2.52362E+00  3.41495E+00  3.54375E+00
   5.29623E+00  2.54025E+00  5.41836E+00  6.30823E+00  6.81273E+00  8.56521E+00  6.77945E+00  6.40383E+00  5.89009E+00  6.33800E+00
   6.21627E+00  5.18942E+00  3.66955E+00  6.72561E+00  3.82950E+00  4.95942E+00  6.84089E+00  6.01201E+00  6.33010E+00  4.82579E+00
   4.69468E+00  5.48820E+00  6.39628E+00  5.86877E+00  3.24947E+00  5.07084E+00  5.41256E+00  6.34744E+00  5.36064E+00  6.72980E+00
   4.30771E+00  7.20807E+00  7.13485E+00  7.02920E+00  3.22157E+00  4.05215E+00  5.24892E+00  2.34571E+00  3.23163E+00  2.44328E+00
   2.37001E+00  2.38458E+00  2.40992E+00  1.70431E-01  1.20954E+00  1.37173E+00  1.19953E-01 -1.05727E+00  1.21570E-01  1.15057E+00
  -1.25420E+00 -7.79835E-01 -2.75955E+00 -3.00459E-01 -2.12264E+00 -3.63254E-01  2.52241E+00  1.96434E+00  1.45668E+00  1.60477E+00
   2.17943E+00  7.71868E-01  4.51171E+00  2.83526E+00  3.85276E+00  3.93334E+00  4.80391E+00  3.33535E+00  2.29254E+00  3.32776E+00
   4.75779E+00  3.05756E+00  5.46230E+00  6.20892E+00  6.12388E+00  4.64678E+00  2.87390E+00  4.95714E+00  5.91343E+00  2.87044E+00
   4.48542E+00  2.34188E+00  4.79126E+00  5.13464E+00  5.03892E+00  2.05402E+00  6.68943E+00  5.90190E+00  7.89954E+00  3.09974E+00
   7.18699E+00  5.08377E+00  4.19836E+00  3.60581E+00  5.51182E+00  4.16032E+00  3.62272E+00  5.94744E+00  6.28589E+00  5.23519E+00
   3.12093E+00  2.65163E+00  4.59856E+00  2.79909E+00  6.06188E+00  3.40529E+00  2.61466E+00  3.68791E+00  6.46249E+00  1.93474E+00
   4.84688E+00  3.43790E+00  4.80610E+00  5.11441E+00  4.19952E+00  5.46231E+00  4.12368E+00  5.39655E+00  4.07509E+00  2.63199E+00
   3.79500E+00  2.52088E+00  2.56080E+00  4.95444E+00  3.32057E+00  2.82859E+00  1.42771E+00  2.87789E+00  2.84783E+00  3.32054E+00
   9.43034E-01  1.97142E+00  1.06801E+00  5.86412E-01  7.98089E-01 -7.37637E-01 -4.64199E-01  2.07101E+00  4.02529E+00  1.55436E+00
   2.24130E+00  8.67328E-01  2.06533E+00  2.05630E+00  8.63566E-02  1.36741E+00 -1.97251E-01 -2.95698E-01 -3.21564E-01 -1.28436E+00
   5.95066E-01 -2.95191E-01  1.75403E+00 -9.02147E-01  6.38118E-01  1.60575E-01  1.30433E+00  1.39565E+00  2.77004E+00 -7.50376E-01
   1.35916E+00  7.39994E-01 -5.41129E-01 -5.26193E-01 -8.86493E-01 -1.11753E+00 -6.30498E-01  1.09998E-03  5.34437E-01 -1.18288E+00
  -1.10909E+00 -1.80786E+00 -9.06776E-02 -1.17226E-01  1.74435E+00 -1.00623E-01  1.34656E+00  2.55604E+00 -3.04388E-01  9.87193E-01
  -3.10030E-02 -6.83956E-01 -2.29302E-01 -8.79771E-01 -3.26780E-01 -1.43728E-01 -6.65961E-01 -3.74652E+00
 NY points of the fit to the data follow
   1.39727E+00  1.26089E+00  1.13971E+00  1.08128E+00  1.06791E+00  1.07110E+00  1.08192E+00  1.09879E+00  1.11844E+00  1.13537E+00
   1.14520E+00  1.14540E+00  1.13514E+00  1.11348E+00  1.08658E+00  1.06526E+00  1.05547E+00  1.04895E+00  1.04745E+00  1.06161E+00
   1.09941E+00  1.14994E+00  1.20367E+00  1.26148E+00  1.31158E+00  1.32780E+00  1.28872E+00  1.20612E+00  1.12908E+00  1.09676E+00
   1.12333E+00  1.22796E+00  1.42208E+00  1.62872E+00  1.74705E+00  1.74077E+00  1.65046E+00  1.53906E+00  1.38671E+00  1.20946E+00
   1.06984E+00  9.99092E-01  9.99596E-01  1.07212E+00  1.20966E+00  1.41265E+00  1.68286E+00  1.98514E+00  2.23847E+00  2.36278E+00
   2.30076E+00  2.03323E+00  1.59216E+00  1.09488E+00  7.50663E-01  6.80713E-01  7.89113E-01  9.44606E-01  1.09857E+00  1.24892E+00
   1.38460E+00  1.48012E+00  1.51447E+00  1.47835E+00  1.36550E+00  1.19128E+00  1.02873E+00  9.51046E-01  9.63594E-01  1.04697E+00
   1.15704E+00  1.26386E+00  1.34304E+00  1.37929E+00  1.37783E+00  1.34827E+00  1.29657E+00  1.22465E+00  1.14630E+00  1.09736E+00
   1.07032E+00  1.04893E+00  1.02235E+00  9.87639E-01  9.43439E-01  8.86496E-01  8.09030E-01  7.06934E-01  5.93225E-01  4.96920E-01
   4.44153E-01  4.58111E-01  5.50744E-01  7.01697E-01  8.52544E-01  9.62862E-01  1.01702E+00  1.03459E+00  1.04773E+00  1.04779E+00
   1.04645E+00  1.09683E+00  1.22137E+00  1.39641E+00  1.55910E+00  1.63405E+00  1.59098E+00  1.42348E+00  1.17038E+00  9.47920E-01
   8.76359E-01  8.79838E-01  8.92828E-01  9.11790E-01  9.30678E-01  9.48069E-01  9.62008E-01  9.72557E-01  9.79809E-01  9.85361E-01
   9.91803E-01  1.00257E+00  1.02118E+00  1.04514E+00  1.07490E+00  1.11322E+00  1.15775E+00  1.19991E+00  1.23373E+00  1.25330E+00
   1.25144E+00  1.22946E+00  1.19644E+00  1.16412E+00  1.14066E+00  1.11111E+00  1.06756E+00  1.01631E+00  9.67045E-01  9.34682E-01
   9.35090E-01  9.64949E-01  9.98497E-01  1.01912E+00  1.01930E+00  9.96851E-01  9.60962E-01  9.22433E-01  8.88300E-01  8.62343E-01
   8.38713E-01  8.16468E-01  7.96419E-01  7.79280E-01  7.64095E-01  7.50211E-01  7.36806E-01  7.23951E-01  7.12133E-01  6.98941E-01
   6.82837E-01  6.62392E-01  6.41454E-01  6.30001E-01  6.32701E-01  6.47017E-01  6.66334E-01  6.78618E-01  6.70199E-01  6.44055E-01
   6.11761E-01  5.83584E-01  5.69218E-01  5.62877E-01  5.54519E-01  5.41594E-01  5.25959E-01  5.15269E-01  5.15908E-01  5.26234E-01
   5.40348E-01  5.53893E-01  5.60506E-01  5.55296E-01  5.46495E-01  5.50730E-01  5.68373E-01  5.95139E-01  6.23738E-01  6.58460E-01
   7.07687E-01  7.65614E-01  8.13357E-01  8.29239E-01  8.04065E-01  7.52701E-01  6.97822E-01  6.55608E-01  6.41357E-01  6.64249E-01
   7.24056E-01  8.13187E-01  9.21467E-01  1.03157E+00  1.11648E+00  1.14129E+00  1.10444E+00  1.01828E+00  8.86194E-01  7.29195E-01
   5.87628E-01  5.10381E-01  5.23929E-01  6.29722E-01  8.14572E-01  1.05410E+00  1.28216E+00  1.40362E+00  1.41409E+00  1.36031E+00
   1.24462E+00  1.08600E+00  9.44173E-01  8.88895E-01  9.22209E-01  1.02008E+00  1.16689E+00  1.33953E+00  1.50126E+00  1.60261E+00
   1.63059E+00  1.62054E+00  1.61270E+00  1.62034E+00  1.64688E+00  1.69323E+00  1.76622E+00  1.86469E+00  1.96229E+00  2.05147E+00
   2.14444E+00  2.23587E+00  2.29854E+00  2.31239E+00  2.30637E+00  2.31538E+00  2.34171E+00  2.39124E+00  2.47479E+00  2.57817E+00
   2.65511E+00  2.71288E+00  2.76772E+00  2.82181E+00  2.88230E+00  3.01570E+00  3.24210E+00  3.47033E+00  3.73796E+00  4.14774E+00
   4.68997E+00  5.22192E+00  5.56792E+00  5.60238E+00  5.26575E+00  4.55782E+00  3.66908E+00  3.04054E+00  2.85346E+00  2.81112E+00
   2.80994E+00  2.83664E+00  2.88422E+00  2.94756E+00  3.03039E+00  3.13067E+00  3.24346E+00  3.36404E+00  3.48831E+00  3.61236E+00
   3.73741E+00  3.86652E+00  3.99968E+00  4.13568E+00  4.27301E+00  4.40912E+00  4.54072E+00  4.66387E+00  4.77453E+00  4.87049E+00
   4.94968E+00  5.01030E+00  5.05155E+00  5.07334E+00  5.07566E+00  5.05880E+00  5.02397E+00  4.97307E+00  4.90812E+00  4.83157E+00
   4.74641E+00  4.65566E+00  4.56264E+00  4.47075E+00  4.38341E+00  4.30392E+00  4.23540E+00  4.18070E+00  4.14234E+00  4.12248E+00
   4.12296E+00  4.14508E+00  4.18963E+00  4.25690E+00  4.34664E+00  4.45814E+00  4.59024E+00  4.74144E+00  4.91014E+00  5.09503E+00
   5.29623E+00  5.51893E+00  5.77608E+00  6.03687E+00  6.26425E+00  6.48020E+00  6.68077E+00  6.79688E+00  6.74705E+00  6.49202E+00
   6.08242E+00  5.61095E+00  5.13731E+00  4.80086E+00  4.77393E+00  4.98518E+00  5.25730E+00  5.53269E+00  5.74800E+00  5.83034E+00
   5.69098E+00  5.29675E+00  4.81192E+00  4.42978E+00  4.11747E+00  3.84162E+00  3.59101E+00  3.36130E+00  3.15058E+00  2.95786E+00
   2.78246E+00  2.62377E+00  2.48115E+00  2.35387E+00  2.24111E+00  2.14201E+00  2.05561E+00  1.98098E+00  1.91717E+00  1.86328E+00
   1.81846E+00  1.78193E+00  1.75303E+00  1.73114E+00  1.71579E+00  1.70661E+00  1.70334E+00  1.70585E+00  1.71411E+00  1.72817E+00
   1.74823E+00  1.77456E+00  1.80754E+00  1.84762E+00  1.89530E+00  1.95116E+00  2.01581E+00  2.08988E+00  2.17403E+00  2.26885E+00
   2.37491E+00  2.49265E+00  2.62244E+00  2.76444E+00  2.91864E+00  3.08475E+00  3.26218E+00  3.45004E+00  3.64705E+00  3.85157E+00
   4.06156E+00  4.27460E+00  4.48791E+00  4.69841E+00  4.90280E+00  5.09761E+00  5.27930E+00  5.44443E+00  5.58969E+00  5.71213E+00
   5.80916E+00  5.87875E+00  5.91942E+00  5.93038E+00  5.91149E+00  5.86332E+00  5.78709E+00  5.68460E+00  5.55817E+00  5.41052E+00
   5.24471E+00  5.06397E+00  4.87160E+00  4.67087E+00  4.46490E+00  4.25664E+00  4.04872E+00  3.84348E+00  3.64289E+00  3.44859E+00
   3.26185E+00  3.08361E+00  2.91451E+00  2.75494E+00  2.60504E+00  2.46475E+00  2.33386E+00  2.21206E+00  2.09893E+00  1.99400E+00
   1.89677E+00  1.80671E+00  1.72330E+00  1.64603E+00  1.57441E+00  1.50797E+00  1.44627E+00  1.38891E+00  1.33551E+00  1.28573E+00
   1.23926E+00  1.19581E+00  1.15511E+00  1.11694E+00  1.08108E+00  1.04735E+00  1.01556E+00  9.85560E-01  9.57205E-01  9.30364E-01
   9.04926E-01  8.80787E-01  8.57846E-01  8.36015E-01  8.15211E-01  7.95365E-01  7.76415E-01  7.58299E-01  7.40959E-01  7.24341E-01
   7.08398E-01  6.93091E-01  6.78383E-01  6.64234E-01  6.50609E-01  6.37474E-01  6.24804E-01  6.12574E-01  6.00761E-01  5.89338E-01
   5.78280E-01  5.67567E-01  5.57186E-01  5.47120E-01  5.37352E-01  5.27865E-01  5.18640E-01  5.09668E-01  5.00939E-01  4.92442E-01
   4.84165E-01  4.76091E-01  4.68212E-01  4.60522E-01  4.53015E-01  4.45682E-01  4.38511E-01  4.31492E-01  4.24621E-01  4.17894E-01
   4.11305E-01  4.04848E-01  3.98511E-01  3.92288E-01  3.86178E-01  3.80177E-01  3.74282E-01  3.68482E-01
 NY background values follow
     6.871E-01    6.857E-01    6.844E-01    6.830E-01    6.816E-01    6.803E-01    6.789E-01    6.776E-01    6.762E-01    6.748E-01
     6.735E-01    6.721E-01    6.707E-01    6.694E-01    6.680E-01    6.666E-01    6.653E-01    6.639E-01    6.625E-01    6.612E-01
     6.598E-01    6.584E-01    6.570E-01    6.557E-01    6.543E-01    6.529E-01    6.515E-01    6.502E-01    6.488E-01    6.474E-01
     6.460E-01    6.447E-01    6.433E-01    6.419E-01    6.405E-01    6.391E-01    6.377E-01    6.364E-01    6.350E-01    6.336E-01
     6.322E-01    6.308E-01    6.294E-01    6.280E-01    6.267E-01    6.253E-01    6.239E-01    6.225E-01    6.211E-01    6.197E-01
     6.183E-01    6.169E-01    6.155E-01    6.141E-01    6.127E-01    6.113E-01    6.099E-01    6.085E-01    6.071E-01    6.057E-01
     6.043E-01    6.029E-01    6.015E-01    6.001E-01    5.987E-01    5.973E-01    5.959E-01    5.945E-01    5.931E-01    5.917E-01
     5.903E-01    5.889E-01    5.875E-01    5.861E-01    5.847E-01    5.833E-01    5.819E-01    5.805E-01    5.791E-01    5.776E-01
     5.762E-01    5.748E-01    5.734E-01    5.720E-01    5.706E-01    5.692E-01    5.678E-01    5.663E-01    5.649E-01    5.635E-01
     5.621E-01    5.607E-01    5.593E-01    5.578E-01    5.564E-01    5.550E-01    5.536E-01    5.522E-01    5.507E-01    5.493E-01
     5.479E-01    5.465E-01    5.450E-01    5.436E-01    5.422E-01    5.408E-01    5.393E-01    5.379E-01    5.365E-01    5.351E-01
     5.336E-01    5.322E-01    5.308E-01    5.293E-01    5.279E-01    5.265E-01    5.251E-01    5.236E-01    5.222E-01    5.208E-01
     5.193E-01    5.179E-01    5.165E-01    5.150E-01    5.136E-01    5.122E-01    5.107E-01    5.093E-01    5.078E-01    5.064E-01
     5.050E-01    5.035E-01    5.021E-01    5.007E-01    4.992E-01    4.978E-01    4.963E-01    4.949E-01    4.934E-01    4.920E-01
     4.906E-01    4.891E-01    4.877E-01    4.862E-01    4.848E-01    4.833E-01    4.819E-01    4.805E-01    4.790E-01    4.776E-01
     4.761E-01    4.747E-01    4.732E-01    4.718E-01    4.703E-01    4.689E-01    4.674E-01    4.660E-01    4.645E-01    4.631E-01
     4.616E-01    4.602E-01    4.587E-01    4.573E-01    4.558E-01    4.544E-01    4.529E-01    4.515E-01    4.500E-01    4.486E-01
     4.471E-01    4.456E-01    4.442E-01    4.427E-01    4.413E-01    4.398E-01    4.384E-01    4.369E-01    4.354E-01    4.340E-01
     4.325E-01    4.311E-01    4.296E-01    4.282E-01    4.267E-01    4.252E-01    4.238E-01    4.223E-01    4.208E-01    4.194E-01
     4.179E-01    4.165E-01    4.150E-01    4.135E-01    4.121E-01    4.106E-01    4.091E-01    4.077E-01    4.062E-01    4.048E-01
     4.033E-01    4.018E-01    4.004E-01    3.989E-01    3.974E-01    3.960E-01    3.945E-01    3.930E-01    3.916E-01    3.901E-01
     3.886E-01    3.872E-01    3.857E-01    3.842E-01    3.827E-01    3.813E-01    3.798E-01    3.783E-01    3.769E-01    3.754E-01
     3.739E-01    3.725E-01    3.710E-01    3.695E-01    3.680E-01    3.666E-01    3.651E-01    3.636E-01    3.622E-01    3.607E-01
     3.592E-01    3.577E-01    3.563E-01    3.548E-01    3.533E-01    3.518E-01    3.504E-01    3.489E-01    3.474E-01    3.459E-01
     3.445E-01    3.430E-01    3.415E-01    3.400E-01    3.386E-01    3.371E-01    3.356E-01    3.341E-01    3.327E-01    3.312E-01
     3.297E-01    3.282E-01    3.267E-01    3.253E-01    3.238E-01    3.223E-01    3.208E-01    3.194E-01    3.179E-01    3.164E-01
     3.149E-01    3.134E-01    3.120E-01    3.105E-01    3.090E-01    3.075E-01    3.060E-01    3.046E-01    3.031E-01    3.016E-01
     3.001E-01    2.986E-01    2.972E-01    2.957E-01    2.942E-01    2.927E-01    2.912E-01    2.898E-01    2.883E-01    2.868E-01
     2.853E-01    2.838E-01    2.823E-01    2.809E-01    2.794E-01    2.779E-01    2.764E-01    2.749E-01    2.735E-01    2.720E-01
     2.705E-01    2.690E-01    2.675E-01    2.660E-01    2.646E-01    2.631E-01    2.616E-01    2.601E-01    2.586E-01    2.571E-01
     2.557E-01    2.542E-01    2.527E-01    2.512E-01    2.497E-01    2.482E-01    2.467E-01    2.453E-01    2.438E-01    2.423E-01
     2.408E-01    2.393E-01    2.378E-01    2.364E-01    2.349E-01    2.334E-01    2.319E-01    2.304E-01    2.289E-01    2.275E-01
     2.260E-01    2.245E-01    2.230E-01    2.215E-01    2.200E-01    2.185E-01    2.171E-01    2.156E-01    2.141E-01    2.126E-01
     2.111E-01    2.096E-01    2.082E-01    2.067E-01    2.052E-01    2.037E-01    2.022E-01    2.007E-01    1.992E-01    1.978E-01
     1.963E-01    1.948E-01    1.933E-01    1.918E-01    1.903E-01    1.889E-01    1.874E-01    1.859E-01    1.844E-01    1.829E-01
     1.814E-01    1.800E-01    1.785E-01    1.770E-01    1.755E-01    1.740E-01    1.725E-01    1.710E-01    1.696E-01    1.681E-01
     1.666E-01    1.651E-01    1.636E-01    1.621E-01    1.607E-01    1.592E-01    1.577E-01    1.562E-01    1.547E-01    1.533E-01
     1.518E-01    1.503E-01    1.488E-01    1.473E-01    1.458E-01    1.444E-01    1.429E-01    1.414E-01    1.399E-01    1.384E-01
     1.370E-01    1.355E-01    1.340E-01    1.325E-01    1.310E-01    1.295E-01    1.281E-01    1.266E-01    1.251E-01    1.236E-01
     1.221E-01    1.207E-01    1.192E-01    1.177E-01    1.162E-01    1.147E-01    1.133E-01    1.118E-01    1.103E-01    1.088E-01
     1.074E-01    1.059E-01    1.044E-01    1.029E-01    1.014E-01    9.996E-02    9.849E-02    9.701E-02    9.553E-02    9.405E-02
     9.258E-02    9.110E-02    8.962E-02    8.815E-02    8.667E-02    8.520E-02    8.372E-02    8.225E-02    8.077E-02    7.930E-02
     7.782E-02    7.635E-02    7.487E-02    7.340E-02    7.193E-02    7.045E-02    6.898E-02    6.751E-02    6.603E-02    6.456E-02
     6.309E-02    6.162E-02    6.015E-02    5.867E-02    5.720E-02    5.573E-02    5.426E-02    5.279E-02    5.132E-02    4.985E-02
     4.838E-02    4.691E-02    4.544E-02    4.397E-02    4.250E-02    4.104E-02    3.957E-02    3.810E-02    3.663E-02    3.516E-02
     3.370E-02    3.223E-02    3.076E-02    2.930E-02    2.783E-02    2.637E-02    2.490E-02    2.344E-02    2.197E-02    2.051E-02
     1.904E-02    1.758E-02    1.612E-02    1.466E-02    1.319E-02    1.173E-02    1.027E-02    8.806E-03    7.345E-03    5.884E-03
     4.423E-03    2.963E-03    1.503E-03    4.357E-05   -1.416E-03   -2.875E-03   -4.333E-03   -5.791E-03   -7.249E-03   -8.707E-03
    -1.016E-02   -1.162E-02   -1.308E-02   -1.453E-02   -1.599E-02   -1.744E-02   -1.890E-02   -2.035E-02   -2.181E-02   -2.326E-02
    -2.471E-02   -2.617E-02   -2.762E-02   -2.907E-02   -3.052E-02   -3.198E-02   -3.343E-02   -3.488E-02
 Ala      Conc. = 7.48E+01
