 LCModel (Version 6.3-1L) Copyright: S.W. Provencher.          Ref.: Magn. Reson. Med. 30:672-679 (1993).                
 Slice#1 Row#1 Col#7  PD_05_press_1_raw_act
 36 lines in following concentration table = NCONC+1
    Conc.  %SD /Cr+PCr  Metabolite                                         
   24.499  81%   0.465 Ala                                                 
    6.524 118%   0.124 Asp                                                 
   52.699  45%   1.000 Cr                                                  
    0.000 999%   0.000 PCr                                                 
    3.800 121% 7.2E-02 GABA                                                
    3.824 121% 7.3E-02 Glc                                                 
    9.623 342%   0.183 Gln                                                 
   44.651  92%   0.847 Glu                                                 
    0.000 999%   0.000 GPC                                                 
   10.961 227%   0.208 PCh                                                 
    0.000 999%   0.000 GSH                                                 
    5.667 760%   0.108 Ins                                                 
    0.000 999%   0.000 Lac                                                 
   53.421  45%   1.014 NAA                                                 
    5.324 287%   0.101 NAAG                                                
    1.145 133% 2.2E-02 Scyllo                                              
    5.123 149% 9.7E-02 Tau                                                 
    3.216 385% 6.1E-02 -CrCH2                                              
   10.961  58%   0.208 GPC+PCh                                             
   58.745  43%   1.115 NAA+NAAG                                            
   52.699  45%   1.000 Cr+PCr                                              
   54.274  90%   1.030 Glu+Gln                                             
    0.000 999%   0.000 Lip13a                                              
    0.000 999%   0.000 Lip13b                                              
    0.000 999%   0.000 Lip09                                               
  252.080  27%   4.783 MM09                                                
    5.095 999% 9.7E-02 Lip20                                               
  378.119  27%   7.175 MM20                                                
   75.624  27%   1.435 MM12                                                
  189.085  27%   3.588 MM14                                                
   94.536  27%   1.794 MM17                                                
    0.000 999%   0.000 Lip13a+Lip13b                                       
  264.709  27%   5.023 MM14+Lip13a+Lip13b+MM12                             
  252.080  27%   4.783 MM09+Lip09                                          
  383.214  30%   7.272 MM20+Lip20                                          
   6 lines in following misc. output table
  FWHM = 0.038 ppm    S/N =   1                                            
  Data shift =-0.031 ppm                                                   
  Ph: 136 deg       2.5 deg/ppm                                            
  alphaB,S = 8.5E+01,   4.9E+00                                            
   14 spline knots.   Ns = 5(1)                                            
   2 inflections.     2 extrema                                            
  498 points on ppm-axis = NY
      4.000000     3.992357     3.984714     3.977070     3.969427     3.961784     3.954141     3.946497     3.938854     3.931211
      3.923568     3.915925     3.908281     3.900638     3.892995     3.885352     3.877708     3.870065     3.862422     3.854779
      3.847136     3.839492     3.831849     3.824206     3.816563     3.808919     3.801276     3.793633     3.785990     3.778347
      3.770703     3.763060     3.755417     3.747774     3.740130     3.732487     3.724844     3.717201     3.709558     3.701914
      3.694271     3.686628     3.678985     3.671341     3.663698     3.656055     3.648412     3.640769     3.633125     3.625482
      3.617839     3.610196     3.602552     3.594909     3.587266     3.579623     3.571980     3.564336     3.556693     3.549050
      3.541407     3.533763     3.526120     3.518477     3.510834     3.503191     3.495547     3.487904     3.480261     3.472618
      3.464974     3.457331     3.449688     3.442045     3.434402     3.426758     3.419115     3.411472     3.403829     3.396185
      3.388542     3.380899     3.373256     3.365613     3.357969     3.350326     3.342683     3.335040     3.327396     3.319753
      3.312110     3.304467     3.296824     3.289180     3.281537     3.273894     3.266251     3.258607     3.250964     3.243321
      3.235678     3.228034     3.220391     3.212748     3.205105     3.197462     3.189818     3.182175     3.174532     3.166889
      3.159245     3.151602     3.143959     3.136316     3.128673     3.121029     3.113386     3.105743     3.098100     3.090456
      3.082813     3.075170     3.067527     3.059884     3.052240     3.044597     3.036954     3.029311     3.021667     3.014024
      3.006381     2.998738     2.991095     2.983451     2.975808     2.968165     2.960522     2.952878     2.945235     2.937592
      2.929949     2.922306     2.914662     2.907019     2.899376     2.891733     2.884089     2.876446     2.868803     2.861160
      2.853517     2.845873     2.838230     2.830587     2.822944     2.815300     2.807657     2.800014     2.792371     2.784728
      2.777084     2.769441     2.761798     2.754155     2.746511     2.738868     2.731225     2.723582     2.715939     2.708295
      2.700652     2.693009     2.685366     2.677722     2.670079     2.662436     2.654793     2.647150     2.639506     2.631863
      2.624220     2.616577     2.608933     2.601290     2.593647     2.586004     2.578361     2.570717     2.563074     2.555431
      2.547788     2.540144     2.532501     2.524858     2.517215     2.509572     2.501928     2.494285     2.486642     2.478999
      2.471355     2.463712     2.456069     2.448426     2.440783     2.433139     2.425496     2.417853     2.410210     2.402566
      2.394923     2.387280     2.379637     2.371994     2.364350     2.356707     2.349064     2.341421     2.333777     2.326134
      2.318491     2.310848     2.303205     2.295561     2.287918     2.280275     2.272632     2.264988     2.257345     2.249702
      2.242059     2.234416     2.226772     2.219129     2.211486     2.203843     2.196199     2.188556     2.180913     2.173270
      2.165627     2.157983     2.150340     2.142697     2.135054     2.127410     2.119767     2.112124     2.104481     2.096838
      2.089194     2.081551     2.073908     2.066265     2.058621     2.050978     2.043335     2.035692     2.028049     2.020405
      2.012762     2.005119     1.997476     1.989833     1.982190     1.974546     1.966903     1.959260     1.951617     1.943974
      1.936331     1.928688     1.921045     1.913402     1.905759     1.898115     1.890472     1.882829     1.875186     1.867543
      1.859900     1.852257     1.844614     1.836971     1.829327     1.821684     1.814041     1.806398     1.798755     1.791112
      1.783469     1.775826     1.768183     1.760540     1.752896     1.745253     1.737610     1.729967     1.722324     1.714681
      1.707038     1.699395     1.691752     1.684108     1.676465     1.668822     1.661179     1.653536     1.645893     1.638250
      1.630607     1.622964     1.615321     1.607677     1.600034     1.592391     1.584748     1.577105     1.569462     1.561819
      1.554176     1.546533     1.538890     1.531246     1.523603     1.515960     1.508317     1.500674     1.493031     1.485388
      1.477745     1.470102     1.462458     1.454815     1.447172     1.439529     1.431886     1.424243     1.416600     1.408957
      1.401314     1.393671     1.386027     1.378384     1.370741     1.363098     1.355455     1.347812     1.340169     1.332526
      1.324883     1.317240     1.309596     1.301953     1.294310     1.286667     1.279024     1.271381     1.263738     1.256095
      1.248452     1.240808     1.233165     1.225522     1.217879     1.210236     1.202593     1.194950     1.187307     1.179664
      1.172021     1.164377     1.156734     1.149091     1.141448     1.133805     1.126162     1.118519     1.110876     1.103233
      1.095590     1.087946     1.080303     1.072660     1.065017     1.057374     1.049731     1.042088     1.034445     1.026802
      1.019158     1.011515     1.003872     0.996229     0.988586     0.980943     0.973300     0.965657     0.958014     0.950371
      0.942727     0.935084     0.927441     0.919798     0.912155     0.904512     0.896869     0.889226     0.881583     0.873940
      0.866296     0.858653     0.851010     0.843367     0.835724     0.828081     0.820438     0.812795     0.805152     0.797508
      0.789865     0.782222     0.774579     0.766936     0.759293     0.751650     0.744007     0.736364     0.728721     0.721077
      0.713434     0.705791     0.698148     0.690505     0.682862     0.675219     0.667576     0.659933     0.652290     0.644646
      0.637003     0.629360     0.621717     0.614074     0.606431     0.598788     0.591145     0.583502     0.575858     0.568215
      0.560572     0.552929     0.545286     0.537643     0.530000     0.522357     0.514714     0.507071     0.499427     0.491784
      0.484141     0.476498     0.468855     0.461212     0.453569     0.445925     0.438282     0.430639     0.422996     0.415353
      0.407710     0.400067     0.392424     0.384780     0.377137     0.369494     0.361851     0.354208     0.346565     0.338922
      0.331278     0.323635     0.315992     0.308349     0.300706     0.293063     0.285420     0.277777     0.270133     0.262490
      0.254847     0.247204     0.239561     0.231918     0.224275     0.216631     0.208988     0.201345
 NY phased data points follow
  -1.57194E+00 -9.02523E-01 -2.66105E+00 -4.29689E+00 -2.81426E+00 -3.55817E+00 -5.13868E+00 -2.27641E+00 -6.68860E+00 -2.88107E+00
  -3.88083E+00  1.19369E+00  5.32626E-01  2.24423E+00 -1.30484E+00  3.44471E+00 -2.43541E+00 -5.28989E+00 -2.03508E+00 -1.59198E+00
  -4.42557E+00 -2.12792E+00 -2.17319E+00  5.78253E-01 -2.77376E+00 -2.27739E+00 -1.69170E+00 -1.57161E+00 -1.26563E+00 -4.19986E+00
  -4.14832E+00  2.40550E-01 -2.11319E+00 -4.61479E+00 -1.66829E+00 -3.03079E+00 -3.01951E+00 -3.91473E+00 -2.43335E+00 -4.58916E+00
  -5.44468E+00 -1.55268E+00 -1.44599E+00  9.19499E-01 -7.55432E+00 -6.00850E-01 -8.99250E-01  3.02001E-01 -4.59349E-01 -2.38234E-01
  -2.27612E+00 -2.98426E+00 -1.70041E+00  1.08552E+00  3.32667E-01 -3.53363E+00 -1.72983E+00 -8.57835E-01 -3.17362E+00 -1.39784E+00
  -2.02286E+00 -4.18224E+00 -1.60706E+00 -3.71234E+00 -7.41514E-01 -1.75409E+00 -2.48849E+00 -2.41009E+00 -6.29483E+00 -3.97223E+00
  -1.25604E+00 -1.23513E+00  2.28528E+00 -4.72120E+00 -1.05096E+00 -2.46903E+00 -3.71933E+00 -6.45474E-01 -4.66801E+00 -4.40202E+00
  -3.53257E+00 -1.01935E+00 -8.02163E-01 -1.64105E+00 -3.30481E+00 -2.22967E+00 -2.01702E+00 -2.05551E+00 -1.82469E+00 -1.95705E+00
  -3.47731E+00 -4.89672E+00 -1.48525E+00 -3.14303E+00 -3.81970E+00 -4.74306E+00 -1.68507E-02 -4.15071E+00 -3.26678E+00 -5.90129E+00
  -2.25436E+00  4.43386E-01 -4.05705E+00 -7.14347E-01  7.57059E-01  2.75561E-02  4.42266E+00 -8.18210E-01  2.74943E-01 -2.74810E-01
  -1.48483E+00 -1.09987E+00 -6.58033E+00 -3.87020E+00 -3.44385E+00  4.72476E-03 -9.47588E-01  7.03447E-01 -1.92309E-01 -4.32298E+00
  -5.40110E+00 -4.56901E+00 -2.89303E+00 -4.28581E+00 -2.17693E+00 -5.20575E+00  4.67538E+00  4.26989E-01  1.53244E+00  2.83359E+00
   4.13396E+00  6.69218E-01  1.35203E+00  1.29717E+00  1.66238E+00 -2.55797E+00 -1.68949E+00 -2.21144E+00 -3.28758E+00 -2.03875E+00
  -1.72335E+00 -5.94756E-01 -2.40426E+00 -3.00667E+00 -2.99042E+00 -6.70521E+00 -9.76696E-02 -2.02099E+00  1.93921E+00 -2.62775E-01
  -1.00602E+00  6.54347E-01 -2.33078E-01  9.86073E-01 -5.85269E-01 -3.64134E+00 -2.88542E+00 -4.51278E-01 -6.38514E-01 -3.91777E-01
  -6.53965E-01  1.85072E-01 -9.79672E-01 -2.11189E+00  3.89391E-01  9.92931E-01 -2.34221E+00 -2.18424E+00 -5.37670E-01 -1.16904E-01
  -1.32976E-01 -2.69889E+00 -2.56254E-01  2.42491E+00 -1.74635E+00 -4.51904E+00 -4.41733E-01 -1.71870E-01 -5.71046E-01 -3.70922E+00
  -2.85431E-01 -7.39999E-01  3.17882E-01 -1.28580E+00 -1.01089E+00 -2.10242E+00 -1.63720E+00 -2.38823E-01 -1.98338E-01 -3.76566E+00
  -9.68779E-01 -1.56599E+00  3.06840E-01 -4.41006E+00  9.71249E-01  1.88465E+00 -1.48972E-01 -8.33764E-01  4.99940E+00  2.19703E-01
   1.25940E+00 -2.29253E+00  9.27760E-02 -1.50105E+00 -7.30821E-01  2.43930E+00  1.71842E+00  2.17921E+00  1.19790E+00 -1.93284E+00
  -3.61704E+00 -2.28255E-01  1.27846E-01 -3.12176E-01 -1.98193E+00 -1.12164E+00 -1.47356E+00 -3.32733E-01  1.17673E+00  4.54150E+00
  -4.81913E-02 -1.49120E+00  1.86826E+00 -2.59071E+00 -1.96265E+00 -7.28091E-01  2.43720E+00 -2.50654E+00  1.33924E+00 -7.77877E-01
   2.72689E+00 -1.37341E-01 -8.75667E-02 -3.37427E-01 -3.28954E-01 -6.51262E-01 -6.98456E-03  3.87489E-01 -1.31919E+00 -2.87690E+00
   7.91492E-02  3.61889E-01  1.67632E+00 -2.38554E+00 -1.60618E+00 -2.38310E+00  4.05733E-02  2.21135E+00 -8.20742E-01 -1.07100E+00
   1.19858E+00  1.31636E+00 -4.62923E+00 -2.60250E+00  8.25933E-01 -3.52693E+00 -3.10728E+00 -2.31736E+00 -1.44641E+00  1.88534E+00
   1.01758E+00  3.14059E+00  5.23110E+00  4.22249E+00  3.35126E+00  2.33566E+00 -3.91215E+00 -4.51854E-01 -1.28426E+00 -6.08801E+00
  -2.83355E+00  4.42743E-01  9.11779E-01 -7.96268E-02  2.84375E+00  1.86997E+00 -1.41229E+00 -6.56746E-01 -3.19448E-01 -2.05921E+00
   1.05670E+00 -2.36902E+00 -1.13411E-01 -1.34322E+00 -1.14715E+00 -7.97380E-02  1.35042E+00  1.77946E+00 -2.48722E+00  1.67639E+00
   3.71318E+00  3.98698E-01  4.08626E-01  1.68134E-01  1.60047E+00  1.00763E+00  2.08503E+00 -1.30386E+00  6.45969E-01  1.43380E+00
   5.40555E-01  1.14084E+00  2.67145E+00  4.74825E-02 -1.20962E-01  4.77958E-01 -5.51490E-01 -9.00335E-01  2.54093E+00 -1.17032E-01
  -1.22315E+00  2.41529E+00  2.88049E+00  3.79983E-01 -1.25048E-01  1.92029E+00  7.16242E-01  1.04354E+00  1.81993E+00  2.03710E+00
   2.16471E-01  4.02121E+00 -1.96855E-01  1.45726E+00 -2.42876E+00  5.64409E+00  7.75536E-01  2.14163E+00 -3.99662E-01  1.58266E+00
   2.21444E+00  3.82935E+00  6.78898E-01 -6.83199E-01  2.21872E+00  2.97721E+00  9.61620E-01  5.89063E+00  4.94956E+00  6.55170E+00
   3.11083E+00  3.22801E+00  3.26448E+00  3.99807E+00  2.87773E+00  1.49110E+00  1.11286E+00  2.93502E+00 -9.01752E-01 -1.32387E+00
   7.15281E-02  1.64247E+00 -5.46255E-01  3.61884E-01 -2.65412E-01 -5.45957E+00 -2.11015E+00 -3.38475E+00 -3.81751E+00 -2.63097E+00
  -8.57538E+00 -2.86198E+00 -5.71856E-01 -2.46332E-01 -1.51511E+00 -2.90936E+00 -3.64364E-01 -4.07220E+00 -4.83522E+00 -3.71457E+00
  -1.60806E+00 -1.51379E+00  1.11004E+00 -1.64629E+00 -5.70210E+00 -2.64919E+00 -3.25613E+00 -9.03117E-01 -3.49821E+00 -3.88655E+00
  -5.82712E+00 -6.79365E-01 -5.46511E+00 -5.58416E+00 -8.52685E+00 -8.59693E+00 -1.69971E+00 -1.68161E+00 -7.56571E+00 -5.20766E+00
  -4.90277E+00 -4.67694E+00 -2.17046E+00  7.47780E-01 -4.18377E+00 -3.89959E+00 -6.83087E-01 -3.28628E+00 -2.48334E+00  6.70042E-01
   3.42853E+00 -1.44304E+00 -3.09017E+00 -6.62055E-01  9.06593E-01  2.21480E-01  6.54018E-01  1.85735E+00 -9.79922E-01  1.80430E+00
   6.65231E-01 -1.47247E+00 -2.15821E-01 -2.33931E+00 -1.05764E+00  1.32850E+00 -1.76669E+00 -1.63778E+00 -2.63106E+00  2.17616E+00
  -3.81071E-01 -3.30289E+00  2.20056E+00 -8.64545E-01  2.96656E+00  3.29599E+00  4.77518E+00  2.24865E+00  2.65759E+00 -1.21020E+00
  -1.49264E-01 -1.57520E+00 -1.69906E+00 -3.61009E-01  8.54663E-01 -4.62650E-01  7.97260E-01 -7.63595E-01 -7.21481E-01 -4.21217E+00
   5.64667E-01 -2.12888E+00  5.57603E+00 -1.98487E+00  7.14184E-01  1.25404E+00 -4.00072E-01 -2.01319E+00 -3.81659E+00  1.23277E+00
  -2.09329E+00 -1.35011E+00  8.97947E-03 -8.83532E-01 -1.34469E+00 -1.54710E+00  5.18361E-02  2.49570E-01 -3.74489E+00 -1.30848E+00
  -1.88433E+00 -2.28637E+00  2.90342E+00  6.03636E-01  1.46110E+00 -1.50442E+00  5.54513E-02 -3.79501E+00 -2.70842E+00 -1.26759E+00
  -1.74099E+00 -1.72686E+00 -2.87980E+00 -6.48101E-01 -8.54260E-01 -2.77695E+00 -1.35961E+00 -3.28891E-01 -9.88090E-01  2.37367E+00
  -5.33869E+00 -2.68621E+00  7.38425E-01  2.39052E+00 -2.74591E+00  2.84081E-01 -1.93643E+00 -3.65750E+00  2.39945E+00 -2.40976E-01
  -7.66693E-01 -2.28793E+00 -3.24798E+00  5.82611E-02  4.67240E-01 -1.79281E+00 -3.34050E+00  1.00199E+00
 NY points of the fit to the data follow
  -1.83087E+00 -1.84821E+00 -1.86033E+00 -1.84889E+00 -1.82662E+00 -2.01183E+00 -2.82769E+00 -3.60392E+00 -3.53329E+00 -2.65711E+00
  -1.43204E+00 -2.96357E-01  6.36245E-01  1.26012E+00  1.22685E+00  4.29526E-01 -6.91822E-01 -1.49048E+00 -1.82127E+00 -1.94918E+00
  -2.03192E+00 -2.01675E+00 -1.85923E+00 -1.58548E+00 -1.33462E+00 -1.21300E+00 -1.24506E+00 -1.44644E+00 -1.81615E+00 -2.24196E+00
  -2.50104E+00 -2.44576E+00 -2.13117E+00 -1.71270E+00 -1.35081E+00 -1.16498E+00 -1.18017E+00 -1.37007E+00 -1.62439E+00 -1.82523E+00
  -1.90479E+00 -1.88003E+00 -1.82264E+00 -1.77823E+00 -1.75448E+00 -1.73694E+00 -1.69767E+00 -1.65096E+00 -1.62021E+00 -1.60641E+00
  -1.61066E+00 -1.63762E+00 -1.67825E+00 -1.70644E+00 -1.71142E+00 -1.70390E+00 -1.69686E+00 -1.69484E+00 -1.68965E+00 -1.67699E+00
  -1.66143E+00 -1.64948E+00 -1.64422E+00 -1.64166E+00 -1.64912E+00 -1.65641E+00 -1.65628E+00 -1.65628E+00 -1.65606E+00 -1.65550E+00
  -1.66877E+00 -1.69391E+00 -1.70002E+00 -1.67275E+00 -1.62177E+00 -1.56594E+00 -1.52594E+00 -1.51483E+00 -1.53092E+00 -1.56859E+00
  -1.62266E+00 -1.69681E+00 -1.74284E+00 -1.71464E+00 -1.62961E+00 -1.53280E+00 -1.46361E+00 -1.42953E+00 -1.41504E+00 -1.42213E+00
  -1.46088E+00 -1.51772E+00 -1.56021E+00 -1.58715E+00 -1.62027E+00 -1.65104E+00 -1.68570E+00 -1.80599E+00 -2.35029E+00 -3.09662E+00
  -3.16160E+00 -2.42499E+00 -1.26095E+00 -1.26280E-01  7.72492E-01  1.37728E+00  1.45308E+00  8.44414E-01 -1.59346E-01 -9.72693E-01
  -1.31276E+00 -1.38765E+00 -1.40187E+00 -1.40315E+00 -1.39637E+00 -1.38268E+00 -1.37106E+00 -1.36774E+00 -1.37167E+00 -1.39449E+00
  -1.48601E+00 -1.93288E+00 -3.20487E+00 -4.07929E+00 -3.59206E+00 -2.00039E+00 -4.04181E-02  1.66866E+00  2.96191E+00  3.62391E+00
   3.23823E+00  1.84439E+00  2.12835E-01 -7.85060E-01 -1.12604E+00 -1.22502E+00 -1.27232E+00 -1.28933E+00 -1.28824E+00 -1.28854E+00
  -1.29905E+00 -1.31933E+00 -1.33568E+00 -1.34161E+00 -1.34315E+00 -1.34176E+00 -1.33775E+00 -1.33419E+00 -1.33736E+00 -1.34944E+00
  -1.36707E+00 -1.38604E+00 -1.40117E+00 -1.41262E+00 -1.42048E+00 -1.40976E+00 -1.36482E+00 -1.32540E+00 -1.33020E+00 -1.38483E+00
  -1.47752E+00 -1.54546E+00 -1.56788E+00 -1.55393E+00 -1.50595E+00 -1.43357E+00 -1.36632E+00 -1.34213E+00 -1.36748E+00 -1.41422E+00
  -1.44335E+00 -1.42465E+00 -1.40032E+00 -1.43312E+00 -1.49912E+00 -1.55096E+00 -1.54833E+00 -1.52037E+00 -1.50732E+00 -1.50599E+00
  -1.49772E+00 -1.47332E+00 -1.44610E+00 -1.45988E+00 -1.50324E+00 -1.52720E+00 -1.51770E+00 -1.49120E+00 -1.45820E+00 -1.41342E+00
  -1.35013E+00 -1.28370E+00 -1.25267E+00 -1.24470E+00 -1.23583E+00 -1.22006E+00 -1.20965E+00 -1.21427E+00 -1.24000E+00 -1.29360E+00
  -1.34178E+00 -1.34537E+00 -1.25991E+00 -1.10201E+00 -9.23422E-01 -7.35645E-01 -6.35060E-01 -6.84728E-01 -8.49154E-01 -1.11209E+00
  -1.42580E+00 -1.76449E+00 -1.91492E+00 -1.74254E+00 -1.33031E+00 -8.39970E-01 -3.98263E-01 -2.34421E-02  1.66496E-01 -3.85487E-02
  -5.99249E-01 -1.20662E+00 -1.61453E+00 -1.77411E+00 -1.73620E+00 -1.51085E+00 -1.11410E+00 -6.89369E-01 -4.18478E-01 -3.45628E-01
  -3.79636E-01 -4.17981E-01 -4.52459E-01 -4.82497E-01 -4.88714E-01 -4.45087E-01 -3.61250E-01 -2.67741E-01 -1.53141E-01 -7.11716E-02
  -4.39903E-02 -4.93665E-02 -5.97566E-02 -6.82877E-02 -5.78096E-02  2.84034E-03  1.13330E-01  2.22271E-01  2.59052E-01  2.05463E-01
   8.54914E-02 -1.00356E-01 -2.30309E-01 -2.18302E-01 -2.53496E-01 -1.02408E+00 -2.09569E+00 -2.05066E+00 -7.83622E-01  1.02285E+00
   2.66214E+00  3.90647E+00  4.70695E+00  4.65732E+00  3.49555E+00  1.74645E+00  3.85857E-01 -1.99433E-01 -3.97679E-01 -5.21902E-01
  -6.19144E-01 -6.92331E-01 -7.41987E-01 -7.62042E-01 -7.56350E-01 -7.35774E-01 -7.13023E-01 -7.05655E-01 -7.23159E-01 -7.59144E-01
  -7.99996E-01 -8.37520E-01 -8.66787E-01 -8.84150E-01 -8.89244E-01 -8.84430E-01 -8.73436E-01 -8.61187E-01 -8.48743E-01 -8.34550E-01
  -8.18423E-01 -7.99779E-01 -7.77794E-01 -7.52512E-01 -7.24416E-01 -6.95392E-01 -6.67245E-01 -6.40662E-01 -6.15313E-01 -5.90747E-01
  -5.67517E-01 -5.46220E-01 -5.27047E-01 -5.10443E-01 -4.97298E-01 -4.88459E-01 -4.84100E-01 -4.83848E-01 -4.87117E-01 -4.93022E-01
  -5.00623E-01 -5.08995E-01 -5.17166E-01 -5.24121E-01 -5.28917E-01 -5.30742E-01 -5.29051E-01 -5.23765E-01 -5.15780E-01 -5.08132E-01
  -5.09656E-01 -5.47783E-01 -6.30811E-01 -4.86505E-01 -3.68464E-02  4.81365E-01  8.58124E-01  1.01599E+00  1.00508E+00  8.36792E-01
   3.02610E-01 -5.09882E-01 -1.10315E+00 -1.19730E+00 -9.03273E-01 -4.73590E-01 -1.39896E-02  4.56361E-01  8.24712E-01  9.37145E-01
   7.74419E-01  5.09647E-01  3.05730E-01  1.69462E-01  6.21615E-02 -3.15926E-02 -1.16695E-01 -1.94715E-01 -2.66014E-01 -3.30492E-01
  -3.87968E-01 -4.38309E-01 -4.81535E-01 -5.17820E-01 -5.47523E-01 -5.71138E-01 -5.89290E-01 -6.02671E-01 -6.12044E-01 -6.18174E-01
  -6.21822E-01 -6.23686E-01 -6.24403E-01 -6.24511E-01 -6.24471E-01 -6.24625E-01 -6.25227E-01 -6.26406E-01 -6.28210E-01 -6.30591E-01
  -6.33444E-01 -6.36591E-01 -6.39816E-01 -6.42850E-01 -6.45411E-01 -6.47191E-01 -6.47896E-01 -6.47212E-01 -6.44839E-01 -6.40462E-01
  -6.33786E-01 -6.24507E-01 -6.12337E-01 -5.96965E-01 -5.78084E-01 -5.55361E-01 -5.28475E-01 -4.97089E-01 -4.60883E-01 -4.19535E-01
  -3.72768E-01 -3.20341E-01 -2.62114E-01 -1.98044E-01 -1.28243E-01 -5.29812E-02  2.72495E-02  1.11738E-01  1.99501E-01  2.89310E-01
   3.79674E-01  4.68892E-01  5.55059E-01  6.36157E-01  7.10094E-01  7.74829E-01  8.28434E-01  8.69221E-01  8.95794E-01  9.07159E-01
   9.02748E-01  8.82496E-01  8.46814E-01  7.96600E-01  7.33163E-01  6.58189E-01  5.73622E-01  4.81603E-01  3.84341E-01  2.84043E-01
   1.82788E-01  8.24930E-02 -1.51795E-02 -1.08822E-01 -1.97338E-01 -2.79911E-01 -3.56026E-01 -4.25410E-01 -4.88027E-01 -5.44004E-01
  -5.93632E-01 -6.37289E-01 -6.75440E-01 -7.08574E-01 -7.37204E-01 -7.61819E-01 -7.82902E-01 -8.00889E-01 -8.16196E-01 -8.29179E-01
  -8.40164E-01 -8.49423E-01 -8.57206E-01 -8.63718E-01 -8.69146E-01 -8.73635E-01 -8.77321E-01 -8.80306E-01 -8.82690E-01 -8.84548E-01
  -8.85956E-01 -8.86961E-01 -8.87619E-01 -8.87963E-01 -8.88039E-01 -8.87870E-01 -8.87491E-01 -8.86917E-01 -8.86174E-01 -8.85273E-01
  -8.84239E-01 -8.83079E-01 -8.81813E-01 -8.80442E-01 -8.78981E-01 -8.77431E-01 -8.75811E-01 -8.74120E-01 -8.72371E-01 -8.70560E-01
  -8.68700E-01 -8.66788E-01 -8.64837E-01 -8.62844E-01 -8.60817E-01 -8.58749E-01 -8.56653E-01 -8.54524E-01 -8.52373E-01 -8.50196E-01
  -8.47998E-01 -8.45774E-01 -8.43533E-01 -8.41271E-01 -8.38998E-01 -8.36705E-01 -8.34400E-01 -8.32075E-01 -8.29741E-01 -8.27392E-01
  -8.25039E-01 -8.22671E-01 -8.20294E-01 -8.17902E-01 -8.15505E-01 -8.13100E-01 -8.10692E-01 -8.08273E-01
 NY background values follow
    -1.883E+00   -1.880E+00   -1.878E+00   -1.876E+00   -1.874E+00   -1.871E+00   -1.869E+00   -1.867E+00   -1.865E+00   -1.862E+00
    -1.860E+00   -1.858E+00   -1.856E+00   -1.853E+00   -1.851E+00   -1.849E+00   -1.846E+00   -1.844E+00   -1.842E+00   -1.840E+00
    -1.837E+00   -1.835E+00   -1.833E+00   -1.831E+00   -1.828E+00   -1.826E+00   -1.824E+00   -1.822E+00   -1.819E+00   -1.817E+00
    -1.815E+00   -1.812E+00   -1.810E+00   -1.808E+00   -1.806E+00   -1.803E+00   -1.801E+00   -1.799E+00   -1.797E+00   -1.794E+00
    -1.792E+00   -1.790E+00   -1.788E+00   -1.785E+00   -1.783E+00   -1.781E+00   -1.778E+00   -1.776E+00   -1.774E+00   -1.772E+00
    -1.769E+00   -1.767E+00   -1.765E+00   -1.763E+00   -1.760E+00   -1.758E+00   -1.756E+00   -1.753E+00   -1.751E+00   -1.749E+00
    -1.747E+00   -1.744E+00   -1.742E+00   -1.740E+00   -1.738E+00   -1.735E+00   -1.733E+00   -1.731E+00   -1.728E+00   -1.726E+00
    -1.724E+00   -1.722E+00   -1.719E+00   -1.717E+00   -1.715E+00   -1.713E+00   -1.710E+00   -1.708E+00   -1.706E+00   -1.703E+00
    -1.701E+00   -1.699E+00   -1.697E+00   -1.694E+00   -1.692E+00   -1.690E+00   -1.688E+00   -1.685E+00   -1.683E+00   -1.681E+00
    -1.678E+00   -1.676E+00   -1.674E+00   -1.672E+00   -1.669E+00   -1.667E+00   -1.665E+00   -1.662E+00   -1.660E+00   -1.658E+00
    -1.656E+00   -1.653E+00   -1.651E+00   -1.649E+00   -1.647E+00   -1.644E+00   -1.642E+00   -1.640E+00   -1.637E+00   -1.635E+00
    -1.633E+00   -1.631E+00   -1.628E+00   -1.626E+00   -1.624E+00   -1.621E+00   -1.619E+00   -1.617E+00   -1.615E+00   -1.612E+00
    -1.610E+00   -1.608E+00   -1.606E+00   -1.603E+00   -1.601E+00   -1.599E+00   -1.596E+00   -1.594E+00   -1.592E+00   -1.590E+00
    -1.587E+00   -1.585E+00   -1.583E+00   -1.580E+00   -1.578E+00   -1.576E+00   -1.574E+00   -1.571E+00   -1.569E+00   -1.567E+00
    -1.565E+00   -1.562E+00   -1.560E+00   -1.558E+00   -1.555E+00   -1.553E+00   -1.551E+00   -1.549E+00   -1.546E+00   -1.544E+00
    -1.542E+00   -1.539E+00   -1.537E+00   -1.535E+00   -1.533E+00   -1.530E+00   -1.528E+00   -1.526E+00   -1.524E+00   -1.521E+00
    -1.519E+00   -1.517E+00   -1.514E+00   -1.512E+00   -1.510E+00   -1.508E+00   -1.505E+00   -1.503E+00   -1.501E+00   -1.498E+00
    -1.496E+00   -1.494E+00   -1.492E+00   -1.489E+00   -1.487E+00   -1.485E+00   -1.482E+00   -1.480E+00   -1.478E+00   -1.476E+00
    -1.473E+00   -1.471E+00   -1.469E+00   -1.467E+00   -1.464E+00   -1.462E+00   -1.460E+00   -1.457E+00   -1.455E+00   -1.453E+00
    -1.451E+00   -1.448E+00   -1.446E+00   -1.444E+00   -1.441E+00   -1.439E+00   -1.437E+00   -1.435E+00   -1.432E+00   -1.430E+00
    -1.428E+00   -1.425E+00   -1.423E+00   -1.421E+00   -1.419E+00   -1.416E+00   -1.414E+00   -1.412E+00   -1.410E+00   -1.407E+00
    -1.405E+00   -1.403E+00   -1.400E+00   -1.398E+00   -1.396E+00   -1.394E+00   -1.391E+00   -1.389E+00   -1.387E+00   -1.384E+00
    -1.382E+00   -1.380E+00   -1.378E+00   -1.375E+00   -1.373E+00   -1.371E+00   -1.368E+00   -1.366E+00   -1.364E+00   -1.362E+00
    -1.359E+00   -1.357E+00   -1.355E+00   -1.353E+00   -1.350E+00   -1.348E+00   -1.346E+00   -1.343E+00   -1.341E+00   -1.339E+00
    -1.337E+00   -1.334E+00   -1.332E+00   -1.330E+00   -1.327E+00   -1.325E+00   -1.323E+00   -1.321E+00   -1.318E+00   -1.316E+00
    -1.314E+00   -1.311E+00   -1.309E+00   -1.307E+00   -1.305E+00   -1.302E+00   -1.300E+00   -1.298E+00   -1.296E+00   -1.293E+00
    -1.291E+00   -1.289E+00   -1.286E+00   -1.284E+00   -1.282E+00   -1.280E+00   -1.277E+00   -1.275E+00   -1.273E+00   -1.270E+00
    -1.268E+00   -1.266E+00   -1.264E+00   -1.261E+00   -1.259E+00   -1.257E+00   -1.255E+00   -1.252E+00   -1.250E+00   -1.248E+00
    -1.245E+00   -1.243E+00   -1.241E+00   -1.239E+00   -1.236E+00   -1.234E+00   -1.232E+00   -1.229E+00   -1.227E+00   -1.225E+00
    -1.223E+00   -1.220E+00   -1.218E+00   -1.216E+00   -1.214E+00   -1.211E+00   -1.209E+00   -1.207E+00   -1.204E+00   -1.202E+00
    -1.200E+00   -1.198E+00   -1.195E+00   -1.193E+00   -1.191E+00   -1.188E+00   -1.186E+00   -1.184E+00   -1.182E+00   -1.179E+00
    -1.177E+00   -1.175E+00   -1.173E+00   -1.170E+00   -1.168E+00   -1.166E+00   -1.163E+00   -1.161E+00   -1.159E+00   -1.157E+00
    -1.154E+00   -1.152E+00   -1.150E+00   -1.147E+00   -1.145E+00   -1.143E+00   -1.141E+00   -1.138E+00   -1.136E+00   -1.134E+00
    -1.132E+00   -1.129E+00   -1.127E+00   -1.125E+00   -1.122E+00   -1.120E+00   -1.118E+00   -1.116E+00   -1.113E+00   -1.111E+00
    -1.109E+00   -1.107E+00   -1.104E+00   -1.102E+00   -1.100E+00   -1.097E+00   -1.095E+00   -1.093E+00   -1.091E+00   -1.088E+00
    -1.086E+00   -1.084E+00   -1.082E+00   -1.079E+00   -1.077E+00   -1.075E+00   -1.072E+00   -1.070E+00   -1.068E+00   -1.066E+00
    -1.063E+00   -1.061E+00   -1.059E+00   -1.057E+00   -1.054E+00   -1.052E+00   -1.050E+00   -1.047E+00   -1.045E+00   -1.043E+00
    -1.041E+00   -1.038E+00   -1.036E+00   -1.034E+00   -1.032E+00   -1.029E+00   -1.027E+00   -1.025E+00   -1.023E+00   -1.020E+00
    -1.018E+00   -1.016E+00   -1.013E+00   -1.011E+00   -1.009E+00   -1.007E+00   -1.004E+00   -1.002E+00   -9.998E-01   -9.976E-01
    -9.953E-01   -9.930E-01   -9.908E-01   -9.885E-01   -9.862E-01   -9.840E-01   -9.817E-01   -9.794E-01   -9.772E-01   -9.749E-01
    -9.726E-01   -9.704E-01   -9.681E-01   -9.658E-01   -9.636E-01   -9.613E-01   -9.590E-01   -9.568E-01   -9.545E-01   -9.522E-01
    -9.500E-01   -9.477E-01   -9.454E-01   -9.432E-01   -9.409E-01   -9.386E-01   -9.364E-01   -9.341E-01   -9.319E-01   -9.296E-01
    -9.273E-01   -9.251E-01   -9.228E-01   -9.205E-01   -9.183E-01   -9.160E-01   -9.137E-01   -9.115E-01   -9.092E-01   -9.070E-01
    -9.047E-01   -9.024E-01   -9.002E-01   -8.979E-01   -8.956E-01   -8.934E-01   -8.911E-01   -8.889E-01   -8.866E-01   -8.843E-01
    -8.821E-01   -8.798E-01   -8.776E-01   -8.753E-01   -8.730E-01   -8.708E-01   -8.685E-01   -8.663E-01   -8.640E-01   -8.617E-01
    -8.595E-01   -8.572E-01   -8.550E-01   -8.527E-01   -8.504E-01   -8.482E-01   -8.459E-01   -8.437E-01   -8.414E-01   -8.392E-01
    -8.369E-01   -8.346E-01   -8.324E-01   -8.301E-01   -8.279E-01   -8.256E-01   -8.234E-01   -8.211E-01   -8.189E-01   -8.166E-01
    -8.143E-01   -8.121E-01   -8.098E-01   -8.076E-01   -8.053E-01   -8.031E-01   -8.008E-01   -7.986E-01   -7.963E-01   -7.940E-01
    -7.918E-01   -7.895E-01   -7.873E-01   -7.850E-01   -7.828E-01   -7.805E-01   -7.783E-01   -7.760E-01   -7.738E-01   -7.715E-01
    -7.693E-01   -7.670E-01   -7.648E-01   -7.625E-01   -7.603E-01   -7.580E-01   -7.558E-01   -7.535E-01
 Ala      Conc. = 2.45E+01
