 LCModel (Version 6.3-1L) Copyright: S.W. Provencher.          Ref.: Magn. Reson. Med. 30:672-679 (1993).                
 Slice#2 Row#6 Col#7  PD_05_press_1_raw_act
 36 lines in following concentration table = NCONC+1
    Conc.  %SD /Cr+PCr  Metabolite                                         
   49.324 252% 3.6E-02 Ala                                                 
  305.053  72%   0.221 Asp                                                 
    0.000 999%   0.000 Cr                                                  
 1.38E+03   4%   1.000 PCr                                                 
    0.000 999%   0.000 GABA                                                
  194.429  79%   0.141 Glc                                                 
 1.19E+03  22%   0.862 Gln                                                 
 1.79E+03  17%   1.302 Glu                                                 
  610.021   4%   0.443 GPC                                                 
    0.000 999%   0.000 PCh                                                 
  429.564  18%   0.312 GSH                                                 
 1.27E+03  19%   0.924 Ins                                                 
    0.000 999%   0.000 Lac                                                 
 2.22E+03   3%   1.613 NAA                                                 
    0.000 999%   0.000 NAAG                                                
  148.771  18%   0.108 Scyllo                                              
   16.997 999% 1.2E-02 Tau                                                 
   26.680 364% 1.9E-02 -CrCH2                                              
  610.021   4%   0.443 GPC+PCh                                             
 2.22E+03   3%   1.613 NAA+NAAG                                            
 1.38E+03   4%   1.000 Cr+PCr                                              
 2.98E+03  15%   2.164 Glu+Gln                                             
 2.52E+03  20%   1.825 Lip13a                                              
   27.538 849% 2.0E-02 Lip13b                                              
    0.000 999%   0.000 Lip09                                               
 1.21E+03  13%   0.875 MM09                                                
  794.307  33%   0.576 Lip20                                               
 2.88E+03  12%   2.091 MM20                                                
  375.901  36%   0.273 MM12                                                
  383.864  84%   0.279 MM14                                                
  778.325  24%   0.565 MM17                                                
 2.54E+03  18%   1.845 Lip13a+Lip13b                                       
 3.30E+03  10%   2.396 MM14+Lip13a+Lip13b+MM12                             
 1.21E+03  13%   0.875 MM09+Lip09                                          
 3.68E+03   9%   2.668 MM20+Lip20                                          
   6 lines in following misc. output table
  FWHM = 0.069 ppm    S/N =  12                                            
  Data shift =-0.023 ppm                                                   
  Ph: -59 deg     -17.3 deg/ppm                                            
  alphaB,S = 4.5E+00,   1.1E+02                                            
   14 spline knots.   Ns = 8(1)                                            
  (14) 4 infls.   (11) 1 extrs.                                            
  498 points on ppm-axis = NY
      4.000000     3.992357     3.984714     3.977070     3.969427     3.961784     3.954141     3.946497     3.938854     3.931211
      3.923568     3.915925     3.908281     3.900638     3.892995     3.885352     3.877708     3.870065     3.862422     3.854779
      3.847136     3.839492     3.831849     3.824206     3.816563     3.808919     3.801276     3.793633     3.785990     3.778347
      3.770703     3.763060     3.755417     3.747774     3.740130     3.732487     3.724844     3.717201     3.709558     3.701914
      3.694271     3.686628     3.678985     3.671341     3.663698     3.656055     3.648412     3.640769     3.633125     3.625482
      3.617839     3.610196     3.602552     3.594909     3.587266     3.579623     3.571980     3.564336     3.556693     3.549050
      3.541407     3.533763     3.526120     3.518477     3.510834     3.503191     3.495547     3.487904     3.480261     3.472618
      3.464974     3.457331     3.449688     3.442045     3.434402     3.426758     3.419115     3.411472     3.403829     3.396185
      3.388542     3.380899     3.373256     3.365613     3.357969     3.350326     3.342683     3.335040     3.327396     3.319753
      3.312110     3.304467     3.296824     3.289180     3.281537     3.273894     3.266251     3.258607     3.250964     3.243321
      3.235678     3.228034     3.220391     3.212748     3.205105     3.197462     3.189818     3.182175     3.174532     3.166889
      3.159245     3.151602     3.143959     3.136316     3.128673     3.121029     3.113386     3.105743     3.098100     3.090456
      3.082813     3.075170     3.067527     3.059884     3.052240     3.044597     3.036954     3.029311     3.021667     3.014024
      3.006381     2.998738     2.991095     2.983451     2.975808     2.968165     2.960522     2.952878     2.945235     2.937592
      2.929949     2.922306     2.914662     2.907019     2.899376     2.891733     2.884089     2.876446     2.868803     2.861160
      2.853517     2.845873     2.838230     2.830587     2.822944     2.815300     2.807657     2.800014     2.792371     2.784728
      2.777084     2.769441     2.761798     2.754155     2.746511     2.738868     2.731225     2.723582     2.715939     2.708295
      2.700652     2.693009     2.685366     2.677722     2.670079     2.662436     2.654793     2.647150     2.639506     2.631863
      2.624220     2.616577     2.608933     2.601290     2.593647     2.586004     2.578361     2.570717     2.563074     2.555431
      2.547788     2.540144     2.532501     2.524858     2.517215     2.509572     2.501928     2.494285     2.486642     2.478999
      2.471355     2.463712     2.456069     2.448426     2.440783     2.433139     2.425496     2.417853     2.410210     2.402566
      2.394923     2.387280     2.379637     2.371994     2.364350     2.356707     2.349064     2.341421     2.333777     2.326134
      2.318491     2.310848     2.303205     2.295561     2.287918     2.280275     2.272632     2.264988     2.257345     2.249702
      2.242059     2.234416     2.226772     2.219129     2.211486     2.203843     2.196199     2.188556     2.180913     2.173270
      2.165627     2.157983     2.150340     2.142697     2.135054     2.127410     2.119767     2.112124     2.104481     2.096838
      2.089194     2.081551     2.073908     2.066265     2.058621     2.050978     2.043335     2.035692     2.028049     2.020405
      2.012762     2.005119     1.997476     1.989833     1.982190     1.974546     1.966903     1.959260     1.951617     1.943974
      1.936331     1.928688     1.921045     1.913402     1.905759     1.898115     1.890472     1.882829     1.875186     1.867543
      1.859900     1.852257     1.844614     1.836971     1.829327     1.821684     1.814041     1.806398     1.798755     1.791112
      1.783469     1.775826     1.768183     1.760540     1.752896     1.745253     1.737610     1.729967     1.722324     1.714681
      1.707038     1.699395     1.691752     1.684108     1.676465     1.668822     1.661179     1.653536     1.645893     1.638250
      1.630607     1.622964     1.615321     1.607677     1.600034     1.592391     1.584748     1.577105     1.569462     1.561819
      1.554176     1.546533     1.538890     1.531246     1.523603     1.515960     1.508317     1.500674     1.493031     1.485388
      1.477745     1.470102     1.462458     1.454815     1.447172     1.439529     1.431886     1.424243     1.416600     1.408957
      1.401314     1.393671     1.386027     1.378384     1.370741     1.363098     1.355455     1.347812     1.340169     1.332526
      1.324883     1.317240     1.309596     1.301953     1.294310     1.286667     1.279024     1.271381     1.263738     1.256095
      1.248452     1.240808     1.233165     1.225522     1.217879     1.210236     1.202593     1.194950     1.187307     1.179664
      1.172021     1.164377     1.156734     1.149091     1.141448     1.133805     1.126162     1.118519     1.110876     1.103233
      1.095590     1.087946     1.080303     1.072660     1.065017     1.057374     1.049731     1.042088     1.034445     1.026802
      1.019158     1.011515     1.003872     0.996229     0.988586     0.980943     0.973300     0.965657     0.958014     0.950371
      0.942727     0.935084     0.927441     0.919798     0.912155     0.904512     0.896869     0.889226     0.881583     0.873940
      0.866296     0.858653     0.851010     0.843367     0.835724     0.828081     0.820438     0.812795     0.805152     0.797508
      0.789865     0.782222     0.774579     0.766936     0.759293     0.751650     0.744007     0.736364     0.728721     0.721077
      0.713434     0.705791     0.698148     0.690505     0.682862     0.675219     0.667576     0.659933     0.652290     0.644646
      0.637003     0.629360     0.621717     0.614074     0.606431     0.598788     0.591145     0.583502     0.575858     0.568215
      0.560572     0.552929     0.545286     0.537643     0.530000     0.522357     0.514714     0.507071     0.499427     0.491784
      0.484141     0.476498     0.468855     0.461212     0.453569     0.445925     0.438282     0.430639     0.422996     0.415353
      0.407710     0.400067     0.392424     0.384780     0.377137     0.369494     0.361851     0.354208     0.346565     0.338922
      0.331278     0.323635     0.315992     0.308349     0.300706     0.293063     0.285420     0.277777     0.270133     0.262490
      0.254847     0.247204     0.239561     0.231918     0.224275     0.216631     0.208988     0.201345
 NY phased data points follow
  -2.89708E+01 -2.38533E+01 -2.18416E+01 -1.48748E+01 -1.19310E+01 -8.13265E+00 -1.93907E+00  3.76022E+00  1.05355E+01  5.96603E+00
   7.58095E+00  6.91357E+00  2.84319E+00  2.36200E+00 -5.27430E+00 -1.15295E+01 -1.35119E+01 -1.67885E+01 -1.80669E+01 -1.78088E+01
  -1.85663E+01 -1.47957E+01 -1.33990E+01 -1.36865E+01 -1.62951E+01 -1.23546E+01 -9.87492E+00 -9.67913E+00 -6.33881E+00 -4.75108E+00
  -7.51538E+00 -6.17250E+00 -1.04507E+01 -8.00704E+00 -1.08218E+01 -1.09777E+01 -1.17041E+01 -1.30155E+01 -1.39757E+01 -9.84064E+00
  -7.15478E+00 -1.06610E+01 -9.44248E+00 -8.14844E+00 -6.04853E+00 -3.63722E+00 -2.72207E+00 -3.67406E+00 -3.11804E+00 -7.67429E+00
  -9.65996E+00 -1.33193E+01 -7.14129E+00 -1.25944E+01 -1.14211E+01 -9.19890E+00 -1.42750E+01 -1.26430E+01 -9.57550E+00 -1.32202E+01
  -1.85238E+01 -1.71390E+01 -1.59796E+01 -1.24045E+01 -2.18303E+01 -1.52237E+01 -1.99834E+01 -1.64667E+01 -1.85164E+01 -1.76252E+01
  -1.65038E+01 -1.60067E+01 -1.61729E+01 -1.23655E+01 -1.41916E+01 -1.38951E+01 -1.37486E+01 -1.27233E+01 -8.08713E+00 -7.33720E+00
  -1.28160E+01 -1.09996E+01 -7.82644E+00 -9.26419E+00 -1.06074E+01 -1.00727E+01 -1.03446E+01 -1.19845E+01 -1.13646E+01 -9.75323E+00
  -1.06913E+01 -1.22089E+01 -1.24330E+01 -1.05353E+01 -1.42959E+01 -5.75551E+00 -5.35562E+00 -1.63431E+00  1.05176E+01  1.74861E+01
   2.79907E+01  2.45691E+01  3.33578E+01  2.99553E+01  2.62470E+01  2.25268E+01  1.70382E+01  1.36956E+01  9.89565E+00  6.64350E-01
  -4.16596E+00 -6.53390E+00 -2.77106E+00 -5.58956E+00 -7.66906E+00 -7.99565E+00 -9.88068E+00 -1.12345E+01 -8.70430E+00 -1.10886E+01
  -5.79869E+00 -1.77048E+00  8.00652E+00  1.60402E+01  1.81404E+01  2.45716E+01  2.53098E+01  2.87211E+01  2.71248E+01  2.24520E+01
   1.71369E+01  1.13687E+01  6.32414E+00  3.07958E+00 -2.58506E+00 -7.81121E+00 -3.73617E+00 -1.01589E+01 -1.36912E+01 -9.36391E+00
  -1.03799E+01 -1.07897E+01 -1.22200E+01 -1.31998E+01 -1.32147E+01 -1.29908E+01 -1.48857E+01 -8.41427E+00 -6.17778E+00 -1.05376E+01
  -1.48030E+01 -5.65498E+00 -9.05259E+00 -1.26576E+01 -9.88265E+00 -9.89802E+00 -9.53212E+00 -1.14176E+01 -1.45684E+01 -1.31186E+01
  -1.15210E+01 -1.06738E+01 -9.06681E+00 -1.07876E+01 -9.34000E+00 -9.57871E+00 -7.30248E+00 -8.11402E+00 -6.32601E+00 -1.06614E+01
  -1.03620E+01 -7.24163E+00 -1.40378E+01 -1.27759E+01 -1.50591E+01 -1.31977E+01 -1.74595E+01 -9.33453E+00 -1.93984E+01 -1.90311E+01
  -1.62593E+01 -1.58238E+01 -1.59578E+01 -1.38631E+01 -1.72823E+01 -1.50563E+01 -1.14555E+01 -4.69522E+00 -7.53257E+00 -7.18275E+00
  -5.76316E+00 -4.55418E+00 -4.92156E+00 -2.97282E+00 -4.26211E+00 -2.43365E+00 -7.81835E+00 -6.77097E+00 -5.06181E+00 -4.63082E+00
  -3.53915E+00 -5.73109E+00 -3.64166E+00 -4.77861E+00 -4.08337E+00 -6.08833E+00 -6.24120E+00 -9.38353E+00 -1.05795E+01 -9.08573E+00
  -6.90537E+00 -4.97905E-01 -3.35483E+00 -7.62803E-01  6.25814E+00  4.14891E+00  4.37702E+00  4.58422E+00 -6.61315E-01 -3.74034E+00
  -3.47153E+00 -5.01188E+00 -2.95309E+00 -4.50290E+00 -5.69817E-01 -5.94862E-01  1.75910E+00  4.72860E+00  3.69749E+00  6.25415E+00
  -2.29103E-01  4.93492E+00  2.23750E+00  6.59599E+00  7.54627E+00  2.85012E+00  3.64149E+00  5.14324E+00  2.98903E+00  3.65934E+00
   5.61087E+00  1.42165E+00  1.24477E+00  5.50080E+00  5.76688E+00  4.00782E+00  2.97798E+00  4.78174E+00  5.00316E+00  4.50792E+00
   5.56883E+00  9.62833E+00  7.14309E+00  1.15127E+01  1.95234E+01  2.47498E+01  3.97882E+01  4.98779E+01  5.68153E+01  6.58220E+01
   6.14632E+01  6.50931E+01  6.06174E+01  5.50146E+01  4.47850E+01  3.69757E+01  2.59309E+01  1.98967E+01  1.61376E+01  1.66935E+01
   1.26302E+01  7.81928E+00  6.63344E+00  7.07819E+00  3.93657E+00  3.44092E+00  2.32299E+00  2.56329E+00  2.48835E+00 -2.12434E+00
   8.44937E-01 -9.25798E-01 -1.01365E+00  1.23475E+00  3.23563E+00 -3.30747E+00  3.50736E+00  1.29306E+00  6.32788E-01  2.33399E+00
   1.34707E+00  8.85367E-02 -1.50779E+00 -4.63415E-01 -5.60301E-01 -3.97697E+00 -1.32485E+00 -1.78053E+00  1.28937E+00 -1.84273E+00
   9.21292E-02  2.53853E+00 -1.33101E+00 -4.70292E-01 -6.66065E-02  1.55707E+00  1.04751E+00  4.81982E+00  4.91683E+00  5.62421E+00
   5.24788E+00  5.55543E+00  5.91157E+00  5.88479E+00  6.46134E+00  3.92637E+00  6.40173E+00  6.47933E+00  1.70062E+00  6.69742E+00
   6.24578E+00  5.65545E+00  1.18012E+00  6.53705E+00  5.98813E+00  3.61502E+00  1.09479E+00  6.29975E+00  3.04525E+00  4.51402E+00
   5.05543E+00  2.03469E+00  1.74460E+00  4.09054E+00  3.34110E+00  5.94765E+00  4.18362E+00  3.30738E+00  3.70184E+00  5.81185E+00
   6.13637E+00  1.10691E+01  6.96790E+00  9.15937E+00  9.64992E+00  1.14734E+01  6.67839E+00  1.14873E+01  1.35045E+01  1.37518E+01
   1.42752E+01  1.12406E+01  1.39809E+01  1.59123E+01  1.05004E+01  1.35517E+01  1.29783E+01  7.96046E+00  1.31157E+01  1.85605E+01
   1.18647E+01  8.38423E+00  1.09666E+01  1.25831E+01  1.25187E+01  6.99560E+00  9.49491E+00  9.39091E+00  1.09095E+01  3.07877E+00
   6.44578E+00  7.88447E+00  8.49010E+00  8.82533E+00  7.41975E+00  6.04144E+00  4.46503E+00  5.03132E+00  7.81968E+00  6.15653E+00
   5.44851E+00  6.49017E+00  8.87865E+00  6.09046E+00  2.28513E+00  5.10581E+00  1.21122E+00  1.49984E+00  6.36470E+00  5.47028E+00
   6.68764E-01  5.43660E+00  2.63968E+00  3.99351E+00  5.48909E+00  4.98851E+00  7.45294E+00  1.33716E+01  5.29850E+00  1.09801E+01
   9.90367E+00  6.57600E+00  7.96116E+00  7.42814E+00  5.85390E+00  1.00190E+01  5.01095E+00  9.43649E+00  9.08119E+00  1.07634E+01
   8.83486E+00  1.02908E+01  8.58871E+00  1.04941E+01  1.34254E+01  1.39362E+01  6.53455E+00  9.03686E+00  6.46367E+00  6.39539E+00
   7.33581E+00  3.57658E+00  8.13564E-01  4.87099E+00  4.99043E+00  5.35351E+00  4.45599E+00  8.32777E+00  4.31725E+00  1.79657E+00
   3.49276E+00  4.04761E+00  3.35486E+00  2.76135E+00  5.72375E-01  1.97958E+00  5.83690E+00  2.80169E+00  1.52560E+00  6.36411E+00
   4.43553E+00 -1.96469E+00  1.32037E+00  3.88746E+00  3.16552E+00  3.92917E+00  3.58786E+00  3.29930E+00  3.32561E+00  5.04796E+00
  -4.97114E+00 -1.30951E+00  2.01804E+00  2.14649E+00  2.54405E+00  4.36376E+00  2.63265E+00 -1.20632E-01  3.53529E+00  3.92099E+00
   3.04915E+00  3.92149E+00  3.07796E+00 -7.20902E-01  3.77858E+00  4.25893E+00  4.96596E+00  4.62778E+00  5.72281E+00  3.42271E+00
   2.29156E+00  2.96730E+00  4.08071E+00  9.10359E-01  4.66707E+00  4.49077E+00 -1.49639E-01  2.10267E+00  4.60457E+00  1.93495E+00
   5.31740E+00  4.32502E+00  2.44478E+00  2.68553E+00  3.15522E+00  4.84768E+00  2.72642E+00  2.63159E+00  2.03756E+00  3.81253E+00
   3.35893E+00  3.19378E+00  4.16777E+00  8.98369E+00  1.85367E+00  4.15293E+00  7.50606E+00  4.72274E+00
 NY points of the fit to the data follow
  -1.98207E+01 -1.93299E+01 -1.75202E+01 -1.41388E+01 -9.48057E+00 -4.33634E+00  2.67508E-01  3.69139E+00  5.76351E+00  6.52980E+00
   6.04244E+00  4.39906E+00  1.84016E+00 -1.29180E+00 -4.57393E+00 -7.48532E+00 -9.65465E+00 -1.13176E+01 -1.31164E+01 -1.44605E+01
  -1.49850E+01 -1.53948E+01 -1.56385E+01 -1.55595E+01 -1.49713E+01 -1.37847E+01 -1.21290E+01 -1.02030E+01 -8.31131E+00 -6.75332E+00
  -5.80007E+00 -5.60391E+00 -6.11916E+00 -7.22199E+00 -8.72727E+00 -1.03066E+01 -1.17154E+01 -1.27411E+01 -1.34812E+01 -1.38187E+01
  -1.33345E+01 -1.22316E+01 -1.07056E+01 -9.13772E+00 -7.87222E+00 -7.04795E+00 -6.77223E+00 -6.99646E+00 -7.65862E+00 -8.68313E+00
  -9.86869E+00 -1.10728E+01 -1.21203E+01 -1.27493E+01 -1.29604E+01 -1.30169E+01 -1.30429E+01 -1.29883E+01 -1.29373E+01 -1.30405E+01
  -1.32979E+01 -1.36427E+01 -1.40083E+01 -1.43441E+01 -1.45978E+01 -1.46995E+01 -1.45966E+01 -1.43582E+01 -1.40911E+01 -1.38071E+01
  -1.35415E+01 -1.32965E+01 -1.31033E+01 -1.29955E+01 -1.29715E+01 -1.30293E+01 -1.31510E+01 -1.32532E+01 -1.31805E+01 -1.27869E+01
  -1.21067E+01 -1.12229E+01 -1.03583E+01 -9.77598E+00 -9.55541E+00 -9.64384E+00 -9.95393E+00 -1.04380E+01 -1.10446E+01 -1.17055E+01
  -1.23547E+01 -1.29309E+01 -1.33583E+01 -1.35434E+01 -1.31932E+01 -1.13609E+01 -7.00644E+00  7.25982E-02  8.89273E+00  1.76135E+01
   2.46472E+01  2.92761E+01  3.14027E+01  3.11172E+01  2.85309E+01  2.39955E+01  1.81919E+01  1.18617E+01  5.83179E+00  9.06230E-01
  -2.77433E+00 -6.04476E+00 -9.26582E+00 -1.09111E+01 -1.14288E+01 -1.16385E+01 -1.17164E+01 -1.16724E+01 -1.13258E+01 -9.85894E+00
  -6.47810E+00 -9.46736E-01  6.30167E+00  1.38213E+01  2.01024E+01  2.44512E+01  2.67942E+01  2.72161E+01  2.57357E+01  2.24755E+01
   1.78270E+01  1.24041E+01  6.95332E+00  2.31647E+00 -1.08682E+00 -3.83148E+00 -6.68627E+00 -8.29688E+00 -8.56237E+00 -8.47820E+00
  -8.27547E+00 -8.07691E+00 -7.97865E+00 -7.95809E+00 -7.98011E+00 -8.08623E+00 -8.26022E+00 -8.47424E+00 -8.73003E+00 -8.98373E+00
  -9.21693E+00 -9.38243E+00 -9.48007E+00 -9.56515E+00 -9.69806E+00 -9.91496E+00 -1.02028E+01 -1.05272E+01 -1.07999E+01 -1.09440E+01
  -1.09482E+01 -1.08536E+01 -1.07270E+01 -1.06080E+01 -1.05157E+01 -1.04668E+01 -1.04702E+01 -1.05473E+01 -1.07253E+01 -1.10278E+01
  -1.14228E+01 -1.18349E+01 -1.22467E+01 -1.25722E+01 -1.28152E+01 -1.30011E+01 -1.31025E+01 -1.31518E+01 -1.31308E+01 -1.30361E+01
  -1.29280E+01 -1.28300E+01 -1.26983E+01 -1.24349E+01 -1.19255E+01 -1.11398E+01 -1.01923E+01 -9.32413E+00 -8.67514E+00 -8.24472E+00
  -8.01343E+00 -7.96445E+00 -8.10274E+00 -8.27918E+00 -8.30350E+00 -8.04994E+00 -7.41175E+00 -6.38272E+00 -5.13365E+00 -3.76756E+00
  -2.47506E+00 -1.56328E+00 -1.36541E+00 -2.03819E+00 -3.45851E+00 -5.27670E+00 -7.10870E+00 -8.58309E+00 -9.33824E+00 -9.14769E+00
  -7.98080E+00 -5.95435E+00 -3.52766E+00 -1.37207E+00  3.83258E-02  4.93964E-01 -1.19907E-01 -1.60999E+00 -3.46456E+00 -5.12379E+00
  -6.44530E+00 -7.06046E+00 -6.76561E+00 -5.72378E+00 -4.32415E+00 -2.88007E+00 -1.38422E+00  3.47598E-02  1.05557E+00  1.65362E+00
   2.00231E+00  2.39025E+00  2.91180E+00  3.43279E+00  3.92956E+00  4.41314E+00  4.70708E+00  4.70632E+00  4.43541E+00  4.04944E+00
   3.74640E+00  3.54627E+00  3.40655E+00  3.44375E+00  3.76512E+00  4.28736E+00  4.85636E+00  5.58919E+00  6.48364E+00  7.40183E+00
   8.28346E+00  9.23532E+00  1.06072E+01  1.35108E+01  1.91074E+01  2.77550E+01  3.86501E+01  4.94950E+01  5.80942E+01  6.34668E+01
   6.55265E+01  6.44489E+01  6.03930E+01  5.38223E+01  4.55582E+01  3.65688E+01  2.79230E+01  2.07633E+01  1.54184E+01  1.08770E+01
   6.31996E+00  3.67171E+00  2.81551E+00  2.37279E+00  2.06618E+00  1.82812E+00  1.56675E+00  1.29930E+00  1.03218E+00  7.69181E-01
   5.24515E-01  3.11606E-01  1.16425E-01 -6.41781E-02 -2.13082E-01 -3.24318E-01 -4.05658E-01 -4.64442E-01 -5.02185E-01 -5.14253E-01
  -4.98768E-01 -4.63014E-01 -4.03578E-01 -3.16898E-01 -2.01761E-01 -5.75138E-02  1.16704E-01  3.21970E-01  5.57457E-01  8.20526E-01
   1.10964E+00  1.42189E+00  1.75240E+00  2.09596E+00  2.44640E+00  2.79667E+00  3.13939E+00  3.46704E+00  3.77217E+00  4.04786E+00
   4.28809E+00  4.48809E+00  4.64448E+00  4.75606E+00  4.82373E+00  4.85000E+00  4.83972E+00  4.80021E+00  4.74233E+00  4.68132E+00
   4.62458E+00  4.56658E+00  4.49473E+00  4.39233E+00  4.25443E+00  4.09289E+00  3.92402E+00  3.76930E+00  3.65785E+00  3.61923E+00
   3.67967E+00  3.84627E+00  4.10408E+00  4.43266E+00  4.80964E+00  5.21057E+00  5.62105E+00  6.05107E+00  6.48962E+00  6.91713E+00
   7.33948E+00  7.76856E+00  8.21763E+00  8.68750E+00  9.15869E+00  9.63162E+00  1.01223E+01  1.06165E+01  1.11006E+01  1.15632E+01
   1.19931E+01  1.23791E+01  1.27101E+01  1.29757E+01  1.31667E+01  1.32763E+01  1.33002E+01  1.32375E+01  1.30901E+01  1.28629E+01
   1.25634E+01  1.22005E+01  1.17847E+01  1.13265E+01  1.08363E+01  1.03243E+01  9.79964E+00  9.27111E+00  8.74653E+00  8.23293E+00
   7.73644E+00  7.26238E+00  6.81524E+00  6.39878E+00  6.01596E+00  5.66893E+00  5.35915E+00  5.08752E+00  4.85454E+00  4.66038E+00
   4.50494E+00  4.38790E+00  4.30886E+00  4.26748E+00  4.26349E+00  4.29668E+00  4.36686E+00  4.47381E+00  4.61725E+00  4.79684E+00
   5.01199E+00  5.26173E+00  5.54447E+00  5.85795E+00  6.19909E+00  6.56397E+00  6.94764E+00  7.34407E+00  7.74615E+00  8.14592E+00
   8.53468E+00  8.90330E+00  9.24246E+00  9.54298E+00  9.79624E+00  9.99461E+00  1.01319E+01  1.02035E+01  1.02068E+01  1.01413E+01
   1.00082E+01  9.81136E+00  9.55606E+00  9.24935E+00  8.89945E+00  8.51535E+00  8.10647E+00  7.68228E+00  7.25189E+00  6.82368E+00
   6.40501E+00  6.00212E+00  5.62008E+00  5.26272E+00  4.93268E+00  4.63146E+00  4.35954E+00  4.11661E+00  3.90174E+00  3.71351E+00
   3.55016E+00  3.40966E+00  3.28989E+00  3.18874E+00  3.10420E+00  3.03438E+00  2.97751E+00  2.93193E+00  2.89617E+00  2.86896E+00
   2.84921E+00  2.83597E+00  2.82836E+00  2.82561E+00  2.82709E+00  2.83229E+00  2.84077E+00  2.85214E+00  2.86604E+00  2.88214E+00
   2.90019E+00  2.92002E+00  2.94146E+00  2.96434E+00  2.98847E+00  3.01371E+00  3.03998E+00  3.06722E+00  3.09534E+00  3.12425E+00
   3.15384E+00  3.18407E+00  3.21489E+00  3.24631E+00  3.27826E+00  3.31067E+00  3.34349E+00  3.37671E+00  3.41032E+00  3.44433E+00
   3.47868E+00  3.51333E+00  3.54826E+00  3.58347E+00  3.61898E+00  3.65478E+00  3.69083E+00  3.72708E+00  3.76356E+00  3.80027E+00
   3.83724E+00  3.87443E+00  3.91183E+00  3.94942E+00  3.98721E+00  4.02526E+00  4.06355E+00  4.10206E+00  4.14079E+00  4.17974E+00
   4.21895E+00  4.25846E+00  4.29828E+00  4.33838E+00  4.37879E+00  4.41956E+00  4.46074E+00  4.50239E+00
 NY background values follow
    -2.239E+01   -2.232E+01   -2.225E+01   -2.218E+01   -2.210E+01   -2.203E+01   -2.196E+01   -2.189E+01   -2.182E+01   -2.174E+01
    -2.167E+01   -2.160E+01   -2.153E+01   -2.146E+01   -2.139E+01   -2.131E+01   -2.124E+01   -2.117E+01   -2.110E+01   -2.103E+01
    -2.095E+01   -2.088E+01   -2.081E+01   -2.074E+01   -2.067E+01   -2.059E+01   -2.052E+01   -2.045E+01   -2.038E+01   -2.030E+01
    -2.023E+01   -2.016E+01   -2.009E+01   -2.002E+01   -1.994E+01   -1.987E+01   -1.980E+01   -1.973E+01   -1.966E+01   -1.958E+01
    -1.951E+01   -1.944E+01   -1.937E+01   -1.930E+01   -1.922E+01   -1.915E+01   -1.908E+01   -1.901E+01   -1.894E+01   -1.887E+01
    -1.879E+01   -1.872E+01   -1.865E+01   -1.858E+01   -1.851E+01   -1.843E+01   -1.836E+01   -1.829E+01   -1.822E+01   -1.815E+01
    -1.808E+01   -1.800E+01   -1.793E+01   -1.786E+01   -1.779E+01   -1.772E+01   -1.765E+01   -1.758E+01   -1.750E+01   -1.743E+01
    -1.736E+01   -1.729E+01   -1.722E+01   -1.715E+01   -1.708E+01   -1.700E+01   -1.693E+01   -1.686E+01   -1.679E+01   -1.672E+01
    -1.665E+01   -1.658E+01   -1.651E+01   -1.644E+01   -1.637E+01   -1.630E+01   -1.622E+01   -1.615E+01   -1.608E+01   -1.601E+01
    -1.594E+01   -1.587E+01   -1.580E+01   -1.573E+01   -1.566E+01   -1.559E+01   -1.552E+01   -1.545E+01   -1.538E+01   -1.531E+01
    -1.524E+01   -1.517E+01   -1.510E+01   -1.503E+01   -1.496E+01   -1.489E+01   -1.482E+01   -1.475E+01   -1.468E+01   -1.461E+01
    -1.454E+01   -1.447E+01   -1.440E+01   -1.433E+01   -1.426E+01   -1.420E+01   -1.413E+01   -1.406E+01   -1.399E+01   -1.392E+01
    -1.385E+01   -1.378E+01   -1.371E+01   -1.364E+01   -1.357E+01   -1.351E+01   -1.344E+01   -1.337E+01   -1.330E+01   -1.323E+01
    -1.316E+01   -1.310E+01   -1.303E+01   -1.296E+01   -1.289E+01   -1.282E+01   -1.275E+01   -1.269E+01   -1.262E+01   -1.255E+01
    -1.248E+01   -1.241E+01   -1.235E+01   -1.228E+01   -1.221E+01   -1.214E+01   -1.208E+01   -1.201E+01   -1.194E+01   -1.188E+01
    -1.181E+01   -1.174E+01   -1.167E+01   -1.161E+01   -1.154E+01   -1.147E+01   -1.141E+01   -1.134E+01   -1.127E+01   -1.121E+01
    -1.114E+01   -1.107E+01   -1.101E+01   -1.094E+01   -1.088E+01   -1.081E+01   -1.074E+01   -1.068E+01   -1.061E+01   -1.055E+01
    -1.048E+01   -1.042E+01   -1.035E+01   -1.029E+01   -1.022E+01   -1.016E+01   -1.009E+01   -1.003E+01   -9.962E+00   -9.897E+00
    -9.833E+00   -9.768E+00   -9.704E+00   -9.640E+00   -9.575E+00   -9.511E+00   -9.448E+00   -9.384E+00   -9.320E+00   -9.257E+00
    -9.193E+00   -9.130E+00   -9.067E+00   -9.003E+00   -8.940E+00   -8.878E+00   -8.815E+00   -8.752E+00   -8.690E+00   -8.627E+00
    -8.565E+00   -8.503E+00   -8.441E+00   -8.379E+00   -8.317E+00   -8.256E+00   -8.194E+00   -8.133E+00   -8.072E+00   -8.011E+00
    -7.950E+00   -7.889E+00   -7.828E+00   -7.768E+00   -7.707E+00   -7.647E+00   -7.587E+00   -7.527E+00   -7.467E+00   -7.408E+00
    -7.348E+00   -7.289E+00   -7.230E+00   -7.170E+00   -7.112E+00   -7.053E+00   -6.994E+00   -6.936E+00   -6.878E+00   -6.819E+00
    -6.761E+00   -6.704E+00   -6.646E+00   -6.588E+00   -6.531E+00   -6.474E+00   -6.417E+00   -6.360E+00   -6.303E+00   -6.247E+00
    -6.190E+00   -6.134E+00   -6.078E+00   -6.022E+00   -5.966E+00   -5.910E+00   -5.855E+00   -5.800E+00   -5.744E+00   -5.689E+00
    -5.634E+00   -5.580E+00   -5.525E+00   -5.470E+00   -5.416E+00   -5.362E+00   -5.308E+00   -5.254E+00   -5.200E+00   -5.147E+00
    -5.093E+00   -5.040E+00   -4.987E+00   -4.934E+00   -4.881E+00   -4.828E+00   -4.775E+00   -4.723E+00   -4.671E+00   -4.618E+00
    -4.566E+00   -4.515E+00   -4.463E+00   -4.411E+00   -4.360E+00   -4.308E+00   -4.257E+00   -4.206E+00   -4.155E+00   -4.104E+00
    -4.054E+00   -4.003E+00   -3.953E+00   -3.903E+00   -3.852E+00   -3.802E+00   -3.753E+00   -3.703E+00   -3.653E+00   -3.604E+00
    -3.554E+00   -3.505E+00   -3.456E+00   -3.407E+00   -3.358E+00   -3.309E+00   -3.261E+00   -3.212E+00   -3.164E+00   -3.116E+00
    -3.067E+00   -3.019E+00   -2.972E+00   -2.924E+00   -2.876E+00   -2.829E+00   -2.781E+00   -2.734E+00   -2.687E+00   -2.639E+00
    -2.592E+00   -2.546E+00   -2.499E+00   -2.452E+00   -2.406E+00   -2.359E+00   -2.313E+00   -2.267E+00   -2.220E+00   -2.174E+00
    -2.129E+00   -2.083E+00   -2.037E+00   -1.991E+00   -1.946E+00   -1.900E+00   -1.855E+00   -1.810E+00   -1.765E+00   -1.720E+00
    -1.675E+00   -1.630E+00   -1.585E+00   -1.541E+00   -1.496E+00   -1.452E+00   -1.407E+00   -1.363E+00   -1.319E+00   -1.275E+00
    -1.231E+00   -1.187E+00   -1.143E+00   -1.099E+00   -1.056E+00   -1.012E+00   -9.686E-01   -9.252E-01   -8.819E-01   -8.387E-01
    -7.955E-01   -7.525E-01   -7.095E-01   -6.665E-01   -6.237E-01   -5.810E-01   -5.383E-01   -4.957E-01   -4.531E-01   -4.107E-01
    -3.683E-01   -3.260E-01   -2.838E-01   -2.416E-01   -1.995E-01   -1.575E-01   -1.156E-01   -7.367E-02   -3.186E-02    9.887E-03
     5.157E-02    9.318E-02    1.347E-01    1.762E-01    2.176E-01    2.590E-01    3.003E-01    3.415E-01    3.827E-01    4.238E-01
     4.649E-01    5.059E-01    5.468E-01    5.877E-01    6.285E-01    6.693E-01    7.100E-01    7.507E-01    7.913E-01    8.318E-01
     8.723E-01    9.128E-01    9.532E-01    9.935E-01    1.034E+00    1.074E+00    1.114E+00    1.154E+00    1.195E+00    1.235E+00
     1.275E+00    1.315E+00    1.355E+00    1.395E+00    1.434E+00    1.474E+00    1.514E+00    1.554E+00    1.593E+00    1.633E+00
     1.673E+00    1.712E+00    1.752E+00    1.791E+00    1.831E+00    1.870E+00    1.910E+00    1.949E+00    1.988E+00    2.028E+00
     2.067E+00    2.106E+00    2.145E+00    2.185E+00    2.224E+00    2.263E+00    2.302E+00    2.341E+00    2.380E+00    2.419E+00
     2.458E+00    2.497E+00    2.536E+00    2.575E+00    2.614E+00    2.653E+00    2.691E+00    2.730E+00    2.769E+00    2.808E+00
     2.846E+00    2.885E+00    2.924E+00    2.963E+00    3.001E+00    3.040E+00    3.078E+00    3.117E+00    3.156E+00    3.194E+00
     3.233E+00    3.271E+00    3.310E+00    3.348E+00    3.387E+00    3.425E+00    3.464E+00    3.502E+00    3.541E+00    3.579E+00
     3.617E+00    3.656E+00    3.694E+00    3.733E+00    3.771E+00    3.809E+00    3.848E+00    3.886E+00    3.924E+00    3.962E+00
     4.001E+00    4.039E+00    4.077E+00    4.115E+00    4.154E+00    4.192E+00    4.230E+00    4.268E+00    4.306E+00    4.344E+00
     4.383E+00    4.421E+00    4.459E+00    4.497E+00    4.535E+00    4.573E+00    4.611E+00    4.649E+00    4.687E+00    4.725E+00
     4.763E+00    4.801E+00    4.839E+00    4.877E+00    4.915E+00    4.953E+00    4.991E+00    5.029E+00
 Ala      Conc. = 4.93E+01
