 LCModel (Version 6.3-1L) Copyright: S.W. Provencher.          Ref.: Magn. Reson. Med. 30:672-679 (1993).                
 Slice#3 Row#7 Col#7  PD_05_press_1_raw_act
 36 lines in following concentration table = NCONC+1
    Conc.  %SD /Cr+PCr  Metabolite                                         
   69.369 156% 5.3E-02 Ala                                                 
  193.642 103%   0.147 Asp                                                 
  593.308  37%   0.451 Cr                                                  
  721.655  31%   0.549 PCr                                                 
    0.000 999%   0.000 GABA                                                
    0.000 999%   0.000 Glc                                                 
  961.830  24%   0.731 Gln                                                 
 1.23E+03  20%   0.932 Glu                                                 
  448.650   5%   0.341 GPC                                                 
    0.000 999%   0.000 PCh                                                 
  439.372  17%   0.334 GSH                                                 
  750.839  32%   0.571 Ins                                                 
    0.000 999%   0.000 Lac                                                 
 1.84E+03   4%   1.401 NAA                                                 
    0.000 999%   0.000 NAAG                                                
   25.641  96% 1.9E-02 Scyllo                                              
    0.000 999%   0.000 Tau                                                 
    0.000 999%   0.000 -CrCH2                                              
  448.650   5%   0.341 GPC+PCh                                             
 1.84E+03   4%   1.401 NAA+NAAG                                            
 1.31E+03   4%   1.000 Cr+PCr                                              
 2.19E+03  16%   1.663 Glu+Gln                                             
    0.000 999%   0.000 Lip13a                                              
    0.000 999%   0.000 Lip13b                                              
    0.000 999%   0.000 Lip09                                               
 1.21E+03  16%   0.917 MM09                                                
    6.760 852% 5.1E-03 Lip20                                               
 2.70E+03  12%   2.055 MM20                                                
  376.156  29%   0.286 MM12                                                
 1.79E+03  16%   1.364 MM14                                                
 1.07E+03  21%   0.816 MM17                                                
    0.000 999%   0.000 Lip13a+Lip13b                                       
 2.17E+03  15%   1.650 MM14+Lip13a+Lip13b+MM12                             
 1.21E+03  16%   0.917 MM09+Lip09                                          
 2.71E+03  12%   2.060 MM20+Lip20                                          
   6 lines in following misc. output table
  FWHM = 0.046 ppm    S/N =   9                                            
  Data shift = 0.008 ppm                                                   
  Ph: -21 deg      -6.0 deg/ppm                                            
  alphaB,S = 9.7E-01,   5.1E+01                                            
   14 spline knots.   Ns = 6(1)                                            
  ( 8) 4 infls.   ( 5) 1 extrs.                                            
  498 points on ppm-axis = NY
      4.000000     3.992357     3.984714     3.977070     3.969427     3.961784     3.954141     3.946497     3.938854     3.931211
      3.923568     3.915925     3.908281     3.900638     3.892995     3.885352     3.877708     3.870065     3.862422     3.854779
      3.847136     3.839492     3.831849     3.824206     3.816563     3.808919     3.801276     3.793633     3.785990     3.778347
      3.770703     3.763060     3.755417     3.747774     3.740130     3.732487     3.724844     3.717201     3.709558     3.701914
      3.694271     3.686628     3.678985     3.671341     3.663698     3.656055     3.648412     3.640769     3.633125     3.625482
      3.617839     3.610196     3.602552     3.594909     3.587266     3.579623     3.571980     3.564336     3.556693     3.549050
      3.541407     3.533763     3.526120     3.518477     3.510834     3.503191     3.495547     3.487904     3.480261     3.472618
      3.464974     3.457331     3.449688     3.442045     3.434402     3.426758     3.419115     3.411472     3.403829     3.396185
      3.388542     3.380899     3.373256     3.365613     3.357969     3.350326     3.342683     3.335040     3.327396     3.319753
      3.312110     3.304467     3.296824     3.289180     3.281537     3.273894     3.266251     3.258607     3.250964     3.243321
      3.235678     3.228034     3.220391     3.212748     3.205105     3.197462     3.189818     3.182175     3.174532     3.166889
      3.159245     3.151602     3.143959     3.136316     3.128673     3.121029     3.113386     3.105743     3.098100     3.090456
      3.082813     3.075170     3.067527     3.059884     3.052240     3.044597     3.036954     3.029311     3.021667     3.014024
      3.006381     2.998738     2.991095     2.983451     2.975808     2.968165     2.960522     2.952878     2.945235     2.937592
      2.929949     2.922306     2.914662     2.907019     2.899376     2.891733     2.884089     2.876446     2.868803     2.861160
      2.853517     2.845873     2.838230     2.830587     2.822944     2.815300     2.807657     2.800014     2.792371     2.784728
      2.777084     2.769441     2.761798     2.754155     2.746511     2.738868     2.731225     2.723582     2.715939     2.708295
      2.700652     2.693009     2.685366     2.677722     2.670079     2.662436     2.654793     2.647150     2.639506     2.631863
      2.624220     2.616577     2.608933     2.601290     2.593647     2.586004     2.578361     2.570717     2.563074     2.555431
      2.547788     2.540144     2.532501     2.524858     2.517215     2.509572     2.501928     2.494285     2.486642     2.478999
      2.471355     2.463712     2.456069     2.448426     2.440783     2.433139     2.425496     2.417853     2.410210     2.402566
      2.394923     2.387280     2.379637     2.371994     2.364350     2.356707     2.349064     2.341421     2.333777     2.326134
      2.318491     2.310848     2.303205     2.295561     2.287918     2.280275     2.272632     2.264988     2.257345     2.249702
      2.242059     2.234416     2.226772     2.219129     2.211486     2.203843     2.196199     2.188556     2.180913     2.173270
      2.165627     2.157983     2.150340     2.142697     2.135054     2.127410     2.119767     2.112124     2.104481     2.096838
      2.089194     2.081551     2.073908     2.066265     2.058621     2.050978     2.043335     2.035692     2.028049     2.020405
      2.012762     2.005119     1.997476     1.989833     1.982190     1.974546     1.966903     1.959260     1.951617     1.943974
      1.936331     1.928688     1.921045     1.913402     1.905759     1.898115     1.890472     1.882829     1.875186     1.867543
      1.859900     1.852257     1.844614     1.836971     1.829327     1.821684     1.814041     1.806398     1.798755     1.791112
      1.783469     1.775826     1.768183     1.760540     1.752896     1.745253     1.737610     1.729967     1.722324     1.714681
      1.707038     1.699395     1.691752     1.684108     1.676465     1.668822     1.661179     1.653536     1.645893     1.638250
      1.630607     1.622964     1.615321     1.607677     1.600034     1.592391     1.584748     1.577105     1.569462     1.561819
      1.554176     1.546533     1.538890     1.531246     1.523603     1.515960     1.508317     1.500674     1.493031     1.485388
      1.477745     1.470102     1.462458     1.454815     1.447172     1.439529     1.431886     1.424243     1.416600     1.408957
      1.401314     1.393671     1.386027     1.378384     1.370741     1.363098     1.355455     1.347812     1.340169     1.332526
      1.324883     1.317240     1.309596     1.301953     1.294310     1.286667     1.279024     1.271381     1.263738     1.256095
      1.248452     1.240808     1.233165     1.225522     1.217879     1.210236     1.202593     1.194950     1.187307     1.179664
      1.172021     1.164377     1.156734     1.149091     1.141448     1.133805     1.126162     1.118519     1.110876     1.103233
      1.095590     1.087946     1.080303     1.072660     1.065017     1.057374     1.049731     1.042088     1.034445     1.026802
      1.019158     1.011515     1.003872     0.996229     0.988586     0.980943     0.973300     0.965657     0.958014     0.950371
      0.942727     0.935084     0.927441     0.919798     0.912155     0.904512     0.896869     0.889226     0.881583     0.873940
      0.866296     0.858653     0.851010     0.843367     0.835724     0.828081     0.820438     0.812795     0.805152     0.797508
      0.789865     0.782222     0.774579     0.766936     0.759293     0.751650     0.744007     0.736364     0.728721     0.721077
      0.713434     0.705791     0.698148     0.690505     0.682862     0.675219     0.667576     0.659933     0.652290     0.644646
      0.637003     0.629360     0.621717     0.614074     0.606431     0.598788     0.591145     0.583502     0.575858     0.568215
      0.560572     0.552929     0.545286     0.537643     0.530000     0.522357     0.514714     0.507071     0.499427     0.491784
      0.484141     0.476498     0.468855     0.461212     0.453569     0.445925     0.438282     0.430639     0.422996     0.415353
      0.407710     0.400067     0.392424     0.384780     0.377137     0.369494     0.361851     0.354208     0.346565     0.338922
      0.331278     0.323635     0.315992     0.308349     0.300706     0.293063     0.285420     0.277777     0.270133     0.262490
      0.254847     0.247204     0.239561     0.231918     0.224275     0.216631     0.208988     0.201345
 NY phased data points follow
   9.71281E+00 -5.64282E-02  1.10025E+01  8.22681E+00  5.47738E+00  1.85144E+01  1.68887E+01  3.03463E+01  3.54663E+01  3.02856E+01
   4.53618E+01  4.25123E+01  3.76343E+01  4.03996E+01  3.26043E+01  2.75370E+01  2.83350E+01  1.50272E+01  1.63820E+01  1.45779E+01
   1.11457E+01  1.25744E+01  1.32199E+01  7.73204E+00  1.35188E+01  1.11724E+01  1.46805E+01  1.39002E+01  1.67097E+01  2.24854E+01
   1.62033E+01  1.87399E+01  1.82897E+01  1.03083E+01  1.72496E+01  1.56386E+01  1.22548E+01  1.83893E+01  1.51151E+01  9.47324E+00
   1.22826E+01  8.95595E+00  1.79191E+01  1.08083E+01  9.92981E+00  1.75581E+01  1.61691E+01  1.09870E+01  1.80803E+01  1.39169E+01
   1.44911E+01  1.27249E+01  7.98183E+00  7.22732E+00  7.28425E+00  3.69173E+00  8.94291E+00  8.08039E+00  7.56304E+00  8.17152E+00
   4.68811E+00  1.13661E+01 -1.19766E-01 -2.24566E+00  3.08172E+00 -1.30827E+00 -5.35648E+00 -2.19807E+00 -1.52334E+00 -6.03998E+00
  -2.14606E+00 -2.59534E+00  4.89727E+00  2.79460E+00  5.66316E+00  1.16569E+00  1.09225E+00  1.81778E+00  3.52971E+00 -4.41669E+00
   1.74533E+00  3.12960E+00 -1.82493E+00  3.02870E+00  5.74979E+00 -1.83786E-01  4.37890E+00 -4.13243E+00  2.80124E+00  2.36640E+00
  -3.65117E+00  5.49541E+00 -3.11864E+00  1.95199E+00  5.03680E+00 -1.76780E+00  2.76708E+00 -1.08705E+00  1.32336E+00  1.28386E+01
   1.77189E+01  2.85255E+01  3.83975E+01  4.49021E+01  4.34767E+01  4.19384E+01  3.07940E+01  2.30188E+01  1.86428E+01  9.13901E+00
   1.22523E+01  7.24873E+00  7.52875E+00  4.89898E+00  9.69209E-01  7.63602E+00 -5.23800E-01  1.48549E-01  5.28673E+00  4.87114E-01
   4.72534E+00 -6.99870E-01  5.26084E+00  1.44069E+01  1.71815E+01  2.84390E+01  3.85845E+01  4.07563E+01  4.75992E+01  3.86075E+01
   3.34271E+01  2.51419E+01  1.76885E+01  1.23570E+01  1.49176E+01  7.15114E+00  5.47119E+00  4.18454E+00  3.99213E+00  4.95625E+00
  -2.71182E-01  2.58921E+00  6.89023E+00 -1.60866E+00  2.29729E-01 -6.06247E-01 -3.45434E+00  1.07468E+00 -2.22692E-01 -3.06496E+00
   1.48322E+00 -8.92398E+00 -2.55516E+00 -4.07630E-01 -9.07981E+00 -4.34119E+00  1.03101E+00 -6.69655E+00 -3.16923E+00 -2.74917E+00
  -1.32960E+00 -2.75396E+00 -9.56185E+00 -3.08408E+00 -5.99286E+00 -1.13916E+01  1.97183E+00 -5.76841E+00  7.69015E-01 -5.72165E+00
  -6.88150E+00 -9.36234E+00 -6.90440E+00 -7.71423E+00 -1.25271E+01 -1.10649E+01 -9.95969E+00 -5.54583E+00 -1.15232E+01 -8.10812E+00
  -7.91445E+00 -1.28177E+01 -1.06207E+01 -9.47953E+00 -9.69121E+00 -1.09151E+01 -1.24114E+01 -4.02607E+00 -3.92892E+00 -3.74114E+00
  -1.32709E+00  1.02649E+00  4.98196E-01  2.49285E+00  2.08990E+00 -2.95038E-01 -4.98290E+00 -4.44683E+00  5.40659E-01 -1.17324E+00
   2.50834E-01 -2.25678E+00 -7.05663E+00  2.43939E+00  2.20559E+00 -1.63752E-01  3.17394E-01 -2.77975E+00 -7.02889E+00 -7.08945E+00
  -7.33241E+00 -5.33863E+00 -2.54972E+00  5.20969E+00  6.27401E+00  1.59338E+01  7.92930E+00  9.66672E+00  5.77501E+00  4.17031E+00
   7.06997E-01 -1.33291E+00 -1.70396E-01 -1.59590E+00  2.92113E+00  5.26325E+00  7.30100E+00  4.25068E+00  9.60102E+00  2.42890E+00
   8.11435E+00  5.74048E+00  4.61816E+00  5.46411E+00  8.20816E+00  4.04346E+00  3.36160E+00  4.71396E+00  5.18191E+00  5.54823E+00
   4.53990E+00  6.15982E+00  5.95807E+00  2.35938E+00  8.10721E+00  1.71096E+00  2.41902E+00  9.30174E+00  9.61813E+00  1.04548E+01
   7.94928E+00  1.26701E+01  9.82631E+00  8.84908E+00  1.16462E+01  2.30323E+01  2.89968E+01  4.16912E+01  5.21302E+01  6.45910E+01
   7.36882E+01  6.95951E+01  5.44521E+01  4.72273E+01  3.17866E+01  2.11681E+01  1.51782E+01  1.07494E+01  1.17620E+01  1.03256E+01
   9.61123E+00  1.10980E+01  9.41604E+00  5.13090E+00  3.74085E+00  4.34934E-01  3.08243E+00  1.13039E+00  4.24012E+00  3.26026E+00
   1.55807E+00  5.85972E-01  2.78346E+00  6.12096E+00  3.30915E+00  2.87814E+00 -1.31496E+00 -2.32437E-01  8.91297E-01  1.63541E+00
   5.72737E+00  5.78610E+00  7.13512E+00  6.21946E+00 -3.08074E-02  9.81643E-01  6.56045E-01  3.00606E+00 -6.11975E-01 -1.66067E+00
   6.49283E+00  5.01646E+00  4.25449E+00  3.56665E+00  8.73777E+00  3.72893E+00  6.86109E+00  8.99798E+00  7.32773E+00  8.04809E+00
   4.98837E+00  1.09003E+01  5.49806E+00  7.74249E+00  9.60699E+00  1.06427E+01  7.68663E+00  8.01613E+00  5.78609E+00  5.87594E+00
   7.08548E+00  8.36915E+00  7.93360E+00  8.70714E+00  9.03909E+00  1.34446E+01  7.15172E+00  1.12918E+01  8.68401E+00  1.13683E+01
   9.20198E+00  3.66519E+00  5.79456E+00  1.12599E+01  5.26537E+00  1.00539E+01  8.40023E+00  8.03094E+00  7.53585E+00  4.98115E+00
   2.38427E+00  3.08313E+00 -2.77756E+00 -1.20397E-01  3.20765E+00 -4.95735E-01  1.20264E+00 -5.42235E-01 -4.15366E-01  1.52084E+00
  -5.49642E+00  2.83892E+00 -4.41673E-01  4.28708E-01  2.73442E+00  4.40431E+00 -4.18282E+00  3.77726E+00 -1.46071E+00 -5.03027E+00
   4.19057E+00 -3.64264E+00 -4.62464E+00 -7.06996E-01  8.89185E-01  5.54208E-01  3.51852E+00 -6.79260E-01  6.84188E+00 -1.01154E+00
  -1.91491E+00  2.23369E+00  1.41377E+00  4.20130E+00  1.03840E+00  2.85463E+00  5.28070E-02  9.85299E-01  1.93909E+00  3.26155E-02
  -6.35855E-01 -9.46888E-01 -3.04940E+00 -3.78838E+00  1.15683E+00 -5.20553E+00 -7.41723E-01  3.77849E+00 -1.50273E+00 -9.83342E-01
  -2.32969E+00 -1.73970E+00  3.81010E+00  2.48696E+00  4.11286E+00  6.06636E+00  4.13833E+00  4.51806E+00  1.10555E+00  3.22301E+00
   1.30696E+00  8.50004E-01  4.31146E+00 -1.01996E+00  4.04176E+00  2.95619E+00 -6.28168E-01  3.63640E+00  1.46999E+00  4.56474E-01
   5.37034E+00  3.96639E+00  1.63278E+00  7.53437E-01 -8.40860E-01  1.32786E+00 -9.95357E-01 -1.07933E+00 -2.09156E+00  4.29484E+00
  -4.48265E+00  1.24487E+00  1.75940E+00  1.51098E+00 -3.63108E-05 -2.41503E+00 -3.21745E+00  6.75671E+00 -6.37331E+00 -2.48897E+00
  -1.33562E+00 -4.55482E-01 -8.61544E-02 -4.99567E+00 -4.82864E+00 -3.45819E+00 -2.38282E+00 -6.96533E+00 -4.97331E+00 -8.44313E+00
   1.11360E+00  2.18662E+00 -4.24241E+00 -3.73242E+00  1.78084E+00 -3.24786E+00 -3.71926E+00 -3.07144E+00 -9.87406E+00  2.37963E-01
  -2.66707E+00  1.53060E+00 -4.40028E+00  1.16532E+00 -4.28229E+00 -2.19660E+00  3.50789E+00 -3.89917E-01 -6.25416E+00 -6.85039E+00
  -6.53468E-01 -7.38889E+00 -9.17090E-01 -6.61961E+00 -3.87745E+00 -1.20911E+00 -3.37470E-01 -6.37933E+00 -1.25769E+00 -1.30531E+00
   2.88357E-01 -2.92324E+00  2.32877E+00 -1.37837E+00  1.43013E-01 -4.73644E+00 -3.63576E+00 -5.84125E+00 -4.77062E+00 -9.07378E-01
  -3.60222E+00 -4.37762E+00 -5.49282E+00 -2.56827E+00 -5.62937E+00 -2.98387E+00 -2.53702E+00  1.27931E+00 -3.62255E+00 -2.67218E-01
  -4.10074E+00 -2.35784E+00 -9.04751E-01 -1.44885E-01  3.97332E-01 -5.59545E+00 -2.78962E+00  2.78666E+00
 NY points of the fit to the data follow
   8.95037E+00  8.63984E+00  8.59601E+00  8.90818E+00  1.02446E+01  1.29681E+01  1.70958E+01  2.24791E+01  2.84447E+01  3.40021E+01
   3.78489E+01  3.88771E+01  3.69557E+01  3.29091E+01  2.81404E+01  2.38648E+01  2.02824E+01  1.70713E+01  1.46906E+01  1.28207E+01
   1.18413E+01  1.13048E+01  1.07414E+01  1.01254E+01  9.88749E+00  1.01566E+01  1.09825E+01  1.27044E+01  1.51982E+01  1.78319E+01
   1.97786E+01  2.04103E+01  1.96034E+01  1.76920E+01  1.52215E+01  1.28318E+01  1.05103E+01  8.55780E+00  7.86388E+00  7.79752E+00
   7.99751E+00  8.47259E+00  9.27107E+00  1.03250E+01  1.13713E+01  1.24273E+01  1.33131E+01  1.36072E+01  1.31757E+01  1.21421E+01
   1.07122E+01  9.25313E+00  8.13391E+00  7.31881E+00  6.61986E+00  6.17817E+00  6.16358E+00  6.40109E+00  6.62741E+00  6.77747E+00
   6.72176E+00  6.39431E+00  5.81982E+00  5.11729E+00  4.49434E+00  4.08404E+00  3.88416E+00  3.87269E+00  4.00017E+00  4.16843E+00
   4.35184E+00  4.47380E+00  4.47872E+00  4.34632E+00  4.09653E+00  3.79907E+00  3.51359E+00  3.27826E+00  3.08566E+00  2.89406E+00
   2.79364E+00  2.78524E+00  2.77348E+00  2.69941E+00  2.54446E+00  2.26375E+00  1.80668E+00  1.22037E+00  6.71926E-01  3.27759E-01
   2.51622E-01  4.04053E-01  6.36369E-01  7.83625E-01  8.91560E-01  9.81865E-01  1.12159E+00  2.15758E+00  5.81652E+00  1.21645E+01
   2.00824E+01  2.92549E+01  3.83892E+01  4.46785E+01  4.55905E+01  4.09205E+01  3.30519E+01  2.47538E+01  1.79169E+01  1.31067E+01
   8.77798E+00  4.35862E+00  2.52286E+00  1.95945E+00  1.68283E+00  1.50294E+00  1.37446E+00  1.28149E+00  1.24014E+00  1.30710E+00
   1.64799E+00  3.08546E+00  7.17081E+00  1.38536E+01  2.19597E+01  3.11272E+01  4.01444E+01  4.64264E+01  4.75596E+01  4.32357E+01
   3.56945E+01  2.75681E+01  2.05583E+01  1.51372E+01  9.92077E+00  4.62613E+00  2.12599E+00  1.39340E+00  1.42370E+00  1.81954E+00
   2.20515E+00  2.45689E+00  2.55272E+00  2.41992E+00  2.14808E+00  1.81152E+00  1.38371E+00  9.30326E-01  4.35535E-01 -1.76304E-02
  -3.76532E-01 -6.72898E-01 -9.09668E-01 -1.09394E+00 -1.22919E+00 -1.40051E+00 -1.68345E+00 -2.05075E+00 -2.48320E+00 -2.90072E+00
  -3.19964E+00 -3.29488E+00 -3.13563E+00 -2.83634E+00 -2.59511E+00 -2.57499E+00 -2.80443E+00 -3.13256E+00 -3.40272E+00 -3.68778E+00
  -4.04455E+00 -4.50130E+00 -5.00538E+00 -5.37404E+00 -5.65737E+00 -5.87588E+00 -5.95154E+00 -5.84422E+00 -5.67276E+00 -5.61736E+00
  -5.70904E+00 -5.86943E+00 -5.95441E+00 -5.81005E+00 -5.51811E+00 -5.14157E+00 -4.45036E+00 -3.37696E+00 -2.04329E+00 -8.57690E-01
  -1.91086E-01 -1.90349E-01 -8.04849E-01 -1.75261E+00 -2.66224E+00 -3.39706E+00 -3.73784E+00 -3.43859E+00 -2.45172E+00 -8.64483E-01
   1.07530E+00  2.91894E+00  4.20673E+00  4.67671E+00  4.00407E+00  2.19235E+00 -3.74628E-01 -3.21725E+00 -5.83695E+00 -7.44768E+00
  -7.38809E+00 -5.63658E+00 -2.85328E+00  3.00868E-01  3.28401E+00  5.33492E+00  5.90065E+00  4.95681E+00  2.52600E+00 -4.20415E-01
  -2.89948E+00 -4.55306E+00 -5.03440E+00 -4.31118E+00 -2.42197E+00 -2.70118E-02  1.96534E+00  3.24818E+00  3.88200E+00  4.10260E+00
   3.97394E+00  3.59936E+00  3.39687E+00  3.59424E+00  4.02841E+00  4.68668E+00  5.49171E+00  6.12684E+00  6.39583E+00  6.25648E+00
   5.68229E+00  4.84179E+00  4.16029E+00  3.99776E+00  4.19621E+00  4.74944E+00  5.54919E+00  6.32509E+00  6.96062E+00  7.61642E+00
   8.47466E+00  9.27546E+00  1.00474E+01  1.12144E+01  1.44653E+01  2.13798E+01  3.09993E+01  4.21494E+01  5.43408E+01  6.50734E+01
   7.03316E+01  6.75868E+01  5.81296E+01  4.58721E+01  3.42462E+01  2.53053E+01  1.87541E+01  1.20080E+01  6.57093E+00  4.64054E+00
   3.80666E+00  3.27258E+00  2.95319E+00  2.80178E+00  2.66340E+00  2.50480E+00  2.30514E+00  2.06697E+00  1.81226E+00  1.57220E+00
   1.34499E+00  1.14135E+00  9.91267E-01  8.98500E-01  8.48850E-01  8.31460E-01  8.41389E-01  8.83692E-01  9.62529E-01  1.06853E+00
   1.20545E+00  1.37621E+00  1.58086E+00  1.81751E+00  2.08291E+00  2.37435E+00  2.68724E+00  3.01516E+00  3.35439E+00  3.69943E+00
   4.04277E+00  4.37852E+00  4.70101E+00  5.00458E+00  5.28426E+00  5.53643E+00  5.75935E+00  5.95312E+00  6.11970E+00  6.26237E+00
   6.38508E+00  6.49323E+00  6.59321E+00  6.69113E+00  6.79327E+00  6.90522E+00  7.03159E+00  7.17598E+00  7.34128E+00  7.53072E+00
   7.75145E+00  8.01717E+00  8.30614E+00  8.55825E+00  8.74004E+00  8.82320E+00  8.75523E+00  8.50549E+00  8.10410E+00  7.66110E+00
   7.30086E+00  7.05802E+00  6.91316E+00  6.83895E+00  6.79161E+00  6.75914E+00  6.64422E+00  6.34848E+00  5.90068E+00  5.36302E+00
   4.80223E+00  4.25913E+00  3.70083E+00  3.14071E+00  2.64750E+00  2.20920E+00  1.81643E+00  1.46663E+00  1.15865E+00  8.91284E-01
   6.62848E-01  4.71195E-01  3.13759E-01  1.87597E-01  8.94025E-02  1.55946E-02 -3.75330E-02 -7.36350E-02 -9.62255E-02 -1.08655E-01
  -1.14088E-01 -1.15422E-01 -1.15162E-01 -1.15328E-01 -1.17453E-01 -1.22623E-01 -1.31507E-01 -1.44310E-01 -1.60738E-01 -1.80014E-01
  -2.00978E-01 -2.22194E-01 -2.42005E-01 -2.58534E-01 -2.69702E-01 -2.73305E-01 -2.67133E-01 -2.49046E-01 -2.16996E-01 -1.69004E-01
  -1.03184E-01 -1.78262E-02  8.85086E-02  2.16937E-01  3.68254E-01  5.42913E-01  7.40952E-01  9.61869E-01  1.20452E+00  1.46706E+00
   1.74698E+00  2.04102E+00  2.34520E+00  2.65477E+00  2.96421E+00  3.26747E+00  3.55806E+00  3.82934E+00  4.07462E+00  4.28741E+00
   4.46169E+00  4.59222E+00  4.67480E+00  4.70645E+00  4.68547E+00  4.61158E+00  4.48593E+00  4.31106E+00  4.09086E+00  3.83027E+00
   3.53504E+00  3.21153E+00  2.86642E+00  2.50647E+00  2.13832E+00  1.76814E+00  1.40152E+00  1.04330E+00  6.97567E-01  3.67613E-01
   5.59197E-02 -2.35841E-01 -5.06735E-01 -7.56436E-01 -9.85108E-01 -1.19331E+00 -1.38192E+00 -1.55211E+00 -1.70517E+00 -1.84247E+00
  -1.96537E+00 -2.07518E+00 -2.17319E+00 -2.26066E+00 -2.33873E+00 -2.40844E+00 -2.47069E+00 -2.52628E+00 -2.57598E+00 -2.62048E+00
  -2.66036E+00 -2.69612E+00 -2.72817E+00 -2.75691E+00 -2.78270E+00 -2.80586E+00 -2.82668E+00 -2.84536E+00 -2.86208E+00 -2.87703E+00
  -2.89039E+00 -2.90234E+00 -2.91297E+00 -2.92237E+00 -2.93064E+00 -2.93787E+00 -2.94417E+00 -2.94963E+00 -2.95430E+00 -2.95820E+00
  -2.96139E+00 -2.96394E+00 -2.96591E+00 -2.96734E+00 -2.96823E+00 -2.96860E+00 -2.96851E+00 -2.96800E+00 -2.96711E+00 -2.96585E+00
  -2.96421E+00 -2.96219E+00 -2.95986E+00 -2.95723E+00 -2.95433E+00 -2.95113E+00 -2.94765E+00 -2.94389E+00 -2.93989E+00 -2.93569E+00
  -2.93127E+00 -2.92660E+00 -2.92170E+00 -2.91658E+00 -2.91127E+00 -2.90579E+00 -2.90009E+00 -2.89417E+00 -2.88804E+00 -2.88170E+00
  -2.87519E+00 -2.86848E+00 -2.86154E+00 -2.85436E+00 -2.84693E+00 -2.83927E+00 -2.83137E+00 -2.82318E+00
 NY background values follow
     8.022E+00    7.939E+00    7.857E+00    7.774E+00    7.690E+00    7.607E+00    7.524E+00    7.441E+00    7.358E+00    7.274E+00
     7.191E+00    7.108E+00    7.025E+00    6.941E+00    6.858E+00    6.775E+00    6.691E+00    6.608E+00    6.525E+00    6.441E+00
     6.358E+00    6.275E+00    6.192E+00    6.109E+00    6.026E+00    5.943E+00    5.860E+00    5.777E+00    5.694E+00    5.612E+00
     5.529E+00    5.447E+00    5.364E+00    5.282E+00    5.200E+00    5.118E+00    5.036E+00    4.954E+00    4.872E+00    4.791E+00
     4.709E+00    4.628E+00    4.547E+00    4.466E+00    4.385E+00    4.305E+00    4.224E+00    4.144E+00    4.064E+00    3.984E+00
     3.904E+00    3.825E+00    3.746E+00    3.667E+00    3.588E+00    3.509E+00    3.431E+00    3.353E+00    3.275E+00    3.198E+00
     3.121E+00    3.044E+00    2.967E+00    2.891E+00    2.815E+00    2.739E+00    2.664E+00    2.589E+00    2.514E+00    2.440E+00
     2.366E+00    2.292E+00    2.219E+00    2.146E+00    2.074E+00    2.002E+00    1.930E+00    1.859E+00    1.788E+00    1.717E+00
     1.647E+00    1.578E+00    1.508E+00    1.440E+00    1.372E+00    1.304E+00    1.237E+00    1.170E+00    1.103E+00    1.038E+00
     9.723E-01    9.075E-01    8.432E-01    7.794E-01    7.162E-01    6.534E-01    5.912E-01    5.295E-01    4.684E-01    4.078E-01
     3.477E-01    2.881E-01    2.291E-01    1.706E-01    1.127E-01    5.531E-02   -1.538E-03   -5.784E-02   -1.136E-01   -1.688E-01
    -2.234E-01   -2.775E-01   -3.311E-01   -3.840E-01   -4.365E-01   -4.883E-01   -5.396E-01   -5.903E-01   -6.405E-01   -6.900E-01
    -7.390E-01   -7.875E-01   -8.353E-01   -8.826E-01   -9.293E-01   -9.754E-01   -1.021E+00   -1.066E+00   -1.110E+00   -1.154E+00
    -1.197E+00   -1.240E+00   -1.282E+00   -1.323E+00   -1.364E+00   -1.404E+00   -1.443E+00   -1.482E+00   -1.521E+00   -1.558E+00
    -1.595E+00   -1.632E+00   -1.668E+00   -1.703E+00   -1.738E+00   -1.772E+00   -1.805E+00   -1.838E+00   -1.871E+00   -1.902E+00
    -1.933E+00   -1.964E+00   -1.994E+00   -2.023E+00   -2.052E+00   -2.080E+00   -2.108E+00   -2.135E+00   -2.161E+00   -2.187E+00
    -2.212E+00   -2.237E+00   -2.261E+00   -2.285E+00   -2.308E+00   -2.330E+00   -2.352E+00   -2.373E+00   -2.394E+00   -2.414E+00
    -2.433E+00   -2.452E+00   -2.471E+00   -2.488E+00   -2.506E+00   -2.522E+00   -2.539E+00   -2.554E+00   -2.569E+00   -2.584E+00
    -2.597E+00   -2.611E+00   -2.624E+00   -2.636E+00   -2.648E+00   -2.659E+00   -2.669E+00   -2.680E+00   -2.689E+00   -2.699E+00
    -2.707E+00   -2.716E+00   -2.723E+00   -2.731E+00   -2.738E+00   -2.744E+00   -2.751E+00   -2.756E+00   -2.762E+00   -2.767E+00
    -2.771E+00   -2.776E+00   -2.780E+00   -2.783E+00   -2.787E+00   -2.790E+00   -2.793E+00   -2.795E+00   -2.797E+00   -2.799E+00
    -2.801E+00   -2.802E+00   -2.803E+00   -2.804E+00   -2.805E+00   -2.806E+00   -2.806E+00   -2.806E+00   -2.806E+00   -2.806E+00
    -2.806E+00   -2.805E+00   -2.805E+00   -2.804E+00   -2.803E+00   -2.803E+00   -2.802E+00   -2.801E+00   -2.800E+00   -2.798E+00
    -2.797E+00   -2.796E+00   -2.795E+00   -2.793E+00   -2.792E+00   -2.790E+00   -2.789E+00   -2.787E+00   -2.786E+00   -2.784E+00
    -2.783E+00   -2.781E+00   -2.779E+00   -2.778E+00   -2.776E+00   -2.774E+00   -2.773E+00   -2.771E+00   -2.769E+00   -2.768E+00
    -2.766E+00   -2.764E+00   -2.763E+00   -2.761E+00   -2.759E+00   -2.758E+00   -2.756E+00   -2.755E+00   -2.753E+00   -2.752E+00
    -2.751E+00   -2.749E+00   -2.748E+00   -2.747E+00   -2.746E+00   -2.745E+00   -2.744E+00   -2.743E+00   -2.742E+00   -2.741E+00
    -2.740E+00   -2.740E+00   -2.739E+00   -2.739E+00   -2.738E+00   -2.738E+00   -2.738E+00   -2.738E+00   -2.738E+00   -2.738E+00
    -2.738E+00   -2.738E+00   -2.739E+00   -2.739E+00   -2.740E+00   -2.740E+00   -2.741E+00   -2.742E+00   -2.743E+00   -2.744E+00
    -2.745E+00   -2.746E+00   -2.747E+00   -2.748E+00   -2.750E+00   -2.751E+00   -2.753E+00   -2.755E+00   -2.756E+00   -2.758E+00
    -2.760E+00   -2.762E+00   -2.764E+00   -2.766E+00   -2.768E+00   -2.770E+00   -2.773E+00   -2.775E+00   -2.778E+00   -2.780E+00
    -2.783E+00   -2.786E+00   -2.789E+00   -2.792E+00   -2.795E+00   -2.798E+00   -2.801E+00   -2.804E+00   -2.807E+00   -2.811E+00
    -2.814E+00   -2.817E+00   -2.821E+00   -2.825E+00   -2.828E+00   -2.832E+00   -2.836E+00   -2.840E+00   -2.843E+00   -2.847E+00
    -2.851E+00   -2.855E+00   -2.859E+00   -2.863E+00   -2.867E+00   -2.871E+00   -2.876E+00   -2.880E+00   -2.884E+00   -2.888E+00
    -2.892E+00   -2.896E+00   -2.901E+00   -2.905E+00   -2.909E+00   -2.913E+00   -2.917E+00   -2.921E+00   -2.926E+00   -2.930E+00
    -2.934E+00   -2.938E+00   -2.942E+00   -2.946E+00   -2.950E+00   -2.954E+00   -2.958E+00   -2.962E+00   -2.966E+00   -2.969E+00
    -2.973E+00   -2.977E+00   -2.980E+00   -2.984E+00   -2.988E+00   -2.991E+00   -2.994E+00   -2.998E+00   -3.001E+00   -3.004E+00
    -3.007E+00   -3.010E+00   -3.013E+00   -3.016E+00   -3.019E+00   -3.022E+00   -3.024E+00   -3.027E+00   -3.029E+00   -3.032E+00
    -3.034E+00   -3.036E+00   -3.038E+00   -3.040E+00   -3.042E+00   -3.044E+00   -3.045E+00   -3.047E+00   -3.048E+00   -3.050E+00
    -3.051E+00   -3.052E+00   -3.053E+00   -3.054E+00   -3.054E+00   -3.055E+00   -3.055E+00   -3.056E+00   -3.056E+00   -3.056E+00
    -3.056E+00   -3.056E+00   -3.055E+00   -3.055E+00   -3.054E+00   -3.053E+00   -3.052E+00   -3.051E+00   -3.050E+00   -3.048E+00
    -3.047E+00   -3.045E+00   -3.043E+00   -3.041E+00   -3.039E+00   -3.036E+00   -3.034E+00   -3.031E+00   -3.029E+00   -3.026E+00
    -3.023E+00   -3.020E+00   -3.016E+00   -3.013E+00   -3.009E+00   -3.006E+00   -3.002E+00   -2.998E+00   -2.994E+00   -2.990E+00
    -2.986E+00   -2.982E+00   -2.977E+00   -2.973E+00   -2.968E+00   -2.963E+00   -2.959E+00   -2.954E+00   -2.949E+00   -2.944E+00
    -2.938E+00   -2.933E+00   -2.928E+00   -2.922E+00   -2.917E+00   -2.911E+00   -2.906E+00   -2.900E+00   -2.894E+00   -2.888E+00
    -2.882E+00   -2.876E+00   -2.870E+00   -2.864E+00   -2.858E+00   -2.852E+00   -2.845E+00   -2.839E+00   -2.833E+00   -2.826E+00
    -2.820E+00   -2.813E+00   -2.806E+00   -2.800E+00   -2.793E+00   -2.786E+00   -2.779E+00   -2.773E+00   -2.766E+00   -2.759E+00
    -2.752E+00   -2.745E+00   -2.738E+00   -2.731E+00   -2.724E+00   -2.717E+00   -2.710E+00   -2.702E+00   -2.695E+00   -2.688E+00
    -2.681E+00   -2.674E+00   -2.666E+00   -2.659E+00   -2.652E+00   -2.645E+00   -2.637E+00   -2.630E+00   -2.623E+00   -2.615E+00
    -2.608E+00   -2.601E+00   -2.593E+00   -2.586E+00   -2.579E+00   -2.571E+00   -2.564E+00   -2.557E+00
 Ala      Conc. = 6.94E+01
