 LCModel (Version 6.3-1L) Copyright: S.W. Provencher.          Ref.: Magn. Reson. Med. 30:672-679 (1993).                
 Slice#2 Row#4 Col#5  PD_05_press_1_raw_act
 36 lines in following concentration table = NCONC+1
    Conc.  %SD /Cr+PCr  Metabolite                                         
    0.000 999%   0.000 Ala                                                 
    0.000 999%   0.000 Asp                                                 
  640.848  33%   0.433 Cr                                                  
  838.520  26%   0.567 PCr                                                 
    0.000 999%   0.000 GABA                                                
   12.545 999% 8.5E-03 Glc                                                 
 1.18E+03  19%   0.799 Gln                                                 
 1.70E+03  15%   1.147 Glu                                                 
  689.584   3%   0.466 GPC                                                 
    0.000 999%   0.000 PCh                                                 
  597.361  12%   0.404 GSH                                                 
 1.54E+03  17%   1.040 Ins                                                 
  109.557 107% 7.4E-02 Lac                                                 
 2.64E+03   3%   1.785 NAA                                                 
    0.000 999%   0.000 NAAG                                                
  164.277  17%   0.111 Scyllo                                              
    0.000 999%   0.000 Tau                                                 
   97.874 109% 6.6E-02 -CrCH2                                              
  689.584   3%   0.466 GPC+PCh                                             
 2.64E+03   3%   1.785 NAA+NAAG                                            
 1.48E+03   3%   1.000 Cr+PCr                                              
 2.88E+03  14%   1.946 Glu+Gln                                             
    0.000 999%   0.000 Lip13a                                              
  103.446  81% 7.0E-02 Lip13b                                              
    8.836 995% 6.0E-03 Lip09                                               
 1.62E+03  16%   1.093 MM09                                                
    0.000 999%   0.000 Lip20                                               
 3.09E+03  13%   2.087 MM20                                                
  553.886  35%   0.374 MM12                                                
 1.03E+03  31%   0.693 MM14                                                
  877.132  29%   0.593 MM17                                                
  103.446  81% 7.0E-02 Lip13a+Lip13b                                       
 1.68E+03  25%   1.138 MM14+Lip13a+Lip13b+MM12                             
 1.63E+03  15%   1.099 MM09+Lip09                                          
 3.09E+03  13%   2.087 MM20+Lip20                                          
   6 lines in following misc. output table
  FWHM = 0.061 ppm    S/N =  16                                            
  Data shift =-0.015 ppm                                                   
  Ph: -51 deg     -17.6 deg/ppm                                            
  alphaB,S = 6.7E-01,   9.9E+01                                            
   14 spline knots.   Ns = 8(1)                                            
  (15) 5 infls.   (15) 1 extrs.                                            
  498 points on ppm-axis = NY
      4.000000     3.992357     3.984714     3.977070     3.969427     3.961784     3.954141     3.946497     3.938854     3.931211
      3.923568     3.915925     3.908281     3.900638     3.892995     3.885352     3.877708     3.870065     3.862422     3.854779
      3.847136     3.839492     3.831849     3.824206     3.816563     3.808919     3.801276     3.793633     3.785990     3.778347
      3.770703     3.763060     3.755417     3.747774     3.740130     3.732487     3.724844     3.717201     3.709558     3.701914
      3.694271     3.686628     3.678985     3.671341     3.663698     3.656055     3.648412     3.640769     3.633125     3.625482
      3.617839     3.610196     3.602552     3.594909     3.587266     3.579623     3.571980     3.564336     3.556693     3.549050
      3.541407     3.533763     3.526120     3.518477     3.510834     3.503191     3.495547     3.487904     3.480261     3.472618
      3.464974     3.457331     3.449688     3.442045     3.434402     3.426758     3.419115     3.411472     3.403829     3.396185
      3.388542     3.380899     3.373256     3.365613     3.357969     3.350326     3.342683     3.335040     3.327396     3.319753
      3.312110     3.304467     3.296824     3.289180     3.281537     3.273894     3.266251     3.258607     3.250964     3.243321
      3.235678     3.228034     3.220391     3.212748     3.205105     3.197462     3.189818     3.182175     3.174532     3.166889
      3.159245     3.151602     3.143959     3.136316     3.128673     3.121029     3.113386     3.105743     3.098100     3.090456
      3.082813     3.075170     3.067527     3.059884     3.052240     3.044597     3.036954     3.029311     3.021667     3.014024
      3.006381     2.998738     2.991095     2.983451     2.975808     2.968165     2.960522     2.952878     2.945235     2.937592
      2.929949     2.922306     2.914662     2.907019     2.899376     2.891733     2.884089     2.876446     2.868803     2.861160
      2.853517     2.845873     2.838230     2.830587     2.822944     2.815300     2.807657     2.800014     2.792371     2.784728
      2.777084     2.769441     2.761798     2.754155     2.746511     2.738868     2.731225     2.723582     2.715939     2.708295
      2.700652     2.693009     2.685366     2.677722     2.670079     2.662436     2.654793     2.647150     2.639506     2.631863
      2.624220     2.616577     2.608933     2.601290     2.593647     2.586004     2.578361     2.570717     2.563074     2.555431
      2.547788     2.540144     2.532501     2.524858     2.517215     2.509572     2.501928     2.494285     2.486642     2.478999
      2.471355     2.463712     2.456069     2.448426     2.440783     2.433139     2.425496     2.417853     2.410210     2.402566
      2.394923     2.387280     2.379637     2.371994     2.364350     2.356707     2.349064     2.341421     2.333777     2.326134
      2.318491     2.310848     2.303205     2.295561     2.287918     2.280275     2.272632     2.264988     2.257345     2.249702
      2.242059     2.234416     2.226772     2.219129     2.211486     2.203843     2.196199     2.188556     2.180913     2.173270
      2.165627     2.157983     2.150340     2.142697     2.135054     2.127410     2.119767     2.112124     2.104481     2.096838
      2.089194     2.081551     2.073908     2.066265     2.058621     2.050978     2.043335     2.035692     2.028049     2.020405
      2.012762     2.005119     1.997476     1.989833     1.982190     1.974546     1.966903     1.959260     1.951617     1.943974
      1.936331     1.928688     1.921045     1.913402     1.905759     1.898115     1.890472     1.882829     1.875186     1.867543
      1.859900     1.852257     1.844614     1.836971     1.829327     1.821684     1.814041     1.806398     1.798755     1.791112
      1.783469     1.775826     1.768183     1.760540     1.752896     1.745253     1.737610     1.729967     1.722324     1.714681
      1.707038     1.699395     1.691752     1.684108     1.676465     1.668822     1.661179     1.653536     1.645893     1.638250
      1.630607     1.622964     1.615321     1.607677     1.600034     1.592391     1.584748     1.577105     1.569462     1.561819
      1.554176     1.546533     1.538890     1.531246     1.523603     1.515960     1.508317     1.500674     1.493031     1.485388
      1.477745     1.470102     1.462458     1.454815     1.447172     1.439529     1.431886     1.424243     1.416600     1.408957
      1.401314     1.393671     1.386027     1.378384     1.370741     1.363098     1.355455     1.347812     1.340169     1.332526
      1.324883     1.317240     1.309596     1.301953     1.294310     1.286667     1.279024     1.271381     1.263738     1.256095
      1.248452     1.240808     1.233165     1.225522     1.217879     1.210236     1.202593     1.194950     1.187307     1.179664
      1.172021     1.164377     1.156734     1.149091     1.141448     1.133805     1.126162     1.118519     1.110876     1.103233
      1.095590     1.087946     1.080303     1.072660     1.065017     1.057374     1.049731     1.042088     1.034445     1.026802
      1.019158     1.011515     1.003872     0.996229     0.988586     0.980943     0.973300     0.965657     0.958014     0.950371
      0.942727     0.935084     0.927441     0.919798     0.912155     0.904512     0.896869     0.889226     0.881583     0.873940
      0.866296     0.858653     0.851010     0.843367     0.835724     0.828081     0.820438     0.812795     0.805152     0.797508
      0.789865     0.782222     0.774579     0.766936     0.759293     0.751650     0.744007     0.736364     0.728721     0.721077
      0.713434     0.705791     0.698148     0.690505     0.682862     0.675219     0.667576     0.659933     0.652290     0.644646
      0.637003     0.629360     0.621717     0.614074     0.606431     0.598788     0.591145     0.583502     0.575858     0.568215
      0.560572     0.552929     0.545286     0.537643     0.530000     0.522357     0.514714     0.507071     0.499427     0.491784
      0.484141     0.476498     0.468855     0.461212     0.453569     0.445925     0.438282     0.430639     0.422996     0.415353
      0.407710     0.400067     0.392424     0.384780     0.377137     0.369494     0.361851     0.354208     0.346565     0.338922
      0.331278     0.323635     0.315992     0.308349     0.300706     0.293063     0.285420     0.277777     0.270133     0.262490
      0.254847     0.247204     0.239561     0.231918     0.224275     0.216631     0.208988     0.201345
 NY phased data points follow
  -9.97890E+01 -1.01681E+02 -9.90635E+01 -8.92106E+01 -8.74146E+01 -8.16902E+01 -7.43652E+01 -6.71669E+01 -6.26041E+01 -6.17686E+01
  -5.58320E+01 -5.95504E+01 -6.56043E+01 -6.09681E+01 -6.86958E+01 -7.35338E+01 -7.37426E+01 -7.91448E+01 -7.73996E+01 -7.61360E+01
  -7.40419E+01 -7.90206E+01 -7.30193E+01 -7.18552E+01 -6.98821E+01 -7.20222E+01 -6.43940E+01 -6.43006E+01 -6.68373E+01 -6.11732E+01
  -5.96883E+01 -6.27475E+01 -6.05339E+01 -6.20190E+01 -5.80224E+01 -6.17255E+01 -5.94085E+01 -6.09900E+01 -5.99182E+01 -5.61920E+01
  -5.64374E+01 -5.99384E+01 -5.44447E+01 -5.39334E+01 -5.24213E+01 -4.91606E+01 -5.05419E+01 -4.92345E+01 -5.01969E+01 -4.89883E+01
  -5.24013E+01 -5.20235E+01 -5.17903E+01 -5.01941E+01 -5.62396E+01 -5.62622E+01 -5.17320E+01 -5.15572E+01 -5.36530E+01 -5.12170E+01
  -5.37108E+01 -5.09990E+01 -5.47786E+01 -5.53587E+01 -5.45514E+01 -5.72443E+01 -5.28226E+01 -5.66124E+01 -5.14424E+01 -4.99515E+01
  -4.62632E+01 -4.77396E+01 -4.84539E+01 -4.85392E+01 -4.69241E+01 -4.56488E+01 -4.43496E+01 -4.51632E+01 -4.50555E+01 -4.41435E+01
  -4.21006E+01 -4.26102E+01 -3.65123E+01 -4.00598E+01 -3.65782E+01 -3.70529E+01 -4.00888E+01 -3.87824E+01 -3.61455E+01 -3.73302E+01
  -3.68867E+01 -3.89623E+01 -3.57783E+01 -3.24719E+01 -3.31780E+01 -3.02520E+01 -2.70896E+01 -1.92054E+01 -1.56812E+01 -5.44239E+00
   2.60407E+00  9.78465E+00  1.56464E+01  1.48506E+01  9.11296E+00  2.73137E+00 -9.38772E-01 -6.96246E+00 -1.40115E+01 -1.79723E+01
  -2.27149E+01 -2.48931E+01 -2.29791E+01 -2.70922E+01 -2.99302E+01 -2.38078E+01 -2.96498E+01 -2.86659E+01 -2.47553E+01 -2.59384E+01
  -2.19725E+01 -2.04494E+01 -1.46900E+01 -8.24465E+00 -5.07557E-02  8.32897E+00  1.63830E+01  1.37422E+01  1.24392E+01  7.83940E+00
   2.18797E+00 -4.93354E+00 -1.04073E+01 -1.72833E+01 -1.84861E+01 -2.19614E+01 -2.32585E+01 -2.39987E+01 -2.45325E+01 -2.66078E+01
  -2.42251E+01 -2.48372E+01 -2.10263E+01 -2.45712E+01 -2.62700E+01 -2.60227E+01 -2.42083E+01 -2.61167E+01 -2.51076E+01 -2.58831E+01
  -2.33347E+01 -2.89346E+01 -2.41785E+01 -2.40231E+01 -2.60221E+01 -2.48208E+01 -2.60986E+01 -2.81659E+01 -2.40896E+01 -2.17673E+01
  -2.58162E+01 -2.73882E+01 -2.53043E+01 -2.65319E+01 -2.28388E+01 -2.39862E+01 -2.38892E+01 -2.28724E+01 -2.20883E+01 -2.28448E+01
  -2.44136E+01 -2.71311E+01 -2.71510E+01 -2.81964E+01 -2.75646E+01 -2.87980E+01 -2.96640E+01 -2.61490E+01 -2.73549E+01 -2.92111E+01
  -2.77813E+01 -2.92325E+01 -2.75217E+01 -2.75501E+01 -2.63374E+01 -2.61896E+01 -2.18134E+01 -1.89530E+01 -1.76882E+01 -1.71081E+01
  -1.03061E+01 -1.29721E+01 -1.03613E+01 -1.12877E+01 -8.83187E+00 -1.11625E+01 -1.24253E+01 -1.46832E+01 -1.53265E+01 -1.26053E+01
  -1.12204E+01 -8.88233E+00 -5.78705E+00 -6.90165E+00 -7.03281E+00 -7.17489E+00 -1.29344E+01 -1.29800E+01 -1.22365E+01 -1.58116E+01
  -1.64341E+01 -1.10670E+01 -1.01474E+01 -5.00322E+00 -2.33784E+00 -4.57877E-01  8.53375E-01 -2.21046E+00 -3.34028E+00 -3.77573E+00
  -4.42286E+00 -9.83769E+00 -1.11219E+01 -6.95210E+00 -7.75122E+00 -2.65841E+00 -3.68926E+00  7.57762E-02  2.39990E-02  7.84271E-01
  -2.07726E-01 -1.38540E+00 -3.14401E+00 -8.46887E-01  1.63770E+00  2.36938E-01  4.75138E-01  2.86821E+00  3.20500E+00  1.43729E+00
  -6.15074E-01  3.18947E+00  9.72908E-01  5.62549E+00  9.54708E-01  6.10962E+00  3.36839E+00  4.84446E+00  5.86267E+00  3.34617E+00
   5.67742E+00  1.17427E+01  1.21850E+01  1.59000E+01  2.07816E+01  2.57050E+01  3.82952E+01  5.23603E+01  6.59688E+01  7.26044E+01
   7.89353E+01  7.90953E+01  7.40165E+01  6.21973E+01  5.66247E+01  4.38985E+01  3.05632E+01  2.20411E+01  2.05588E+01  1.49716E+01
   1.55052E+01  1.12030E+01  7.48752E+00  8.12050E+00  7.37222E+00  4.89339E+00  3.54328E+00  4.07425E+00 -1.37116E+00  5.24567E+00
   2.41851E+00  1.72520E+00  9.11098E-01  5.96616E-01  3.82372E-01  1.16932E+00  3.11224E+00 -1.26637E+00  2.88776E-01  2.16937E+00
   3.78442E+00  7.06320E-01  3.13982E+00  2.95856E+00  3.56330E+00  4.50251E+00  2.34537E+00  2.39136E+00  2.57146E+00  2.91318E+00
   3.19487E+00  4.89878E+00  5.84028E+00  3.18388E+00  7.62927E+00  3.98060E+00  9.43868E+00  6.26157E+00  9.52561E+00  1.07020E+01
   8.39882E+00  1.15698E+01  7.03879E+00  1.00021E+01  1.21833E+01  1.06280E+01  6.25539E+00  9.82887E+00  8.86868E+00  8.26109E+00
   6.56179E+00  9.15120E+00  5.46007E+00  9.01418E+00  9.24894E+00  1.16482E+01  9.21937E+00  8.33470E+00  7.51020E+00  1.09986E+01
   8.57398E+00  8.74465E+00  8.94680E+00  1.12017E+01  1.25595E+01  1.10673E+01  9.72645E+00  8.75373E+00  8.35852E+00  9.44660E+00
   7.55528E+00  7.98401E+00  5.98562E+00  6.21844E+00  8.68875E+00  6.26402E+00  9.25499E+00  8.70172E+00  8.86890E+00  6.73140E+00
   7.36477E+00  8.90101E+00  4.57856E+00  7.46130E+00  7.27471E+00  9.34699E+00  1.01914E+01  9.15935E+00  1.30365E+01  1.32016E+01
   8.07978E+00  8.08138E+00  1.39208E+01  1.02342E+01  6.32906E+00  8.94845E+00  9.20003E+00  8.70044E+00  8.92446E+00  1.15882E+01
   9.58443E+00  9.08279E+00  7.14989E+00  6.84278E+00  1.00798E+01  8.97798E+00  9.53564E+00  6.66139E+00  1.14907E+01  9.46721E+00
   8.68588E+00  9.73586E+00  1.19287E+01  6.66404E+00  1.19312E+01  1.19921E+01  7.27351E+00  8.37167E+00  1.28797E+01  1.14641E+01
   9.15500E+00  1.02426E+01  9.40116E+00  1.15584E+01  1.04158E+01  1.38413E+01  1.73968E+01  1.76721E+01  1.42624E+01  1.74387E+01
   1.71522E+01  1.19442E+01  1.74742E+01  1.60989E+01  1.95347E+01  1.76133E+01  1.70839E+01  1.83789E+01  1.78899E+01  2.07085E+01
   2.06557E+01  1.90672E+01  1.67168E+01  1.82757E+01  1.88407E+01  1.63353E+01  1.75139E+01  1.40892E+01  1.60567E+01  1.44489E+01
   1.50963E+01  1.74614E+01  1.62677E+01  1.46194E+01  1.45858E+01  1.36253E+01  1.00143E+01  1.21872E+01  1.10507E+01  1.38030E+01
   1.38630E+01  9.85082E+00  1.22592E+01  1.17523E+01  1.16392E+01  7.82879E+00  7.44659E+00  9.82968E+00  1.23284E+01  1.07920E+01
   9.36589E+00  1.11220E+01  1.01733E+01  9.16657E+00  9.95447E+00  9.43487E+00  1.03734E+01  1.13942E+01  1.04506E+01  8.82048E+00
   1.11278E+01  7.86858E+00  9.76717E+00  1.32334E+01  1.09297E+01  1.04978E+01  8.83842E+00  9.67564E+00  1.03946E+01  8.64057E+00
   9.70962E+00  7.92270E+00  1.46486E+01  1.35635E+01  9.48524E+00  9.99724E+00  1.01153E+01  6.05559E+00  1.21763E+01  1.21138E+01
   1.04549E+01  9.52519E+00  1.27933E+01  9.18594E+00  1.15260E+01  1.11083E+01  1.14785E+01  9.90957E+00  1.06088E+01  1.03218E+01
   7.16006E+00  9.55303E+00  1.06798E+01  1.15076E+01  1.29628E+01  9.65996E+00  1.10024E+01  8.81067E+00  1.15168E+01  1.34180E+01
   1.47767E+01  1.03612E+01  1.04976E+01  1.28573E+01  1.05793E+01  1.26054E+01  1.04196E+01  1.19700E+01
 NY points of the fit to the data follow
  -9.43598E+01 -9.34131E+01 -9.12663E+01 -8.81961E+01 -8.46944E+01 -8.03208E+01 -7.49143E+01 -6.92548E+01 -6.43765E+01 -6.10585E+01
  -5.97926E+01 -6.04601E+01 -6.23117E+01 -6.47176E+01 -6.75354E+01 -7.04159E+01 -7.25700E+01 -7.36535E+01 -7.44857E+01 -7.56699E+01
  -7.65204E+01 -7.64852E+01 -7.56388E+01 -7.46740E+01 -7.34112E+01 -7.14374E+01 -6.89205E+01 -6.61250E+01 -6.33092E+01 -6.07902E+01
  -5.90934E+01 -5.83254E+01 -5.82056E+01 -5.88005E+01 -6.02668E+01 -6.19432E+01 -6.31627E+01 -6.38437E+01 -6.40982E+01 -6.37024E+01
  -6.22777E+01 -6.05396E+01 -5.84792E+01 -5.59956E+01 -5.36208E+01 -5.17765E+01 -5.07902E+01 -5.06607E+01 -5.12352E+01 -5.22100E+01
  -5.32827E+01 -5.43410E+01 -5.51877E+01 -5.53400E+01 -5.48612E+01 -5.42960E+01 -5.38037E+01 -5.31158E+01 -5.23067E+01 -5.17417E+01
  -5.15347E+01 -5.15465E+01 -5.16198E+01 -5.16160E+01 -5.14785E+01 -5.11360E+01 -5.05071E+01 -4.97030E+01 -4.88827E+01 -4.80902E+01
  -4.74031E+01 -4.68252E+01 -4.63801E+01 -4.60376E+01 -4.57283E+01 -4.54604E+01 -4.52367E+01 -4.49426E+01 -4.43621E+01 -4.34785E+01
  -4.26864E+01 -4.17620E+01 -4.04875E+01 -3.90955E+01 -3.79445E+01 -3.72048E+01 -3.69374E+01 -3.71228E+01 -3.74838E+01 -3.77967E+01
  -3.80676E+01 -3.83184E+01 -3.82876E+01 -3.76980E+01 -3.60735E+01 -3.26851E+01 -2.84635E+01 -2.30631E+01 -1.54511E+01 -5.85011E+00
   3.74298E+00  1.12983E+01  1.54713E+01  1.54083E+01  1.16121E+01  5.81065E+00 -8.38258E-01 -8.30656E+00 -1.54699E+01 -2.04486E+01
  -2.32426E+01 -2.59640E+01 -2.94706E+01 -3.13577E+01 -3.17842E+01 -3.17767E+01 -3.15838E+01 -3.11886E+01 -3.01464E+01 -2.74318E+01
  -2.36171E+01 -1.93586E+01 -1.36100E+01 -6.03141E+00  2.00220E+00  8.74778E+00  1.29680E+01  1.38011E+01  1.14655E+01  7.30474E+00
   2.29182E+00 -3.60709E+00 -9.88622E+00 -1.48640E+01 -1.78844E+01 -2.03099E+01 -2.32949E+01 -2.51612E+01 -2.52829E+01 -2.48144E+01
  -2.42066E+01 -2.37471E+01 -2.35854E+01 -2.35739E+01 -2.35807E+01 -2.36650E+01 -2.37987E+01 -2.39268E+01 -2.40638E+01 -2.41873E+01
  -2.43376E+01 -2.44288E+01 -2.44122E+01 -2.43777E+01 -2.43768E+01 -2.43407E+01 -2.43074E+01 -2.43347E+01 -2.44134E+01 -2.45292E+01
  -2.45682E+01 -2.44369E+01 -2.41556E+01 -2.38510E+01 -2.36534E+01 -2.36054E+01 -2.36618E+01 -2.38073E+01 -2.40724E+01 -2.44683E+01
  -2.47891E+01 -2.49569E+01 -2.51414E+01 -2.53813E+01 -2.56440E+01 -2.56950E+01 -2.54552E+01 -2.51505E+01 -2.48698E+01 -2.46608E+01
  -2.45020E+01 -2.41946E+01 -2.37588E+01 -2.33093E+01 -2.27379E+01 -2.17873E+01 -2.04050E+01 -1.88916E+01 -1.74618E+01 -1.62755E+01
  -1.53982E+01 -1.48917E+01 -1.48596E+01 -1.51345E+01 -1.54465E+01 -1.55616E+01 -1.51833E+01 -1.42099E+01 -1.28842E+01 -1.13212E+01
  -9.68809E+00 -8.15051E+00 -7.15076E+00 -6.89567E+00 -7.28780E+00 -8.47461E+00 -1.04061E+01 -1.24872E+01 -1.40068E+01 -1.45933E+01
  -1.43346E+01 -1.30207E+01 -1.06927E+01 -7.96736E+00 -5.49846E+00 -3.78797E+00 -3.22755E+00 -3.83660E+00 -5.28653E+00 -6.96068E+00
  -8.68144E+00 -1.01729E+01 -1.05772E+01 -9.70443E+00 -8.10787E+00 -6.37956E+00 -4.80430E+00 -3.15579E+00 -1.85551E+00 -1.05043E+00
  -5.94190E-01 -1.82355E-01  4.64935E-01  1.15124E+00  1.69351E+00  2.10648E+00  2.55054E+00  2.99029E+00  3.14291E+00  2.90377E+00
   2.62238E+00  2.46091E+00  2.28449E+00  2.26189E+00  2.65680E+00  3.38186E+00  4.04994E+00  4.74301E+00  5.65139E+00  6.50520E+00
   7.22569E+00  8.13363E+00  1.05367E+01  1.60076E+01  2.22987E+01  2.91935E+01  3.90166E+01  5.17823E+01  6.45354E+01  7.44696E+01
   7.98119E+01  7.92000E+01  7.32165E+01  6.44820E+01  5.46259E+01  4.33804E+01  3.23106E+01  2.44791E+01  2.00904E+01  1.57377E+01
   9.81311E+00  6.45051E+00  5.38290E+00  4.84327E+00  4.47464E+00  4.23753E+00  4.01053E+00  3.76291E+00  3.51128E+00  3.24751E+00
   2.99367E+00  2.78982E+00  2.63315E+00  2.49023E+00  2.36328E+00  2.27565E+00  2.22736E+00  2.20590E+00  2.20488E+00  2.23155E+00
   2.29672E+00  2.39257E+00  2.51544E+00  2.67191E+00  2.86408E+00  3.09139E+00  3.35394E+00  3.65209E+00  3.98506E+00  4.34820E+00
   4.73788E+00  5.14993E+00  5.57688E+00  6.01086E+00  6.44371E+00  6.86637E+00  7.27002E+00  7.64621E+00  7.98718E+00  8.28675E+00
   8.54070E+00  8.74642E+00  8.90277E+00  9.01078E+00  9.07450E+00  9.09918E+00  9.09131E+00  9.05834E+00  9.00820E+00  8.94887E+00
   8.88781E+00  8.83156E+00  8.78528E+00  8.75260E+00  8.73561E+00  8.73487E+00  8.74951E+00  8.77734E+00  8.81515E+00  8.85909E+00
   8.90504E+00  8.94900E+00  8.98732E+00  9.01703E+00  9.03611E+00  9.04399E+00  9.04206E+00  9.03494E+00  9.03464E+00  9.06527E+00
   9.09643E+00  9.09019E+00  9.08924E+00  9.09026E+00  9.02717E+00  8.84760E+00  8.55565E+00  8.23055E+00  7.93060E+00  7.69746E+00
   7.60692E+00  7.69872E+00  7.97180E+00  8.41078E+00  8.93763E+00  9.39908E+00  9.68920E+00  9.87413E+00  1.00068E+01  1.00132E+01
   9.89083E+00  9.71310E+00  9.56259E+00  9.44078E+00  9.27866E+00  9.11539E+00  9.00741E+00  8.93491E+00  8.88447E+00  8.84851E+00
   8.82185E+00  8.80115E+00  8.78460E+00  8.77175E+00  8.76321E+00  8.76050E+00  8.76566E+00  8.78104E+00  8.80914E+00  8.85254E+00
   8.91384E+00  8.99566E+00  9.10058E+00  9.23107E+00  9.38949E+00  9.57814E+00  9.79919E+00  1.00547E+01  1.03463E+01  1.06753E+01
   1.10425E+01  1.14479E+01  1.18908E+01  1.23695E+01  1.28810E+01  1.34211E+01  1.39839E+01  1.45626E+01  1.51486E+01  1.57323E+01
   1.63030E+01  1.68493E+01  1.73595E+01  1.78220E+01  1.82260E+01  1.85617E+01  1.88210E+01  1.89975E+01  1.90874E+01  1.90893E+01
   1.90044E+01  1.88365E+01  1.85915E+01  1.82773E+01  1.79035E+01  1.74807E+01  1.70203E+01  1.65337E+01  1.60319E+01  1.55253E+01
   1.50233E+01  1.45339E+01  1.40639E+01  1.36184E+01  1.32014E+01  1.28154E+01  1.24617E+01  1.21407E+01  1.18519E+01  1.15940E+01
   1.13654E+01  1.11642E+01  1.09882E+01  1.08352E+01  1.07030E+01  1.05893E+01  1.04922E+01  1.04097E+01  1.03403E+01  1.02824E+01
   1.02345E+01  1.01955E+01  1.01642E+01  1.01399E+01  1.01216E+01  1.01087E+01  1.01005E+01  1.00965E+01  1.00962E+01  1.00992E+01
   1.01053E+01  1.01140E+01  1.01251E+01  1.01384E+01  1.01536E+01  1.01706E+01  1.01893E+01  1.02094E+01  1.02308E+01  1.02534E+01
   1.02773E+01  1.03022E+01  1.03280E+01  1.03547E+01  1.03823E+01  1.04106E+01  1.04397E+01  1.04694E+01  1.04998E+01  1.05308E+01
   1.05623E+01  1.05943E+01  1.06269E+01  1.06600E+01  1.06936E+01  1.07275E+01  1.07619E+01  1.07967E+01  1.08319E+01  1.08675E+01
   1.09034E+01  1.09397E+01  1.09764E+01  1.10134E+01  1.10508E+01  1.10885E+01  1.11265E+01  1.11648E+01  1.12035E+01  1.12425E+01
   1.12818E+01  1.13215E+01  1.13614E+01  1.14017E+01  1.14424E+01  1.14834E+01  1.15248E+01  1.15665E+01
 NY background values follow
    -9.905E+01   -9.828E+01   -9.751E+01   -9.674E+01   -9.598E+01   -9.521E+01   -9.444E+01   -9.368E+01   -9.291E+01   -9.215E+01
    -9.139E+01   -9.063E+01   -8.987E+01   -8.911E+01   -8.836E+01   -8.761E+01   -8.686E+01   -8.611E+01   -8.536E+01   -8.462E+01
    -8.388E+01   -8.314E+01   -8.240E+01   -8.167E+01   -8.094E+01   -8.021E+01   -7.948E+01   -7.876E+01   -7.805E+01   -7.733E+01
    -7.662E+01   -7.591E+01   -7.521E+01   -7.451E+01   -7.381E+01   -7.312E+01   -7.243E+01   -7.175E+01   -7.107E+01   -7.039E+01
    -6.972E+01   -6.906E+01   -6.840E+01   -6.774E+01   -6.709E+01   -6.644E+01   -6.580E+01   -6.517E+01   -6.454E+01   -6.391E+01
    -6.329E+01   -6.268E+01   -6.207E+01   -6.146E+01   -6.087E+01   -6.027E+01   -5.968E+01   -5.910E+01   -5.852E+01   -5.795E+01
    -5.738E+01   -5.682E+01   -5.627E+01   -5.572E+01   -5.517E+01   -5.463E+01   -5.410E+01   -5.357E+01   -5.305E+01   -5.253E+01
    -5.202E+01   -5.151E+01   -5.101E+01   -5.052E+01   -5.003E+01   -4.954E+01   -4.906E+01   -4.859E+01   -4.812E+01   -4.766E+01
    -4.721E+01   -4.676E+01   -4.631E+01   -4.587E+01   -4.544E+01   -4.501E+01   -4.459E+01   -4.418E+01   -4.377E+01   -4.336E+01
    -4.296E+01   -4.257E+01   -4.218E+01   -4.180E+01   -4.143E+01   -4.106E+01   -4.069E+01   -4.033E+01   -3.998E+01   -3.963E+01
    -3.929E+01   -3.895E+01   -3.862E+01   -3.829E+01   -3.796E+01   -3.764E+01   -3.732E+01   -3.701E+01   -3.671E+01   -3.640E+01
    -3.610E+01   -3.581E+01   -3.552E+01   -3.523E+01   -3.495E+01   -3.467E+01   -3.439E+01   -3.411E+01   -3.384E+01   -3.358E+01
    -3.331E+01   -3.305E+01   -3.279E+01   -3.254E+01   -3.229E+01   -3.204E+01   -3.179E+01   -3.154E+01   -3.130E+01   -3.106E+01
    -3.082E+01   -3.058E+01   -3.035E+01   -3.012E+01   -2.988E+01   -2.966E+01   -2.943E+01   -2.920E+01   -2.898E+01   -2.875E+01
    -2.853E+01   -2.831E+01   -2.809E+01   -2.787E+01   -2.765E+01   -2.743E+01   -2.721E+01   -2.700E+01   -2.678E+01   -2.656E+01
    -2.635E+01   -2.613E+01   -2.592E+01   -2.570E+01   -2.549E+01   -2.528E+01   -2.506E+01   -2.485E+01   -2.463E+01   -2.442E+01
    -2.420E+01   -2.399E+01   -2.377E+01   -2.355E+01   -2.333E+01   -2.311E+01   -2.289E+01   -2.267E+01   -2.245E+01   -2.223E+01
    -2.201E+01   -2.178E+01   -2.155E+01   -2.133E+01   -2.110E+01   -2.086E+01   -2.063E+01   -2.040E+01   -2.016E+01   -1.992E+01
    -1.968E+01   -1.944E+01   -1.920E+01   -1.895E+01   -1.870E+01   -1.845E+01   -1.820E+01   -1.795E+01   -1.769E+01   -1.744E+01
    -1.718E+01   -1.692E+01   -1.667E+01   -1.641E+01   -1.615E+01   -1.589E+01   -1.563E+01   -1.537E+01   -1.511E+01   -1.485E+01
    -1.460E+01   -1.434E+01   -1.408E+01   -1.382E+01   -1.357E+01   -1.331E+01   -1.306E+01   -1.281E+01   -1.256E+01   -1.231E+01
    -1.207E+01   -1.182E+01   -1.158E+01   -1.134E+01   -1.110E+01   -1.086E+01   -1.063E+01   -1.040E+01   -1.017E+01   -9.951E+00
    -9.730E+00   -9.513E+00   -9.299E+00   -9.088E+00   -8.882E+00   -8.679E+00   -8.481E+00   -8.286E+00   -8.096E+00   -7.909E+00
    -7.727E+00   -7.548E+00   -7.374E+00   -7.202E+00   -7.035E+00   -6.871E+00   -6.710E+00   -6.553E+00   -6.399E+00   -6.249E+00
    -6.101E+00   -5.957E+00   -5.815E+00   -5.677E+00   -5.541E+00   -5.408E+00   -5.278E+00   -5.150E+00   -5.025E+00   -4.902E+00
    -4.781E+00   -4.663E+00   -4.547E+00   -4.433E+00   -4.322E+00   -4.212E+00   -4.104E+00   -3.998E+00   -3.893E+00   -3.790E+00
    -3.689E+00   -3.589E+00   -3.491E+00   -3.394E+00   -3.298E+00   -3.204E+00   -3.110E+00   -3.018E+00   -2.926E+00   -2.836E+00
    -2.746E+00   -2.657E+00   -2.568E+00   -2.480E+00   -2.393E+00   -2.306E+00   -2.220E+00   -2.134E+00   -2.049E+00   -1.965E+00
    -1.881E+00   -1.797E+00   -1.714E+00   -1.632E+00   -1.550E+00   -1.468E+00   -1.387E+00   -1.306E+00   -1.226E+00   -1.146E+00
    -1.066E+00   -9.872E-01   -9.084E-01   -8.300E-01   -7.519E-01   -6.742E-01   -5.968E-01   -5.196E-01   -4.428E-01   -3.663E-01
    -2.900E-01   -2.140E-01   -1.383E-01   -6.277E-02    1.254E-02    8.763E-02    1.625E-01    2.372E-01    3.118E-01    3.862E-01
     4.604E-01    5.345E-01    6.085E-01    6.824E-01    7.562E-01    8.299E-01    9.035E-01    9.771E-01    1.051E+00    1.124E+00
     1.197E+00    1.271E+00    1.344E+00    1.417E+00    1.490E+00    1.563E+00    1.636E+00    1.709E+00    1.782E+00    1.854E+00
     1.927E+00    1.999E+00    2.071E+00    2.144E+00    2.216E+00    2.288E+00    2.359E+00    2.431E+00    2.503E+00    2.574E+00
     2.645E+00    2.716E+00    2.787E+00    2.858E+00    2.929E+00    2.999E+00    3.070E+00    3.140E+00    3.210E+00    3.280E+00
     3.349E+00    3.419E+00    3.488E+00    3.557E+00    3.626E+00    3.695E+00    3.763E+00    3.832E+00    3.900E+00    3.968E+00
     4.035E+00    4.103E+00    4.170E+00    4.237E+00    4.303E+00    4.370E+00    4.436E+00    4.502E+00    4.568E+00    4.634E+00
     4.699E+00    4.764E+00    4.829E+00    4.894E+00    4.958E+00    5.022E+00    5.086E+00    5.150E+00    5.213E+00    5.276E+00
     5.339E+00    5.402E+00    5.464E+00    5.526E+00    5.588E+00    5.650E+00    5.711E+00    5.772E+00    5.833E+00    5.894E+00
     5.954E+00    6.014E+00    6.074E+00    6.134E+00    6.193E+00    6.252E+00    6.311E+00    6.369E+00    6.427E+00    6.485E+00
     6.543E+00    6.600E+00    6.657E+00    6.714E+00    6.770E+00    6.827E+00    6.883E+00    6.938E+00    6.994E+00    7.049E+00
     7.104E+00    7.158E+00    7.212E+00    7.266E+00    7.320E+00    7.373E+00    7.427E+00    7.480E+00    7.532E+00    7.585E+00
     7.637E+00    7.689E+00    7.741E+00    7.792E+00    7.843E+00    7.894E+00    7.945E+00    7.996E+00    8.046E+00    8.096E+00
     8.146E+00    8.196E+00    8.245E+00    8.295E+00    8.344E+00    8.393E+00    8.441E+00    8.490E+00    8.538E+00    8.586E+00
     8.634E+00    8.682E+00    8.730E+00    8.777E+00    8.824E+00    8.871E+00    8.918E+00    8.965E+00    9.012E+00    9.058E+00
     9.105E+00    9.151E+00    9.197E+00    9.243E+00    9.289E+00    9.334E+00    9.380E+00    9.425E+00    9.471E+00    9.516E+00
     9.561E+00    9.606E+00    9.651E+00    9.696E+00    9.741E+00    9.786E+00    9.830E+00    9.875E+00    9.920E+00    9.964E+00
     1.001E+01    1.005E+01    1.010E+01    1.014E+01    1.019E+01    1.023E+01    1.028E+01    1.032E+01    1.037E+01    1.041E+01
     1.046E+01    1.050E+01    1.055E+01    1.059E+01    1.064E+01    1.068E+01    1.073E+01    1.077E+01    1.082E+01    1.086E+01
     1.091E+01    1.095E+01    1.100E+01    1.104E+01    1.109E+01    1.114E+01    1.118E+01    1.123E+01
 Cr       Conc. = 6.41E+02
