 LCModel (Version 6.3-1L) Copyright: S.W. Provencher.          Ref.: Magn. Reson. Med. 30:672-679 (1993).                
 Slice#2 Row#7 Col#8  PD_05_press_1_raw_act
 36 lines in following concentration table = NCONC+1
    Conc.  %SD /Cr+PCr  Metabolite                                         
   47.976 207% 3.5E-02 Ala                                                 
  264.116  79%   0.195 Asp                                                 
  228.124  86%   0.169 Cr                                                  
 1.12E+03  18%   0.831 PCr                                                 
    0.000 999%   0.000 GABA                                                
    9.880 999% 7.3E-03 Glc                                                 
  873.957  23%   0.646 Gln                                                 
 1.50E+03  15%   1.113 Glu                                                 
  578.140   4%   0.428 GPC                                                 
    0.000 999%   0.000 PCh                                                 
  350.670  20%   0.259 GSH                                                 
 1.22E+03  20%   0.900 Ins                                                 
    0.000 999%   0.000 Lac                                                 
 2.16E+03   3%   1.600 NAA                                                 
    0.000 999%   0.000 NAAG                                                
  115.909  23% 8.6E-02 Scyllo                                              
  128.494 149% 9.5E-02 Tau                                                 
   29.859 356% 2.2E-02 -CrCH2                                              
  578.140   4%   0.428 GPC+PCh                                             
 2.16E+03   3%   1.600 NAA+NAAG                                            
 1.35E+03   4%   1.000 Cr+PCr                                              
 2.38E+03  13%   1.759 Glu+Gln                                             
    0.000 999%   0.000 Lip13a                                              
   73.149 130% 5.4E-02 Lip13b                                              
    0.000 999%   0.000 Lip09                                               
 1.32E+03  15%   0.973 MM09                                                
   17.521 258% 1.3E-02 Lip20                                               
 3.08E+03  11%   2.274 MM20                                                
  373.463  32%   0.276 MM12                                                
 1.10E+03  26%   0.814 MM14                                                
  986.184  22%   0.729 MM17                                                
   73.149 130% 5.4E-02 Lip13a+Lip13b                                       
 1.55E+03  22%   1.144 MM14+Lip13a+Lip13b+MM12                             
 1.32E+03  15%   0.973 MM09+Lip09                                          
 3.09E+03  11%   2.287 MM20+Lip20                                          
   6 lines in following misc. output table
  FWHM = 0.046 ppm    S/N =  12                                            
  Data shift =-0.015 ppm                                                   
  Ph: -66 deg     -13.5 deg/ppm                                            
  alphaB,S = 1.3E+00,   5.3E+01                                            
   14 spline knots.   Ns = 6(1)                                            
  (10) 4 infls.   ( 7) 3 extrs.                                            
  498 points on ppm-axis = NY
      4.000000     3.992357     3.984714     3.977070     3.969427     3.961784     3.954141     3.946497     3.938854     3.931211
      3.923568     3.915925     3.908281     3.900638     3.892995     3.885352     3.877708     3.870065     3.862422     3.854779
      3.847136     3.839492     3.831849     3.824206     3.816563     3.808919     3.801276     3.793633     3.785990     3.778347
      3.770703     3.763060     3.755417     3.747774     3.740130     3.732487     3.724844     3.717201     3.709558     3.701914
      3.694271     3.686628     3.678985     3.671341     3.663698     3.656055     3.648412     3.640769     3.633125     3.625482
      3.617839     3.610196     3.602552     3.594909     3.587266     3.579623     3.571980     3.564336     3.556693     3.549050
      3.541407     3.533763     3.526120     3.518477     3.510834     3.503191     3.495547     3.487904     3.480261     3.472618
      3.464974     3.457331     3.449688     3.442045     3.434402     3.426758     3.419115     3.411472     3.403829     3.396185
      3.388542     3.380899     3.373256     3.365613     3.357969     3.350326     3.342683     3.335040     3.327396     3.319753
      3.312110     3.304467     3.296824     3.289180     3.281537     3.273894     3.266251     3.258607     3.250964     3.243321
      3.235678     3.228034     3.220391     3.212748     3.205105     3.197462     3.189818     3.182175     3.174532     3.166889
      3.159245     3.151602     3.143959     3.136316     3.128673     3.121029     3.113386     3.105743     3.098100     3.090456
      3.082813     3.075170     3.067527     3.059884     3.052240     3.044597     3.036954     3.029311     3.021667     3.014024
      3.006381     2.998738     2.991095     2.983451     2.975808     2.968165     2.960522     2.952878     2.945235     2.937592
      2.929949     2.922306     2.914662     2.907019     2.899376     2.891733     2.884089     2.876446     2.868803     2.861160
      2.853517     2.845873     2.838230     2.830587     2.822944     2.815300     2.807657     2.800014     2.792371     2.784728
      2.777084     2.769441     2.761798     2.754155     2.746511     2.738868     2.731225     2.723582     2.715939     2.708295
      2.700652     2.693009     2.685366     2.677722     2.670079     2.662436     2.654793     2.647150     2.639506     2.631863
      2.624220     2.616577     2.608933     2.601290     2.593647     2.586004     2.578361     2.570717     2.563074     2.555431
      2.547788     2.540144     2.532501     2.524858     2.517215     2.509572     2.501928     2.494285     2.486642     2.478999
      2.471355     2.463712     2.456069     2.448426     2.440783     2.433139     2.425496     2.417853     2.410210     2.402566
      2.394923     2.387280     2.379637     2.371994     2.364350     2.356707     2.349064     2.341421     2.333777     2.326134
      2.318491     2.310848     2.303205     2.295561     2.287918     2.280275     2.272632     2.264988     2.257345     2.249702
      2.242059     2.234416     2.226772     2.219129     2.211486     2.203843     2.196199     2.188556     2.180913     2.173270
      2.165627     2.157983     2.150340     2.142697     2.135054     2.127410     2.119767     2.112124     2.104481     2.096838
      2.089194     2.081551     2.073908     2.066265     2.058621     2.050978     2.043335     2.035692     2.028049     2.020405
      2.012762     2.005119     1.997476     1.989833     1.982190     1.974546     1.966903     1.959260     1.951617     1.943974
      1.936331     1.928688     1.921045     1.913402     1.905759     1.898115     1.890472     1.882829     1.875186     1.867543
      1.859900     1.852257     1.844614     1.836971     1.829327     1.821684     1.814041     1.806398     1.798755     1.791112
      1.783469     1.775826     1.768183     1.760540     1.752896     1.745253     1.737610     1.729967     1.722324     1.714681
      1.707038     1.699395     1.691752     1.684108     1.676465     1.668822     1.661179     1.653536     1.645893     1.638250
      1.630607     1.622964     1.615321     1.607677     1.600034     1.592391     1.584748     1.577105     1.569462     1.561819
      1.554176     1.546533     1.538890     1.531246     1.523603     1.515960     1.508317     1.500674     1.493031     1.485388
      1.477745     1.470102     1.462458     1.454815     1.447172     1.439529     1.431886     1.424243     1.416600     1.408957
      1.401314     1.393671     1.386027     1.378384     1.370741     1.363098     1.355455     1.347812     1.340169     1.332526
      1.324883     1.317240     1.309596     1.301953     1.294310     1.286667     1.279024     1.271381     1.263738     1.256095
      1.248452     1.240808     1.233165     1.225522     1.217879     1.210236     1.202593     1.194950     1.187307     1.179664
      1.172021     1.164377     1.156734     1.149091     1.141448     1.133805     1.126162     1.118519     1.110876     1.103233
      1.095590     1.087946     1.080303     1.072660     1.065017     1.057374     1.049731     1.042088     1.034445     1.026802
      1.019158     1.011515     1.003872     0.996229     0.988586     0.980943     0.973300     0.965657     0.958014     0.950371
      0.942727     0.935084     0.927441     0.919798     0.912155     0.904512     0.896869     0.889226     0.881583     0.873940
      0.866296     0.858653     0.851010     0.843367     0.835724     0.828081     0.820438     0.812795     0.805152     0.797508
      0.789865     0.782222     0.774579     0.766936     0.759293     0.751650     0.744007     0.736364     0.728721     0.721077
      0.713434     0.705791     0.698148     0.690505     0.682862     0.675219     0.667576     0.659933     0.652290     0.644646
      0.637003     0.629360     0.621717     0.614074     0.606431     0.598788     0.591145     0.583502     0.575858     0.568215
      0.560572     0.552929     0.545286     0.537643     0.530000     0.522357     0.514714     0.507071     0.499427     0.491784
      0.484141     0.476498     0.468855     0.461212     0.453569     0.445925     0.438282     0.430639     0.422996     0.415353
      0.407710     0.400067     0.392424     0.384780     0.377137     0.369494     0.361851     0.354208     0.346565     0.338922
      0.331278     0.323635     0.315992     0.308349     0.300706     0.293063     0.285420     0.277777     0.270133     0.262490
      0.254847     0.247204     0.239561     0.231918     0.224275     0.216631     0.208988     0.201345
 NY phased data points follow
  -3.85798E+01 -3.10437E+01 -3.27119E+01 -2.84482E+01 -3.09790E+01 -2.53547E+01 -1.89847E+01 -6.73877E+00 -7.68269E-02  3.93559E+00
   2.50574E+00  7.02656E+00  7.02389E+00 -4.59532E+00 -1.06406E+01 -1.38994E+01 -1.40094E+01 -2.10097E+01 -2.15054E+01 -1.92852E+01
  -2.11132E+01 -2.32751E+01 -2.71064E+01 -2.14375E+01 -2.11034E+01 -2.37740E+01 -2.16988E+01 -2.41300E+01 -1.87959E+01 -1.58701E+01
  -1.50830E+01 -1.17569E+01 -9.19873E+00 -1.55190E+01 -1.61904E+01 -1.99269E+01 -1.72760E+01 -1.57718E+01 -1.87286E+01 -2.19812E+01
  -1.51268E+01 -1.37418E+01 -1.54349E+01 -1.29747E+01 -1.31597E+01 -1.27192E+01 -9.14316E+00 -4.85811E+00 -8.29987E+00 -1.18327E+01
  -8.23650E+00 -1.34808E+01 -1.61153E+01 -1.51240E+01 -1.25543E+01 -1.97340E+01 -1.54597E+01 -1.41027E+01 -1.47586E+01 -1.34062E+01
  -1.73434E+01 -2.18228E+01 -1.50212E+01 -2.24548E+01 -2.49546E+01 -2.23470E+01 -2.23224E+01 -2.32773E+01 -2.28179E+01 -2.34352E+01
  -1.98458E+01 -2.07587E+01 -1.86339E+01 -2.10209E+01 -1.92995E+01 -1.69940E+01 -1.76439E+01 -1.68384E+01 -1.36497E+01 -2.05373E+01
  -1.67979E+01 -1.36170E+01 -1.40147E+01 -1.66787E+01 -1.67872E+01 -1.60570E+01 -1.48109E+01 -1.01463E+01 -1.47310E+01 -1.25646E+01
  -1.28765E+01 -7.53004E+00 -1.08673E+01 -1.30219E+01 -1.32766E+01 -1.28410E+01 -1.13111E+01 -5.09958E+00 -5.71970E+00 -2.63614E+00
   1.26029E+01  1.95015E+01  3.11461E+01  4.35691E+01  4.27568E+01  3.38923E+01  2.17605E+01  6.21234E+00  3.71844E+00 -4.17187E+00
  -1.59470E+00 -1.84851E+00 -2.67931E+00 -1.14643E+01 -8.30537E+00 -4.67064E+00 -1.12538E+01 -1.00482E+01 -2.09294E+01 -1.35114E+01
  -1.16874E+01 -1.19679E+01 -1.07413E+01 -1.53354E+00  2.85087E+00  1.59922E+01  3.17148E+01  3.39038E+01  3.98687E+01  3.20307E+01
   2.62330E+01  1.31920E+01  2.32481E+00  1.51751E+00  1.05177E+00 -3.40985E+00 -8.64834E+00 -1.08804E+01 -9.72995E+00 -1.01531E+01
  -1.10658E+01 -9.86887E+00 -1.68945E+01 -1.71011E+01 -1.87837E+01 -1.27448E+01 -1.03024E+01 -1.23726E+01 -1.05430E+01 -1.21335E+01
  -1.02846E+01 -9.77659E+00 -1.01176E+01 -1.18689E+01 -1.07945E+01 -1.63413E+01 -1.08498E+01 -1.37137E+01 -1.29466E+01 -1.54390E+01
  -1.55238E+01 -1.70605E+01 -1.84130E+01 -1.39371E+01 -1.30277E+01 -1.01992E+01 -9.93152E+00 -8.42532E+00 -8.49026E+00 -1.16215E+01
  -1.01732E+01 -1.14666E+01 -1.60993E+01 -1.80506E+01 -1.71928E+01 -1.11943E+01 -1.64912E+01 -1.75888E+01 -1.56380E+01 -1.79367E+01
  -1.33024E+01 -1.83003E+01 -2.22855E+01 -2.14781E+01 -1.81791E+01 -1.65449E+01 -1.74423E+01 -1.14162E+01 -8.99128E+00 -7.71574E+00
  -4.05110E+00 -5.66613E+00 -2.32905E+00 -5.44210E-01 -5.00449E+00 -2.27403E+00 -4.89128E+00 -3.86278E+00 -6.97473E+00 -7.84434E+00
  -5.74157E+00 -4.19459E+00 -3.81307E-01 -4.72054E-01 -4.50999E+00  1.06892E+00 -3.41412E+00 -4.06695E+00 -1.22284E+01 -6.10200E+00
  -1.64895E+01 -9.22891E+00 -8.33006E+00 -6.83334E+00  4.10403E+00  1.03767E+01  8.52276E+00  9.01832E+00  8.57426E+00  1.84254E-01
  -1.41281E+00 -5.92407E+00 -5.01345E+00 -5.23033E+00 -7.11789E+00  3.70704E+00  5.94413E+00  6.70421E+00  7.37831E+00  4.00421E+00
   4.03824E+00  2.93613E+00  5.78034E+00  5.70348E+00  3.91008E+00  3.89719E+00  4.68672E+00  8.79013E+00  4.38330E+00  5.24047E+00
  -2.47885E+00  3.76849E+00  1.14714E+00  1.63430E+00  8.56514E+00  4.03981E+00  7.71163E+00  8.54120E+00  1.07075E+01  1.39599E+01
   1.00773E+01  9.80566E+00  9.68177E+00  1.12128E+01  1.10496E+01  1.21109E+01  2.22813E+01  3.15632E+01  4.62337E+01  6.11919E+01
   7.29282E+01  8.57407E+01  8.33943E+01  7.17076E+01  4.40941E+01  3.28909E+01  3.21289E+01  3.06452E+01  1.95600E+01  1.75650E+01
   1.23453E+01  1.03366E+01  6.44195E+00  4.00638E+00  4.92957E+00  8.07640E-01 -1.73770E+00  2.21353E-01 -2.20076E+00  9.03273E+00
   2.89963E+00  4.90575E-01 -1.69033E+00  2.36005E+00  2.62919E+00  1.90230E-01 -1.86903E+00  1.95259E+00  5.29429E-01  3.25540E+00
   2.70302E+00 -5.77028E-01  1.41422E+00  1.69691E+00 -6.36810E-01  5.51762E+00  4.59305E+00  6.63091E-01  3.94999E+00  3.17320E+00
   9.99112E-01  2.86965E+00  3.75815E+00  4.29538E+00  5.54656E+00  7.87203E+00  7.26714E+00  2.50444E+00  4.97221E+00  1.02851E+01
   1.64511E+00  8.24313E+00  8.49751E+00  7.27959E+00  7.47468E+00  1.14842E+01  8.64870E+00  1.22889E+01  4.62205E+00  1.13002E+01
   7.19229E+00  1.01760E+01  6.14349E+00  3.08710E+00  7.45719E+00  5.85690E+00  5.32369E+00  5.61498E+00  5.21112E+00  3.59429E+00
   3.82946E+00  2.52759E+00  7.33679E+00  6.28179E+00  4.54920E+00  5.43654E+00  1.16784E+01  6.50511E+00  3.04632E+00  2.42121E+00
   4.92739E+00  3.74412E+00  5.67583E+00  1.15388E-01  2.27575E+00  4.78060E+00  5.13732E+00  2.37959E-03 -2.53458E+00  1.97014E+00
   2.59449E+00 -7.47550E-01  5.58676E+00  3.44007E+00  7.23538E+00  4.90363E+00  6.53102E+00  1.77983E+00  1.30237E+00 -9.39919E-01
   3.40168E-02  3.08662E+00  4.48187E+00  8.19448E+00 -4.75857E+00  7.32167E+00  4.36838E+00  2.97531E+00  4.18127E+00 -9.28450E-01
  -1.78733E+00  5.92896E+00 -6.12340E-01  2.46264E+00 -6.00067E-02 -5.01915E-01  4.00368E+00  4.25331E+00  9.73086E-01 -3.46142E+00
   1.19962E+00 -2.50913E+00  7.87816E-01  3.45169E+00  1.37225E+00 -1.71352E+00  1.09918E+00  2.60075E+00 -4.73972E-01  6.17633E-01
  -2.56924E+00 -5.42246E-01  9.72306E-01 -4.88467E-01 -4.06630E-01  7.49993E+00 -2.63393E-04  4.55035E+00  5.55700E+00  1.00010E+01
   1.05941E+01  3.49137E+00  5.95299E+00  6.74328E+00  8.84076E+00  5.31424E+00  7.72434E+00  1.17610E+01  5.62436E+00  7.27878E+00
   8.01249E+00  1.08530E+01  9.51107E+00  1.04405E+01  9.78223E+00  1.12050E+01  6.38081E+00  4.13692E+00  6.68618E+00  2.91350E-01
   4.56604E+00  2.91742E+00  4.74978E+00  5.26385E+00  6.86791E-01  4.37080E+00  3.52410E+00  4.57474E+00  2.79574E+00  2.41550E+00
   1.75827E+00 -1.24941E-01  3.94113E+00  1.98616E+00  4.65975E+00 -3.27079E+00  3.43046E-01  2.10214E-01  6.77696E-01 -7.18543E-01
  -2.70837E+00  4.38018E+00  2.47549E+00  3.42764E+00  2.97132E-01  2.24583E+00  2.07897E+00 -1.84956E+00 -2.83640E-01 -2.00352E+00
   4.91242E-01  2.28143E+00  2.09466E+00 -2.59527E-01  3.30312E-01 -2.62554E+00  4.28322E-01 -4.08232E-01  4.15965E+00  9.02473E-01
   1.16633E+00  8.55479E-01  2.12635E+00  1.47274E+00  3.30067E+00  2.84599E+00  3.60949E-01 -3.25785E+00  6.30352E+00 -2.03469E+00
   5.30254E-01 -5.71975E-01  4.30783E+00  1.28279E+00  6.88923E+00 -1.96615E+00 -8.38015E-01  2.99303E+00 -2.26584E+00  2.01115E+00
   3.87682E+00 -1.83121E+00  8.89683E-01  1.12058E+00 -7.09160E-01  2.85197E+00  9.61413E-01 -2.10433E+00  3.76286E+00  5.57913E+00
   2.69978E+00  2.99812E+00  4.81597E+00  3.81339E+00 -1.11290E+00  8.97038E-01  1.76395E+00  3.33474E+00
 NY points of the fit to the data follow
  -2.76649E+01 -2.76136E+01 -2.73711E+01 -2.67924E+01 -2.50174E+01 -2.17173E+01 -1.67203E+01 -1.02573E+01 -3.26168E+00  3.04929E+00
   7.08102E+00  6.95611E+00  2.20752E+00 -4.90976E+00 -1.03659E+01 -1.25571E+01 -1.41774E+01 -1.77200E+01 -2.03599E+01 -2.16850E+01
  -2.22088E+01 -2.22168E+01 -2.21111E+01 -2.23004E+01 -2.27368E+01 -2.30522E+01 -2.28077E+01 -2.16536E+01 -1.96263E+01 -1.68268E+01
  -1.36958E+01 -1.12735E+01 -1.06728E+01 -1.19814E+01 -1.42010E+01 -1.61291E+01 -1.80065E+01 -2.01732E+01 -2.13591E+01 -2.14805E+01
  -2.09945E+01 -2.00269E+01 -1.86877E+01 -1.67873E+01 -1.46396E+01 -1.24329E+01 -1.05479E+01 -9.65830E+00 -1.00864E+01 -1.20611E+01
  -1.50119E+01 -1.72410E+01 -1.79542E+01 -1.83065E+01 -1.91364E+01 -1.95599E+01 -1.90339E+01 -1.81467E+01 -1.73634E+01 -1.67508E+01
  -1.64736E+01 -1.67226E+01 -1.75534E+01 -1.85492E+01 -1.91380E+01 -1.92332E+01 -1.90573E+01 -1.86664E+01 -1.81947E+01 -1.77055E+01
  -1.72124E+01 -1.67723E+01 -1.64127E+01 -1.62518E+01 -1.63681E+01 -1.66060E+01 -1.68442E+01 -1.69831E+01 -1.72245E+01 -1.75008E+01
  -1.74645E+01 -1.70125E+01 -1.62953E+01 -1.53841E+01 -1.43089E+01 -1.33257E+01 -1.26323E+01 -1.24342E+01 -1.30218E+01 -1.42768E+01
  -1.54643E+01 -1.58026E+01 -1.54114E+01 -1.52395E+01 -1.57193E+01 -1.57551E+01 -1.51047E+01 -1.30902E+01 -8.55159E+00 -9.14303E-01
   9.82681E+00  2.22459E+01  3.38980E+01  4.18657E+01  4.27570E+01  3.47596E+01  2.11317E+01  9.36279E+00  4.08447E+00  1.58692E+00
  -4.30145E+00 -1.04447E+01 -1.25002E+01 -1.30740E+01 -1.32642E+01 -1.33422E+01 -1.33389E+01 -1.32770E+01 -1.31563E+01 -1.29433E+01
  -1.25105E+01 -1.12525E+01 -8.00329E+00 -2.23098E+00  6.22259E+00  1.65789E+01  2.69827E+01  3.52978E+01  3.86910E+01  3.46092E+01
   2.41376E+01  1.28253E+01  6.56247E+00  4.57478E+00  5.39405E-01 -6.56623E+00 -1.01230E+01 -1.11804E+01 -1.12020E+01 -1.06658E+01
  -1.01273E+01 -9.80846E+00 -9.57775E+00 -9.51525E+00 -9.60186E+00 -9.68187E+00 -9.78827E+00 -1.00218E+01 -1.03577E+01 -1.07427E+01
  -1.09694E+01 -1.11074E+01 -1.12166E+01 -1.13182E+01 -1.13499E+01 -1.13271E+01 -1.13796E+01 -1.15396E+01 -1.18434E+01 -1.22727E+01
  -1.26867E+01 -1.29258E+01 -1.28486E+01 -1.24101E+01 -1.17259E+01 -1.10835E+01 -1.08527E+01 -1.11254E+01 -1.15812E+01 -1.18366E+01
  -1.19691E+01 -1.21016E+01 -1.24608E+01 -1.30026E+01 -1.33921E+01 -1.36402E+01 -1.37593E+01 -1.36856E+01 -1.33596E+01 -1.28829E+01
  -1.25366E+01 -1.25650E+01 -1.28166E+01 -1.27362E+01 -1.21329E+01 -1.15387E+01 -1.11598E+01 -1.06262E+01 -9.55795E+00 -7.93049E+00
  -6.47152E+00 -5.74387E+00 -5.89574E+00 -6.61416E+00 -7.27528E+00 -7.52025E+00 -7.56931E+00 -7.31112E+00 -6.62819E+00 -5.46324E+00
  -3.84294E+00 -2.05810E+00 -5.60560E-01  3.62672E-01  3.09350E-01 -7.59928E-01 -2.75429E+00 -5.54597E+00 -8.51359E+00 -1.06041E+01
  -1.10032E+01 -9.62532E+00 -6.90113E+00 -3.32805E+00 -1.01272E-03  2.48079E+00  4.02296E+00  4.24426E+00  1.74688E+00 -2.56440E+00
  -6.37089E+00 -8.48605E+00 -9.32705E+00 -9.26383E+00 -7.59231E+00 -4.05278E+00 -5.67080E-01  1.50376E+00  2.19094E+00  2.59214E+00
   3.08985E+00  3.00808E+00  2.44414E+00  2.33691E+00  2.87938E+00  3.76346E+00  4.71099E+00  5.60595E+00  6.46919E+00  6.85587E+00
   6.17280E+00  4.89185E+00  4.01207E+00  3.86776E+00  4.08625E+00  4.86650E+00  6.16608E+00  7.20584E+00  7.64659E+00  7.98088E+00
   8.72518E+00  9.45248E+00  1.00505E+01  1.07519E+01  1.21122E+01  1.54315E+01  2.19140E+01  3.23485E+01  4.66010E+01  6.25089E+01
   7.67439E+01  8.52437E+01  8.31789E+01  6.93048E+01  4.98278E+01  3.53581E+01  2.97916E+01  2.55130E+01  1.57268E+01  8.26440E+00
   5.91534E+00  4.80311E+00  4.14841E+00  3.91231E+00  3.77010E+00  3.63146E+00  3.42562E+00  3.10673E+00  2.74795E+00  2.45549E+00
   2.19408E+00  1.90788E+00  1.64894E+00  1.47250E+00  1.36033E+00  1.26963E+00  1.18234E+00  1.12019E+00  1.10535E+00  1.11303E+00
   1.14290E+00  1.20645E+00  1.30561E+00  1.43906E+00  1.60809E+00  1.81769E+00  2.06810E+00  2.35170E+00  2.66822E+00  3.01784E+00
   3.39524E+00  3.79460E+00  4.20914E+00  4.63036E+00  5.04834E+00  5.45275E+00  5.83362E+00  6.18234E+00  6.49186E+00  6.75563E+00
   6.96736E+00  7.12373E+00  7.22550E+00  7.27392E+00  7.27244E+00  7.22660E+00  7.14408E+00  7.03417E+00  6.90701E+00  6.77369E+00
   6.64802E+00  6.54765E+00  6.47496E+00  6.41920E+00  6.35878E+00  6.25958E+00  6.09354E+00  5.84080E+00  5.49657E+00  5.12231E+00
   4.83444E+00  4.72039E+00  4.75484E+00  4.82716E+00  4.90042E+00  5.05832E+00  5.22096E+00  5.24066E+00  5.08987E+00  4.85157E+00
   4.64666E+00  4.48710E+00  4.26785E+00  4.00467E+00  3.78351E+00  3.59675E+00  3.43970E+00  3.31381E+00  3.22106E+00  3.16210E+00
   3.13486E+00  3.13383E+00  3.14984E+00  3.17111E+00  3.18489E+00  3.17967E+00  3.14687E+00  3.08222E+00  2.98613E+00  2.86356E+00
   2.72279E+00  2.57377E+00  2.42601E+00  2.28700E+00  2.16132E+00  2.05086E+00  1.95524E+00  1.87264E+00  1.80039E+00  1.73563E+00
   1.67594E+00  1.61982E+00  1.56673E+00  1.51697E+00  1.47127E+00  1.43069E+00  1.39655E+00  1.37058E+00  1.35469E+00  1.35082E+00
   1.36074E+00  1.38622E+00  1.42908E+00  1.49141E+00  1.57532E+00  1.68291E+00  1.81609E+00  1.97680E+00  2.16697E+00  2.38853E+00
   2.64306E+00  2.93159E+00  3.25444E+00  3.61123E+00  4.00074E+00  4.42072E+00  4.86754E+00  5.33606E+00  5.81968E+00  6.31057E+00
   6.79974E+00  7.27724E+00  7.73219E+00  8.15339E+00  8.52975E+00  8.85098E+00  9.10800E+00  9.29326E+00  9.40108E+00  9.42806E+00
   9.37329E+00  9.23863E+00  9.02829E+00  8.74867E+00  8.40786E+00  8.01542E+00  7.58196E+00  7.11866E+00  6.63657E+00  6.14617E+00
   5.65697E+00  5.17744E+00  4.71479E+00  4.27490E+00  3.86205E+00  3.47909E+00  3.12752E+00  2.80792E+00  2.52002E+00  2.26283E+00
   2.03468E+00  1.83350E+00  1.65701E+00  1.50300E+00  1.36926E+00  1.25366E+00  1.15402E+00  1.06837E+00  9.94938E-01  9.32310E-01
   8.79189E-01  8.34388E-01  7.96744E-01  7.65319E-01  7.39355E-01  7.18308E-01  7.01623E-01  6.88769E-01  6.79200E-01  6.72549E-01
   6.68550E-01  6.67046E-01  6.67775E-01  6.70461E-01  6.74825E-01  6.80757E-01  6.88189E-01  6.97073E-01  7.07226E-01  7.18471E-01
   7.30659E-01  7.43804E-01  7.57907E-01  7.72943E-01  7.88742E-01  8.05194E-01  8.22237E-01  8.39938E-01  8.58295E-01  8.77264E-01
   8.96696E-01  9.16537E-01  9.36788E-01  9.57541E-01  9.78772E-01  1.00041E+00  1.02233E+00  1.04453E+00  1.06704E+00  1.08995E+00
   1.11319E+00  1.13669E+00  1.16035E+00  1.18422E+00  1.20837E+00  1.23283E+00  1.25752E+00  1.28237E+00  1.30732E+00  1.33247E+00
   1.35785E+00  1.38350E+00  1.40929E+00  1.43518E+00  1.46117E+00  1.48738E+00  1.51382E+00  1.54049E+00
 NY background values follow
    -3.073E+01   -3.059E+01   -3.044E+01   -3.030E+01   -3.016E+01   -3.002E+01   -2.988E+01   -2.974E+01   -2.959E+01   -2.945E+01
    -2.931E+01   -2.917E+01   -2.903E+01   -2.889E+01   -2.875E+01   -2.861E+01   -2.847E+01   -2.833E+01   -2.819E+01   -2.805E+01
    -2.791E+01   -2.777E+01   -2.763E+01   -2.749E+01   -2.735E+01   -2.721E+01   -2.707E+01   -2.693E+01   -2.679E+01   -2.665E+01
    -2.651E+01   -2.638E+01   -2.624E+01   -2.610E+01   -2.596E+01   -2.583E+01   -2.569E+01   -2.555E+01   -2.542E+01   -2.528E+01
    -2.515E+01   -2.501E+01   -2.488E+01   -2.474E+01   -2.461E+01   -2.447E+01   -2.434E+01   -2.421E+01   -2.407E+01   -2.394E+01
    -2.381E+01   -2.368E+01   -2.355E+01   -2.341E+01   -2.328E+01   -2.315E+01   -2.302E+01   -2.289E+01   -2.277E+01   -2.264E+01
    -2.251E+01   -2.238E+01   -2.225E+01   -2.212E+01   -2.200E+01   -2.187E+01   -2.175E+01   -2.162E+01   -2.149E+01   -2.137E+01
    -2.124E+01   -2.112E+01   -2.100E+01   -2.087E+01   -2.075E+01   -2.063E+01   -2.051E+01   -2.038E+01   -2.026E+01   -2.014E+01
    -2.002E+01   -1.990E+01   -1.978E+01   -1.966E+01   -1.954E+01   -1.942E+01   -1.931E+01   -1.919E+01   -1.907E+01   -1.896E+01
    -1.884E+01   -1.872E+01   -1.861E+01   -1.849E+01   -1.838E+01   -1.826E+01   -1.815E+01   -1.804E+01   -1.792E+01   -1.781E+01
    -1.770E+01   -1.759E+01   -1.747E+01   -1.736E+01   -1.725E+01   -1.714E+01   -1.703E+01   -1.692E+01   -1.681E+01   -1.670E+01
    -1.659E+01   -1.649E+01   -1.638E+01   -1.627E+01   -1.616E+01   -1.605E+01   -1.595E+01   -1.584E+01   -1.573E+01   -1.563E+01
    -1.552E+01   -1.541E+01   -1.531E+01   -1.520E+01   -1.509E+01   -1.499E+01   -1.488E+01   -1.478E+01   -1.467E+01   -1.457E+01
    -1.446E+01   -1.436E+01   -1.426E+01   -1.415E+01   -1.405E+01   -1.394E+01   -1.384E+01   -1.374E+01   -1.363E+01   -1.353E+01
    -1.343E+01   -1.332E+01   -1.322E+01   -1.312E+01   -1.301E+01   -1.291E+01   -1.281E+01   -1.270E+01   -1.260E+01   -1.250E+01
    -1.240E+01   -1.229E+01   -1.219E+01   -1.209E+01   -1.199E+01   -1.189E+01   -1.178E+01   -1.168E+01   -1.158E+01   -1.148E+01
    -1.138E+01   -1.128E+01   -1.117E+01   -1.107E+01   -1.097E+01   -1.087E+01   -1.077E+01   -1.067E+01   -1.057E+01   -1.047E+01
    -1.037E+01   -1.027E+01   -1.017E+01   -1.007E+01   -9.966E+00   -9.866E+00   -9.766E+00   -9.666E+00   -9.566E+00   -9.466E+00
    -9.367E+00   -9.267E+00   -9.168E+00   -9.068E+00   -8.969E+00   -8.870E+00   -8.771E+00   -8.673E+00   -8.574E+00   -8.476E+00
    -8.378E+00   -8.280E+00   -8.183E+00   -8.085E+00   -7.989E+00   -7.892E+00   -7.796E+00   -7.700E+00   -7.605E+00   -7.510E+00
    -7.415E+00   -7.321E+00   -7.227E+00   -7.134E+00   -7.042E+00   -6.949E+00   -6.858E+00   -6.767E+00   -6.676E+00   -6.587E+00
    -6.497E+00   -6.409E+00   -6.321E+00   -6.234E+00   -6.147E+00   -6.061E+00   -5.976E+00   -5.892E+00   -5.808E+00   -5.725E+00
    -5.643E+00   -5.562E+00   -5.482E+00   -5.402E+00   -5.324E+00   -5.246E+00   -5.169E+00   -5.093E+00   -5.018E+00   -4.944E+00
    -4.871E+00   -4.799E+00   -4.728E+00   -4.657E+00   -4.588E+00   -4.520E+00   -4.452E+00   -4.385E+00   -4.319E+00   -4.254E+00
    -4.190E+00   -4.127E+00   -4.065E+00   -4.003E+00   -3.943E+00   -3.883E+00   -3.824E+00   -3.766E+00   -3.709E+00   -3.652E+00
    -3.597E+00   -3.542E+00   -3.488E+00   -3.435E+00   -3.383E+00   -3.332E+00   -3.281E+00   -3.231E+00   -3.182E+00   -3.134E+00
    -3.087E+00   -3.040E+00   -2.995E+00   -2.950E+00   -2.905E+00   -2.862E+00   -2.819E+00   -2.778E+00   -2.736E+00   -2.696E+00
    -2.656E+00   -2.618E+00   -2.580E+00   -2.542E+00   -2.506E+00   -2.470E+00   -2.435E+00   -2.400E+00   -2.366E+00   -2.333E+00
    -2.301E+00   -2.269E+00   -2.238E+00   -2.208E+00   -2.178E+00   -2.149E+00   -2.121E+00   -2.093E+00   -2.066E+00   -2.040E+00
    -2.014E+00   -1.989E+00   -1.964E+00   -1.940E+00   -1.917E+00   -1.894E+00   -1.871E+00   -1.850E+00   -1.829E+00   -1.808E+00
    -1.788E+00   -1.768E+00   -1.749E+00   -1.731E+00   -1.713E+00   -1.695E+00   -1.678E+00   -1.662E+00   -1.646E+00   -1.631E+00
    -1.616E+00   -1.601E+00   -1.587E+00   -1.573E+00   -1.560E+00   -1.547E+00   -1.535E+00   -1.523E+00   -1.511E+00   -1.500E+00
    -1.490E+00   -1.479E+00   -1.469E+00   -1.460E+00   -1.450E+00   -1.441E+00   -1.433E+00   -1.424E+00   -1.416E+00   -1.409E+00
    -1.401E+00   -1.394E+00   -1.387E+00   -1.380E+00   -1.374E+00   -1.368E+00   -1.362E+00   -1.356E+00   -1.350E+00   -1.345E+00
    -1.339E+00   -1.334E+00   -1.329E+00   -1.325E+00   -1.320E+00   -1.315E+00   -1.311E+00   -1.306E+00   -1.302E+00   -1.297E+00
    -1.293E+00   -1.289E+00   -1.285E+00   -1.281E+00   -1.277E+00   -1.272E+00   -1.268E+00   -1.264E+00   -1.260E+00   -1.256E+00
    -1.251E+00   -1.247E+00   -1.243E+00   -1.238E+00   -1.233E+00   -1.229E+00   -1.224E+00   -1.219E+00   -1.214E+00   -1.209E+00
    -1.203E+00   -1.198E+00   -1.192E+00   -1.187E+00   -1.181E+00   -1.175E+00   -1.168E+00   -1.162E+00   -1.155E+00   -1.149E+00
    -1.142E+00   -1.134E+00   -1.127E+00   -1.119E+00   -1.112E+00   -1.103E+00   -1.095E+00   -1.087E+00   -1.078E+00   -1.069E+00
    -1.059E+00   -1.050E+00   -1.040E+00   -1.030E+00   -1.019E+00   -1.009E+00   -9.977E-01   -9.864E-01   -9.747E-01   -9.628E-01
    -9.505E-01   -9.379E-01   -9.249E-01   -9.116E-01   -8.980E-01   -8.840E-01   -8.696E-01   -8.548E-01   -8.397E-01   -8.242E-01
    -8.084E-01   -7.922E-01   -7.756E-01   -7.587E-01   -7.414E-01   -7.239E-01   -7.059E-01   -6.877E-01   -6.691E-01   -6.502E-01
    -6.310E-01   -6.115E-01   -5.917E-01   -5.716E-01   -5.512E-01   -5.306E-01   -5.096E-01   -4.884E-01   -4.669E-01   -4.451E-01
    -4.231E-01   -4.008E-01   -3.783E-01   -3.555E-01   -3.325E-01   -3.093E-01   -2.858E-01   -2.621E-01   -2.382E-01   -2.141E-01
    -1.898E-01   -1.652E-01   -1.405E-01   -1.156E-01   -9.049E-02   -6.521E-02   -3.975E-02   -1.412E-02    1.168E-02    3.763E-02
     6.374E-02    9.000E-02    1.164E-01    1.429E-01    1.696E-01    1.964E-01    2.234E-01    2.504E-01    2.776E-01    3.049E-01
     3.324E-01    3.599E-01    3.875E-01    4.153E-01    4.431E-01    4.711E-01    4.991E-01    5.272E-01    5.554E-01    5.837E-01
     6.121E-01    6.405E-01    6.691E-01    6.977E-01    7.263E-01    7.550E-01    7.838E-01    8.126E-01    8.415E-01    8.704E-01
     8.994E-01    9.284E-01    9.574E-01    9.865E-01    1.016E+00    1.045E+00    1.074E+00    1.103E+00    1.132E+00    1.161E+00
     1.191E+00    1.220E+00    1.249E+00    1.278E+00    1.307E+00    1.337E+00    1.366E+00    1.395E+00
 Ala      Conc. = 4.80E+01
