 LCModel (Version 6.3-1L) Copyright: S.W. Provencher.          Ref.: Magn. Reson. Med. 30:672-679 (1993).                
 Slice#3 Row#6 Col#4  PD_05_press_1_raw_act
 36 lines in following concentration table = NCONC+1
    Conc.  %SD /Cr+PCr  Metabolite                                         
   49.322 162% 3.9E-02 Ala                                                 
    0.000 999%   0.000 Asp                                                 
  439.138  38%   0.349 Cr                                                  
  817.494  21%   0.651 PCr                                                 
   19.216 595% 1.5E-02 GABA                                                
    0.000 999%   0.000 Glc                                                 
  646.359  28%   0.514 Gln                                                 
 1.41E+03  15%   1.122 Glu                                                 
  324.035   4%   0.258 GPC                                                 
    0.000 999%   0.000 PCh                                                 
  288.645  17%   0.230 GSH                                                 
   24.345 661% 1.9E-02 Ins                                                 
    0.000 999%   0.000 Lac                                                 
 1.77E+03   6%   1.405 NAA                                                 
  220.723  47%   0.176 NAAG                                                
    0.000 999%   0.000 Scyllo                                              
    0.000 999%   0.000 Tau                                                 
    0.000 999%   0.000 -CrCH2                                              
  324.035   4%   0.258 GPC+PCh                                             
 1.99E+03   3%   1.581 NAA+NAAG                                            
 1.26E+03   3%   1.000 Cr+PCr                                              
 2.06E+03  15%   1.636 Glu+Gln                                             
    0.000 999%   0.000 Lip13a                                              
  181.691  31%   0.145 Lip13b                                              
    0.000 999%   0.000 Lip09                                               
  758.541  15%   0.604 MM09                                                
   50.352 101% 4.0E-02 Lip20                                               
 1.84E+03  11%   1.463 MM20                                                
  240.833  26%   0.192 MM12                                                
    0.000 999%   0.000 MM14                                                
  546.683  21%   0.435 MM17                                                
  181.691  31%   0.145 Lip13a+Lip13b                                       
  422.525  19%   0.336 MM14+Lip13a+Lip13b+MM12                             
  758.541  15%   0.604 MM09+Lip09                                          
 1.89E+03  11%   1.503 MM20+Lip20                                          
   6 lines in following misc. output table
  FWHM = 0.061 ppm    S/N =  15                                            
  Data shift = 0.023 ppm                                                   
  Ph:   2 deg       0.4 deg/ppm                                            
  alphaB,S = 5.7E-01,   1.0E+02                                            
   14 spline knots.   Ns = 8(1)                                            
  (14) 7 infls.   (11) 1 extrs.                                            
  498 points on ppm-axis = NY
      4.000000     3.992357     3.984714     3.977070     3.969427     3.961784     3.954141     3.946497     3.938854     3.931211
      3.923568     3.915925     3.908281     3.900638     3.892995     3.885352     3.877708     3.870065     3.862422     3.854779
      3.847136     3.839492     3.831849     3.824206     3.816563     3.808919     3.801276     3.793633     3.785990     3.778347
      3.770703     3.763060     3.755417     3.747774     3.740130     3.732487     3.724844     3.717201     3.709558     3.701914
      3.694271     3.686628     3.678985     3.671341     3.663698     3.656055     3.648412     3.640769     3.633125     3.625482
      3.617839     3.610196     3.602552     3.594909     3.587266     3.579623     3.571980     3.564336     3.556693     3.549050
      3.541407     3.533763     3.526120     3.518477     3.510834     3.503191     3.495547     3.487904     3.480261     3.472618
      3.464974     3.457331     3.449688     3.442045     3.434402     3.426758     3.419115     3.411472     3.403829     3.396185
      3.388542     3.380899     3.373256     3.365613     3.357969     3.350326     3.342683     3.335040     3.327396     3.319753
      3.312110     3.304467     3.296824     3.289180     3.281537     3.273894     3.266251     3.258607     3.250964     3.243321
      3.235678     3.228034     3.220391     3.212748     3.205105     3.197462     3.189818     3.182175     3.174532     3.166889
      3.159245     3.151602     3.143959     3.136316     3.128673     3.121029     3.113386     3.105743     3.098100     3.090456
      3.082813     3.075170     3.067527     3.059884     3.052240     3.044597     3.036954     3.029311     3.021667     3.014024
      3.006381     2.998738     2.991095     2.983451     2.975808     2.968165     2.960522     2.952878     2.945235     2.937592
      2.929949     2.922306     2.914662     2.907019     2.899376     2.891733     2.884089     2.876446     2.868803     2.861160
      2.853517     2.845873     2.838230     2.830587     2.822944     2.815300     2.807657     2.800014     2.792371     2.784728
      2.777084     2.769441     2.761798     2.754155     2.746511     2.738868     2.731225     2.723582     2.715939     2.708295
      2.700652     2.693009     2.685366     2.677722     2.670079     2.662436     2.654793     2.647150     2.639506     2.631863
      2.624220     2.616577     2.608933     2.601290     2.593647     2.586004     2.578361     2.570717     2.563074     2.555431
      2.547788     2.540144     2.532501     2.524858     2.517215     2.509572     2.501928     2.494285     2.486642     2.478999
      2.471355     2.463712     2.456069     2.448426     2.440783     2.433139     2.425496     2.417853     2.410210     2.402566
      2.394923     2.387280     2.379637     2.371994     2.364350     2.356707     2.349064     2.341421     2.333777     2.326134
      2.318491     2.310848     2.303205     2.295561     2.287918     2.280275     2.272632     2.264988     2.257345     2.249702
      2.242059     2.234416     2.226772     2.219129     2.211486     2.203843     2.196199     2.188556     2.180913     2.173270
      2.165627     2.157983     2.150340     2.142697     2.135054     2.127410     2.119767     2.112124     2.104481     2.096838
      2.089194     2.081551     2.073908     2.066265     2.058621     2.050978     2.043335     2.035692     2.028049     2.020405
      2.012762     2.005119     1.997476     1.989833     1.982190     1.974546     1.966903     1.959260     1.951617     1.943974
      1.936331     1.928688     1.921045     1.913402     1.905759     1.898115     1.890472     1.882829     1.875186     1.867543
      1.859900     1.852257     1.844614     1.836971     1.829327     1.821684     1.814041     1.806398     1.798755     1.791112
      1.783469     1.775826     1.768183     1.760540     1.752896     1.745253     1.737610     1.729967     1.722324     1.714681
      1.707038     1.699395     1.691752     1.684108     1.676465     1.668822     1.661179     1.653536     1.645893     1.638250
      1.630607     1.622964     1.615321     1.607677     1.600034     1.592391     1.584748     1.577105     1.569462     1.561819
      1.554176     1.546533     1.538890     1.531246     1.523603     1.515960     1.508317     1.500674     1.493031     1.485388
      1.477745     1.470102     1.462458     1.454815     1.447172     1.439529     1.431886     1.424243     1.416600     1.408957
      1.401314     1.393671     1.386027     1.378384     1.370741     1.363098     1.355455     1.347812     1.340169     1.332526
      1.324883     1.317240     1.309596     1.301953     1.294310     1.286667     1.279024     1.271381     1.263738     1.256095
      1.248452     1.240808     1.233165     1.225522     1.217879     1.210236     1.202593     1.194950     1.187307     1.179664
      1.172021     1.164377     1.156734     1.149091     1.141448     1.133805     1.126162     1.118519     1.110876     1.103233
      1.095590     1.087946     1.080303     1.072660     1.065017     1.057374     1.049731     1.042088     1.034445     1.026802
      1.019158     1.011515     1.003872     0.996229     0.988586     0.980943     0.973300     0.965657     0.958014     0.950371
      0.942727     0.935084     0.927441     0.919798     0.912155     0.904512     0.896869     0.889226     0.881583     0.873940
      0.866296     0.858653     0.851010     0.843367     0.835724     0.828081     0.820438     0.812795     0.805152     0.797508
      0.789865     0.782222     0.774579     0.766936     0.759293     0.751650     0.744007     0.736364     0.728721     0.721077
      0.713434     0.705791     0.698148     0.690505     0.682862     0.675219     0.667576     0.659933     0.652290     0.644646
      0.637003     0.629360     0.621717     0.614074     0.606431     0.598788     0.591145     0.583502     0.575858     0.568215
      0.560572     0.552929     0.545286     0.537643     0.530000     0.522357     0.514714     0.507071     0.499427     0.491784
      0.484141     0.476498     0.468855     0.461212     0.453569     0.445925     0.438282     0.430639     0.422996     0.415353
      0.407710     0.400067     0.392424     0.384780     0.377137     0.369494     0.361851     0.354208     0.346565     0.338922
      0.331278     0.323635     0.315992     0.308349     0.300706     0.293063     0.285420     0.277777     0.270133     0.262490
      0.254847     0.247204     0.239561     0.231918     0.224275     0.216631     0.208988     0.201345
 NY phased data points follow
   2.65406E+01  2.83257E+01  3.20670E+01  3.10448E+01  3.21320E+01  3.90173E+01  3.92651E+01  4.37498E+01  4.47973E+01  5.04830E+01
   5.06645E+01  5.03987E+01  4.68114E+01  4.41274E+01  3.77391E+01  3.79005E+01  3.35289E+01  3.05176E+01  2.79616E+01  2.76205E+01
   2.67186E+01  2.78245E+01  2.28317E+01  2.58912E+01  2.54695E+01  2.76995E+01  2.57660E+01  2.74925E+01  2.65486E+01  2.52660E+01
   2.51191E+01  2.89546E+01  2.28000E+01  2.57626E+01  2.47361E+01  2.19922E+01  2.11017E+01  2.25142E+01  2.14998E+01  2.27406E+01
   1.93006E+01  2.06684E+01  1.79347E+01  2.28433E+01  2.32046E+01  2.14315E+01  2.23105E+01  2.27104E+01  2.29256E+01  2.14977E+01
   1.84211E+01  1.92034E+01  2.04811E+01  1.70643E+01  1.70006E+01  1.68102E+01  1.85255E+01  1.66661E+01  1.63355E+01  1.77222E+01
   1.25364E+01  1.31765E+01  1.01530E+01  1.08288E+01  9.64913E+00  1.03286E+01  6.71709E+00  9.60779E+00  7.67066E+00  9.38436E+00
   1.03390E+01  9.00602E+00  8.37144E+00  7.95853E+00  9.44376E+00  1.10715E+01  7.58595E+00  9.17448E+00  8.95687E+00  6.50585E+00
   1.01593E+01  8.28350E+00  5.99262E+00  5.50429E+00  8.24761E+00  9.58624E+00  9.59399E+00  8.83384E+00  1.12764E+01  1.00978E+01
   1.07798E+01  8.11219E+00  1.00888E+01  8.87548E+00  9.19357E+00  1.16646E+01  1.31750E+01  1.40448E+01  1.70752E+01  2.04616E+01
   2.82683E+01  3.21767E+01  3.27488E+01  3.26171E+01  2.93826E+01  2.78235E+01  2.54982E+01  2.14864E+01  2.04960E+01  1.61961E+01
   1.19618E+01  1.43552E+01  1.26403E+01  1.06240E+01  9.32290E+00  9.28438E+00  7.97352E+00  8.20021E+00  9.86104E+00  1.27815E+01
   1.24176E+01  1.40736E+01  1.65930E+01  2.42576E+01  2.74947E+01  3.50573E+01  4.02121E+01  4.07386E+01  3.94082E+01  3.49777E+01
   3.07173E+01  2.81014E+01  2.18455E+01  1.90928E+01  1.31965E+01  1.20415E+01  9.56747E+00  8.18100E+00  6.41653E+00  4.35284E+00
   8.81906E+00  5.50786E+00  7.59128E+00  4.48064E+00  4.64955E+00  4.26073E+00  7.34508E+00  7.40283E+00  4.21421E+00  4.79998E-01
   5.81061E+00  4.52668E+00  3.17056E+00  4.42692E+00 -9.46507E-02  3.34093E+00  3.80027E+00  2.66871E+00  1.32168E+00  2.51951E+00
   1.28006E+00 -6.32717E-02  8.89634E-01  3.48945E-01 -4.85361E-01  3.06861E+00  1.76834E+00 -1.17331E+00 -4.01562E-01 -7.77847E-01
  -1.13408E-02 -1.44109E+00 -2.92345E+00 -3.84809E+00 -4.70982E+00 -5.91874E+00 -4.77109E+00 -1.56464E+00 -3.79238E+00 -6.14116E+00
  -3.99612E+00 -4.61869E+00 -4.57351E+00 -2.87212E+00 -4.15025E+00 -4.79003E+00 -1.79230E+00 -1.06934E+00 -3.16612E-01  2.99642E+00
   4.02929E+00  6.17615E+00  6.06942E+00  5.72899E+00  4.38012E+00  3.56059E+00  5.70780E+00  6.27138E+00  3.94682E+00  2.20745E+00
   3.47501E+00  2.96626E+00  5.43378E+00  5.77265E+00  3.87184E+00  5.50506E+00  2.99262E+00  1.25889E+00 -3.46622E-01  5.51247E-01
   2.17674E+00  2.05796E+00  4.89946E+00  6.24367E+00  8.30966E+00  1.04948E+01  1.04889E+01  7.87884E+00  7.43671E+00  4.06128E+00
   4.48496E+00  1.23063E+00  1.12229E+00  4.11237E+00  1.94456E+00  4.23591E+00  5.45116E+00  7.65250E+00  7.47733E+00  7.62784E+00
   9.18759E+00  9.82709E+00  5.54605E+00  7.28860E+00  7.41021E+00  5.86546E+00  8.87173E+00  9.32002E+00  5.31555E+00  9.29242E+00
   9.36870E+00  7.17007E+00  6.44329E+00  6.00099E+00  6.79746E+00  1.14784E+01  1.13057E+01  1.19162E+01  1.22332E+01  1.40323E+01
   1.62844E+01  1.65518E+01  1.90026E+01  2.41303E+01  2.80965E+01  2.92497E+01  3.60541E+01  4.50320E+01  5.52515E+01  6.27021E+01
   6.52204E+01  6.04631E+01  5.32979E+01  4.43042E+01  3.91321E+01  2.86265E+01  2.37236E+01  1.65184E+01  1.56098E+01  1.17926E+01
   1.19657E+01  7.42590E+00  8.19893E+00  1.23831E+01  7.33550E+00  8.53498E+00  6.19182E+00  6.68660E+00  7.15224E+00  4.14334E+00
   6.38871E+00  5.03946E+00  7.43528E+00  5.86679E+00  4.60280E+00  3.17979E+00  3.62053E+00  2.31223E+00  2.51972E+00  4.06474E+00
   2.68673E+00  2.34677E+00  4.73928E+00  3.73783E+00  6.38948E+00  7.81746E+00  5.00102E+00  2.50273E+00  5.21741E+00  3.11283E+00
   2.40796E+00  5.15728E+00  5.87343E+00  4.55592E+00  1.98530E+00  6.32514E+00  6.14571E+00  5.45575E+00  4.83747E+00  7.28497E+00
   5.83622E+00  5.87176E+00  5.41336E+00  4.94586E+00  3.78018E+00  5.06539E+00  3.80541E+00  6.14269E+00  3.49983E+00  3.99886E+00
   1.83200E+00  3.18143E+00  1.89288E+00  8.04300E-01  3.40699E+00  3.63818E+00  3.66016E+00 -1.56352E+00 -9.26934E-01  1.20728E+00
  -2.38376E+00 -1.22463E+00  2.11839E-01 -7.10200E-01  1.75673E+00  6.34141E-01  1.74173E+00  2.71210E-02  1.22047E+00  1.18530E+00
  -5.51931E+00 -1.36744E+00 -2.06253E+00 -2.32488E+00 -3.82427E+00  5.13768E-01 -2.48144E-01  1.02476E+00 -5.06566E-01 -2.06271E-01
   1.39019E+00  2.29222E+00  1.05214E+00  3.69475E+00  3.55251E+00  3.86527E+00  2.87368E+00  1.25364E+00  6.88242E-01  8.30203E-01
   2.13571E+00  3.11775E+00  3.70683E+00  2.41303E+00  1.80777E+00  4.78107E-01  3.30263E+00  1.36583E+00  4.34207E-01  7.12476E-01
   3.70359E-02  1.19609E+00  2.64928E+00  1.65489E+00  6.34553E-01  8.55378E-01 -1.87300E+00 -7.47702E-01  1.56692E-02 -9.46669E-02
  -2.14404E-01 -4.55032E-01 -8.69770E-01 -7.13813E-01  8.91331E-01 -1.18532E+00 -1.30937E+00 -1.39209E+00 -7.95929E-01 -2.60082E+00
  -1.40711E+00 -1.82877E-02  1.97381E+00 -1.54746E+00  3.12541E-01  1.13716E+00  1.39342E+00  4.75634E-01  1.25181E+00  2.47488E+00
   8.98102E-01  1.18775E+00  7.27745E-01  2.25561E+00  2.71036E+00  4.32947E+00  1.95860E+00  2.51889E+00  2.26512E+00  2.34520E+00
   4.85231E+00  1.79507E+00  9.61492E-01  1.94762E+00  2.71053E+00  2.62592E+00  2.04098E+00  9.45111E-01 -7.86048E-01  1.29162E+00
  -2.00369E+00 -1.37401E+00 -7.79620E-02 -7.52267E-01 -1.72462E+00  1.80572E+00 -6.53125E-01 -1.89743E-01 -1.38065E+00 -1.90034E+00
  -6.19455E-02 -3.72161E-01  5.34669E-01 -8.58459E-01 -2.95058E+00 -2.45969E-01 -1.25316E+00 -2.22241E+00 -1.34702E-01 -1.73044E+00
  -2.03561E+00 -3.30137E+00 -2.57954E+00 -3.89172E-01 -1.92429E+00 -2.18288E+00  3.66328E-01 -2.54455E-01 -1.78695E-01 -1.24574E+00
  -1.82361E+00 -1.82892E+00  1.54594E+00 -1.30316E+00  1.93221E+00  4.77265E-01 -5.04931E+00 -2.21293E-01 -1.22239E+00 -1.35517E+00
  -2.93517E+00 -3.06753E+00 -1.42753E+00  7.06429E-01 -2.77125E-01 -7.07409E-01 -2.74037E+00  7.37095E-01 -4.79439E-01 -1.49656E+00
   5.89982E-02 -1.25048E+00 -3.11905E+00 -1.05101E+00 -3.03650E+00 -4.48091E-01 -2.41697E+00 -7.38165E-01 -2.42620E+00 -1.36415E+00
  -1.22204E+00 -9.21462E-01 -1.45858E+00 -6.84502E-02 -6.61400E-01 -1.05675E+00 -2.79467E-01 -1.70635E+00 -2.12860E-01  1.47684E-01
  -1.85799E+00 -3.59344E+00 -2.54037E+00  2.97889E-01  3.28635E+00 -1.29099E+00  4.04142E-01 -1.44953E+00
 NY points of the fit to the data follow
   2.72731E+01  2.80697E+01  2.95031E+01  3.10405E+01  3.29161E+01  3.54052E+01  3.87713E+01  4.27600E+01  4.64528E+01  4.87878E+01
   4.91723E+01  4.77682E+01  4.52415E+01  4.22139E+01  3.90638E+01  3.60630E+01  3.34150E+01  3.11650E+01  2.90626E+01  2.73197E+01
   2.60469E+01  2.51504E+01  2.49009E+01  2.47137E+01  2.44632E+01  2.43921E+01  2.47286E+01  2.55007E+01  2.64259E+01  2.72486E+01
   2.77639E+01  2.77911E+01  2.73350E+01  2.63731E+01  2.49442E+01  2.33811E+01  2.20164E+01  2.11257E+01  2.05932E+01  2.02666E+01
   2.01898E+01  2.01518E+01  2.01335E+01  2.00687E+01  1.99189E+01  1.97340E+01  1.94859E+01  1.92061E+01  1.89046E+01  1.85495E+01
   1.81790E+01  1.77784E+01  1.73348E+01  1.69237E+01  1.65434E+01  1.61249E+01  1.57046E+01  1.53397E+01  1.50015E+01  1.46505E+01
   1.43167E+01  1.40112E+01  1.37303E+01  1.34682E+01  1.32175E+01  1.29819E+01  1.27615E+01  1.25530E+01  1.23532E+01  1.21594E+01
   1.19701E+01  1.17833E+01  1.15983E+01  1.14149E+01  1.12338E+01  1.10556E+01  1.08800E+01  1.07075E+01  1.05381E+01  1.03705E+01
   1.02044E+01  1.00403E+01  9.88040E+00  9.72371E+00  9.56886E+00  9.41668E+00  9.27095E+00  9.13558E+00  9.01449E+00  8.91031E+00
   8.82515E+00  8.76638E+00  8.75330E+00  8.84967E+00  9.39571E+00  1.12188E+01  1.33513E+01  1.49642E+01  1.71813E+01  2.10277E+01
   2.61341E+01  3.10258E+01  3.40541E+01  3.43577E+01  3.22814E+01  2.89414E+01  2.53261E+01  2.17069E+01  1.81802E+01  1.51263E+01
   1.28411E+01  1.09357E+01  8.89705E+00  7.64104E+00  7.27774E+00  7.16559E+00  7.16186E+00  7.29300E+00  7.85143E+00  9.94417E+00
   1.29521E+01  1.52542E+01  1.79580E+01  2.26674E+01  2.93061E+01  3.61759E+01  4.10019E+01  4.22881E+01  4.02384E+01  3.62544E+01
   3.17071E+01  2.70695E+01  2.23105E+01  1.78460E+01  1.42429E+01  1.13362E+01  8.42789E+00  6.39998E+00  5.87080E+00  5.82453E+00
   5.86957E+00  5.86168E+00  5.73848E+00  5.55945E+00  5.38483E+00  5.18224E+00  4.94573E+00  4.69043E+00  4.42410E+00  4.16622E+00
   3.90349E+00  3.66514E+00  3.45612E+00  3.21538E+00  3.01587E+00  2.91337E+00  2.83356E+00  2.69883E+00  2.40441E+00  2.01226E+00
   1.72655E+00  1.64968E+00  1.71133E+00  1.76893E+00  1.68879E+00  1.43877E+00  1.09032E+00  7.01010E-01  2.85724E-01 -7.26425E-02
  -2.62180E-01 -4.58354E-01 -7.87871E-01 -1.24368E+00 -1.63839E+00 -1.72280E+00 -1.57382E+00 -1.43304E+00 -1.41075E+00 -1.50436E+00
  -1.52935E+00 -1.34914E+00 -1.08773E+00 -8.58757E-01 -6.00815E-01 -1.88026E-01  4.30896E-01  1.21288E+00  2.05643E+00  2.79890E+00
   3.26942E+00  3.43914E+00  3.37803E+00  3.19724E+00  2.97958E+00  2.84386E+00  2.99796E+00  3.37827E+00  3.90798E+00  4.56798E+00
   5.22569E+00  5.74307E+00  5.99174E+00  6.00619E+00  5.56650E+00  4.45517E+00  2.96042E+00  1.62710E+00  8.37634E-01  6.30035E-01
   8.00562E-01  1.56159E+00  3.01472E+00  4.83674E+00  6.46162E+00  7.29899E+00  7.26158E+00  6.53152E+00  5.13737E+00  3.28932E+00
   1.33945E+00 -2.77869E-02 -3.33111E-01  3.04779E-01  1.50935E+00  2.86464E+00  4.19756E+00  5.38564E+00  6.21787E+00  6.78082E+00
   7.11794E+00  7.37194E+00  7.66781E+00  7.90572E+00  8.06382E+00  8.29482E+00  8.61002E+00  8.86262E+00  8.83506E+00  8.44648E+00
   7.93750E+00  7.53598E+00  7.36777E+00  7.53218E+00  8.01580E+00  8.65825E+00  9.29301E+00  1.00216E+01  1.09800E+01  1.18525E+01
   1.26633E+01  1.41809E+01  1.82114E+01  2.40393E+01  2.83730E+01  3.22122E+01  3.81308E+01  4.65384E+01  5.53965E+01  6.17268E+01
   6.32679E+01  5.98844E+01  5.34265E+01  4.61173E+01  3.87679E+01  3.13698E+01  2.47865E+01  1.97750E+01  1.58979E+01  1.17726E+01
   8.37621E+00  7.15946E+00  6.68506E+00  6.37490E+00  6.12978E+00  5.92710E+00  5.69161E+00  5.43909E+00  5.18550E+00  4.93569E+00
   4.70215E+00  4.50560E+00  4.33560E+00  4.17464E+00  4.03160E+00  3.91688E+00  3.82600E+00  3.75166E+00  3.69609E+00  3.66960E+00
   3.67677E+00  3.70434E+00  3.74936E+00  3.81419E+00  3.89669E+00  3.99267E+00  4.10155E+00  4.22262E+00  4.35532E+00  4.49796E+00
   4.64505E+00  4.78794E+00  4.92149E+00  5.03968E+00  5.13548E+00  5.20245E+00  5.23594E+00  5.23395E+00  5.19534E+00  5.11754E+00
   5.00195E+00  4.85162E+00  4.67005E+00  4.46217E+00  4.23394E+00  3.99154E+00  3.74179E+00  3.49276E+00  3.25633E+00  3.04442E+00
   2.82547E+00  2.59517E+00  2.39218E+00  2.22121E+00  2.04640E+00  1.82477E+00  1.53747E+00  1.22998E+00  9.47762E-01  6.88485E-01
   4.68592E-01  3.18628E-01  2.62983E-01  3.02010E-01  3.98130E-01  4.89029E-01  5.36689E-01  5.62208E-01  5.71111E-01  5.54078E-01
   5.14951E-01  4.64911E-01  4.24014E-01  4.02168E-01  3.84971E-01  3.89006E-01  4.46308E-01  5.57143E-01  7.22421E-01  9.42247E-01
   1.21189E+00  1.51966E+00  1.84614E+00  2.16523E+00  2.44704E+00  2.66230E+00  2.78731E+00  2.80821E+00  2.72337E+00  2.54357E+00
   2.28972E+00  1.98886E+00  1.66944E+00  1.35674E+00  1.06976E+00  8.19832E-01  6.10985E-01  4.41552E-01  3.06232E-01  1.98058E-01
   1.09976E-01  3.59260E-02 -2.85830E-02 -8.63619E-02 -1.38793E-01 -1.86236E-01 -2.28380E-01 -2.64463E-01 -2.93398E-01 -3.13904E-01
  -3.24668E-01 -3.24462E-01 -3.12164E-01 -2.86698E-01 -2.46992E-01 -1.92027E-01 -1.20944E-01 -3.31108E-02  7.18751E-02  1.94217E-01
   3.33873E-01  4.90436E-01  6.62993E-01  8.50065E-01  1.04963E+00  1.25915E+00  1.47554E+00  1.69514E+00  1.91372E+00  2.12661E+00
   2.32890E+00  2.51567E+00  2.68207E+00  2.82352E+00  2.93584E+00  3.01556E+00  3.06008E+00  3.06787E+00  3.03840E+00  2.97218E+00
   2.87070E+00  2.73648E+00  2.57293E+00  2.38417E+00  2.17474E+00  1.94943E+00  1.71305E+00  1.47036E+00  1.22589E+00  9.83737E-01
   7.47416E-01  5.19826E-01  3.03274E-01  9.95252E-02 -9.01868E-02 -2.65175E-01 -4.25256E-01 -5.70640E-01 -7.01786E-01 -8.19322E-01
  -9.24018E-01 -1.01679E+00 -1.09866E+00 -1.17064E+00 -1.23366E+00 -1.28857E+00 -1.33618E+00 -1.37729E+00 -1.41266E+00 -1.44294E+00
  -1.46865E+00 -1.49026E+00 -1.50819E+00 -1.52288E+00 -1.53471E+00 -1.54399E+00 -1.55093E+00 -1.55572E+00 -1.55859E+00 -1.55978E+00
  -1.55947E+00 -1.55777E+00 -1.55477E+00 -1.55055E+00 -1.54525E+00 -1.53901E+00 -1.53188E+00 -1.52391E+00 -1.51511E+00 -1.50556E+00
  -1.49533E+00 -1.48452E+00 -1.47314E+00 -1.46117E+00 -1.44864E+00 -1.43561E+00 -1.42215E+00 -1.40831E+00 -1.39406E+00 -1.37939E+00
  -1.36432E+00 -1.34892E+00 -1.33324E+00 -1.31728E+00 -1.30101E+00 -1.28443E+00 -1.26756E+00 -1.25049E+00 -1.23322E+00 -1.21574E+00
  -1.19803E+00 -1.18008E+00 -1.16195E+00 -1.14368E+00 -1.12528E+00 -1.10671E+00 -1.08795E+00 -1.06903E+00 -1.05000E+00 -1.03088E+00
  -1.01166E+00 -9.92291E-01 -9.72772E-01 -9.53146E-01 -9.33454E-01 -9.13695E-01 -8.93825E-01 -8.73811E-01
 NY background values follow
     2.590E+01    2.569E+01    2.548E+01    2.526E+01    2.505E+01    2.483E+01    2.462E+01    2.441E+01    2.419E+01    2.398E+01
     2.376E+01    2.355E+01    2.333E+01    2.312E+01    2.291E+01    2.269E+01    2.248E+01    2.226E+01    2.205E+01    2.184E+01
     2.162E+01    2.141E+01    2.120E+01    2.099E+01    2.077E+01    2.056E+01    2.035E+01    2.014E+01    1.993E+01    1.972E+01
     1.951E+01    1.930E+01    1.909E+01    1.888E+01    1.868E+01    1.847E+01    1.826E+01    1.806E+01    1.785E+01    1.765E+01
     1.744E+01    1.724E+01    1.704E+01    1.683E+01    1.663E+01    1.643E+01    1.623E+01    1.604E+01    1.584E+01    1.564E+01
     1.544E+01    1.525E+01    1.506E+01    1.486E+01    1.467E+01    1.448E+01    1.429E+01    1.410E+01    1.391E+01    1.373E+01
     1.354E+01    1.335E+01    1.317E+01    1.299E+01    1.281E+01    1.263E+01    1.245E+01    1.227E+01    1.209E+01    1.192E+01
     1.175E+01    1.157E+01    1.140E+01    1.123E+01    1.106E+01    1.090E+01    1.073E+01    1.057E+01    1.040E+01    1.024E+01
     1.008E+01    9.926E+00    9.769E+00    9.614E+00    9.461E+00    9.309E+00    9.159E+00    9.011E+00    8.864E+00    8.719E+00
     8.575E+00    8.434E+00    8.294E+00    8.155E+00    8.019E+00    7.884E+00    7.751E+00    7.620E+00    7.490E+00    7.362E+00
     7.235E+00    7.111E+00    6.987E+00    6.866E+00    6.746E+00    6.628E+00    6.511E+00    6.396E+00    6.283E+00    6.171E+00
     6.060E+00    5.952E+00    5.844E+00    5.739E+00    5.634E+00    5.532E+00    5.431E+00    5.331E+00    5.233E+00    5.136E+00
     5.041E+00    4.947E+00    4.855E+00    4.764E+00    4.675E+00    4.587E+00    4.500E+00    4.415E+00    4.332E+00    4.249E+00
     4.168E+00    4.089E+00    4.011E+00    3.934E+00    3.858E+00    3.784E+00    3.711E+00    3.640E+00    3.569E+00    3.501E+00
     3.433E+00    3.367E+00    3.302E+00    3.238E+00    3.176E+00    3.115E+00    3.056E+00    2.998E+00    2.941E+00    2.886E+00
     2.832E+00    2.779E+00    2.728E+00    2.678E+00    2.629E+00    2.582E+00    2.536E+00    2.492E+00    2.449E+00    2.408E+00
     2.368E+00    2.329E+00    2.291E+00    2.256E+00    2.221E+00    2.188E+00    2.156E+00    2.126E+00    2.097E+00    2.070E+00
     2.044E+00    2.020E+00    1.997E+00    1.975E+00    1.955E+00    1.936E+00    1.919E+00    1.903E+00    1.889E+00    1.876E+00
     1.865E+00    1.855E+00    1.846E+00    1.839E+00    1.834E+00    1.830E+00    1.827E+00    1.825E+00    1.824E+00    1.825E+00
     1.827E+00    1.829E+00    1.833E+00    1.838E+00    1.844E+00    1.850E+00    1.857E+00    1.866E+00    1.874E+00    1.884E+00
     1.894E+00    1.905E+00    1.917E+00    1.928E+00    1.941E+00    1.954E+00    1.967E+00    1.980E+00    1.994E+00    2.008E+00
     2.022E+00    2.037E+00    2.051E+00    2.066E+00    2.080E+00    2.095E+00    2.109E+00    2.124E+00    2.138E+00    2.152E+00
     2.165E+00    2.179E+00    2.192E+00    2.204E+00    2.216E+00    2.228E+00    2.239E+00    2.250E+00    2.260E+00    2.269E+00
     2.278E+00    2.286E+00    2.294E+00    2.301E+00    2.307E+00    2.313E+00    2.318E+00    2.323E+00    2.327E+00    2.330E+00
     2.332E+00    2.334E+00    2.335E+00    2.336E+00    2.336E+00    2.335E+00    2.334E+00    2.331E+00    2.328E+00    2.325E+00
     2.320E+00    2.315E+00    2.309E+00    2.303E+00    2.296E+00    2.288E+00    2.279E+00    2.269E+00    2.259E+00    2.248E+00
     2.236E+00    2.223E+00    2.210E+00    2.195E+00    2.180E+00    2.164E+00    2.148E+00    2.130E+00    2.112E+00    2.093E+00
     2.073E+00    2.052E+00    2.030E+00    2.007E+00    1.984E+00    1.960E+00    1.935E+00    1.909E+00    1.882E+00    1.855E+00
     1.827E+00    1.798E+00    1.769E+00    1.739E+00    1.708E+00    1.676E+00    1.644E+00    1.611E+00    1.578E+00    1.544E+00
     1.510E+00    1.475E+00    1.439E+00    1.403E+00    1.366E+00    1.329E+00    1.292E+00    1.253E+00    1.215E+00    1.176E+00
     1.137E+00    1.097E+00    1.057E+00    1.016E+00    9.753E-01    9.341E-01    8.926E-01    8.507E-01    8.086E-01    7.662E-01
     7.235E-01    6.806E-01    6.375E-01    5.942E-01    5.507E-01    5.070E-01    4.631E-01    4.191E-01    3.749E-01    3.307E-01
     2.863E-01    2.419E-01    1.973E-01    1.528E-01    1.081E-01    6.350E-02    1.885E-02   -2.580E-02   -7.043E-02   -1.150E-01
    -1.596E-01   -2.040E-01   -2.484E-01   -2.927E-01   -3.369E-01   -3.810E-01   -4.249E-01   -4.687E-01   -5.123E-01   -5.557E-01
    -5.989E-01   -6.419E-01   -6.846E-01   -7.271E-01   -7.694E-01   -8.113E-01   -8.530E-01   -8.944E-01   -9.354E-01   -9.761E-01
    -1.016E+00   -1.056E+00   -1.096E+00   -1.135E+00   -1.174E+00   -1.212E+00   -1.250E+00   -1.288E+00   -1.325E+00   -1.361E+00
    -1.397E+00   -1.433E+00   -1.468E+00   -1.502E+00   -1.536E+00   -1.569E+00   -1.602E+00   -1.634E+00   -1.665E+00   -1.696E+00
    -1.727E+00   -1.757E+00   -1.786E+00   -1.814E+00   -1.842E+00   -1.870E+00   -1.896E+00   -1.922E+00   -1.948E+00   -1.973E+00
    -1.997E+00   -2.020E+00   -2.043E+00   -2.065E+00   -2.087E+00   -2.108E+00   -2.128E+00   -2.147E+00   -2.166E+00   -2.184E+00
    -2.201E+00   -2.218E+00   -2.234E+00   -2.249E+00   -2.264E+00   -2.277E+00   -2.290E+00   -2.302E+00   -2.314E+00   -2.325E+00
    -2.334E+00   -2.344E+00   -2.352E+00   -2.359E+00   -2.366E+00   -2.372E+00   -2.377E+00   -2.382E+00   -2.385E+00   -2.388E+00
    -2.390E+00   -2.391E+00   -2.391E+00   -2.391E+00   -2.390E+00   -2.388E+00   -2.386E+00   -2.383E+00   -2.379E+00   -2.374E+00
    -2.369E+00   -2.363E+00   -2.357E+00   -2.350E+00   -2.343E+00   -2.334E+00   -2.326E+00   -2.317E+00   -2.307E+00   -2.297E+00
    -2.286E+00   -2.275E+00   -2.263E+00   -2.251E+00   -2.238E+00   -2.225E+00   -2.211E+00   -2.198E+00   -2.183E+00   -2.169E+00
    -2.154E+00   -2.138E+00   -2.123E+00   -2.107E+00   -2.090E+00   -2.074E+00   -2.057E+00   -2.040E+00   -2.022E+00   -2.005E+00
    -1.987E+00   -1.969E+00   -1.951E+00   -1.932E+00   -1.914E+00   -1.895E+00   -1.876E+00   -1.857E+00   -1.838E+00   -1.818E+00
    -1.799E+00   -1.779E+00   -1.759E+00   -1.739E+00   -1.719E+00   -1.699E+00   -1.679E+00   -1.658E+00   -1.638E+00   -1.617E+00
    -1.596E+00   -1.575E+00   -1.554E+00   -1.533E+00   -1.512E+00   -1.491E+00   -1.470E+00   -1.448E+00   -1.427E+00   -1.406E+00
    -1.384E+00   -1.362E+00   -1.341E+00   -1.319E+00   -1.297E+00   -1.276E+00   -1.254E+00   -1.232E+00   -1.210E+00   -1.188E+00
    -1.166E+00   -1.145E+00   -1.123E+00   -1.101E+00   -1.079E+00   -1.057E+00   -1.035E+00   -1.013E+00
 Ala      Conc. = 4.93E+01
