 LCModel (Version 6.3-1L) Copyright: S.W. Provencher.          Ref.: Magn. Reson. Med. 30:672-679 (1993).                
 Slice#3 Row#9 Col#10  PD_05_press_1_raw_act
 36 lines in following concentration table = NCONC+1
    Conc.  %SD /Cr+PCr  Metabolite                                         
    0.000 999%   0.000 Ala                                                 
    0.000 999%   0.000 Asp                                                 
  521.169  26%   0.473 Cr                                                  
  581.443  24%   0.527 PCr                                                 
   52.046 195% 4.7E-02 GABA                                                
    0.000 999%   0.000 Glc                                                 
  379.797  34%   0.344 Gln                                                 
 1.29E+03  13%   1.172 Glu                                                 
  334.488   4%   0.303 GPC                                                 
    0.000 999%   0.000 PCh                                                 
  364.973  12%   0.331 GSH                                                 
  736.592  20%   0.668 Ins                                                 
   78.726  89% 7.1E-02 Lac                                                 
 1.54E+03   5%   1.392 NAA                                                 
  187.118  42%   0.170 NAAG                                                
   36.979  42% 3.4E-02 Scyllo                                              
    0.000 999%   0.000 Tau                                                 
  117.469  57%   0.107 -CrCH2                                              
  334.488   4%   0.303 GPC+PCh                                             
 1.72E+03   3%   1.562 NAA+NAAG                                            
 1.10E+03   3%   1.000 Cr+PCr                                              
 1.67E+03  13%   1.516 Glu+Gln                                             
  154.539 233%   0.140 Lip13a                                              
  132.754 150%   0.120 Lip13b                                              
    0.000 999%   0.000 Lip09                                               
  890.672  14%   0.808 MM09                                                
   39.319 191% 3.6E-02 Lip20                                               
 2.23E+03  11%   2.020 MM20                                                
  376.986  29%   0.342 MM12                                                
  781.465  28%   0.709 MM14                                                
 1.17E+03  17%   1.060 MM17                                                
  287.293  77%   0.261 Lip13a+Lip13b                                       
 1.45E+03  18%   1.311 MM14+Lip13a+Lip13b+MM12                             
  890.672  14%   0.808 MM09+Lip09                                          
 2.27E+03  11%   2.056 MM20+Lip20                                          
   6 lines in following misc. output table
  FWHM = 0.054 ppm    S/N =  15                                            
  Data shift = 0.031 ppm                                                   
  Ph:  -5 deg      -8.8 deg/ppm                                            
  alphaB,S = 1.2E+00,   1.5E+02                                            
   14 spline knots.   Ns = 7(1)                                            
  (12) 2 infls.   ( 9) 1 extrs.                                            
  498 points on ppm-axis = NY
      4.000000     3.992357     3.984714     3.977070     3.969427     3.961784     3.954141     3.946497     3.938854     3.931211
      3.923568     3.915925     3.908281     3.900638     3.892995     3.885352     3.877708     3.870065     3.862422     3.854779
      3.847136     3.839492     3.831849     3.824206     3.816563     3.808919     3.801276     3.793633     3.785990     3.778347
      3.770703     3.763060     3.755417     3.747774     3.740130     3.732487     3.724844     3.717201     3.709558     3.701914
      3.694271     3.686628     3.678985     3.671341     3.663698     3.656055     3.648412     3.640769     3.633125     3.625482
      3.617839     3.610196     3.602552     3.594909     3.587266     3.579623     3.571980     3.564336     3.556693     3.549050
      3.541407     3.533763     3.526120     3.518477     3.510834     3.503191     3.495547     3.487904     3.480261     3.472618
      3.464974     3.457331     3.449688     3.442045     3.434402     3.426758     3.419115     3.411472     3.403829     3.396185
      3.388542     3.380899     3.373256     3.365613     3.357969     3.350326     3.342683     3.335040     3.327396     3.319753
      3.312110     3.304467     3.296824     3.289180     3.281537     3.273894     3.266251     3.258607     3.250964     3.243321
      3.235678     3.228034     3.220391     3.212748     3.205105     3.197462     3.189818     3.182175     3.174532     3.166889
      3.159245     3.151602     3.143959     3.136316     3.128673     3.121029     3.113386     3.105743     3.098100     3.090456
      3.082813     3.075170     3.067527     3.059884     3.052240     3.044597     3.036954     3.029311     3.021667     3.014024
      3.006381     2.998738     2.991095     2.983451     2.975808     2.968165     2.960522     2.952878     2.945235     2.937592
      2.929949     2.922306     2.914662     2.907019     2.899376     2.891733     2.884089     2.876446     2.868803     2.861160
      2.853517     2.845873     2.838230     2.830587     2.822944     2.815300     2.807657     2.800014     2.792371     2.784728
      2.777084     2.769441     2.761798     2.754155     2.746511     2.738868     2.731225     2.723582     2.715939     2.708295
      2.700652     2.693009     2.685366     2.677722     2.670079     2.662436     2.654793     2.647150     2.639506     2.631863
      2.624220     2.616577     2.608933     2.601290     2.593647     2.586004     2.578361     2.570717     2.563074     2.555431
      2.547788     2.540144     2.532501     2.524858     2.517215     2.509572     2.501928     2.494285     2.486642     2.478999
      2.471355     2.463712     2.456069     2.448426     2.440783     2.433139     2.425496     2.417853     2.410210     2.402566
      2.394923     2.387280     2.379637     2.371994     2.364350     2.356707     2.349064     2.341421     2.333777     2.326134
      2.318491     2.310848     2.303205     2.295561     2.287918     2.280275     2.272632     2.264988     2.257345     2.249702
      2.242059     2.234416     2.226772     2.219129     2.211486     2.203843     2.196199     2.188556     2.180913     2.173270
      2.165627     2.157983     2.150340     2.142697     2.135054     2.127410     2.119767     2.112124     2.104481     2.096838
      2.089194     2.081551     2.073908     2.066265     2.058621     2.050978     2.043335     2.035692     2.028049     2.020405
      2.012762     2.005119     1.997476     1.989833     1.982190     1.974546     1.966903     1.959260     1.951617     1.943974
      1.936331     1.928688     1.921045     1.913402     1.905759     1.898115     1.890472     1.882829     1.875186     1.867543
      1.859900     1.852257     1.844614     1.836971     1.829327     1.821684     1.814041     1.806398     1.798755     1.791112
      1.783469     1.775826     1.768183     1.760540     1.752896     1.745253     1.737610     1.729967     1.722324     1.714681
      1.707038     1.699395     1.691752     1.684108     1.676465     1.668822     1.661179     1.653536     1.645893     1.638250
      1.630607     1.622964     1.615321     1.607677     1.600034     1.592391     1.584748     1.577105     1.569462     1.561819
      1.554176     1.546533     1.538890     1.531246     1.523603     1.515960     1.508317     1.500674     1.493031     1.485388
      1.477745     1.470102     1.462458     1.454815     1.447172     1.439529     1.431886     1.424243     1.416600     1.408957
      1.401314     1.393671     1.386027     1.378384     1.370741     1.363098     1.355455     1.347812     1.340169     1.332526
      1.324883     1.317240     1.309596     1.301953     1.294310     1.286667     1.279024     1.271381     1.263738     1.256095
      1.248452     1.240808     1.233165     1.225522     1.217879     1.210236     1.202593     1.194950     1.187307     1.179664
      1.172021     1.164377     1.156734     1.149091     1.141448     1.133805     1.126162     1.118519     1.110876     1.103233
      1.095590     1.087946     1.080303     1.072660     1.065017     1.057374     1.049731     1.042088     1.034445     1.026802
      1.019158     1.011515     1.003872     0.996229     0.988586     0.980943     0.973300     0.965657     0.958014     0.950371
      0.942727     0.935084     0.927441     0.919798     0.912155     0.904512     0.896869     0.889226     0.881583     0.873940
      0.866296     0.858653     0.851010     0.843367     0.835724     0.828081     0.820438     0.812795     0.805152     0.797508
      0.789865     0.782222     0.774579     0.766936     0.759293     0.751650     0.744007     0.736364     0.728721     0.721077
      0.713434     0.705791     0.698148     0.690505     0.682862     0.675219     0.667576     0.659933     0.652290     0.644646
      0.637003     0.629360     0.621717     0.614074     0.606431     0.598788     0.591145     0.583502     0.575858     0.568215
      0.560572     0.552929     0.545286     0.537643     0.530000     0.522357     0.514714     0.507071     0.499427     0.491784
      0.484141     0.476498     0.468855     0.461212     0.453569     0.445925     0.438282     0.430639     0.422996     0.415353
      0.407710     0.400067     0.392424     0.384780     0.377137     0.369494     0.361851     0.354208     0.346565     0.338922
      0.331278     0.323635     0.315992     0.308349     0.300706     0.293063     0.285420     0.277777     0.270133     0.262490
      0.254847     0.247204     0.239561     0.231918     0.224275     0.216631     0.208988     0.201345
 NY phased data points follow
   1.22281E+01  1.04780E+01  1.11902E+01  1.46581E+01  1.39143E+01  1.68437E+01  1.95130E+01  2.52359E+01  3.02968E+01  3.24510E+01
   3.39407E+01  3.19532E+01  2.74112E+01  2.64694E+01  2.30687E+01  2.07079E+01  1.56472E+01  1.27091E+01  1.41466E+01  1.18921E+01
   1.27671E+01  1.42464E+01  1.51260E+01  1.47170E+01  1.41021E+01  1.40321E+01  1.48563E+01  1.42832E+01  1.89951E+01  1.81552E+01
   1.59323E+01  1.89331E+01  1.54320E+01  1.73184E+01  1.47842E+01  1.56513E+01  1.48077E+01  1.14640E+01  1.23836E+01  1.41136E+01
   1.40178E+01  1.22275E+01  1.43842E+01  1.35053E+01  1.32510E+01  1.70810E+01  1.54198E+01  1.78489E+01  1.71913E+01  1.75692E+01
   1.27248E+01  1.09596E+01  1.41114E+01  1.36530E+01  1.28711E+01  1.06739E+01  9.34246E+00  9.86573E+00  1.11030E+01  9.65848E+00
   8.88743E+00  8.97820E+00  5.37030E+00  4.53228E+00  2.82213E+00  2.80840E+00  4.92115E+00  2.54755E+00  3.13801E+00  6.57661E+00
   4.64964E+00  4.71727E+00  4.12815E+00  5.63609E+00  6.51452E+00  6.39541E+00  6.42423E+00  4.05498E+00  5.45642E+00  7.73512E+00
   5.49266E+00  5.96217E+00  5.36934E+00  5.02113E+00  6.60422E+00  6.18520E+00  4.89101E+00  7.98553E+00  4.65588E+00  4.72575E+00
   6.85713E+00  8.37196E+00  8.01151E+00  8.08145E+00  8.67715E+00  7.25476E+00  8.59608E+00  1.11277E+01  1.46563E+01  1.88553E+01
   2.38858E+01  2.83124E+01  3.36719E+01  3.30547E+01  3.42332E+01  2.69840E+01  2.33140E+01  1.77818E+01  1.61206E+01  9.66954E+00
   1.08542E+01  7.39474E+00  7.94057E+00  6.28139E+00  5.04267E+00  6.89126E+00  8.24332E+00  7.35187E+00  8.01712E+00  7.13247E+00
   8.45450E+00  1.09075E+01  1.33823E+01  2.27184E+01  2.93882E+01  3.47637E+01  4.05392E+01  4.09157E+01  3.96597E+01  3.16668E+01
   2.72321E+01  2.12778E+01  1.60977E+01  1.29922E+01  1.12791E+01  8.18388E+00  4.53852E+00  4.37767E+00  4.81994E+00  3.53986E+00
   4.30287E+00  5.60852E+00  5.27137E+00  4.32404E+00  3.63734E+00  3.56592E+00  3.95740E+00  6.79556E+00  4.39324E+00  5.18617E+00
   2.97841E+00  5.95734E+00  3.39746E+00  4.67592E+00  4.34651E+00  2.48026E+00  3.03563E+00  6.37503E+00  3.21846E+00  3.89052E+00
   1.63579E+00 -1.98896E+00  5.32651E-01  3.99194E-01  1.17498E-01  2.13447E+00  2.42483E-01 -2.19602E-01  1.51375E+00 -2.11921E+00
  -1.65480E+00 -3.27417E+00 -4.48104E+00 -5.41519E+00 -7.45884E+00 -7.06251E+00 -4.43437E+00 -2.37648E+00 -6.14766E+00 -3.78808E+00
  -1.62241E+00 -5.39507E+00 -5.69559E+00 -4.55513E+00 -2.85512E+00 -6.90684E+00 -5.41646E+00 -2.83402E+00  3.27745E-01  5.76421E-01
   1.54691E+00  2.69069E+00  3.31170E+00  5.46353E+00  6.04471E+00  1.83943E+00  1.38014E-01  1.42209E+00  3.51852E+00 -4.93013E-02
   2.18158E+00  3.71046E+00  3.90026E+00  3.86918E+00  5.16871E+00  1.31456E+00  4.94131E-01  1.00803E+00 -7.66923E-01 -7.45495E-01
   3.65601E-01  3.90010E+00  4.10662E+00  5.40056E+00  8.03883E+00  1.13677E+01  7.79510E+00  5.46216E+00  5.85674E+00  3.87856E+00
   5.04492E-01  1.30541E+00 -1.70964E+00  2.03314E-01  6.26204E-01  2.65016E+00  5.11060E+00  5.37087E+00  8.24806E+00  6.14470E+00
   7.59768E+00  5.55029E+00  6.31176E+00  7.57523E+00  5.76092E+00  7.58576E+00  7.30508E+00  8.07363E+00  6.03308E+00  4.60547E+00
   5.03959E+00  3.44634E+00  4.00737E+00  6.32945E+00  8.00646E+00  9.40672E+00  9.62361E+00  9.87325E+00  1.31814E+01  1.21701E+01
   1.31402E+01  1.58580E+01  1.85764E+01  1.96202E+01  2.47230E+01  2.74134E+01  3.72200E+01  4.55808E+01  5.73707E+01  6.32724E+01
   6.55133E+01  5.59263E+01  4.76920E+01  3.74780E+01  2.94430E+01  2.21591E+01  1.73731E+01  1.48227E+01  9.78952E+00  9.36322E+00
   5.05791E+00  4.42453E+00  5.05473E+00  3.95579E+00  8.68693E+00  8.55887E+00  8.27272E+00  8.51486E+00  8.77993E+00  6.34375E+00
   8.23356E+00  7.52718E+00  5.70744E+00  4.94583E+00  5.70923E+00  6.11109E+00  5.77412E+00  4.05051E+00  6.20303E+00  6.59072E+00
   5.42917E+00  6.74407E+00  6.43399E+00  6.27145E+00  6.40256E+00  6.12979E+00  6.70804E+00  5.17407E+00  7.29402E+00  7.55558E+00
   7.79161E+00  7.46065E+00  7.68451E+00  5.70869E+00  8.08558E+00  9.15591E+00  7.18507E+00  1.08669E+01  9.89437E+00  8.17747E+00
   8.34778E+00  9.21722E+00  1.02637E+01  1.15255E+01  8.63352E+00  8.06884E+00  8.64565E+00  1.08772E+01  7.69192E+00  4.72438E+00
   9.37933E+00  7.78854E+00  4.83611E+00  7.80142E+00  6.83547E+00  6.27449E+00  8.60918E+00  7.39660E+00  6.50679E+00  5.09367E+00
   8.12661E+00  8.80362E+00  7.14214E+00  6.47494E+00  8.39627E+00  7.97947E+00  7.50897E+00  7.23027E+00  3.50689E+00  8.42370E+00
   4.99164E+00  6.73294E+00  3.99380E+00  5.51561E+00  5.09078E+00  9.42907E+00  7.38421E+00  4.64386E+00  5.21977E+00  5.37303E+00
   5.16134E+00  6.71652E+00  5.72810E+00  5.99382E+00  5.97752E+00  7.98806E+00  7.26707E+00  8.02293E+00  8.13042E+00  8.90603E+00
   5.96802E+00  7.41412E+00  7.49808E+00  7.80314E+00  8.00015E+00  4.90239E+00  6.71693E+00  6.72067E+00  7.54483E+00  4.93032E+00
   6.94749E+00  7.74259E+00  6.73916E+00  4.47637E+00  5.67757E+00  5.06916E+00  7.17407E+00  4.58585E+00  4.19203E+00  3.99368E+00
   4.57895E+00  6.25280E+00  5.99091E+00  3.57198E+00  4.97983E+00  2.65995E+00  6.50920E+00  7.06026E+00  6.60217E+00  5.52411E+00
   3.63915E+00  7.34456E+00  8.10054E+00  6.49312E+00  6.94314E+00  6.17943E+00  7.38113E+00  7.39015E+00  6.95017E+00  6.40184E+00
   7.20213E+00  7.82314E+00  8.83415E+00  7.65644E+00  6.50079E+00  8.06347E+00  6.53545E+00  6.84350E+00  7.24886E+00  7.41498E+00
   8.67112E+00  6.84438E+00  7.82389E+00  7.24399E+00  7.54247E+00  6.71756E+00  7.65042E+00  3.01244E+00  6.81861E+00  4.00262E+00
   6.10235E+00  5.91860E+00  5.53825E+00  5.07823E+00  4.83460E+00  4.69845E+00  4.58734E+00  5.98789E+00  3.40029E+00  2.58788E+00
   7.45772E+00  5.49685E+00  5.54154E+00  3.41646E+00  3.08599E+00  2.01268E+00  6.77261E+00  3.85840E+00  3.66265E+00  2.76616E+00
   2.89693E+00  6.22340E+00  4.06132E+00  4.75337E+00  1.85889E+00  3.75845E+00  2.79320E+00  5.41128E+00  3.52426E+00  3.11041E+00
   4.20234E+00  2.52739E+00  3.65050E+00  3.69172E+00  3.39348E+00  3.07284E+00  4.17278E+00  3.48582E+00  2.66203E+00  1.85949E+00
   2.97478E+00  3.18861E+00  4.02501E+00  4.26369E+00  1.76994E+00  4.03441E-01  2.13641E+00  4.36818E+00  2.04451E+00  3.09977E+00
   2.04519E+00  1.76924E+00  4.52470E+00  3.41470E+00  2.70364E+00  4.24130E+00  8.05795E-01  4.01976E-01  2.04610E+00  2.14962E+00
   5.26099E+00  3.99912E+00  3.25846E+00  1.36028E+00  2.20045E+00  2.58767E+00  3.53223E+00  3.70283E+00  3.51014E+00  2.67320E+00
   3.95470E+00  3.41444E+00  3.65637E+00  2.71162E+00  1.58698E+00  2.56546E+00  3.09142E+00  4.45033E+00
 NY points of the fit to the data follow
   1.19831E+01  1.18501E+01  1.21784E+01  1.32249E+01  1.50819E+01  1.78026E+01  2.12926E+01  2.53184E+01  2.92170E+01  3.20082E+01
   3.28935E+01  3.17040E+01  2.89906E+01  2.56559E+01  2.24603E+01  1.97752E+01  1.76039E+01  1.57635E+01  1.42499E+01  1.31834E+01
   1.25559E+01  1.21394E+01  1.17945E+01  1.17597E+01  1.20086E+01  1.25793E+01  1.36452E+01  1.52105E+01  1.70114E+01  1.85357E+01
   1.93779E+01  1.93793E+01  1.85803E+01  1.72186E+01  1.55648E+01  1.38678E+01  1.23991E+01  1.12294E+01  1.04258E+01  1.01986E+01
   1.04742E+01  1.10607E+01  1.18081E+01  1.26922E+01  1.36956E+01  1.46139E+01  1.51893E+01  1.51881E+01  1.45252E+01  1.34027E+01
   1.21266E+01  1.09386E+01  1.00281E+01  9.43584E+00  9.07120E+00  8.90375E+00  8.95696E+00  9.19012E+00  9.44324E+00  9.55490E+00
   9.44101E+00  9.09482E+00  8.59732E+00  8.07415E+00  7.65489E+00  7.43629E+00  7.39574E+00  7.46324E+00  7.59850E+00  7.76374E+00
   7.90507E+00  7.97624E+00  7.93894E+00  7.79914E+00  7.59397E+00  7.36740E+00  7.15577E+00  6.97484E+00  6.83052E+00  6.74138E+00
   6.72284E+00  6.74061E+00  6.77841E+00  6.82786E+00  6.82721E+00  6.69382E+00  6.39186E+00  5.97949E+00  5.57928E+00  5.32116E+00
   5.25258E+00  5.32458E+00  5.46496E+00  5.60990E+00  5.74915E+00  6.10705E+00  7.46343E+00  1.00416E+01  1.35915E+01  1.83870E+01
   2.42453E+01  3.00361E+01  3.40706E+01  3.50139E+01  3.27069E+01  2.82174E+01  2.30602E+01  1.83332E+01  1.44748E+01  1.14472E+01
   8.95308E+00  6.87504E+00  5.65628E+00  5.25950E+00  5.11988E+00  5.06266E+00  5.04417E+00  5.07287E+00  5.21658E+00  5.78085E+00
   7.72078E+00  1.11404E+01  1.57218E+01  2.17364E+01  2.88511E+01  3.56556E+01  4.02056E+01  4.10761E+01  3.82204E+01  3.29854E+01
   2.71068E+01  2.16863E+01  1.70601E+01  1.31060E+01  9.55251E+00  6.53731E+00  4.83854E+00  4.39512E+00  4.51727E+00  4.87669E+00
   5.23535E+00  5.43613E+00  5.45875E+00  5.34239E+00  5.11489E+00  4.83237E+00  4.53095E+00  4.20700E+00  3.87338E+00  3.54946E+00
   3.25255E+00  3.00918E+00  2.82194E+00  2.68074E+00  2.53939E+00  2.39841E+00  2.23030E+00  1.99954E+00  1.73309E+00  1.45026E+00
   1.24900E+00  1.21831E+00  1.31747E+00  1.39695E+00  1.32140E+00  1.05838E+00  6.73482E-01  2.79025E-01 -4.95726E-02 -3.42544E-01
  -6.47514E-01 -9.49569E-01 -1.27934E+00 -1.60255E+00 -1.83897E+00 -1.92283E+00 -1.84673E+00 -1.70093E+00 -1.62119E+00 -1.66088E+00
  -1.77801E+00 -1.83976E+00 -1.78365E+00 -1.61905E+00 -1.32954E+00 -8.61671E-01 -1.39177E-01  8.48290E-01  1.94582E+00  2.89772E+00
   3.46117E+00  3.52101E+00  3.20892E+00  2.71316E+00  2.18944E+00  1.76451E+00  1.55373E+00  1.71681E+00  2.25484E+00  3.06180E+00
   3.97654E+00  4.78028E+00  5.27080E+00  5.26293E+00  4.73340E+00  3.72369E+00  2.34695E+00  8.97507E-01 -2.24348E-01 -6.60013E-01
  -2.52373E-01  8.38972E-01  2.51772E+00  4.56145E+00  6.45330E+00  7.54600E+00  7.36664E+00  5.95553E+00  3.75284E+00  1.24711E+00
  -9.48716E-01 -2.29361E+00 -2.50795E+00 -1.59618E+00  5.66148E-02  1.96819E+00  3.73048E+00  4.96987E+00  5.62045E+00  5.86844E+00
   6.01959E+00  6.23050E+00  6.50855E+00  6.93792E+00  7.53603E+00  8.11185E+00  8.43070E+00  8.35889E+00  7.91855E+00  7.26110E+00
   6.57006E+00  6.11430E+00  6.16097E+00  6.74771E+00  7.66054E+00  8.62958E+00  9.49548E+00  1.01656E+01  1.06879E+01  1.13098E+01
   1.21181E+01  1.32387E+01  1.50297E+01  1.87808E+01  2.44133E+01  3.09740E+01  3.87977E+01  4.77676E+01  5.63237E+01  6.18514E+01
   6.22304E+01  5.72774E+01  4.88387E+01  3.94556E+01  3.09759E+01  2.41559E+01  1.87966E+01  1.42636E+01  1.03412E+01  7.99632E+00
   7.13161E+00  6.71362E+00  6.48585E+00  6.36987E+00  6.28821E+00  6.16143E+00  5.98467E+00  5.77319E+00  5.54485E+00  5.32398E+00
   5.13419E+00  4.98279E+00  4.87239E+00  4.80868E+00  4.78840E+00  4.80119E+00  4.83936E+00  4.90210E+00  4.99477E+00  5.12120E+00
   5.27710E+00  5.45951E+00  5.66523E+00  5.88911E+00  6.12657E+00  6.37557E+00  6.63414E+00  6.90033E+00  7.17161E+00  7.44376E+00
   7.71094E+00  7.96692E+00  8.20394E+00  8.41425E+00  8.59187E+00  8.73277E+00  8.83478E+00  8.89661E+00  8.91792E+00  8.90104E+00
   8.84912E+00  8.76578E+00  8.65573E+00  8.52456E+00  8.37820E+00  8.22260E+00  8.06344E+00  7.90590E+00  7.75458E+00  7.61342E+00
   7.48551E+00  7.37293E+00  7.27665E+00  7.19665E+00  7.13219E+00  7.08192E+00  7.04391E+00  7.01574E+00  6.99466E+00  6.97792E+00
   6.96299E+00  6.94766E+00  6.93010E+00  6.90887E+00  6.88318E+00  6.85314E+00  6.82000E+00  6.78644E+00  6.75753E+00  6.74406E+00
   6.76697E+00  6.81414E+00  6.85735E+00  6.89758E+00  6.90988E+00  6.84372E+00  6.65811E+00  6.36015E+00  6.04629E+00  5.81894E+00
   5.73616E+00  5.83354E+00  6.10953E+00  6.51577E+00  6.96115E+00  7.34915E+00  7.62294E+00  7.74918E+00  7.72721E+00  7.60293E+00
   7.41829E+00  7.20051E+00  6.95855E+00  6.69834E+00  6.45578E+00  6.24977E+00  6.07095E+00  5.91397E+00  5.77533E+00  5.65188E+00
   5.54092E+00  5.44031E+00  5.34860E+00  5.26509E+00  5.18984E+00  5.12354E+00  5.06728E+00  5.02238E+00  4.99018E+00  4.97207E+00
   4.96939E+00  4.98345E+00  5.01535E+00  5.06596E+00  5.13587E+00  5.22546E+00  5.33488E+00  5.46396E+00  5.61212E+00  5.77830E+00
   5.96100E+00  6.15823E+00  6.36760E+00  6.58611E+00  6.81026E+00  7.03602E+00  7.25900E+00  7.47457E+00  7.67800E+00  7.86448E+00
   8.02935E+00  8.16825E+00  8.27742E+00  8.35380E+00  8.39516E+00  8.40013E+00  8.36829E+00  8.30021E+00  8.19746E+00  8.06254E+00
   7.89865E+00  7.70958E+00  7.49950E+00  7.27290E+00  7.03438E+00  6.78845E+00  6.53934E+00  6.29087E+00  6.04644E+00  5.80896E+00
   5.58083E+00  5.36391E+00  5.15950E+00  4.96836E+00  4.79092E+00  4.62723E+00  4.47711E+00  4.34007E+00  4.21545E+00  4.10244E+00
   4.00023E+00  3.90799E+00  3.82491E+00  3.75011E+00  3.68278E+00  3.62212E+00  3.56750E+00  3.51830E+00  3.47398E+00  3.43398E+00
   3.39782E+00  3.36509E+00  3.33546E+00  3.30863E+00  3.28433E+00  3.26224E+00  3.24214E+00  3.22382E+00  3.20718E+00  3.19205E+00
   3.17829E+00  3.16572E+00  3.15424E+00  3.14379E+00  3.13430E+00  3.12570E+00  3.11789E+00  3.11077E+00  3.10430E+00  3.09846E+00
   3.09324E+00  3.08855E+00  3.08435E+00  3.08057E+00  3.07722E+00  3.07429E+00  3.07177E+00  3.06959E+00  3.06772E+00  3.06612E+00
   3.06483E+00  3.06385E+00  3.06315E+00  3.06268E+00  3.06242E+00  3.06237E+00  3.06256E+00  3.06297E+00  3.06359E+00  3.06436E+00
   3.06528E+00  3.06638E+00  3.06767E+00  3.06914E+00  3.07076E+00  3.07249E+00  3.07436E+00  3.07639E+00  3.07859E+00  3.08094E+00
   3.08340E+00  3.08597E+00  3.08868E+00  3.09155E+00  3.09459E+00  3.09775E+00  3.10105E+00  3.10447E+00
 NY background values follow
     9.775E+00    9.716E+00    9.657E+00    9.598E+00    9.539E+00    9.480E+00    9.421E+00    9.362E+00    9.303E+00    9.244E+00
     9.185E+00    9.126E+00    9.067E+00    9.008E+00    8.949E+00    8.890E+00    8.831E+00    8.772E+00    8.713E+00    8.654E+00
     8.594E+00    8.535E+00    8.476E+00    8.417E+00    8.358E+00    8.299E+00    8.240E+00    8.181E+00    8.122E+00    8.063E+00
     8.004E+00    7.945E+00    7.886E+00    7.827E+00    7.768E+00    7.709E+00    7.650E+00    7.591E+00    7.532E+00    7.473E+00
     7.414E+00    7.355E+00    7.297E+00    7.238E+00    7.179E+00    7.121E+00    7.062E+00    7.003E+00    6.945E+00    6.886E+00
     6.828E+00    6.770E+00    6.711E+00    6.653E+00    6.595E+00    6.537E+00    6.479E+00    6.421E+00    6.363E+00    6.306E+00
     6.248E+00    6.191E+00    6.133E+00    6.076E+00    6.019E+00    5.962E+00    5.905E+00    5.848E+00    5.791E+00    5.735E+00
     5.679E+00    5.622E+00    5.566E+00    5.510E+00    5.455E+00    5.399E+00    5.344E+00    5.289E+00    5.233E+00    5.179E+00
     5.124E+00    5.070E+00    5.015E+00    4.961E+00    4.907E+00    4.854E+00    4.800E+00    4.747E+00    4.694E+00    4.641E+00
     4.589E+00    4.537E+00    4.485E+00    4.433E+00    4.381E+00    4.330E+00    4.279E+00    4.228E+00    4.178E+00    4.127E+00
     4.077E+00    4.028E+00    3.978E+00    3.929E+00    3.880E+00    3.831E+00    3.783E+00    3.734E+00    3.686E+00    3.639E+00
     3.591E+00    3.544E+00    3.497E+00    3.451E+00    3.404E+00    3.358E+00    3.313E+00    3.267E+00    3.222E+00    3.177E+00
     3.132E+00    3.088E+00    3.044E+00    3.000E+00    2.957E+00    2.914E+00    2.871E+00    2.828E+00    2.786E+00    2.744E+00
     2.702E+00    2.661E+00    2.620E+00    2.579E+00    2.538E+00    2.498E+00    2.458E+00    2.419E+00    2.379E+00    2.341E+00
     2.302E+00    2.264E+00    2.226E+00    2.188E+00    2.151E+00    2.114E+00    2.078E+00    2.042E+00    2.006E+00    1.971E+00
     1.936E+00    1.902E+00    1.868E+00    1.834E+00    1.801E+00    1.768E+00    1.736E+00    1.704E+00    1.673E+00    1.642E+00
     1.611E+00    1.581E+00    1.552E+00    1.523E+00    1.494E+00    1.466E+00    1.439E+00    1.412E+00    1.385E+00    1.359E+00
     1.334E+00    1.309E+00    1.285E+00    1.261E+00    1.238E+00    1.215E+00    1.193E+00    1.172E+00    1.151E+00    1.131E+00
     1.111E+00    1.093E+00    1.074E+00    1.056E+00    1.039E+00    1.023E+00    1.007E+00    9.914E-01    9.766E-01    9.623E-01
     9.487E-01    9.355E-01    9.230E-01    9.109E-01    8.994E-01    8.884E-01    8.779E-01    8.679E-01    8.584E-01    8.494E-01
     8.409E-01    8.329E-01    8.253E-01    8.182E-01    8.115E-01    8.053E-01    7.995E-01    7.942E-01    7.893E-01    7.848E-01
     7.806E-01    7.769E-01    7.736E-01    7.707E-01    7.681E-01    7.660E-01    7.641E-01    7.627E-01    7.615E-01    7.608E-01
     7.603E-01    7.602E-01    7.604E-01    7.608E-01    7.616E-01    7.627E-01    7.641E-01    7.658E-01    7.677E-01    7.699E-01
     7.723E-01    7.751E-01    7.780E-01    7.813E-01    7.847E-01    7.884E-01    7.924E-01    7.966E-01    8.010E-01    8.056E-01
     8.104E-01    8.155E-01    8.208E-01    8.262E-01    8.319E-01    8.378E-01    8.438E-01    8.501E-01    8.565E-01    8.631E-01
     8.698E-01    8.768E-01    8.839E-01    8.911E-01    8.985E-01    9.061E-01    9.137E-01    9.216E-01    9.295E-01    9.376E-01
     9.458E-01    9.542E-01    9.626E-01    9.712E-01    9.799E-01    9.886E-01    9.975E-01    1.006E+00    1.015E+00    1.025E+00
     1.034E+00    1.043E+00    1.052E+00    1.062E+00    1.071E+00    1.081E+00    1.090E+00    1.100E+00    1.110E+00    1.120E+00
     1.129E+00    1.139E+00    1.149E+00    1.159E+00    1.169E+00    1.179E+00    1.189E+00    1.199E+00    1.209E+00    1.220E+00
     1.230E+00    1.240E+00    1.250E+00    1.261E+00    1.271E+00    1.281E+00    1.292E+00    1.302E+00    1.312E+00    1.323E+00
     1.333E+00    1.344E+00    1.354E+00    1.364E+00    1.375E+00    1.385E+00    1.396E+00    1.406E+00    1.416E+00    1.427E+00
     1.437E+00    1.448E+00    1.458E+00    1.468E+00    1.479E+00    1.489E+00    1.499E+00    1.509E+00    1.520E+00    1.530E+00
     1.540E+00    1.550E+00    1.560E+00    1.570E+00    1.581E+00    1.591E+00    1.601E+00    1.611E+00    1.621E+00    1.630E+00
     1.640E+00    1.650E+00    1.660E+00    1.670E+00    1.680E+00    1.690E+00    1.699E+00    1.709E+00    1.719E+00    1.728E+00
     1.738E+00    1.748E+00    1.757E+00    1.767E+00    1.776E+00    1.786E+00    1.795E+00    1.805E+00    1.814E+00    1.823E+00
     1.833E+00    1.842E+00    1.851E+00    1.861E+00    1.870E+00    1.879E+00    1.888E+00    1.897E+00    1.906E+00    1.916E+00
     1.925E+00    1.934E+00    1.943E+00    1.952E+00    1.961E+00    1.969E+00    1.978E+00    1.987E+00    1.996E+00    2.005E+00
     2.014E+00    2.022E+00    2.031E+00    2.040E+00    2.048E+00    2.057E+00    2.066E+00    2.074E+00    2.083E+00    2.091E+00
     2.100E+00    2.108E+00    2.117E+00    2.125E+00    2.133E+00    2.142E+00    2.150E+00    2.158E+00    2.167E+00    2.175E+00
     2.183E+00    2.192E+00    2.200E+00    2.208E+00    2.216E+00    2.224E+00    2.232E+00    2.240E+00    2.249E+00    2.257E+00
     2.265E+00    2.273E+00    2.281E+00    2.289E+00    2.297E+00    2.305E+00    2.312E+00    2.320E+00    2.328E+00    2.336E+00
     2.344E+00    2.352E+00    2.360E+00    2.367E+00    2.375E+00    2.383E+00    2.391E+00    2.398E+00    2.406E+00    2.414E+00
     2.421E+00    2.429E+00    2.436E+00    2.444E+00    2.451E+00    2.459E+00    2.466E+00    2.474E+00    2.481E+00    2.489E+00
     2.496E+00    2.503E+00    2.511E+00    2.518E+00    2.525E+00    2.532E+00    2.540E+00    2.547E+00    2.554E+00    2.561E+00
     2.568E+00    2.575E+00    2.582E+00    2.589E+00    2.596E+00    2.603E+00    2.609E+00    2.616E+00    2.623E+00    2.630E+00
     2.636E+00    2.643E+00    2.650E+00    2.656E+00    2.663E+00    2.669E+00    2.676E+00    2.682E+00    2.688E+00    2.695E+00
     2.701E+00    2.707E+00    2.714E+00    2.720E+00    2.726E+00    2.732E+00    2.738E+00    2.745E+00    2.751E+00    2.757E+00
     2.763E+00    2.769E+00    2.775E+00    2.781E+00    2.787E+00    2.793E+00    2.799E+00    2.805E+00    2.811E+00    2.817E+00
     2.823E+00    2.829E+00    2.835E+00    2.841E+00    2.847E+00    2.853E+00    2.859E+00    2.865E+00    2.871E+00    2.877E+00
     2.883E+00    2.889E+00    2.895E+00    2.901E+00    2.907E+00    2.913E+00    2.919E+00    2.925E+00
 Cr       Conc. = 5.21E+02
