 LCModel (Version 6.3-1L) Copyright: S.W. Provencher.          Ref.: Magn. Reson. Med. 30:672-679 (1993).                
 Slice#3 Row#14 Col#11  PD_05_press_1_raw_act
 36 lines in following concentration table = NCONC+1
    Conc.  %SD /Cr+PCr  Metabolite                                         
   32.832  62%   0.000 Ala                                                 
    0.000 999%   0.000 Asp                                                 
    0.000 999%   0.000 Cr                                                  
    0.000 999%   0.000 PCr                                                 
    0.000 999%   0.000 GABA                                                
 1.89E-03 999%   0.000 Glc                                                 
    0.000 999%   0.000 Gln                                                 
    0.000 999%   0.000 Glu                                                 
    0.000 999%   0.000 GPC                                                 
    0.000 999%   0.000 PCh                                                 
    1.378 448%   0.000 GSH                                                 
   42.238  68%   0.000 Ins                                                 
    2.311 357%   0.000 Lac                                                 
    0.000 999%   0.000 NAA                                                 
    0.000 999%   0.000 NAAG                                                
 9.68E-03 999%   0.000 Scyllo                                              
 1.90E-02 999%   0.000 Tau                                                 
 5.50E-02 999%   0.000 -CrCH2                                              
    0.000 999%   0.000 GPC+PCh                                             
    0.000 999%   0.000 NAA+NAAG                                            
    0.000 999%   0.000 Cr+PCr                                              
    0.000 999%   0.000 Glu+Gln                                             
  456.051  13%   0.000 Lip13a                                              
    0.000 999%   0.000 Lip13b                                              
  120.258  15%   0.000 Lip09                                               
 3.94E-04 999%   0.000 MM09                                                
   65.320  20%   0.000 Lip20                                               
    0.000 999%   0.000 MM20                                                
 2.90E-04 999%   0.000 MM12                                                
 3.39E-03 999%   0.000 MM14                                                
    0.000 999%   0.000 MM17                                                
  456.051  13%   0.000 Lip13a+Lip13b                                       
  456.055  13%   0.000 MM14+Lip13a+Lip13b+MM12                             
  120.259  15%   0.000 MM09+Lip09                                          
   65.320  20%   0.000 MM20+Lip20                                          
   6 lines in following misc. output table
  FWHM = 0.023 ppm    S/N =   1                                            
  Data shift = 0.015 ppm                                                   
  Ph: 140 deg     -31.3 deg/ppm                                            
  alphaB,S = 8.5E+01,   1.6E+00                                            
   14 spline knots.   Ns = 5(1)                                            
   2 inflections.     3 extrema                                            
  498 points on ppm-axis = NY
      4.000000     3.992357     3.984714     3.977070     3.969427     3.961784     3.954141     3.946497     3.938854     3.931211
      3.923568     3.915925     3.908281     3.900638     3.892995     3.885352     3.877708     3.870065     3.862422     3.854779
      3.847136     3.839492     3.831849     3.824206     3.816563     3.808919     3.801276     3.793633     3.785990     3.778347
      3.770703     3.763060     3.755417     3.747774     3.740130     3.732487     3.724844     3.717201     3.709558     3.701914
      3.694271     3.686628     3.678985     3.671341     3.663698     3.656055     3.648412     3.640769     3.633125     3.625482
      3.617839     3.610196     3.602552     3.594909     3.587266     3.579623     3.571980     3.564336     3.556693     3.549050
      3.541407     3.533763     3.526120     3.518477     3.510834     3.503191     3.495547     3.487904     3.480261     3.472618
      3.464974     3.457331     3.449688     3.442045     3.434402     3.426758     3.419115     3.411472     3.403829     3.396185
      3.388542     3.380899     3.373256     3.365613     3.357969     3.350326     3.342683     3.335040     3.327396     3.319753
      3.312110     3.304467     3.296824     3.289180     3.281537     3.273894     3.266251     3.258607     3.250964     3.243321
      3.235678     3.228034     3.220391     3.212748     3.205105     3.197462     3.189818     3.182175     3.174532     3.166889
      3.159245     3.151602     3.143959     3.136316     3.128673     3.121029     3.113386     3.105743     3.098100     3.090456
      3.082813     3.075170     3.067527     3.059884     3.052240     3.044597     3.036954     3.029311     3.021667     3.014024
      3.006381     2.998738     2.991095     2.983451     2.975808     2.968165     2.960522     2.952878     2.945235     2.937592
      2.929949     2.922306     2.914662     2.907019     2.899376     2.891733     2.884089     2.876446     2.868803     2.861160
      2.853517     2.845873     2.838230     2.830587     2.822944     2.815300     2.807657     2.800014     2.792371     2.784728
      2.777084     2.769441     2.761798     2.754155     2.746511     2.738868     2.731225     2.723582     2.715939     2.708295
      2.700652     2.693009     2.685366     2.677722     2.670079     2.662436     2.654793     2.647150     2.639506     2.631863
      2.624220     2.616577     2.608933     2.601290     2.593647     2.586004     2.578361     2.570717     2.563074     2.555431
      2.547788     2.540144     2.532501     2.524858     2.517215     2.509572     2.501928     2.494285     2.486642     2.478999
      2.471355     2.463712     2.456069     2.448426     2.440783     2.433139     2.425496     2.417853     2.410210     2.402566
      2.394923     2.387280     2.379637     2.371994     2.364350     2.356707     2.349064     2.341421     2.333777     2.326134
      2.318491     2.310848     2.303205     2.295561     2.287918     2.280275     2.272632     2.264988     2.257345     2.249702
      2.242059     2.234416     2.226772     2.219129     2.211486     2.203843     2.196199     2.188556     2.180913     2.173270
      2.165627     2.157983     2.150340     2.142697     2.135054     2.127410     2.119767     2.112124     2.104481     2.096838
      2.089194     2.081551     2.073908     2.066265     2.058621     2.050978     2.043335     2.035692     2.028049     2.020405
      2.012762     2.005119     1.997476     1.989833     1.982190     1.974546     1.966903     1.959260     1.951617     1.943974
      1.936331     1.928688     1.921045     1.913402     1.905759     1.898115     1.890472     1.882829     1.875186     1.867543
      1.859900     1.852257     1.844614     1.836971     1.829327     1.821684     1.814041     1.806398     1.798755     1.791112
      1.783469     1.775826     1.768183     1.760540     1.752896     1.745253     1.737610     1.729967     1.722324     1.714681
      1.707038     1.699395     1.691752     1.684108     1.676465     1.668822     1.661179     1.653536     1.645893     1.638250
      1.630607     1.622964     1.615321     1.607677     1.600034     1.592391     1.584748     1.577105     1.569462     1.561819
      1.554176     1.546533     1.538890     1.531246     1.523603     1.515960     1.508317     1.500674     1.493031     1.485388
      1.477745     1.470102     1.462458     1.454815     1.447172     1.439529     1.431886     1.424243     1.416600     1.408957
      1.401314     1.393671     1.386027     1.378384     1.370741     1.363098     1.355455     1.347812     1.340169     1.332526
      1.324883     1.317240     1.309596     1.301953     1.294310     1.286667     1.279024     1.271381     1.263738     1.256095
      1.248452     1.240808     1.233165     1.225522     1.217879     1.210236     1.202593     1.194950     1.187307     1.179664
      1.172021     1.164377     1.156734     1.149091     1.141448     1.133805     1.126162     1.118519     1.110876     1.103233
      1.095590     1.087946     1.080303     1.072660     1.065017     1.057374     1.049731     1.042088     1.034445     1.026802
      1.019158     1.011515     1.003872     0.996229     0.988586     0.980943     0.973300     0.965657     0.958014     0.950371
      0.942727     0.935084     0.927441     0.919798     0.912155     0.904512     0.896869     0.889226     0.881583     0.873940
      0.866296     0.858653     0.851010     0.843367     0.835724     0.828081     0.820438     0.812795     0.805152     0.797508
      0.789865     0.782222     0.774579     0.766936     0.759293     0.751650     0.744007     0.736364     0.728721     0.721077
      0.713434     0.705791     0.698148     0.690505     0.682862     0.675219     0.667576     0.659933     0.652290     0.644646
      0.637003     0.629360     0.621717     0.614074     0.606431     0.598788     0.591145     0.583502     0.575858     0.568215
      0.560572     0.552929     0.545286     0.537643     0.530000     0.522357     0.514714     0.507071     0.499427     0.491784
      0.484141     0.476498     0.468855     0.461212     0.453569     0.445925     0.438282     0.430639     0.422996     0.415353
      0.407710     0.400067     0.392424     0.384780     0.377137     0.369494     0.361851     0.354208     0.346565     0.338922
      0.331278     0.323635     0.315992     0.308349     0.300706     0.293063     0.285420     0.277777     0.270133     0.262490
      0.254847     0.247204     0.239561     0.231918     0.224275     0.216631     0.208988     0.201345
 NY phased data points follow
   7.82813E-01  8.13705E-01  7.33910E-01 -4.02610E-01 -1.17039E+00 -5.12573E-01 -1.26475E+00 -1.83811E-01 -3.36565E-01 -3.13375E-01
  -8.97168E-01 -8.23082E-01 -4.71203E-01 -3.39360E-01  4.42622E-01 -8.74660E-01 -2.53584E-02 -4.98016E-01 -5.63457E-02 -6.11957E-01
   8.01994E-01 -6.52043E-01  1.36819E-01 -1.38115E-01 -2.02159E-01  5.83498E-01  1.94968E-01  2.21881E-01 -7.25320E-01  7.22576E-03
  -7.54411E-01 -5.24160E-01  8.42808E-02 -1.17694E-01 -5.18188E-01  2.49622E-01 -5.24346E-01  2.39163E-01  5.30132E-01  1.43362E+00
  -7.05258E-01 -8.73442E-01 -4.46723E-01 -4.37454E-01 -4.63591E-01 -1.76300E+00  1.27617E-01  1.07358E+00 -1.01436E+00  8.17365E-01
   7.38943E-02 -1.44543E+00 -7.48395E-01  2.71079E-01 -6.43331E-01  2.32634E-01 -1.02583E+00  2.10219E-01  1.07188E-01 -2.60686E-01
   7.50490E-01  5.84322E-01  1.09350E+00 -1.65508E-01  1.03571E+00 -3.28739E-02 -8.84123E-01 -1.49666E-01 -9.89174E-01  6.27904E-01
   3.45498E-01  2.59285E-01 -4.93443E-01  2.98159E-02  1.24408E-01 -9.75224E-02 -3.15537E-01 -6.19723E-02  9.03677E-02 -3.65507E-01
  -3.18296E-01 -7.90733E-01  4.51935E-02  4.86696E-01  3.97013E-01 -1.07611E-01 -5.45168E-01  7.12471E-01  2.55907E-01 -3.02063E-01
   3.65835E-01 -4.57591E-01  2.78248E-01  1.17209E+00 -1.03787E+00  1.40457E-01  4.23334E-01  9.85687E-02 -3.02408E-01  2.21951E-02
  -1.21412E+00 -9.42415E-01 -1.43985E+00 -9.11311E-01 -1.17626E+00  1.58772E-01  5.25389E-02 -6.83401E-02 -7.82995E-01 -7.06026E-01
   2.41473E-01  9.04120E-01  7.02876E-01 -3.46289E-01  1.16996E+00 -1.84576E-02  1.47407E-01 -1.11894E-01  1.18218E+00  1.17534E+00
   6.39432E-01  5.97995E-01  9.60008E-01  3.49220E-02 -3.87476E-01 -7.82668E-01 -8.38216E-01 -1.38013E+00  3.41636E-01  5.63909E-01
  -4.49908E-01 -6.50250E-02 -1.48616E-01 -2.78635E-01  1.03923E+00 -5.03272E-01  8.24769E-02  7.78243E-01  7.66705E-02  1.05474E+00
  -8.07579E-01 -1.29382E-01  7.73184E-01 -8.51759E-01 -4.09264E-02 -1.11613E+00  3.68643E-01 -7.85525E-01  4.83558E-01  2.80325E-01
   1.91178E-01  8.08900E-02  1.03591E-01 -9.74537E-01 -1.08605E+00 -1.09227E+00 -6.54530E-01 -1.11148E-01  3.54771E-01 -1.27311E+00
  -3.70280E-02 -2.29731E-01 -1.92075E-01  8.78078E-01  1.83856E-01 -5.63377E-01 -4.76414E-01 -1.12800E+00 -1.46715E+00  5.01538E-01
  -2.29786E+00  7.31569E-01  7.48355E-01 -1.07407E-01 -8.55668E-01 -7.75630E-01  7.26873E-01  2.41971E-01 -6.99028E-01 -1.31007E+00
  -6.29768E-01 -3.93687E-01 -2.17865E-01  3.16173E-01 -8.13583E-01 -1.49734E+00 -1.31311E+00  2.42391E-01 -1.16582E+00 -1.07679E+00
  -2.02527E-01 -4.92361E-01  3.43760E-01 -3.71916E-02 -1.54359E-02 -8.56040E-01  1.05740E+00 -8.41180E-01  6.02579E-01 -5.92910E-01
  -1.32611E+00 -2.55414E-01 -3.75749E-01 -3.62527E-01  5.50731E-01  1.15311E-01 -9.23967E-02  6.26000E-01  1.60444E-01  5.80047E-01
   1.94339E+00  5.96668E-01 -3.69260E-01 -1.03848E-01 -3.24112E-01  4.59835E-01  9.76051E-01  5.39817E-01  3.47482E-01  5.70444E-01
   5.89134E-01  1.27707E+00 -6.82653E-01  5.94425E-01  7.60763E-02 -6.49361E-01  7.11149E-01  9.84311E-02  3.85921E-01  4.25335E-02
   6.79821E-01  7.15074E-01 -1.27060E-01 -3.34084E-01 -8.25727E-02  1.84771E-01 -6.50211E-01 -3.78220E-01  3.69476E-01  8.45107E-01
   7.42169E-01 -2.41350E-01 -1.47283E-01 -2.74179E-01 -6.72064E-01  1.02856E+00  1.29430E+00  3.64763E-01  3.93213E-01  3.35399E-01
   3.10156E-01  4.93564E-01  1.34235E+00 -6.02042E-02 -6.53873E-02 -1.38272E+00  1.62999E-01 -3.82172E-01 -1.42186E-02 -8.09087E-01
  -2.36133E+00 -1.76824E+00  1.03992E-01  1.53145E+00  8.76218E-01  5.04633E-01 -2.00324E-03 -2.97190E-01  9.70330E-01  8.87227E-01
   8.30861E-01  1.21886E+00  3.85274E-01  4.72069E-01  7.16539E-01  9.63021E-02  1.25924E+00  3.16356E-01  2.55638E-01  1.26948E+00
  -7.03284E-01 -9.72443E-01 -4.13191E-02 -1.42524E-01 -4.22235E-01 -3.61627E-01  3.78181E-01  8.07262E-01 -5.34979E-01  1.62845E+00
  -9.87703E-01  3.06102E-01 -4.22331E-01 -3.60752E-01  2.67127E-01  3.96966E-01  1.18304E+00 -1.15223E+00  4.26154E-01  9.52358E-01
   3.39184E-01 -1.94163E-01  1.03980E+00  1.27826E-01  4.88020E-01 -2.18999E-01 -2.40213E-01 -4.10539E-01  2.66188E-01 -6.53336E-01
  -2.23411E-01 -3.27126E-01 -4.00458E-02 -1.34318E+00  3.71146E-01  1.49418E+00  2.94750E-01  1.25997E+00 -1.00904E+00  1.38464E-02
   5.09758E-02  2.03572E-01  6.38565E-02  2.92858E-01  1.47344E+00  1.12260E+00  1.20000E+00  8.13086E-01 -2.61945E-01  9.17801E-01
   6.02322E-02  3.06390E-01 -7.23512E-01  6.54701E-01  9.91872E-01  1.12587E+00  2.97709E+00  2.62097E+00  2.82245E+00  2.39007E+00
   2.34247E+00  1.30412E+00  9.04108E-01 -1.52883E-01  1.08502E+00  4.87402E-01  6.66192E-01  2.27380E+00  9.47794E-01  1.07931E+00
   7.76961E-01  1.81179E+00  1.17786E+00  3.90908E-01  1.32329E+00  1.84856E+00  1.47066E+00  4.07630E-01  1.96666E+00  1.64454E+00
   2.17473E+00  1.24374E+00  2.23882E+00  1.85564E+00  1.57597E+00  2.43773E+00  3.17070E+00  3.93186E+00  2.93447E+00  2.47117E+00
   1.71487E+00  1.77498E+00  1.37364E+00  1.22287E+00  1.66601E+00  4.17463E-01  2.33658E-01  8.17496E-01  1.37501E+00 -4.31692E-01
  -6.02982E-01  6.33926E-01  1.55719E+00  6.61339E-01  1.46463E+00  1.20782E+00  1.31122E+00  8.39426E-01  2.08864E+00  1.13900E+00
   1.41443E+00  1.94890E+00 -3.66191E-01  8.16100E-01  1.41568E+00  1.25284E+00  1.38115E+00  1.62344E+00  9.03138E-01  8.71904E-01
   8.36730E-01  2.88942E-01  2.55664E+00  1.65668E+00  1.48466E+00  8.65090E-01  3.52135E-01  7.50270E-01 -6.45547E-01  1.41594E+00
   7.38877E-01  1.72217E+00 -2.87372E-01 -3.21097E-01 -2.47000E-01  1.84146E+00  1.10735E+00 -1.32526E-01  2.66317E-01  1.17308E+00
   7.61939E-01  1.40259E+00 -7.92605E-01  4.39756E-01  8.97103E-01  6.04928E-01  5.12285E-01  5.36740E-01 -7.11618E-02  8.99307E-01
   4.11808E-01 -3.18801E-01  1.15860E+00 -5.53256E-01 -2.47801E-01  1.22492E+00  7.95845E-01 -3.45975E-01  1.65552E+00  6.21032E-01
   2.15686E-01  3.41620E-01  1.39241E+00 -2.16196E-01  9.47924E-01  8.16396E-01  2.57780E-01  1.04208E+00  1.82157E-01  3.16869E-01
  -7.88828E-02  1.06485E+00 -7.28823E-01  6.58444E-01  3.03792E-01  1.26049E-01 -9.34993E-01 -1.98329E-02  1.76483E-01 -2.16429E-01
   3.39779E-01  1.21853E+00  1.38293E+00  6.93758E-01  1.23716E+00 -2.72593E-01 -4.17317E-01  1.57656E-01  3.42949E-01 -9.44448E-02
   1.49012E-01  3.76782E-01 -3.12716E-01  7.36433E-01  3.80812E-01  2.52054E-01  4.44804E-01  6.04515E-01  9.27595E-01  8.45361E-01
   2.00511E-01 -2.58501E-02  5.32146E-01 -2.78773E-01 -2.41134E-01  5.72058E-01  6.95394E-01  2.06297E-01  8.92783E-01 -5.59282E-02
   6.97995E-01  5.60420E-01 -7.92427E-02  4.39572E-01  4.65486E-01  3.61197E-01 -3.84921E-01  7.27448E-01
 NY points of the fit to the data follow
  -2.51854E-01 -3.01922E-01 -2.96642E-01 -2.72670E-01 -2.66956E-01 -2.65616E-01 -2.64158E-01 -2.62509E-01 -2.60198E-01 -2.57515E-01
  -2.55452E-01 -2.53660E-01 -2.51709E-01 -2.48511E-01 -2.41740E-01 -2.63397E-01 -3.02998E-01 -3.27684E-01 -3.27016E-01 -2.97125E-01
  -2.46829E-01 -1.98478E-01 -1.01597E-01 -3.50987E-03 -1.70866E-02 -1.02133E-01 -2.32831E-01 -3.57918E-01 -4.12818E-01 -4.49427E-01
  -4.62534E-01 -3.38328E-01 -2.04809E-01 -1.06597E-01 -1.87439E-02  4.02763E-02  9.59881E-02  8.94005E-02 -5.91967E-02 -2.23979E-01
  -3.31719E-01 -4.09436E-01 -4.26376E-01 -4.15925E-01 -3.51329E-01 -1.29781E-01  1.87223E-01  4.46613E-01  5.45210E-01  4.27302E-01
   1.38746E-01 -1.86503E-01 -4.48851E-01 -5.56359E-01 -4.45816E-01 -2.90311E-01 -2.21915E-01 -1.70302E-01 -9.28896E-02  7.49269E-03
   9.43044E-02  1.11714E-01  5.24037E-02 -5.49265E-02 -1.97286E-01 -2.97595E-01 -2.97311E-01 -2.44582E-01 -1.69271E-01 -1.01976E-01
  -4.00202E-02  2.30045E-03  1.07684E-02 -7.30982E-03 -4.25136E-02 -8.69617E-02 -1.17027E-01 -1.50703E-01 -1.45491E-01 -1.26975E-01
  -1.19288E-01 -1.19362E-01 -1.22970E-01 -1.11897E-01 -1.12888E-01 -1.47256E-01 -2.23503E-01 -3.16770E-01 -3.84701E-01 -3.98985E-01
  -3.58897E-01 -2.74902E-01 -1.66731E-01 -9.33583E-02 -3.86865E-02 -2.63949E-02 -5.32758E-02 -1.09449E-01 -1.80035E-01 -2.45660E-01
  -2.78702E-01 -2.86566E-01 -2.81166E-01 -2.44303E-01 -2.16140E-01 -1.94582E-01 -1.75686E-01 -1.59216E-01 -1.50431E-01 -1.48580E-01
  -1.49836E-01 -1.52718E-01 -1.44545E-01 -1.39248E-01 -1.35976E-01 -1.35429E-01 -1.36540E-01 -1.39356E-01 -1.42113E-01 -1.43823E-01
  -1.43495E-01 -1.40699E-01 -1.36560E-01 -1.30442E-01 -1.24640E-01 -1.19741E-01 -1.16247E-01 -1.13543E-01 -1.10769E-01 -1.08250E-01
  -1.04459E-01 -9.43179E-02 -8.23807E-02 -7.58723E-02 -7.58464E-02 -8.24399E-02 -9.22353E-02 -9.66548E-02 -9.37415E-02 -8.05337E-02
  -5.87626E-02 -4.14142E-02 -3.22995E-02 -2.84842E-02 -2.96025E-02 -3.18483E-02 -3.04575E-02 -2.77910E-02 -2.12737E-02 -1.57302E-02
  -1.14590E-02 -8.04157E-03 -5.50258E-03 -3.42770E-03 -1.10573E-03  1.99312E-03  5.10340E-03  7.69728E-03  9.51084E-03  1.04173E-02
   1.05887E-02  9.85633E-03  8.93844E-03  8.05622E-03  6.74251E-03  5.15002E-03  3.40707E-03  1.57474E-03 -3.17808E-04 -2.32904E-03
  -4.34330E-03 -6.12595E-03 -8.02707E-03 -1.03259E-02 -1.29070E-02 -1.56809E-02 -1.83768E-02 -2.06869E-02 -2.26198E-02 -2.40554E-02
  -2.52961E-02 -2.59264E-02 -2.67479E-02 -2.86083E-02 -3.07072E-02 -3.26011E-02 -3.42073E-02 -3.38897E-02 -3.00753E-02 -2.32122E-02
  -1.42611E-02 -8.56741E-03 -8.02983E-03 -1.09431E-02 -1.67307E-02 -2.72383E-02 -3.63919E-02 -3.80137E-02 -3.21101E-02 -2.13283E-02
  -9.79269E-03 -7.45913E-04  4.85630E-03  7.12122E-03  4.58355E-03  4.53762E-03  7.86282E-03  1.20900E-02  1.65913E-02  2.12894E-02
   2.61115E-02  3.08924E-02  3.52187E-02  3.93270E-02  4.38089E-02  4.91696E-02  5.52770E-02  6.19035E-02  6.87155E-02  7.55707E-02
   8.21799E-02  8.81358E-02  9.40689E-02  9.99723E-02  1.05742E-01  1.11324E-01  1.16727E-01  1.22551E-01  1.27823E-01  1.29204E-01
   1.28054E-01  1.27840E-01  1.30253E-01  1.35892E-01  1.44993E-01  1.58700E-01  1.72287E-01  1.78379E-01  1.74624E-01  1.66912E-01
   1.59684E-01  1.55340E-01  1.55349E-01  1.63284E-01  1.79941E-01  1.96010E-01  2.08692E-01  2.18097E-01  2.24283E-01  2.27740E-01
   2.28482E-01  2.28653E-01  2.31523E-01  2.35106E-01  2.38628E-01  2.41943E-01  2.44705E-01  2.46543E-01  2.46522E-01  2.45073E-01
   2.42310E-01  2.38876E-01  2.34796E-01  2.30077E-01  2.24812E-01  2.19123E-01  2.13136E-01  2.06968E-01  2.00772E-01  1.94663E-01
   1.88739E-01  1.83086E-01  1.77779E-01  1.72876E-01  1.68418E-01  1.64430E-01  1.60922E-01  1.57910E-01  1.55391E-01  1.53347E-01
   1.51762E-01  1.50621E-01  1.49904E-01  1.49593E-01  1.49670E-01  1.50111E-01  1.50894E-01  1.51992E-01  1.53383E-01  1.55061E-01
   1.57013E-01  1.59239E-01  1.61735E-01  1.64489E-01  1.67494E-01  1.70747E-01  1.74250E-01  1.78009E-01  1.82032E-01  1.86328E-01
   1.90923E-01  1.95833E-01  2.01072E-01  2.06660E-01  2.12616E-01  2.18972E-01  2.25772E-01  2.33068E-01  2.40911E-01  2.49356E-01
   2.58467E-01  2.68336E-01  2.79084E-01  2.90854E-01  3.03815E-01  3.18166E-01  3.34178E-01  3.52236E-01  3.72869E-01  3.96767E-01
   4.24816E-01  4.57950E-01  4.86385E-01  5.07283E-01  7.85092E-01  1.17387E+00  1.27778E+00  1.05757E+00  6.00268E-01  5.79251E-02
  -3.18113E-01 -6.19036E-01 -7.72930E-01 -2.54141E-01  4.38798E-01  1.00726E+00  1.51223E+00  1.75517E+00  1.70825E+00  1.52135E+00
   1.16505E+00  9.88731E-01  1.12100E+00  1.21851E+00  1.30363E+00  1.39807E+00  1.47509E+00  1.52592E+00  1.55576E+00  1.57253E+00
   1.59228E+00  1.61283E+00  1.64354E+00  1.71525E+00  1.80126E+00  1.86378E+00  1.90948E+00  1.92739E+00  1.91804E+00  1.89161E+00
   1.84594E+00  1.80948E+00  1.78349E+00  1.74776E+00  1.70467E+00  1.65636E+00  1.60408E+00  1.54891E+00  1.49184E+00  1.43384E+00
   1.37580E+00  1.31854E+00  1.26280E+00  1.20922E+00  1.15839E+00  1.11075E+00  1.06671E+00  1.02655E+00  9.90493E-01  9.58707E-01
   9.31292E-01  9.08301E-01  8.89737E-01  8.75566E-01  8.65715E-01  8.60079E-01  8.58514E-01  8.60831E-01  8.66797E-01  8.76127E-01
   8.88485E-01  9.03477E-01  9.20652E-01  9.39496E-01  9.59443E-01  9.79879E-01  1.00016E+00  1.01962E+00  1.03759E+00  1.05343E+00
   1.06652E+00  1.07633E+00  1.08240E+00  1.08436E+00  1.08199E+00  1.07516E+00  1.06388E+00  1.04830E+00  1.02867E+00  1.00535E+00
   9.78788E-01  9.49486E-01  9.17998E-01  8.84896E-01  8.50749E-01  8.16103E-01  7.81463E-01  7.47281E-01  7.13951E-01  6.81799E-01
   6.51083E-01  6.21995E-01  5.94662E-01  5.69157E-01  5.45502E-01  5.23682E-01  5.03649E-01  4.85326E-01  4.68620E-01  4.53427E-01
   4.39637E-01  4.27140E-01  4.15825E-01  4.05585E-01  3.96318E-01  3.87931E-01  3.80337E-01  3.73459E-01  3.67225E-01  3.61568E-01
   3.56431E-01  3.51764E-01  3.47520E-01  3.43660E-01  3.40147E-01  3.36947E-01  3.34031E-01  3.31376E-01  3.28958E-01  3.26759E-01
   3.24757E-01  3.22937E-01  3.21284E-01  3.19787E-01  3.18433E-01  3.17213E-01  3.16113E-01  3.15127E-01  3.14247E-01  3.13466E-01
   3.12778E-01  3.12175E-01  3.11652E-01  3.11204E-01  3.10826E-01  3.10516E-01  3.10269E-01  3.10080E-01  3.09945E-01  3.09862E-01
   3.09829E-01  3.09844E-01  3.09902E-01  3.10002E-01  3.10140E-01  3.10317E-01  3.10530E-01  3.10778E-01  3.11057E-01  3.11366E-01
   3.11704E-01  3.12071E-01  3.12465E-01  3.12886E-01  3.13329E-01  3.13795E-01  3.14283E-01  3.14793E-01  3.15325E-01  3.15877E-01
   3.16445E-01  3.17032E-01  3.17636E-01  3.18258E-01  3.18897E-01  3.19551E-01  3.20218E-01  3.20900E-01
 NY background values follow
    -2.955E-01   -2.943E-01   -2.931E-01   -2.919E-01   -2.907E-01   -2.896E-01   -2.884E-01   -2.872E-01   -2.860E-01   -2.848E-01
    -2.837E-01   -2.825E-01   -2.813E-01   -2.801E-01   -2.789E-01   -2.777E-01   -2.766E-01   -2.754E-01   -2.742E-01   -2.730E-01
    -2.718E-01   -2.707E-01   -2.695E-01   -2.683E-01   -2.671E-01   -2.659E-01   -2.648E-01   -2.636E-01   -2.624E-01   -2.612E-01
    -2.600E-01   -2.588E-01   -2.577E-01   -2.565E-01   -2.553E-01   -2.541E-01   -2.529E-01   -2.518E-01   -2.506E-01   -2.494E-01
    -2.482E-01   -2.470E-01   -2.458E-01   -2.447E-01   -2.435E-01   -2.423E-01   -2.411E-01   -2.399E-01   -2.388E-01   -2.376E-01
    -2.364E-01   -2.352E-01   -2.340E-01   -2.329E-01   -2.317E-01   -2.305E-01   -2.293E-01   -2.281E-01   -2.269E-01   -2.258E-01
    -2.246E-01   -2.234E-01   -2.222E-01   -2.210E-01   -2.199E-01   -2.187E-01   -2.175E-01   -2.163E-01   -2.151E-01   -2.140E-01
    -2.128E-01   -2.116E-01   -2.104E-01   -2.092E-01   -2.080E-01   -2.069E-01   -2.057E-01   -2.045E-01   -2.033E-01   -2.021E-01
    -2.010E-01   -1.998E-01   -1.986E-01   -1.974E-01   -1.962E-01   -1.951E-01   -1.939E-01   -1.927E-01   -1.915E-01   -1.903E-01
    -1.891E-01   -1.880E-01   -1.868E-01   -1.856E-01   -1.844E-01   -1.832E-01   -1.821E-01   -1.809E-01   -1.797E-01   -1.785E-01
    -1.773E-01   -1.761E-01   -1.750E-01   -1.738E-01   -1.726E-01   -1.714E-01   -1.702E-01   -1.691E-01   -1.679E-01   -1.667E-01
    -1.655E-01   -1.643E-01   -1.632E-01   -1.620E-01   -1.608E-01   -1.596E-01   -1.584E-01   -1.572E-01   -1.561E-01   -1.549E-01
    -1.537E-01   -1.525E-01   -1.513E-01   -1.502E-01   -1.490E-01   -1.478E-01   -1.466E-01   -1.454E-01   -1.443E-01   -1.431E-01
    -1.419E-01   -1.407E-01   -1.395E-01   -1.383E-01   -1.372E-01   -1.360E-01   -1.348E-01   -1.336E-01   -1.324E-01   -1.313E-01
    -1.301E-01   -1.289E-01   -1.277E-01   -1.265E-01   -1.253E-01   -1.242E-01   -1.230E-01   -1.218E-01   -1.206E-01   -1.194E-01
    -1.183E-01   -1.171E-01   -1.159E-01   -1.147E-01   -1.135E-01   -1.124E-01   -1.112E-01   -1.100E-01   -1.088E-01   -1.076E-01
    -1.064E-01   -1.053E-01   -1.041E-01   -1.029E-01   -1.017E-01   -1.005E-01   -9.936E-02   -9.818E-02   -9.700E-02   -9.581E-02
    -9.463E-02   -9.345E-02   -9.227E-02   -9.109E-02   -8.991E-02   -8.873E-02   -8.754E-02   -8.636E-02   -8.518E-02   -8.400E-02
    -8.282E-02   -8.164E-02   -8.046E-02   -7.927E-02   -7.809E-02   -7.691E-02   -7.573E-02   -7.455E-02   -7.337E-02   -7.219E-02
    -7.100E-02   -6.982E-02   -6.864E-02   -6.746E-02   -6.628E-02   -6.510E-02   -6.392E-02   -6.273E-02   -6.155E-02   -6.037E-02
    -5.919E-02   -5.801E-02   -5.683E-02   -5.564E-02   -5.446E-02   -5.328E-02   -5.210E-02   -5.092E-02   -4.974E-02   -4.856E-02
    -4.737E-02   -4.619E-02   -4.501E-02   -4.383E-02   -4.265E-02   -4.147E-02   -4.029E-02   -3.910E-02   -3.792E-02   -3.674E-02
    -3.556E-02   -3.438E-02   -3.320E-02   -3.202E-02   -3.083E-02   -2.965E-02   -2.847E-02   -2.729E-02   -2.611E-02   -2.493E-02
    -2.374E-02   -2.256E-02   -2.138E-02   -2.020E-02   -1.902E-02   -1.784E-02   -1.666E-02   -1.547E-02   -1.429E-02   -1.311E-02
    -1.193E-02   -1.075E-02   -9.567E-03   -8.385E-03   -7.204E-03   -6.022E-03   -4.841E-03   -3.659E-03   -2.478E-03   -1.296E-03
    -1.149E-04    1.067E-03    2.248E-03    3.430E-03    4.611E-03    5.793E-03    6.974E-03    8.156E-03    9.337E-03    1.052E-02
     1.170E-02    1.288E-02    1.406E-02    1.524E-02    1.643E-02    1.761E-02    1.879E-02    1.997E-02    2.115E-02    2.233E-02
     2.352E-02    2.470E-02    2.588E-02    2.706E-02    2.824E-02    2.942E-02    3.060E-02    3.179E-02    3.297E-02    3.415E-02
     3.533E-02    3.651E-02    3.769E-02    3.888E-02    4.006E-02    4.124E-02    4.242E-02    4.360E-02    4.478E-02    4.596E-02
     4.715E-02    4.833E-02    4.951E-02    5.069E-02    5.187E-02    5.305E-02    5.424E-02    5.542E-02    5.660E-02    5.778E-02
     5.896E-02    6.014E-02    6.132E-02    6.251E-02    6.369E-02    6.487E-02    6.605E-02    6.723E-02    6.841E-02    6.960E-02
     7.078E-02    7.196E-02    7.314E-02    7.432E-02    7.550E-02    7.668E-02    7.787E-02    7.905E-02    8.023E-02    8.141E-02
     8.259E-02    8.377E-02    8.496E-02    8.614E-02    8.732E-02    8.850E-02    8.968E-02    9.086E-02    9.204E-02    9.323E-02
     9.441E-02    9.559E-02    9.677E-02    9.795E-02    9.913E-02    1.003E-01    1.015E-01    1.027E-01    1.039E-01    1.050E-01
     1.062E-01    1.074E-01    1.086E-01    1.098E-01    1.109E-01    1.121E-01    1.133E-01    1.145E-01    1.157E-01    1.169E-01
     1.180E-01    1.192E-01    1.204E-01    1.216E-01    1.228E-01    1.239E-01    1.251E-01    1.263E-01    1.275E-01    1.287E-01
     1.299E-01    1.310E-01    1.322E-01    1.334E-01    1.346E-01    1.358E-01    1.369E-01    1.381E-01    1.393E-01    1.405E-01
     1.417E-01    1.429E-01    1.440E-01    1.452E-01    1.464E-01    1.476E-01    1.488E-01    1.499E-01    1.511E-01    1.523E-01
     1.535E-01    1.547E-01    1.558E-01    1.570E-01    1.582E-01    1.594E-01    1.606E-01    1.618E-01    1.629E-01    1.641E-01
     1.653E-01    1.665E-01    1.677E-01    1.688E-01    1.700E-01    1.712E-01    1.724E-01    1.736E-01    1.748E-01    1.759E-01
     1.771E-01    1.783E-01    1.795E-01    1.807E-01    1.818E-01    1.830E-01    1.842E-01    1.854E-01    1.866E-01    1.878E-01
     1.889E-01    1.901E-01    1.913E-01    1.925E-01    1.937E-01    1.948E-01    1.960E-01    1.972E-01    1.984E-01    1.996E-01
     2.007E-01    2.019E-01    2.031E-01    2.043E-01    2.055E-01    2.067E-01    2.078E-01    2.090E-01    2.102E-01    2.114E-01
     2.126E-01    2.137E-01    2.149E-01    2.161E-01    2.173E-01    2.185E-01    2.197E-01    2.208E-01    2.220E-01    2.232E-01
     2.244E-01    2.256E-01    2.267E-01    2.279E-01    2.291E-01    2.303E-01    2.315E-01    2.327E-01    2.338E-01    2.350E-01
     2.362E-01    2.374E-01    2.386E-01    2.397E-01    2.409E-01    2.421E-01    2.433E-01    2.445E-01    2.456E-01    2.468E-01
     2.480E-01    2.492E-01    2.504E-01    2.516E-01    2.527E-01    2.539E-01    2.551E-01    2.563E-01    2.575E-01    2.586E-01
     2.598E-01    2.610E-01    2.622E-01    2.634E-01    2.646E-01    2.657E-01    2.669E-01    2.681E-01    2.693E-01    2.705E-01
     2.716E-01    2.728E-01    2.740E-01    2.752E-01    2.764E-01    2.776E-01    2.787E-01    2.799E-01    2.811E-01    2.823E-01
     2.835E-01    2.846E-01    2.858E-01    2.870E-01    2.882E-01    2.894E-01    2.905E-01    2.917E-01
 Ala      Conc. = 3.28E+01
