 LCModel (Version 6.3-1L) Copyright: S.W. Provencher.          Ref.: Magn. Reson. Med. 30:672-679 (1993).                
 Slice#1 Row#13 Col#11  PD_05_press_1_raw_act
 36 lines in following concentration table = NCONC+1
    Conc.  %SD /Cr+PCr  Metabolite                                         
    0.000 999%   0.000 Ala                                                 
    7.874  61%   0.245 Asp                                                 
   32.125  61%   1.000 Cr                                                  
    0.000 999%   0.000 PCr                                                 
    4.859  60%   0.151 GABA                                                
    4.776  61%   0.149 Glc                                                 
  262.660  72%   8.176 Gln                                                 
  245.341  86%   7.637 Glu                                                 
    7.881 100%   0.245 GPC                                                 
    0.000 999%   0.000 PCh                                                 
   60.855  57%   1.894 GSH                                                 
   48.967 223%   1.524 Ins                                                 
   60.099 134%   1.871 Lac                                                 
    0.000 999%   0.000 NAA                                                 
  103.591  19%   3.225 NAAG                                                
    1.543  63% 4.8E-02 Scyllo                                              
    7.802  62%   0.243 Tau                                                 
    1.929 490% 6.0E-02 -CrCH2                                              
    7.881 100%   0.245 GPC+PCh                                             
  103.591  19%   3.225 NAA+NAAG                                            
   32.125  61%   1.000 Cr+PCr                                              
  508.002  70%  15.813 Glu+Gln                                             
    0.000 999%   0.000 Lip13a                                              
    0.000 999%   0.000 Lip13b                                              
    0.000 999%   0.000 Lip09                                               
 2.02E-03 999% 6.3E-05 MM09                                                
 3.48E-05 999% 1.1E-06 Lip20                                               
 3.99E-03 999% 1.2E-04 MM20                                                
 5.69E-04 999% 1.8E-05 MM12                                                
    0.000 999%   0.000 MM14                                                
 2.53E-03 999% 7.9E-05 MM17                                                
    0.000 999%   0.000 Lip13a+Lip13b                                       
 5.69E-04 999% 1.8E-05 MM14+Lip13a+Lip13b+MM12                             
 2.02E-03 999% 6.3E-05 MM09+Lip09                                          
 4.02E-03 999% 1.3E-04 MM20+Lip20                                          
   6 lines in following misc. output table
  FWHM = 0.099 ppm    S/N =   1                                            
  Data shift = 0.000 ppm                                                   
  Ph:  49 deg       6.6 deg/ppm                                            
  alphaB,S = 8.5E+01,   2.0E+02                                            
   14 spline knots.   Ns =11(1)                                            
  ( 5) 9 infls.   ( 5) 1 extrs.                                            
  498 points on ppm-axis = NY
      4.000000     3.992357     3.984714     3.977070     3.969427     3.961784     3.954141     3.946497     3.938854     3.931211
      3.923568     3.915925     3.908281     3.900638     3.892995     3.885352     3.877708     3.870065     3.862422     3.854779
      3.847136     3.839492     3.831849     3.824206     3.816563     3.808919     3.801276     3.793633     3.785990     3.778347
      3.770703     3.763060     3.755417     3.747774     3.740130     3.732487     3.724844     3.717201     3.709558     3.701914
      3.694271     3.686628     3.678985     3.671341     3.663698     3.656055     3.648412     3.640769     3.633125     3.625482
      3.617839     3.610196     3.602552     3.594909     3.587266     3.579623     3.571980     3.564336     3.556693     3.549050
      3.541407     3.533763     3.526120     3.518477     3.510834     3.503191     3.495547     3.487904     3.480261     3.472618
      3.464974     3.457331     3.449688     3.442045     3.434402     3.426758     3.419115     3.411472     3.403829     3.396185
      3.388542     3.380899     3.373256     3.365613     3.357969     3.350326     3.342683     3.335040     3.327396     3.319753
      3.312110     3.304467     3.296824     3.289180     3.281537     3.273894     3.266251     3.258607     3.250964     3.243321
      3.235678     3.228034     3.220391     3.212748     3.205105     3.197462     3.189818     3.182175     3.174532     3.166889
      3.159245     3.151602     3.143959     3.136316     3.128673     3.121029     3.113386     3.105743     3.098100     3.090456
      3.082813     3.075170     3.067527     3.059884     3.052240     3.044597     3.036954     3.029311     3.021667     3.014024
      3.006381     2.998738     2.991095     2.983451     2.975808     2.968165     2.960522     2.952878     2.945235     2.937592
      2.929949     2.922306     2.914662     2.907019     2.899376     2.891733     2.884089     2.876446     2.868803     2.861160
      2.853517     2.845873     2.838230     2.830587     2.822944     2.815300     2.807657     2.800014     2.792371     2.784728
      2.777084     2.769441     2.761798     2.754155     2.746511     2.738868     2.731225     2.723582     2.715939     2.708295
      2.700652     2.693009     2.685366     2.677722     2.670079     2.662436     2.654793     2.647150     2.639506     2.631863
      2.624220     2.616577     2.608933     2.601290     2.593647     2.586004     2.578361     2.570717     2.563074     2.555431
      2.547788     2.540144     2.532501     2.524858     2.517215     2.509572     2.501928     2.494285     2.486642     2.478999
      2.471355     2.463712     2.456069     2.448426     2.440783     2.433139     2.425496     2.417853     2.410210     2.402566
      2.394923     2.387280     2.379637     2.371994     2.364350     2.356707     2.349064     2.341421     2.333777     2.326134
      2.318491     2.310848     2.303205     2.295561     2.287918     2.280275     2.272632     2.264988     2.257345     2.249702
      2.242059     2.234416     2.226772     2.219129     2.211486     2.203843     2.196199     2.188556     2.180913     2.173270
      2.165627     2.157983     2.150340     2.142697     2.135054     2.127410     2.119767     2.112124     2.104481     2.096838
      2.089194     2.081551     2.073908     2.066265     2.058621     2.050978     2.043335     2.035692     2.028049     2.020405
      2.012762     2.005119     1.997476     1.989833     1.982190     1.974546     1.966903     1.959260     1.951617     1.943974
      1.936331     1.928688     1.921045     1.913402     1.905759     1.898115     1.890472     1.882829     1.875186     1.867543
      1.859900     1.852257     1.844614     1.836971     1.829327     1.821684     1.814041     1.806398     1.798755     1.791112
      1.783469     1.775826     1.768183     1.760540     1.752896     1.745253     1.737610     1.729967     1.722324     1.714681
      1.707038     1.699395     1.691752     1.684108     1.676465     1.668822     1.661179     1.653536     1.645893     1.638250
      1.630607     1.622964     1.615321     1.607677     1.600034     1.592391     1.584748     1.577105     1.569462     1.561819
      1.554176     1.546533     1.538890     1.531246     1.523603     1.515960     1.508317     1.500674     1.493031     1.485388
      1.477745     1.470102     1.462458     1.454815     1.447172     1.439529     1.431886     1.424243     1.416600     1.408957
      1.401314     1.393671     1.386027     1.378384     1.370741     1.363098     1.355455     1.347812     1.340169     1.332526
      1.324883     1.317240     1.309596     1.301953     1.294310     1.286667     1.279024     1.271381     1.263738     1.256095
      1.248452     1.240808     1.233165     1.225522     1.217879     1.210236     1.202593     1.194950     1.187307     1.179664
      1.172021     1.164377     1.156734     1.149091     1.141448     1.133805     1.126162     1.118519     1.110876     1.103233
      1.095590     1.087946     1.080303     1.072660     1.065017     1.057374     1.049731     1.042088     1.034445     1.026802
      1.019158     1.011515     1.003872     0.996229     0.988586     0.980943     0.973300     0.965657     0.958014     0.950371
      0.942727     0.935084     0.927441     0.919798     0.912155     0.904512     0.896869     0.889226     0.881583     0.873940
      0.866296     0.858653     0.851010     0.843367     0.835724     0.828081     0.820438     0.812795     0.805152     0.797508
      0.789865     0.782222     0.774579     0.766936     0.759293     0.751650     0.744007     0.736364     0.728721     0.721077
      0.713434     0.705791     0.698148     0.690505     0.682862     0.675219     0.667576     0.659933     0.652290     0.644646
      0.637003     0.629360     0.621717     0.614074     0.606431     0.598788     0.591145     0.583502     0.575858     0.568215
      0.560572     0.552929     0.545286     0.537643     0.530000     0.522357     0.514714     0.507071     0.499427     0.491784
      0.484141     0.476498     0.468855     0.461212     0.453569     0.445925     0.438282     0.430639     0.422996     0.415353
      0.407710     0.400067     0.392424     0.384780     0.377137     0.369494     0.361851     0.354208     0.346565     0.338922
      0.331278     0.323635     0.315992     0.308349     0.300706     0.293063     0.285420     0.277777     0.270133     0.262490
      0.254847     0.247204     0.239561     0.231918     0.224275     0.216631     0.208988     0.201345
 NY phased data points follow
   9.02530E-01  1.12814E-01  8.44252E-01  8.21990E-01  1.89794E+00  2.01938E+00  1.45091E+00  1.55963E+00  1.69012E+00  1.43138E+00
   1.80691E+00  6.55945E-01 -1.71592E-01  8.62061E-01  2.46202E+00  1.43140E+00 -3.80969E-01  8.21574E-01  2.94135E+00  8.25974E-01
   2.68650E+00  2.77121E-01  9.17094E-01  1.85612E-01  6.89456E-01  1.11663E+00  1.86525E+00  3.50016E-01  1.77274E+00  7.88655E-01
   3.10848E-01  5.21870E-01 -1.18763E-02  2.35467E-01 -3.77790E-01  2.02030E-01  6.24033E-01 -6.64078E-02  1.56440E+00 -1.08479E+00
   1.22845E+00 -7.35578E-01 -5.81968E-01  7.14072E-01  6.27867E-01 -6.85563E-01 -1.00447E+00 -2.22447E-01  7.54629E-01  1.10153E+00
   1.03708E+00  1.27685E+00  3.60208E-01  4.61297E-01  2.10161E+00  5.86437E-01  2.76691E-01 -3.78227E-01  7.18882E-01  4.79609E-02
   1.65137E+00 -1.00321E+00 -9.33080E-01 -4.51026E-01 -1.07053E+00  1.95131E+00 -4.88169E-01 -1.83254E+00  1.88769E+00 -1.38866E-01
   1.45963E+00 -1.31488E+00 -8.91451E-01 -1.38202E+00  3.93613E-01  9.74873E-01 -1.55957E+00 -7.83004E-02  6.20339E-01  1.38325E+00
   2.55453E-02  7.68447E-01  7.06767E-01  2.47900E-01 -2.46221E-01 -2.99802E-01 -6.21660E-01 -6.57377E-02 -1.52268E+00  5.70546E-01
   5.96715E-01 -2.74029E-01  1.48489E+00  2.09385E+00  7.78591E-01 -1.26492E+00  1.26571E-01 -1.39719E-01  1.22053E+00  1.34300E+00
   1.02648E+00 -8.72168E-01  1.28424E+00  1.26803E-01  1.12124E+00  1.62794E+00  9.19509E-01 -2.50656E-01  6.61908E-01 -3.41249E-01
   2.57777E-01  5.46561E-02 -6.25640E-02 -1.34265E+00  1.95044E-01  1.06256E-01  1.19501E+00 -1.38369E-01 -1.09630E+00  9.59568E-01
   1.78658E+00  8.38573E-01  8.00082E-01 -5.41249E-01  1.86259E+00  9.09005E-01  2.00704E+00  7.26316E-01 -8.02632E-01 -8.95062E-01
   3.03084E+00 -1.05840E+00  1.86454E+00  6.08041E-01 -2.55901E+00  2.96406E-02 -1.01106E+00 -2.74522E-02 -2.64984E-01  3.86348E-01
   1.82208E+00  1.10294E+00  1.56270E-01  2.34219E+00 -1.47347E+00 -1.17662E+00  3.65380E-01 -3.75213E-01 -9.30796E-01  5.15326E-01
   1.73088E+00  9.77944E-01 -1.17451E-01  1.35544E+00  8.02085E-02  1.93084E-01 -5.55130E-01  9.59541E-01  1.22789E+00 -7.83660E-01
  -1.03821E+00  1.06769E+00 -1.09936E+00  5.61530E-01 -8.94794E-01 -1.09786E+00  1.43423E+00 -2.24942E+00 -1.56341E+00 -3.14321E-01
   1.74902E+00 -3.52596E-01 -6.18282E-01  3.19230E-01  1.51434E+00  1.34285E-01  1.30327E-01  4.94656E-01 -1.12323E+00 -3.36151E-02
  -5.28655E-01 -2.39001E-01  2.07834E-02  2.05500E+00 -7.83815E-01  2.38062E-01  2.26602E+00  4.92863E-01  4.95723E-02  1.82351E+00
   3.74253E-01 -8.23789E-01  1.29817E-01  7.12897E-02  1.65732E-01 -1.02405E+00  2.30208E-01 -8.36549E-01 -2.91294E-01 -1.04117E+00
   1.07971E-01 -2.96897E-02 -1.82578E+00  7.65726E-02 -1.06866E+00 -1.09517E-01 -1.80238E+00 -1.02119E+00 -9.11763E-01  4.30716E-01
   7.92888E-01  4.37850E-01  3.62499E-01  1.13881E+00 -1.56163E+00 -8.61264E-01  9.50535E-01 -7.04640E-05  9.11845E-01  1.05710E+00
   7.30709E-01 -1.08828E+00  2.64595E-01 -6.22755E-01 -1.02079E+00  9.65974E-01  1.70649E+00  1.30083E-01 -1.00380E+00 -8.14315E-01
  -1.23821E+00  8.25515E-02 -8.79096E-01 -3.39716E-01 -6.11145E-01 -5.64469E-01  1.48510E+00  4.92080E-03  1.19236E+00  8.65596E-02
   2.80518E+00  1.06335E+00  2.72003E-01 -1.03627E+00  1.05145E+00 -9.95167E-01  9.78347E-01  7.10391E-01 -8.19317E-01  2.38584E+00
  -1.29490E-01  1.55417E+00  2.18124E+00  1.50497E+00  1.39530E-01  2.92868E+00  1.05942E+00  1.21809E+00  1.63683E+00  1.27280E+00
   1.89084E+00 -5.29115E-03  2.16811E+00  7.85784E-01  6.77974E-01  1.31980E+00 -9.56646E-01 -1.50711E+00  8.16611E-02  1.36886E+00
   2.98905E-02  2.80733E-01  5.43512E-02 -3.64877E-01 -1.01051E+00 -1.32717E+00 -1.50381E+00  8.18373E-01 -4.01501E-01  4.48847E-02
   9.44515E-02  5.62555E-01  1.45472E+00  2.12994E+00  9.68181E-01 -9.68892E-01 -7.20073E-01  6.06679E-01 -8.57870E-01 -1.03777E+00
  -1.39541E+00 -8.92142E-01 -1.42557E+00 -1.47116E+00 -3.73027E-01 -2.01335E+00  2.98600E-01  1.18739E+00  9.31227E-01  1.03101E+00
   6.47583E-01 -3.54642E-01 -7.15118E-01  2.50925E-01  1.37770E+00 -4.69737E-01  4.78756E-01 -3.02399E-01 -1.46129E-01  8.06561E-01
  -1.41136E+00  4.64072E-01 -6.86474E-01 -2.13768E-02 -1.05883E+00 -8.50021E-01  9.99826E-01 -1.89212E+00 -9.88332E-01 -8.73733E-01
  -1.20498E+00  1.01970E+00 -2.53840E-01 -5.36147E-01  1.24397E+00  2.28987E+00 -2.49781E+00 -8.19646E-01 -8.40425E-01  1.38760E+00
  -1.52299E-01 -1.06075E+00  8.81130E-01 -1.77505E+00 -1.35197E+00 -3.53005E-01 -8.90103E-01  4.74566E-01 -1.32311E+00 -3.08606E-02
   3.34188E-01  8.44346E-02 -1.67847E+00 -1.51495E+00 -6.61272E-01 -3.97631E-01  7.38798E-01 -4.67138E-01 -1.68695E+00 -4.31863E-01
  -1.52758E+00 -1.34965E+00 -1.50656E+00 -9.66611E-01 -7.58248E-01 -1.22327E+00 -3.53205E-01 -1.32201E+00 -2.50514E+00 -1.78855E+00
  -7.57228E-01  1.32827E-01  1.81019E-01 -1.72811E+00 -6.46101E-01  3.52583E-01  9.59506E-01  4.64979E-02  5.19370E-01 -6.71222E-01
  -8.38519E-01 -1.54180E+00  8.15173E-01  1.55628E+00 -5.56902E-01  8.55920E-01 -5.47382E-01 -1.31102E+00 -6.03882E-01 -2.38073E-02
   3.76444E-01 -3.47338E-01 -1.39722E+00 -9.65066E-01 -1.66183E+00 -1.03917E+00  1.83921E-01 -1.88914E+00  7.46376E-02 -1.70038E+00
   4.41918E-02 -6.13394E-01 -1.97918E+00 -3.05362E+00 -1.92628E+00 -2.10643E+00 -1.09885E+00 -8.35848E-01 -2.07331E+00 -2.42286E-01
   1.03966E+00 -1.94204E+00 -1.73226E+00 -2.39038E+00 -4.93923E-01 -3.98509E-01 -1.26215E+00 -1.28916E+00 -1.86525E+00  9.01882E-01
  -2.57911E-01  1.18476E-01 -5.24268E-01 -1.32370E+00 -2.55181E+00 -1.70648E+00  1.47032E+00 -1.66130E+00 -1.21519E+00  1.42398E-01
   4.07741E-01 -2.07197E+00 -4.13800E-02 -1.06210E+00  1.85057E+00  6.63749E-01 -7.26533E-01  9.01589E-01 -1.15250E+00 -6.11122E-01
  -1.90176E+00 -6.60998E-01 -3.22984E-01 -3.52776E-01  1.77710E-01 -1.88672E+00 -2.01952E+00 -7.62027E-01 -1.30615E+00  2.15176E-01
  -1.19771E+00 -3.31723E-01 -1.07869E+00 -5.47147E-01 -8.60041E-01 -2.26084E+00  7.44813E-01 -1.31797E+00 -1.09418E+00 -1.57382E+00
  -8.92347E-01 -3.51550E-01 -1.43170E+00 -7.53936E-01 -8.93901E-02  1.21723E-01 -7.37472E-01 -1.45718E+00 -1.02371E+00  5.66487E-01
  -2.07656E+00 -1.70843E+00 -9.37538E-01  5.38973E-01  1.28724E-01 -1.43610E+00 -1.19187E+00 -2.84369E-01 -3.66947E-02 -1.80121E+00
   5.66973E-01  2.11990E+00  9.94123E-02 -2.58797E-01  2.15703E-01 -1.17907E+00 -1.65066E+00 -1.93862E+00 -6.51405E-01 -1.86558E+00
   1.12812E+00 -1.39491E+00 -4.22612E-01  3.98876E-01 -6.93777E-01 -9.80350E-01  2.16961E+00 -6.08144E-01 -2.15525E+00 -5.45648E-01
  -1.35992E+00 -1.57722E-01 -1.26173E+00  8.54692E-01 -7.72904E-01  1.92235E-01 -2.54774E-01  1.93358E+00
 NY points of the fit to the data follow
   7.70351E-01  8.00621E-01  8.35944E-01  8.74854E-01  9.14159E-01  9.48897E-01  9.74668E-01  9.88445E-01  9.89941E-01  9.80016E-01
   9.61608E-01  9.40425E-01  9.21543E-01  9.07090E-01  8.96728E-01  8.84817E-01  8.67860E-01  8.48192E-01  8.38642E-01  8.51151E-01
   8.85221E-01  9.45133E-01  1.02431E+00  1.11111E+00  1.18781E+00  1.23304E+00  1.23564E+00  1.19257E+00  1.10836E+00  9.90418E-01
   8.49094E-01  7.00422E-01  5.62023E-01  4.48278E-01  3.66469E-01  3.15318E-01  2.85240E-01  2.61659E-01  2.30388E-01  1.83778E-01
   1.31962E-01  9.48779E-02  9.10948E-02  1.19965E-01  1.65133E-01  2.16435E-01  2.53001E-01  2.64979E-01  2.52770E-01  2.24103E-01
   1.90521E-01  1.62832E-01  1.48500E-01  1.44908E-01  1.45428E-01  1.47316E-01  1.50201E-01  1.54879E-01  1.63386E-01  1.76961E-01
   1.94981E-01  2.14354E-01  2.31872E-01  2.46895E-01  2.60191E-01  2.71913E-01  2.81584E-01  2.89086E-01  2.94564E-01  2.98336E-01
   3.01098E-01  3.03979E-01  3.07654E-01  3.11522E-01  3.14919E-01  3.17371E-01  3.17790E-01  3.16009E-01  3.12652E-01  3.08635E-01
   3.04656E-01  3.01113E-01  2.98454E-01  2.97130E-01  2.98259E-01  3.02693E-01  3.10325E-01  3.21479E-01  3.36181E-01  3.53631E-01
   3.74122E-01  4.01262E-01  4.38639E-01  4.81664E-01  5.26204E-01  5.69563E-01  6.09104E-01  6.42127E-01  6.65647E-01  6.76113E-01
   6.70559E-01  6.49689E-01  6.16941E-01  5.77178E-01  5.35397E-01  4.95020E-01  4.57446E-01  4.22737E-01  3.90165E-01  3.58968E-01
   3.29111E-01  3.02222E-01  2.81360E-01  2.71447E-01  2.78934E-01  3.10599E-01  3.69385E-01  4.41316E-01  5.17108E-01  5.92800E-01
   6.65013E-01  7.30279E-01  7.85600E-01  8.25792E-01  8.43074E-01  8.33554E-01  7.97943E-01  7.40552E-01  6.69694E-01  5.93104E-01
   5.15990E-01  4.41001E-01  3.68489E-01  2.99365E-01  2.35666E-01  1.79607E-01  1.32979E-01  9.81003E-02  7.75758E-02  7.25980E-02
   7.95960E-02  8.51108E-02  8.44598E-02  8.03141E-02  7.58287E-02  7.33869E-02  7.22788E-02  6.78944E-02  5.56114E-02  3.56298E-02
   1.11945E-02 -1.33573E-02 -3.33853E-02 -4.73241E-02 -5.59644E-02 -6.19065E-02 -6.83174E-02 -7.59953E-02 -8.49359E-02 -9.46872E-02
  -1.03237E-01 -1.08756E-01 -1.10857E-01 -1.10553E-01 -1.09761E-01 -1.09886E-01 -1.11209E-01 -1.13630E-01 -1.15804E-01 -1.16452E-01
  -1.16088E-01 -1.16107E-01 -1.17434E-01 -1.19117E-01 -1.19945E-01 -1.19019E-01 -1.15677E-01 -1.09579E-01 -1.00079E-01 -8.55870E-02
  -6.47043E-02 -3.75058E-02 -7.21317E-03  2.11358E-02  4.52655E-02  5.98117E-02  5.82621E-02  3.80693E-02  2.77994E-03 -4.03062E-02
  -8.06638E-02 -1.07330E-01 -1.13011E-01 -9.46946E-02 -4.87770E-02  2.21631E-02  1.06757E-01  1.89140E-01  2.46533E-01  2.52662E-01
   2.05635E-01  1.21788E-01  1.74312E-02 -8.84932E-02 -1.75499E-01 -2.22884E-01 -2.26230E-01 -1.90755E-01 -1.23770E-01 -4.07669E-02
   3.87816E-02  9.41843E-02  1.13179E-01  9.86736E-02  6.44521E-02  2.33680E-02 -1.21330E-02 -2.85049E-02 -1.40068E-02  2.81302E-02
   7.99493E-02  1.20279E-01  1.32281E-01  1.09995E-01  7.13411E-02  2.67298E-02 -1.65532E-02 -4.14435E-02 -3.42444E-02  1.01207E-02
   7.95413E-02  1.57275E-01  2.22392E-01  2.61168E-01  2.63819E-01  2.25708E-01  1.55943E-01  7.27934E-02 -1.42460E-02 -1.02639E-01
  -1.83814E-01 -2.49473E-01 -2.92779E-01 -3.09450E-01 -2.89985E-01 -2.05975E-01 -5.64626E-02  1.38721E-01  3.59407E-01  5.92850E-01
   8.38183E-01  1.08789E+00  1.32209E+00  1.51992E+00  1.66303E+00  1.73490E+00  1.73205E+00  1.67701E+00  1.58994E+00  1.48098E+00
   1.35291E+00  1.20517E+00  1.03447E+00  8.40622E-01  6.30428E-01  4.15046E-01  2.11676E-01  4.34109E-02 -6.50304E-02 -1.05766E-01
  -1.17913E-01 -1.29920E-01 -1.46245E-01 -1.63194E-01 -1.78287E-01 -1.90861E-01 -2.00566E-01 -2.07153E-01 -2.12125E-01 -2.17150E-01
  -2.22056E-01 -2.27874E-01 -2.35475E-01 -2.45205E-01 -2.56535E-01 -2.68324E-01 -2.78738E-01 -2.86328E-01 -2.91444E-01 -2.95509E-01
  -2.99783E-01 -3.04694E-01 -3.10502E-01 -3.17531E-01 -3.25775E-01 -3.34422E-01 -3.42584E-01 -3.49898E-01 -3.56483E-01 -3.62354E-01
  -3.67822E-01 -3.73323E-01 -3.79172E-01 -3.85476E-01 -3.91999E-01 -3.98135E-01 -4.03690E-01 -4.08727E-01 -4.13317E-01 -4.17572E-01
  -4.21689E-01 -4.25953E-01 -4.30616E-01 -4.35556E-01 -4.40597E-01 -4.45664E-01 -4.50678E-01 -4.55601E-01 -4.60426E-01 -4.65141E-01
  -4.69733E-01 -4.74191E-01 -4.78497E-01 -4.82627E-01 -4.86554E-01 -4.90243E-01 -4.93650E-01 -4.96730E-01 -4.99412E-01 -5.01598E-01
  -5.03150E-01 -5.03860E-01 -5.03408E-01 -5.01256E-01 -4.96394E-01 -4.86417E-01 -4.65049E-01 -4.29662E-01 -3.87778E-01 -3.45813E-01
  -3.08683E-01 -2.81566E-01 -2.70666E-01 -2.83212E-01 -3.18657E-01 -3.69568E-01 -4.30542E-01 -4.95563E-01 -5.56721E-01 -6.06148E-01
  -6.38637E-01 -6.52661E-01 -6.50826E-01 -6.38681E-01 -6.22902E-01 -6.09393E-01 -6.00537E-01 -5.93812E-01 -5.82806E-01 -5.60370E-01
  -5.23167E-01 -4.79352E-01 -4.42912E-01 -4.18043E-01 -4.07199E-01 -4.12716E-01 -4.34659E-01 -4.68050E-01 -5.00253E-01 -5.23550E-01
  -5.41011E-01 -5.54972E-01 -5.66591E-01 -5.76528E-01 -5.85198E-01 -5.92876E-01 -5.99758E-01 -6.05991E-01 -6.11686E-01 -6.16926E-01
  -6.21774E-01 -6.26279E-01 -6.30484E-01 -6.34423E-01 -6.38127E-01 -6.41619E-01 -6.44916E-01 -6.48033E-01 -6.50984E-01 -6.53785E-01
  -6.56445E-01 -6.58973E-01 -6.61374E-01 -6.63656E-01 -6.65825E-01 -6.67887E-01 -6.69849E-01 -6.71711E-01 -6.73477E-01 -6.75151E-01
  -6.76735E-01 -6.78235E-01 -6.79651E-01 -6.80985E-01 -6.82237E-01 -6.83411E-01 -6.84508E-01 -6.85531E-01 -6.86479E-01 -6.87353E-01
  -6.88155E-01 -6.88885E-01 -6.89546E-01 -6.90139E-01 -6.90662E-01 -6.91116E-01 -6.91502E-01 -6.91822E-01 -6.92076E-01 -6.92264E-01
  -6.92386E-01 -6.92441E-01 -6.92432E-01 -6.92359E-01 -6.92222E-01 -6.92021E-01 -6.91756E-01 -6.91427E-01 -6.91034E-01 -6.90580E-01
  -6.90063E-01 -6.89484E-01 -6.88841E-01 -6.88136E-01 -6.87370E-01 -6.86544E-01 -6.85656E-01 -6.84706E-01 -6.83694E-01 -6.82622E-01
  -6.81489E-01 -6.80296E-01 -6.79042E-01 -6.77727E-01 -6.76352E-01 -6.74918E-01 -6.73424E-01 -6.71872E-01 -6.70259E-01 -6.68587E-01
  -6.66856E-01 -6.65068E-01 -6.63222E-01 -6.61317E-01 -6.59355E-01 -6.57335E-01 -6.55259E-01 -6.53126E-01 -6.50938E-01 -6.48693E-01
  -6.46392E-01 -6.44036E-01 -6.41626E-01 -6.39162E-01 -6.36644E-01 -6.34072E-01 -6.31448E-01 -6.28772E-01 -6.26046E-01 -6.23270E-01
  -6.20443E-01 -6.17568E-01 -6.14644E-01 -6.11675E-01 -6.08660E-01 -6.05601E-01 -6.02498E-01 -5.99354E-01 -5.96171E-01 -5.92950E-01
  -5.89692E-01 -5.86401E-01 -5.83077E-01 -5.79724E-01 -5.76346E-01 -5.72945E-01 -5.69524E-01 -5.66088E-01 -5.62640E-01 -5.59187E-01
  -5.55735E-01 -5.52289E-01 -5.48856E-01 -5.45446E-01 -5.42068E-01 -5.38734E-01 -5.35458E-01 -5.32254E-01
 NY background values follow
     2.148E-01    2.188E-01    2.227E-01    2.265E-01    2.303E-01    2.340E-01    2.377E-01    2.413E-01    2.448E-01    2.483E-01
     2.518E-01    2.551E-01    2.585E-01    2.617E-01    2.649E-01    2.681E-01    2.712E-01    2.742E-01    2.772E-01    2.801E-01
     2.830E-01    2.858E-01    2.886E-01    2.913E-01    2.939E-01    2.965E-01    2.990E-01    3.015E-01    3.039E-01    3.062E-01
     3.085E-01    3.108E-01    3.130E-01    3.151E-01    3.172E-01    3.192E-01    3.211E-01    3.230E-01    3.249E-01    3.267E-01
     3.284E-01    3.301E-01    3.317E-01    3.332E-01    3.347E-01    3.362E-01    3.376E-01    3.389E-01    3.402E-01    3.414E-01
     3.426E-01    3.437E-01    3.448E-01    3.458E-01    3.467E-01    3.476E-01    3.485E-01    3.492E-01    3.500E-01    3.506E-01
     3.513E-01    3.518E-01    3.523E-01    3.528E-01    3.532E-01    3.535E-01    3.538E-01    3.541E-01    3.542E-01    3.544E-01
     3.544E-01    3.545E-01    3.544E-01    3.544E-01    3.542E-01    3.540E-01    3.538E-01    3.535E-01    3.532E-01    3.528E-01
     3.523E-01    3.518E-01    3.513E-01    3.507E-01    3.500E-01    3.493E-01    3.485E-01    3.477E-01    3.469E-01    3.460E-01
     3.450E-01    3.440E-01    3.429E-01    3.418E-01    3.407E-01    3.395E-01    3.382E-01    3.369E-01    3.356E-01    3.342E-01
     3.327E-01    3.312E-01    3.297E-01    3.281E-01    3.264E-01    3.248E-01    3.230E-01    3.212E-01    3.194E-01    3.175E-01
     3.156E-01    3.137E-01    3.117E-01    3.096E-01    3.075E-01    3.054E-01    3.032E-01    3.009E-01    2.987E-01    2.963E-01
     2.940E-01    2.916E-01    2.891E-01    2.866E-01    2.841E-01    2.815E-01    2.789E-01    2.763E-01    2.736E-01    2.708E-01
     2.680E-01    2.652E-01    2.624E-01    2.594E-01    2.565E-01    2.535E-01    2.505E-01    2.474E-01    2.444E-01    2.412E-01
     2.380E-01    2.348E-01    2.316E-01    2.283E-01    2.250E-01    2.216E-01    2.182E-01    2.148E-01    2.113E-01    2.078E-01
     2.043E-01    2.007E-01    1.971E-01    1.935E-01    1.898E-01    1.861E-01    1.824E-01    1.786E-01    1.748E-01    1.710E-01
     1.671E-01    1.632E-01    1.593E-01    1.553E-01    1.513E-01    1.473E-01    1.433E-01    1.392E-01    1.351E-01    1.309E-01
     1.268E-01    1.226E-01    1.184E-01    1.141E-01    1.099E-01    1.056E-01    1.012E-01    9.689E-02    9.251E-02    8.811E-02
     8.368E-02    7.923E-02    7.476E-02    7.026E-02    6.574E-02    6.119E-02    5.663E-02    5.204E-02    4.743E-02    4.280E-02
     3.814E-02    3.347E-02    2.878E-02    2.406E-02    1.933E-02    1.457E-02    9.802E-03    5.012E-03    2.035E-04   -4.623E-03
    -9.466E-03   -1.433E-02   -1.920E-02   -2.410E-02   -2.901E-02   -3.393E-02   -3.887E-02   -4.382E-02   -4.879E-02   -5.378E-02
    -5.877E-02   -6.378E-02   -6.880E-02   -7.384E-02   -7.888E-02   -8.394E-02   -8.901E-02   -9.409E-02   -9.918E-02   -1.043E-01
    -1.094E-01   -1.145E-01   -1.196E-01   -1.248E-01   -1.299E-01   -1.351E-01   -1.402E-01   -1.454E-01   -1.506E-01   -1.557E-01
    -1.609E-01   -1.661E-01   -1.713E-01   -1.765E-01   -1.817E-01   -1.869E-01   -1.921E-01   -1.973E-01   -2.026E-01   -2.078E-01
    -2.130E-01   -2.182E-01   -2.234E-01   -2.287E-01   -2.339E-01   -2.391E-01   -2.443E-01   -2.495E-01   -2.548E-01   -2.600E-01
    -2.652E-01   -2.704E-01   -2.756E-01   -2.808E-01   -2.860E-01   -2.912E-01   -2.964E-01   -3.016E-01   -3.068E-01   -3.119E-01
    -3.171E-01   -3.223E-01   -3.274E-01   -3.326E-01   -3.377E-01   -3.428E-01   -3.480E-01   -3.531E-01   -3.582E-01   -3.633E-01
    -3.683E-01   -3.734E-01   -3.785E-01   -3.835E-01   -3.886E-01   -3.936E-01   -3.986E-01   -4.036E-01   -4.086E-01   -4.135E-01
    -4.185E-01   -4.234E-01   -4.284E-01   -4.333E-01   -4.382E-01   -4.430E-01   -4.479E-01   -4.528E-01   -4.576E-01   -4.624E-01
    -4.672E-01   -4.719E-01   -4.767E-01   -4.814E-01   -4.861E-01   -4.908E-01   -4.955E-01   -5.002E-01   -5.048E-01   -5.094E-01
    -5.140E-01   -5.185E-01   -5.231E-01   -5.276E-01   -5.321E-01   -5.366E-01   -5.410E-01   -5.454E-01   -5.498E-01   -5.542E-01
    -5.585E-01   -5.629E-01   -5.671E-01   -5.714E-01   -5.756E-01   -5.798E-01   -5.840E-01   -5.882E-01   -5.923E-01   -5.964E-01
    -6.004E-01   -6.045E-01   -6.085E-01   -6.125E-01   -6.164E-01   -6.203E-01   -6.242E-01   -6.280E-01   -6.318E-01   -6.356E-01
    -6.394E-01   -6.431E-01   -6.467E-01   -6.504E-01   -6.540E-01   -6.576E-01   -6.611E-01   -6.646E-01   -6.681E-01   -6.715E-01
    -6.749E-01   -6.783E-01   -6.816E-01   -6.849E-01   -6.881E-01   -6.913E-01   -6.945E-01   -6.976E-01   -7.007E-01   -7.037E-01
    -7.068E-01   -7.097E-01   -7.126E-01   -7.155E-01   -7.184E-01   -7.212E-01   -7.239E-01   -7.267E-01   -7.293E-01   -7.320E-01
    -7.346E-01   -7.371E-01   -7.396E-01   -7.421E-01   -7.445E-01   -7.469E-01   -7.492E-01   -7.515E-01   -7.537E-01   -7.559E-01
    -7.580E-01   -7.601E-01   -7.622E-01   -7.642E-01   -7.661E-01   -7.680E-01   -7.699E-01   -7.717E-01   -7.735E-01   -7.752E-01
    -7.769E-01   -7.785E-01   -7.800E-01   -7.816E-01   -7.830E-01   -7.844E-01   -7.858E-01   -7.871E-01   -7.884E-01   -7.896E-01
    -7.908E-01   -7.919E-01   -7.929E-01   -7.939E-01   -7.949E-01   -7.958E-01   -7.966E-01   -7.974E-01   -7.982E-01   -7.989E-01
    -7.995E-01   -8.001E-01   -8.006E-01   -8.011E-01   -8.015E-01   -8.019E-01   -8.022E-01   -8.024E-01   -8.026E-01   -8.028E-01
    -8.028E-01   -8.029E-01   -8.028E-01   -8.027E-01   -8.026E-01   -8.024E-01   -8.022E-01   -8.018E-01   -8.015E-01   -8.010E-01
    -8.006E-01   -8.000E-01   -7.994E-01   -7.987E-01   -7.980E-01   -7.972E-01   -7.964E-01   -7.955E-01   -7.946E-01   -7.935E-01
    -7.925E-01   -7.913E-01   -7.901E-01   -7.889E-01   -7.876E-01   -7.862E-01   -7.848E-01   -7.833E-01   -7.817E-01   -7.801E-01
    -7.784E-01   -7.767E-01   -7.749E-01   -7.730E-01   -7.711E-01   -7.691E-01   -7.671E-01   -7.649E-01   -7.628E-01   -7.605E-01
    -7.583E-01   -7.559E-01   -7.535E-01   -7.510E-01   -7.485E-01   -7.458E-01   -7.432E-01   -7.404E-01   -7.377E-01   -7.348E-01
    -7.319E-01   -7.289E-01   -7.259E-01   -7.227E-01   -7.196E-01   -7.163E-01   -7.130E-01   -7.097E-01   -7.063E-01   -7.028E-01
    -6.992E-01   -6.956E-01   -6.919E-01   -6.882E-01   -6.844E-01   -6.805E-01   -6.766E-01   -6.726E-01   -6.685E-01   -6.644E-01
    -6.602E-01   -6.560E-01   -6.516E-01   -6.473E-01   -6.428E-01   -6.383E-01   -6.337E-01   -6.291E-01   -6.244E-01   -6.196E-01
    -6.148E-01   -6.099E-01   -6.050E-01   -6.000E-01   -5.949E-01   -5.897E-01   -5.845E-01   -5.792E-01
 Asp      Conc. = 7.87E+00
