 LCModel (Version 6.3-1L) Copyright: S.W. Provencher.          Ref.: Magn. Reson. Med. 30:672-679 (1993).                
 Slice#1 Row#11 Col#9  PD_05_press_1_raw_act
 36 lines in following concentration table = NCONC+1
    Conc.  %SD /Cr+PCr  Metabolite                                         
   97.414  61%   0.137 Ala                                                 
    0.000 999%   0.000 Asp                                                 
  355.602  30%   0.499 Cr                                                  
  357.165  31%   0.501 PCr                                                 
   74.752 108%   0.105 GABA                                                
   40.781 199% 5.7E-02 Glc                                                 
  417.425  29%   0.586 Gln                                                 
  982.568  15%   1.379 Glu                                                 
  240.221   5%   0.337 GPC                                                 
    0.000 999%   0.000 PCh                                                 
  193.086  21%   0.271 GSH                                                 
  851.349  15%   1.194 Ins                                                 
    0.000 999%   0.000 Lac                                                 
 1.47E+03   4%   2.065 NAA                                                 
   72.390  82%   0.102 NAAG                                                
   55.366  26% 7.8E-02 Scyllo                                              
    6.430 999% 9.0E-03 Tau                                                 
   86.461  69%   0.121 -CrCH2                                              
  240.221   5%   0.337 GPC+PCh                                             
 1.54E+03   3%   2.167 NAA+NAAG                                            
  712.767   4%   1.000 Cr+PCr                                              
 1.40E+03  14%   1.964 Glu+Gln                                             
  410.436  67%   0.576 Lip13a                                              
    0.000 999%   0.000 Lip13b                                              
    0.000 999%   0.000 Lip09                                               
 1.21E+03  10%   1.692 MM09                                                
   56.822 160% 8.0E-02 Lip20                                               
 2.29E+03   9%   3.211 MM20                                                
  510.857  22%   0.717 MM12                                                
 1.35E+03  18%   1.894 MM14                                                
  620.721  22%   0.871 MM17                                                
  410.436  67%   0.576 Lip13a+Lip13b                                       
 2.27E+03   8%   3.187 MM14+Lip13a+Lip13b+MM12                             
 1.21E+03  10%   1.692 MM09+Lip09                                          
 2.35E+03   9%   3.291 MM20+Lip20                                          
   6 lines in following misc. output table
  FWHM = 0.046 ppm    S/N =  15                                            
  Data shift = 0.015 ppm                                                   
  Ph: -35 deg      -2.6 deg/ppm                                            
  alphaB,S = 8.5E+01,   1.6E+02                                            
   14 spline knots.   Ns = 6(1)                                            
   4 inflections.     1 extrema                                            
  498 points on ppm-axis = NY
      4.000000     3.992357     3.984714     3.977070     3.969427     3.961784     3.954141     3.946497     3.938854     3.931211
      3.923568     3.915925     3.908281     3.900638     3.892995     3.885352     3.877708     3.870065     3.862422     3.854779
      3.847136     3.839492     3.831849     3.824206     3.816563     3.808919     3.801276     3.793633     3.785990     3.778347
      3.770703     3.763060     3.755417     3.747774     3.740130     3.732487     3.724844     3.717201     3.709558     3.701914
      3.694271     3.686628     3.678985     3.671341     3.663698     3.656055     3.648412     3.640769     3.633125     3.625482
      3.617839     3.610196     3.602552     3.594909     3.587266     3.579623     3.571980     3.564336     3.556693     3.549050
      3.541407     3.533763     3.526120     3.518477     3.510834     3.503191     3.495547     3.487904     3.480261     3.472618
      3.464974     3.457331     3.449688     3.442045     3.434402     3.426758     3.419115     3.411472     3.403829     3.396185
      3.388542     3.380899     3.373256     3.365613     3.357969     3.350326     3.342683     3.335040     3.327396     3.319753
      3.312110     3.304467     3.296824     3.289180     3.281537     3.273894     3.266251     3.258607     3.250964     3.243321
      3.235678     3.228034     3.220391     3.212748     3.205105     3.197462     3.189818     3.182175     3.174532     3.166889
      3.159245     3.151602     3.143959     3.136316     3.128673     3.121029     3.113386     3.105743     3.098100     3.090456
      3.082813     3.075170     3.067527     3.059884     3.052240     3.044597     3.036954     3.029311     3.021667     3.014024
      3.006381     2.998738     2.991095     2.983451     2.975808     2.968165     2.960522     2.952878     2.945235     2.937592
      2.929949     2.922306     2.914662     2.907019     2.899376     2.891733     2.884089     2.876446     2.868803     2.861160
      2.853517     2.845873     2.838230     2.830587     2.822944     2.815300     2.807657     2.800014     2.792371     2.784728
      2.777084     2.769441     2.761798     2.754155     2.746511     2.738868     2.731225     2.723582     2.715939     2.708295
      2.700652     2.693009     2.685366     2.677722     2.670079     2.662436     2.654793     2.647150     2.639506     2.631863
      2.624220     2.616577     2.608933     2.601290     2.593647     2.586004     2.578361     2.570717     2.563074     2.555431
      2.547788     2.540144     2.532501     2.524858     2.517215     2.509572     2.501928     2.494285     2.486642     2.478999
      2.471355     2.463712     2.456069     2.448426     2.440783     2.433139     2.425496     2.417853     2.410210     2.402566
      2.394923     2.387280     2.379637     2.371994     2.364350     2.356707     2.349064     2.341421     2.333777     2.326134
      2.318491     2.310848     2.303205     2.295561     2.287918     2.280275     2.272632     2.264988     2.257345     2.249702
      2.242059     2.234416     2.226772     2.219129     2.211486     2.203843     2.196199     2.188556     2.180913     2.173270
      2.165627     2.157983     2.150340     2.142697     2.135054     2.127410     2.119767     2.112124     2.104481     2.096838
      2.089194     2.081551     2.073908     2.066265     2.058621     2.050978     2.043335     2.035692     2.028049     2.020405
      2.012762     2.005119     1.997476     1.989833     1.982190     1.974546     1.966903     1.959260     1.951617     1.943974
      1.936331     1.928688     1.921045     1.913402     1.905759     1.898115     1.890472     1.882829     1.875186     1.867543
      1.859900     1.852257     1.844614     1.836971     1.829327     1.821684     1.814041     1.806398     1.798755     1.791112
      1.783469     1.775826     1.768183     1.760540     1.752896     1.745253     1.737610     1.729967     1.722324     1.714681
      1.707038     1.699395     1.691752     1.684108     1.676465     1.668822     1.661179     1.653536     1.645893     1.638250
      1.630607     1.622964     1.615321     1.607677     1.600034     1.592391     1.584748     1.577105     1.569462     1.561819
      1.554176     1.546533     1.538890     1.531246     1.523603     1.515960     1.508317     1.500674     1.493031     1.485388
      1.477745     1.470102     1.462458     1.454815     1.447172     1.439529     1.431886     1.424243     1.416600     1.408957
      1.401314     1.393671     1.386027     1.378384     1.370741     1.363098     1.355455     1.347812     1.340169     1.332526
      1.324883     1.317240     1.309596     1.301953     1.294310     1.286667     1.279024     1.271381     1.263738     1.256095
      1.248452     1.240808     1.233165     1.225522     1.217879     1.210236     1.202593     1.194950     1.187307     1.179664
      1.172021     1.164377     1.156734     1.149091     1.141448     1.133805     1.126162     1.118519     1.110876     1.103233
      1.095590     1.087946     1.080303     1.072660     1.065017     1.057374     1.049731     1.042088     1.034445     1.026802
      1.019158     1.011515     1.003872     0.996229     0.988586     0.980943     0.973300     0.965657     0.958014     0.950371
      0.942727     0.935084     0.927441     0.919798     0.912155     0.904512     0.896869     0.889226     0.881583     0.873940
      0.866296     0.858653     0.851010     0.843367     0.835724     0.828081     0.820438     0.812795     0.805152     0.797508
      0.789865     0.782222     0.774579     0.766936     0.759293     0.751650     0.744007     0.736364     0.728721     0.721077
      0.713434     0.705791     0.698148     0.690505     0.682862     0.675219     0.667576     0.659933     0.652290     0.644646
      0.637003     0.629360     0.621717     0.614074     0.606431     0.598788     0.591145     0.583502     0.575858     0.568215
      0.560572     0.552929     0.545286     0.537643     0.530000     0.522357     0.514714     0.507071     0.499427     0.491784
      0.484141     0.476498     0.468855     0.461212     0.453569     0.445925     0.438282     0.430639     0.422996     0.415353
      0.407710     0.400067     0.392424     0.384780     0.377137     0.369494     0.361851     0.354208     0.346565     0.338922
      0.331278     0.323635     0.315992     0.308349     0.300706     0.293063     0.285420     0.277777     0.270133     0.262490
      0.254847     0.247204     0.239561     0.231918     0.224275     0.216631     0.208988     0.201345
 NY phased data points follow
  -3.61551E+00 -2.38728E+00 -3.56243E+00 -5.85697E+00 -4.08676E+00 -5.11855E+00 -3.21570E+00  4.01695E+00  6.78286E+00  4.27173E+00
   8.15399E+00  7.48223E+00  1.21723E+01  8.73195E+00  3.00475E+00  2.68626E+00  1.44776E+00  1.36280E+00 -2.20216E+00 -3.59637E+00
  -3.56114E+00 -2.61182E+00 -3.40129E+00 -4.22701E+00 -4.24444E+00 -4.00660E+00 -2.21070E+00 -3.83787E+00 -1.91446E-01 -5.96102E-01
  -1.57134E+00  5.49274E-01 -1.10650E+00  3.33785E+00 -1.54707E+00 -5.71442E-01 -1.08174E+00 -2.06956E+00 -5.62347E-01 -1.69312E+00
  -2.26201E+00 -2.18665E+00 -1.29447E+00 -5.45694E-01  1.25073E+00  9.00384E-02  2.60306E+00  3.66536E+00  3.98486E+00  4.43884E+00
  -5.20708E-01 -1.44946E+00 -5.05514E-01 -2.74947E+00  2.91871E-01 -3.98719E+00 -3.04523E+00 -9.89771E-01 -1.68898E+00 -2.59086E+00
  -1.24709E+00 -2.00152E+00 -5.21719E+00 -1.90174E+00 -6.73140E+00 -5.67953E+00 -4.65730E+00 -6.42018E+00 -7.94771E+00 -6.53313E+00
  -5.07327E+00 -2.79872E+00 -3.79261E+00 -3.26282E+00 -3.34275E+00 -1.33939E+00 -2.12614E+00 -5.48984E+00 -3.06253E+00 -2.79078E+00
  -3.93554E+00 -4.47217E+00 -3.14825E+00 -1.44656E+00 -2.94647E+00 -8.47186E-02 -4.72089E+00 -6.80894E+00 -3.75077E+00 -7.61549E-01
  -3.91555E+00 -1.74812E+00 -3.24272E+00 -5.99528E-01  1.28570E+00 -1.79784E+00 -2.18252E+00 -5.43669E+00 -1.71078E+00 -1.27965E+00
   4.58386E+00  1.29351E+01  1.66668E+01  1.95955E+01  1.86455E+01  1.31389E+01  9.71834E+00  8.54356E+00  7.04097E+00  2.31747E+00
   8.60859E-01 -2.42501E+00 -1.94508E+00 -1.96540E+00 -6.30956E+00 -5.63844E-01  1.16449E+00 -1.42896E+00  2.85019E-01 -3.84369E+00
  -3.92789E+00 -3.66487E+00 -2.19806E+00 -2.69688E+00  7.08567E+00  1.21323E+01  2.15758E+01  2.42648E+01  2.22931E+01  1.97783E+01
   1.24101E+01  1.26980E+01  1.02342E+01  8.70184E+00  2.90223E+00 -7.19635E-01 -1.44761E+00 -4.31154E+00 -3.94541E-01 -3.39070E+00
  -3.43256E+00 -1.86837E+00 -1.79371E+00 -5.50611E+00 -9.71779E-01 -1.97204E+00 -1.91487E+00 -2.48660E+00 -1.49503E+00 -7.51001E-01
  -2.40598E-01 -2.06501E+00 -4.69508E+00 -5.57114E+00 -4.96603E+00 -4.63192E+00 -1.79446E+00 -4.60476E+00 -4.27176E+00 -3.65200E+00
  -2.14056E+00 -8.70643E-01 -4.78596E+00 -1.23095E+00 -1.82205E+00 -5.16685E+00 -6.38050E+00 -5.18901E+00 -7.99280E+00 -7.10127E+00
  -1.02548E+01 -7.02627E+00 -8.73474E+00 -9.87789E+00 -7.10677E+00 -1.10277E+01 -8.29296E+00 -1.06414E+01 -1.04459E+01 -8.17080E+00
  -1.20180E+01 -8.11266E+00 -7.08223E+00 -8.25708E+00 -7.75390E+00 -6.63995E+00 -6.31942E+00 -4.39338E+00 -7.74114E+00 -6.44973E+00
  -4.15858E+00 -1.66785E+00 -2.81226E+00 -4.22713E+00 -3.57246E+00 -3.54160E+00 -4.04555E+00 -7.11491E+00 -6.93611E+00 -5.66085E+00
  -7.78248E+00 -2.26577E+00 -4.48666E+00 -6.24520E-01  3.47581E-01  3.15191E-01 -5.29128E+00 -1.60438E+00 -4.17894E+00 -5.91944E+00
  -3.64166E+00 -1.00638E+01 -4.20986E+00 -1.19964E+00  1.75635E+00  4.98230E+00  4.64146E+00  7.34160E+00  1.77893E+00 -4.87861E-01
  -2.65043E+00 -6.97127E+00 -6.20691E+00 -2.73879E+00 -1.50334E+00  1.01234E+00 -4.29135E-01 -1.87120E+00  2.06838E-01  1.03819E+00
   2.48375E+00  2.87617E+00  1.21217E+00  2.60294E+00  3.33059E+00  3.12086E+00  1.11406E+00  4.77760E+00  4.42173E+00  3.49648E+00
   3.51681E+00 -2.61671E+00 -6.40280E-01 -6.78899E-01  3.90509E-01  3.07733E+00  4.78695E+00  4.55229E+00  5.26441E+00  8.97641E+00
   8.00418E+00  7.58231E+00  7.98942E+00  8.21518E+00  1.14354E+01  1.35352E+01  1.71404E+01  2.67481E+01  4.29917E+01  5.59508E+01
   6.88153E+01  5.96347E+01  4.69417E+01  3.24057E+01  2.67558E+01  2.39139E+01  2.18621E+01  1.20364E+01  5.91584E+00  4.84849E+00
   2.91166E+00  9.33612E-01  1.04053E+00  1.16867E+00  1.81664E-01  2.67612E+00  7.55591E-01  1.10759E+00  7.35796E-01  3.70947E+00
   1.61071E+00  2.39739E+00  2.52765E+00 -2.79861E-01 -3.55104E-01 -1.61045E+00 -2.96758E+00  7.07295E-01  1.83455E+00 -2.47889E+00
  -1.92808E-01 -1.16241E+00  8.30796E-01  5.69380E-01  3.02568E+00  2.11952E-01  2.24152E+00  1.08452E+00  5.72669E-01 -1.20009E+00
   7.63910E-01  1.62206E+00  1.85682E+00  2.29404E+00  2.09878E+00 -2.17425E+00  7.55549E-01 -5.77402E-01  3.34140E+00  4.05001E+00
   3.71126E+00  2.33492E+00  5.73436E-01  1.42940E+00  4.77721E+00  1.80477E+00  3.55871E+00  3.81445E+00  3.67663E+00  3.19108E+00
   2.49835E+00 -1.21295E-02  2.45843E+00 -1.05700E-01  1.84193E+00  1.28541E+00  1.06563E+00  3.55256E+00  2.36654E+00  1.39073E+00
   2.46719E+00  4.29848E+00  1.15483E+00  3.26009E+00  3.61156E+00  8.02998E+00  5.26091E+00  7.82812E+00  7.58974E+00  1.00335E+01
   5.50525E+00  5.89376E+00  9.05047E+00  6.35099E+00  9.45530E+00  8.17154E+00  7.79883E+00  1.03202E+01  7.09274E+00  7.11801E+00
   6.71566E+00  3.66138E+00  6.08126E+00  4.83041E+00  4.33695E+00  4.05236E+00  1.80253E+00 -9.05888E-01  4.41312E+00  2.31406E+00
   7.77676E-01  2.30932E+00  3.81637E+00  5.40792E+00  2.13659E+00  2.34647E+00  4.38630E+00  4.99180E+00  3.52486E+00  7.18824E+00
   4.73139E+00  7.51875E+00  1.23406E+00  2.96992E+00  4.38704E+00  3.77403E+00  3.16099E+00  4.06023E+00  2.46664E+00  2.57080E+00
   4.57267E+00  7.40221E-01  4.43345E+00  9.10754E-01 -5.38234E-01  2.05795E-01  2.56995E+00  2.40681E+00  1.80001E+00 -2.17618E-01
   3.20243E+00  3.88948E+00  2.11205E+00  1.52422E+00  3.04400E+00  2.28825E+00  3.34760E+00  6.12276E+00  5.15104E+00  5.49478E+00
   3.94243E+00  7.44940E+00  4.89915E+00  5.03660E+00  7.07848E+00  5.96233E+00  6.99454E+00  8.42769E+00  8.72248E+00  2.99517E+00
   6.98595E+00  9.88848E+00  5.61231E+00  4.65236E+00  7.83290E+00  5.87374E+00  2.80936E+00  3.72008E+00  1.48191E+00  3.70993E+00
   1.86255E+00 -6.37649E-01  1.96826E+00  3.53146E+00  1.12733E+00  2.26897E+00  2.43426E+00  1.94232E+00  7.25220E-01  1.63244E+00
   3.13426E-01 -1.20592E+00 -2.32102E+00 -1.54054E+00 -2.63359E+00  6.84601E-01 -2.75625E-01 -1.59535E+00  3.23657E-01 -2.97074E-01
   1.96532E+00  7.54048E-02  2.46166E-01 -8.52280E-01 -1.86700E+00 -2.51971E-01 -1.17634E+00 -1.45044E-01 -2.10218E-01 -2.56341E+00
  -1.23698E+00 -1.44424E+00 -7.57752E-01 -4.59331E+00  9.64435E-01  1.10611E-01 -7.39115E-01 -2.76621E-01  9.05285E-01 -1.20397E+00
  -3.87443E-01  2.50489E-01 -2.11304E+00 -1.07675E+00 -3.90153E-01  1.30483E+00  7.90413E-02 -1.94229E+00 -2.24736E+00 -1.61768E+00
   9.10329E-01 -2.08455E+00 -2.38734E+00 -1.31795E+00  3.69902E-03 -2.52865E-01  1.32756E+00 -1.44004E+00  2.54163E-01 -1.78893E+00
   2.02862E+00 -1.22764E+00 -2.21540E+00  3.11924E-01  4.71398E-01 -1.08398E+00 -1.38501E+00 -1.87565E+00 -2.97930E+00  1.96157E-01
  -2.29901E+00 -2.04190E+00 -3.55910E+00 -1.12705E+00  1.02777E+00 -3.47389E+00  1.46189E+00  6.49979E-01
 NY points of the fit to the data follow
  -4.30603E+00 -4.64479E+00 -4.82873E+00 -4.84768E+00 -4.46284E+00 -3.50516E+00 -1.75414E+00  8.47262E-01  4.00142E+00  7.05173E+00
   9.17727E+00  9.82566E+00  9.00061E+00  7.22416E+00  5.17485E+00  3.27813E+00  1.58884E+00  8.73462E-02 -1.13157E+00 -2.11122E+00
  -2.56395E+00 -2.67548E+00 -2.78938E+00 -3.03339E+00 -3.36124E+00 -3.61380E+00 -3.55825E+00 -2.97314E+00 -1.81874E+00 -3.31083E-01
   1.04627E+00  1.92449E+00  2.16099E+00  1.84163E+00  1.08640E+00  3.33996E-02 -1.24061E+00 -2.51034E+00 -3.35584E+00 -3.75932E+00
  -3.86849E+00 -3.68992E+00 -3.12163E+00 -2.05489E+00 -5.41151E-01  1.21423E+00  2.74514E+00  3.41907E+00  2.94452E+00  1.62176E+00
   5.46404E-02 -1.22591E+00 -2.13222E+00 -2.89533E+00 -3.56549E+00 -3.88171E+00 -3.66572E+00 -3.07970E+00 -2.39941E+00 -1.86563E+00
  -1.69260E+00 -1.95880E+00 -2.54746E+00 -3.19837E+00 -3.67937E+00 -3.92815E+00 -3.99911E+00 -3.91678E+00 -3.68964E+00 -3.36580E+00
  -2.99866E+00 -2.69677E+00 -2.54459E+00 -2.56710E+00 -2.71781E+00 -2.90239E+00 -3.06652E+00 -3.21522E+00 -3.37601E+00 -3.53653E+00
  -3.59371E+00 -3.47870E+00 -3.16951E+00 -2.70496E+00 -2.25304E+00 -2.07659E+00 -2.36647E+00 -3.06471E+00 -3.86159E+00 -4.41348E+00
  -4.58988E+00 -4.52774E+00 -4.45512E+00 -4.46575E+00 -4.46678E+00 -4.42976E+00 -4.44884E+00 -4.16985E+00 -2.78682E+00  4.09763E-01
   5.60659E+00  1.18506E+01  1.71623E+01  1.95572E+01  1.83823E+01  1.47971E+01  1.07749E+01  7.58332E+00  5.07597E+00  2.45848E+00
  -3.99682E-01 -2.43715E+00 -3.11777E+00 -3.32421E+00 -3.40784E+00 -3.45268E+00 -3.48828E+00 -3.52911E+00 -3.56803E+00 -3.57373E+00
  -3.47186E+00 -2.97311E+00 -1.41552E+00  1.84387E+00  7.10304E+00  1.36657E+01  1.96858E+01  2.30323E+01  2.26533E+01  1.93997E+01
   1.52843E+01  1.18098E+01  8.98901E+00  5.95528E+00  2.37893E+00 -6.73583E-01 -2.07231E+00 -2.49050E+00 -2.47095E+00 -2.25644E+00
  -2.03388E+00 -1.88774E+00 -1.83253E+00 -1.88104E+00 -1.99442E+00 -2.13511E+00 -2.30866E+00 -2.50759E+00 -2.71609E+00 -2.92494E+00
  -3.10240E+00 -3.25631E+00 -3.38104E+00 -3.45994E+00 -3.48444E+00 -3.48902E+00 -3.54646E+00 -3.73661E+00 -4.09732E+00 -4.53132E+00
  -4.83726E+00 -4.83937E+00 -4.53704E+00 -4.15704E+00 -3.99564E+00 -4.19404E+00 -4.62966E+00 -5.03497E+00 -5.26047E+00 -5.41611E+00
  -5.64843E+00 -6.01910E+00 -6.49031E+00 -6.91756E+00 -7.20930E+00 -7.30128E+00 -7.14533E+00 -6.85850E+00 -6.66559E+00 -6.68557E+00
  -6.82113E+00 -6.87718E+00 -6.77749E+00 -6.64387E+00 -6.64364E+00 -6.67194E+00 -6.33362E+00 -5.47793E+00 -4.30188E+00 -3.24351E+00
  -2.61299E+00 -2.39144E+00 -2.43689E+00 -2.59895E+00 -2.81719E+00 -3.11858E+00 -3.41581E+00 -3.52038E+00 -3.32116E+00 -2.75299E+00
  -1.86673E+00 -8.58213E-01 -3.32745E-03  4.56894E-01  3.10260E-01 -4.97668E-01 -1.90706E+00 -3.59925E+00 -5.11942E+00 -6.11551E+00
  -6.41644E+00 -5.91668E+00 -4.55743E+00 -2.50292E+00 -1.77689E-01  1.76316E+00  2.62211E+00  2.05958E+00  2.81797E-01 -1.98791E+00
  -4.10719E+00 -5.73115E+00 -6.50120E+00 -6.15111E+00 -4.78031E+00 -2.88223E+00 -1.26331E+00 -2.00820E-01  4.46286E-01  8.70644E-01
   1.08520E+00  1.05599E+00  9.92030E-01  1.16614E+00  1.61513E+00  2.25541E+00  2.98925E+00  3.60849E+00  3.86576E+00  3.62310E+00
   3.00897E+00  2.40370E+00  2.13954E+00  2.30935E+00  2.82443E+00  3.54178E+00  4.23361E+00  4.73579E+00  5.08590E+00  5.39713E+00
   5.76141E+00  6.25099E+00  6.94262E+00  7.87196E+00  9.45842E+00  1.29729E+01  1.97591E+01  3.06691E+01  4.41874E+01  5.60517E+01
   6.14157E+01  5.82086E+01  4.89324E+01  3.85931E+01  3.06393E+01  2.46919E+01  1.84762E+01  1.12504E+01  5.65567E+00  3.68180E+00
   2.84504E+00  2.32098E+00  2.03183E+00  1.91397E+00  1.83104E+00  1.71054E+00  1.53490E+00  1.30286E+00  1.03678E+00  7.65511E-01
   4.98282E-01  2.46652E-01  4.25548E-02 -9.82308E-02 -1.85902E-01 -2.36240E-01 -2.61206E-01 -2.63467E-01 -2.42127E-01 -2.02896E-01
  -1.45832E-01 -6.88813E-02  2.29312E-02  1.27606E-01  2.48278E-01  3.85555E-01  5.37054E-01  6.99384E-01  8.68793E-01  1.04157E+00
   1.21501E+00  1.38513E+00  1.54508E+00  1.68886E+00  1.81178E+00  1.91084E+00  1.98431E+00  2.03165E+00  2.05394E+00  2.05253E+00
   2.02939E+00  1.98854E+00  1.93579E+00  1.87726E+00  1.81903E+00  1.76740E+00  1.72936E+00  1.71295E+00  1.72698E+00  1.78163E+00
   1.89159E+00  2.08241E+00  2.36732E+00  2.72338E+00  3.07986E+00  3.32360E+00  3.36193E+00  3.19402E+00  2.92772E+00  2.72769E+00
   2.72232E+00  2.94889E+00  3.39751E+00  4.04869E+00  4.86246E+00  5.73192E+00  6.44976E+00  6.89772E+00  7.15025E+00  7.31548E+00
   7.43161E+00  7.45874E+00  7.35859E+00  7.19343E+00  7.04143E+00  6.88497E+00  6.71145E+00  6.51961E+00  6.31187E+00  6.09231E+00
   5.86589E+00  5.63783E+00  5.41275E+00  5.19436E+00  4.98529E+00  4.78751E+00  4.60234E+00  4.43035E+00  4.27099E+00  4.12278E+00
   3.98368E+00  3.85160E+00  3.72450E+00  3.60033E+00  3.47685E+00  3.35200E+00  3.22421E+00  3.09278E+00  2.95762E+00  2.81910E+00
   2.67778E+00  2.53475E+00  2.39170E+00  2.25102E+00  2.11531E+00  1.98714E+00  1.86895E+00  1.76332E+00  1.67303E+00  1.60097E+00
   1.54972E+00  1.52146E+00  1.51807E+00  1.54145E+00  1.59348E+00  1.67584E+00  1.78965E+00  1.93551E+00  2.11355E+00  2.32371E+00
   2.56541E+00  2.83730E+00  3.13693E+00  3.46089E+00  3.80487E+00  4.16390E+00  4.53206E+00  4.90240E+00  5.26701E+00  5.61748E+00
   5.94533E+00  6.24235E+00  6.50061E+00  6.71273E+00  6.87221E+00  6.97406E+00  7.01509E+00  6.99396E+00  6.91098E+00  6.76811E+00
   6.56889E+00  6.31861E+00  6.02388E+00  5.69228E+00  5.33165E+00  4.94996E+00  4.55506E+00  4.15465E+00  3.75584E+00  3.36480E+00
   2.98651E+00  2.62493E+00  2.28310E+00  1.96333E+00  1.66704E+00  1.39471E+00  1.14599E+00  9.20105E-01  7.16021E-01  5.32624E-01
   3.68481E-01  2.21932E-01  9.11659E-02 -2.54144E-02 -1.29199E-01 -2.21391E-01 -3.03290E-01 -3.76186E-01 -4.41292E-01 -4.99473E-01
  -5.51406E-01 -5.97671E-01 -6.38995E-01 -6.76071E-01 -7.09484E-01 -7.39518E-01 -7.66401E-01 -7.90392E-01 -8.11930E-01 -8.31379E-01
  -8.48975E-01 -8.64725E-01 -8.78700E-01 -8.91064E-01 -9.02136E-01 -9.12094E-01 -9.20988E-01 -9.28726E-01 -9.35366E-01 -9.41067E-01
  -9.46073E-01 -9.50433E-01 -9.54093E-01 -9.56946E-01 -9.59087E-01 -9.60681E-01 -9.61897E-01 -9.62685E-01 -9.62951E-01 -9.62624E-01
  -9.61846E-01 -9.60765E-01 -9.59465E-01 -9.57823E-01 -9.55748E-01 -9.53232E-01 -9.50452E-01 -9.47514E-01 -9.44423E-01 -9.41022E-01
  -9.37258E-01 -9.33186E-01 -9.28989E-01 -9.24707E-01 -9.20276E-01 -9.15538E-01 -9.10504E-01 -9.05275E-01 -9.00008E-01 -8.94667E-01
  -8.89149E-01 -8.83329E-01 -8.77283E-01 -8.71129E-01 -8.64970E-01 -8.58701E-01 -8.52205E-01 -8.45413E-01
 NY background values follow
    -5.960E+00   -5.950E+00   -5.940E+00   -5.930E+00   -5.921E+00   -5.911E+00   -5.901E+00   -5.891E+00   -5.881E+00   -5.871E+00
    -5.862E+00   -5.852E+00   -5.842E+00   -5.832E+00   -5.822E+00   -5.812E+00   -5.803E+00   -5.793E+00   -5.783E+00   -5.773E+00
    -5.763E+00   -5.753E+00   -5.744E+00   -5.734E+00   -5.724E+00   -5.714E+00   -5.704E+00   -5.694E+00   -5.685E+00   -5.675E+00
    -5.665E+00   -5.655E+00   -5.645E+00   -5.635E+00   -5.625E+00   -5.616E+00   -5.606E+00   -5.596E+00   -5.586E+00   -5.576E+00
    -5.566E+00   -5.556E+00   -5.547E+00   -5.537E+00   -5.527E+00   -5.517E+00   -5.507E+00   -5.497E+00   -5.487E+00   -5.477E+00
    -5.468E+00   -5.458E+00   -5.448E+00   -5.438E+00   -5.428E+00   -5.418E+00   -5.408E+00   -5.399E+00   -5.389E+00   -5.379E+00
    -5.369E+00   -5.359E+00   -5.349E+00   -5.339E+00   -5.329E+00   -5.319E+00   -5.310E+00   -5.300E+00   -5.290E+00   -5.280E+00
    -5.270E+00   -5.260E+00   -5.250E+00   -5.240E+00   -5.231E+00   -5.221E+00   -5.211E+00   -5.201E+00   -5.191E+00   -5.181E+00
    -5.171E+00   -5.161E+00   -5.151E+00   -5.141E+00   -5.132E+00   -5.122E+00   -5.112E+00   -5.102E+00   -5.092E+00   -5.082E+00
    -5.072E+00   -5.062E+00   -5.052E+00   -5.042E+00   -5.033E+00   -5.023E+00   -5.013E+00   -5.003E+00   -4.993E+00   -4.983E+00
    -4.973E+00   -4.963E+00   -4.953E+00   -4.943E+00   -4.933E+00   -4.924E+00   -4.914E+00   -4.904E+00   -4.894E+00   -4.884E+00
    -4.874E+00   -4.864E+00   -4.854E+00   -4.844E+00   -4.834E+00   -4.824E+00   -4.814E+00   -4.805E+00   -4.795E+00   -4.785E+00
    -4.775E+00   -4.765E+00   -4.755E+00   -4.745E+00   -4.735E+00   -4.725E+00   -4.715E+00   -4.705E+00   -4.695E+00   -4.685E+00
    -4.675E+00   -4.666E+00   -4.656E+00   -4.646E+00   -4.636E+00   -4.626E+00   -4.616E+00   -4.606E+00   -4.596E+00   -4.586E+00
    -4.576E+00   -4.566E+00   -4.556E+00   -4.546E+00   -4.536E+00   -4.526E+00   -4.516E+00   -4.507E+00   -4.497E+00   -4.487E+00
    -4.477E+00   -4.467E+00   -4.457E+00   -4.447E+00   -4.437E+00   -4.427E+00   -4.417E+00   -4.407E+00   -4.397E+00   -4.387E+00
    -4.377E+00   -4.367E+00   -4.357E+00   -4.347E+00   -4.337E+00   -4.327E+00   -4.317E+00   -4.307E+00   -4.298E+00   -4.288E+00
    -4.278E+00   -4.268E+00   -4.258E+00   -4.248E+00   -4.238E+00   -4.228E+00   -4.218E+00   -4.208E+00   -4.198E+00   -4.188E+00
    -4.178E+00   -4.168E+00   -4.158E+00   -4.148E+00   -4.138E+00   -4.128E+00   -4.118E+00   -4.108E+00   -4.098E+00   -4.088E+00
    -4.078E+00   -4.068E+00   -4.058E+00   -4.048E+00   -4.038E+00   -4.028E+00   -4.018E+00   -4.008E+00   -3.998E+00   -3.988E+00
    -3.978E+00   -3.968E+00   -3.959E+00   -3.949E+00   -3.939E+00   -3.929E+00   -3.919E+00   -3.909E+00   -3.899E+00   -3.889E+00
    -3.879E+00   -3.869E+00   -3.859E+00   -3.849E+00   -3.839E+00   -3.829E+00   -3.819E+00   -3.809E+00   -3.799E+00   -3.789E+00
    -3.779E+00   -3.769E+00   -3.759E+00   -3.749E+00   -3.739E+00   -3.729E+00   -3.719E+00   -3.709E+00   -3.699E+00   -3.689E+00
    -3.679E+00   -3.669E+00   -3.659E+00   -3.649E+00   -3.639E+00   -3.629E+00   -3.619E+00   -3.609E+00   -3.599E+00   -3.589E+00
    -3.579E+00   -3.569E+00   -3.559E+00   -3.549E+00   -3.539E+00   -3.529E+00   -3.519E+00   -3.509E+00   -3.499E+00   -3.489E+00
    -3.479E+00   -3.469E+00   -3.459E+00   -3.449E+00   -3.439E+00   -3.429E+00   -3.419E+00   -3.409E+00   -3.399E+00   -3.389E+00
    -3.379E+00   -3.369E+00   -3.359E+00   -3.349E+00   -3.339E+00   -3.329E+00   -3.319E+00   -3.309E+00   -3.299E+00   -3.289E+00
    -3.279E+00   -3.268E+00   -3.258E+00   -3.248E+00   -3.238E+00   -3.228E+00   -3.218E+00   -3.208E+00   -3.198E+00   -3.188E+00
    -3.178E+00   -3.168E+00   -3.158E+00   -3.148E+00   -3.138E+00   -3.128E+00   -3.118E+00   -3.108E+00   -3.098E+00   -3.088E+00
    -3.078E+00   -3.068E+00   -3.058E+00   -3.048E+00   -3.038E+00   -3.028E+00   -3.018E+00   -3.008E+00   -2.998E+00   -2.988E+00
    -2.978E+00   -2.968E+00   -2.958E+00   -2.948E+00   -2.938E+00   -2.928E+00   -2.918E+00   -2.908E+00   -2.898E+00   -2.888E+00
    -2.878E+00   -2.867E+00   -2.857E+00   -2.847E+00   -2.837E+00   -2.827E+00   -2.817E+00   -2.807E+00   -2.797E+00   -2.787E+00
    -2.777E+00   -2.767E+00   -2.757E+00   -2.747E+00   -2.737E+00   -2.727E+00   -2.717E+00   -2.707E+00   -2.697E+00   -2.687E+00
    -2.677E+00   -2.667E+00   -2.657E+00   -2.647E+00   -2.637E+00   -2.627E+00   -2.617E+00   -2.607E+00   -2.596E+00   -2.586E+00
    -2.576E+00   -2.566E+00   -2.556E+00   -2.546E+00   -2.536E+00   -2.526E+00   -2.516E+00   -2.506E+00   -2.496E+00   -2.486E+00
    -2.476E+00   -2.466E+00   -2.456E+00   -2.446E+00   -2.436E+00   -2.426E+00   -2.416E+00   -2.406E+00   -2.396E+00   -2.386E+00
    -2.375E+00   -2.365E+00   -2.355E+00   -2.345E+00   -2.335E+00   -2.325E+00   -2.315E+00   -2.305E+00   -2.295E+00   -2.285E+00
    -2.275E+00   -2.265E+00   -2.255E+00   -2.245E+00   -2.235E+00   -2.225E+00   -2.215E+00   -2.205E+00   -2.195E+00   -2.185E+00
    -2.174E+00   -2.164E+00   -2.154E+00   -2.144E+00   -2.134E+00   -2.124E+00   -2.114E+00   -2.104E+00   -2.094E+00   -2.084E+00
    -2.074E+00   -2.064E+00   -2.054E+00   -2.044E+00   -2.034E+00   -2.024E+00   -2.014E+00   -2.004E+00   -1.994E+00   -1.983E+00
    -1.973E+00   -1.963E+00   -1.953E+00   -1.943E+00   -1.933E+00   -1.923E+00   -1.913E+00   -1.903E+00   -1.893E+00   -1.883E+00
    -1.873E+00   -1.863E+00   -1.853E+00   -1.843E+00   -1.833E+00   -1.823E+00   -1.813E+00   -1.802E+00   -1.792E+00   -1.782E+00
    -1.772E+00   -1.762E+00   -1.752E+00   -1.742E+00   -1.732E+00   -1.722E+00   -1.712E+00   -1.702E+00   -1.692E+00   -1.682E+00
    -1.672E+00   -1.662E+00   -1.652E+00   -1.642E+00   -1.631E+00   -1.621E+00   -1.611E+00   -1.601E+00   -1.591E+00   -1.581E+00
    -1.571E+00   -1.561E+00   -1.551E+00   -1.541E+00   -1.531E+00   -1.521E+00   -1.511E+00   -1.501E+00   -1.491E+00   -1.481E+00
    -1.471E+00   -1.460E+00   -1.450E+00   -1.440E+00   -1.430E+00   -1.420E+00   -1.410E+00   -1.400E+00   -1.390E+00   -1.380E+00
    -1.370E+00   -1.360E+00   -1.350E+00   -1.340E+00   -1.330E+00   -1.320E+00   -1.310E+00   -1.299E+00   -1.289E+00   -1.279E+00
    -1.269E+00   -1.259E+00   -1.249E+00   -1.239E+00   -1.229E+00   -1.219E+00   -1.209E+00   -1.199E+00   -1.189E+00   -1.179E+00
    -1.169E+00   -1.159E+00   -1.149E+00   -1.138E+00   -1.128E+00   -1.118E+00   -1.108E+00   -1.098E+00   -1.088E+00   -1.078E+00
    -1.068E+00   -1.058E+00   -1.048E+00   -1.038E+00   -1.028E+00   -1.018E+00   -1.008E+00   -9.976E-01
 Ala      Conc. = 9.74E+01
