 LCModel (Version 6.3-1L) Copyright: S.W. Provencher.          Ref.: Magn. Reson. Med. 30:672-679 (1993).                
 Slice#1 Row#3 Col#8  PD_05_press_1_raw_act
 36 lines in following concentration table = NCONC+1
    Conc.  %SD /Cr+PCr  Metabolite                                         
  169.029  86%   0.178 Ala                                                 
    0.000 999%   0.000 Asp                                                 
  253.013  91%   0.266 Cr                                                  
  698.872  33%   0.734 PCr                                                 
   76.525 164% 8.0E-02 GABA                                                
    0.000 999%   0.000 Glc                                                 
   68.242 480% 7.2E-02 Gln                                                 
  783.140  48%   0.823 Glu                                                 
  416.865   5%   0.438 GPC                                                 
    0.000 999%   0.000 PCh                                                 
  305.596  24%   0.321 GSH                                                 
 1.12E+03  21%   1.176 Ins                                                 
   43.409 391% 4.6E-02 Lac                                                 
 1.14E+03  11%   1.196 NAA                                                 
  337.444  41%   0.355 NAAG                                                
  155.068  16%   0.163 Scyllo                                              
  126.926 126%   0.133 Tau                                                 
  280.723  32%   0.295 -CrCH2                                              
  416.865   5%   0.438 GPC+PCh                                             
 1.48E+03   6%   1.551 NAA+NAAG                                            
  951.885   5%   1.000 Cr+PCr                                              
  851.382  72%   0.894 Glu+Gln                                             
  910.844  47%   0.957 Lip13a                                              
    0.000 999%   0.000 Lip13b                                              
   60.335 394% 6.3E-02 Lip09                                               
 1.78E+03  16%   1.875 MM09                                                
  104.940 158%   0.110 Lip20                                               
 2.92E+03  11%   3.072 MM20                                                
  991.620  20%   1.042 MM12                                                
  678.212  40%   0.712 MM14                                                
  823.113  22%   0.865 MM17                                                
  910.844  47%   0.957 Lip13a+Lip13b                                       
 2.58E+03  11%   2.711 MM14+Lip13a+Lip13b+MM12                             
 1.84E+03   9%   1.938 MM09+Lip09                                          
 3.03E+03  10%   3.183 MM20+Lip20                                          
   6 lines in following misc. output table
  FWHM = 0.076 ppm    S/N =   8                                            
  Data shift = 0.000 ppm                                                   
  Ph: -38 deg     -19.9 deg/ppm                                            
  alphaB,S = 8.5E+01,   4.1E+02                                            
   14 spline knots.   Ns =10(1)                                            
   2 inflections.     1 extrema                                            
  498 points on ppm-axis = NY
      4.000000     3.992357     3.984714     3.977070     3.969427     3.961784     3.954141     3.946497     3.938854     3.931211
      3.923568     3.915925     3.908281     3.900638     3.892995     3.885352     3.877708     3.870065     3.862422     3.854779
      3.847136     3.839492     3.831849     3.824206     3.816563     3.808919     3.801276     3.793633     3.785990     3.778347
      3.770703     3.763060     3.755417     3.747774     3.740130     3.732487     3.724844     3.717201     3.709558     3.701914
      3.694271     3.686628     3.678985     3.671341     3.663698     3.656055     3.648412     3.640769     3.633125     3.625482
      3.617839     3.610196     3.602552     3.594909     3.587266     3.579623     3.571980     3.564336     3.556693     3.549050
      3.541407     3.533763     3.526120     3.518477     3.510834     3.503191     3.495547     3.487904     3.480261     3.472618
      3.464974     3.457331     3.449688     3.442045     3.434402     3.426758     3.419115     3.411472     3.403829     3.396185
      3.388542     3.380899     3.373256     3.365613     3.357969     3.350326     3.342683     3.335040     3.327396     3.319753
      3.312110     3.304467     3.296824     3.289180     3.281537     3.273894     3.266251     3.258607     3.250964     3.243321
      3.235678     3.228034     3.220391     3.212748     3.205105     3.197462     3.189818     3.182175     3.174532     3.166889
      3.159245     3.151602     3.143959     3.136316     3.128673     3.121029     3.113386     3.105743     3.098100     3.090456
      3.082813     3.075170     3.067527     3.059884     3.052240     3.044597     3.036954     3.029311     3.021667     3.014024
      3.006381     2.998738     2.991095     2.983451     2.975808     2.968165     2.960522     2.952878     2.945235     2.937592
      2.929949     2.922306     2.914662     2.907019     2.899376     2.891733     2.884089     2.876446     2.868803     2.861160
      2.853517     2.845873     2.838230     2.830587     2.822944     2.815300     2.807657     2.800014     2.792371     2.784728
      2.777084     2.769441     2.761798     2.754155     2.746511     2.738868     2.731225     2.723582     2.715939     2.708295
      2.700652     2.693009     2.685366     2.677722     2.670079     2.662436     2.654793     2.647150     2.639506     2.631863
      2.624220     2.616577     2.608933     2.601290     2.593647     2.586004     2.578361     2.570717     2.563074     2.555431
      2.547788     2.540144     2.532501     2.524858     2.517215     2.509572     2.501928     2.494285     2.486642     2.478999
      2.471355     2.463712     2.456069     2.448426     2.440783     2.433139     2.425496     2.417853     2.410210     2.402566
      2.394923     2.387280     2.379637     2.371994     2.364350     2.356707     2.349064     2.341421     2.333777     2.326134
      2.318491     2.310848     2.303205     2.295561     2.287918     2.280275     2.272632     2.264988     2.257345     2.249702
      2.242059     2.234416     2.226772     2.219129     2.211486     2.203843     2.196199     2.188556     2.180913     2.173270
      2.165627     2.157983     2.150340     2.142697     2.135054     2.127410     2.119767     2.112124     2.104481     2.096838
      2.089194     2.081551     2.073908     2.066265     2.058621     2.050978     2.043335     2.035692     2.028049     2.020405
      2.012762     2.005119     1.997476     1.989833     1.982190     1.974546     1.966903     1.959260     1.951617     1.943974
      1.936331     1.928688     1.921045     1.913402     1.905759     1.898115     1.890472     1.882829     1.875186     1.867543
      1.859900     1.852257     1.844614     1.836971     1.829327     1.821684     1.814041     1.806398     1.798755     1.791112
      1.783469     1.775826     1.768183     1.760540     1.752896     1.745253     1.737610     1.729967     1.722324     1.714681
      1.707038     1.699395     1.691752     1.684108     1.676465     1.668822     1.661179     1.653536     1.645893     1.638250
      1.630607     1.622964     1.615321     1.607677     1.600034     1.592391     1.584748     1.577105     1.569462     1.561819
      1.554176     1.546533     1.538890     1.531246     1.523603     1.515960     1.508317     1.500674     1.493031     1.485388
      1.477745     1.470102     1.462458     1.454815     1.447172     1.439529     1.431886     1.424243     1.416600     1.408957
      1.401314     1.393671     1.386027     1.378384     1.370741     1.363098     1.355455     1.347812     1.340169     1.332526
      1.324883     1.317240     1.309596     1.301953     1.294310     1.286667     1.279024     1.271381     1.263738     1.256095
      1.248452     1.240808     1.233165     1.225522     1.217879     1.210236     1.202593     1.194950     1.187307     1.179664
      1.172021     1.164377     1.156734     1.149091     1.141448     1.133805     1.126162     1.118519     1.110876     1.103233
      1.095590     1.087946     1.080303     1.072660     1.065017     1.057374     1.049731     1.042088     1.034445     1.026802
      1.019158     1.011515     1.003872     0.996229     0.988586     0.980943     0.973300     0.965657     0.958014     0.950371
      0.942727     0.935084     0.927441     0.919798     0.912155     0.904512     0.896869     0.889226     0.881583     0.873940
      0.866296     0.858653     0.851010     0.843367     0.835724     0.828081     0.820438     0.812795     0.805152     0.797508
      0.789865     0.782222     0.774579     0.766936     0.759293     0.751650     0.744007     0.736364     0.728721     0.721077
      0.713434     0.705791     0.698148     0.690505     0.682862     0.675219     0.667576     0.659933     0.652290     0.644646
      0.637003     0.629360     0.621717     0.614074     0.606431     0.598788     0.591145     0.583502     0.575858     0.568215
      0.560572     0.552929     0.545286     0.537643     0.530000     0.522357     0.514714     0.507071     0.499427     0.491784
      0.484141     0.476498     0.468855     0.461212     0.453569     0.445925     0.438282     0.430639     0.422996     0.415353
      0.407710     0.400067     0.392424     0.384780     0.377137     0.369494     0.361851     0.354208     0.346565     0.338922
      0.331278     0.323635     0.315992     0.308349     0.300706     0.293063     0.285420     0.277777     0.270133     0.262490
      0.254847     0.247204     0.239561     0.231918     0.224275     0.216631     0.208988     0.201345
 NY phased data points follow
   2.37476E-01  2.74537E+00  1.70425E-01  4.47288E+00  4.66271E+00  4.53729E+00  1.01000E+01  8.16588E+00  1.20984E+01  8.06512E+00
   6.01149E+00  1.14906E+01  7.85025E+00  5.48133E+00  5.63375E+00 -1.15772E-01 -1.89164E+00  2.54906E+00 -6.74720E-01 -5.88750E-02
   4.36674E-01 -1.52515E+00 -7.88074E-01 -8.28770E-01 -1.19821E+00 -2.35097E+00  5.05681E+00  3.15536E+00  2.74335E+00  3.09136E+00
   1.68105E+00  2.84905E+00  2.55443E+00  3.59477E+00  5.47956E+00  3.74205E+00  1.01591E+00  2.53151E+00 -7.33942E-02  4.12819E-01
   5.44158E+00  2.31417E+00  6.69675E+00  1.91383E+00  6.54613E+00  4.10400E+00  6.94139E+00  1.49820E+00  6.84758E+00  4.52432E+00
   4.87470E+00  2.67750E+00 -9.17038E-01  3.84185E+00  1.36726E+00 -2.35882E+00 -3.37977E+00 -8.79465E-02 -1.36848E+00 -2.94081E-01
  -1.88118E+00 -9.62331E-01  2.02898E-01 -7.59717E-01 -3.45918E+00 -3.06256E+00 -3.56347E+00 -3.94687E-01  3.65323E-01  1.80978E+00
  -1.98536E-02 -9.05348E-01  3.52632E-01 -1.45508E+00 -3.67668E+00 -7.60706E-01 -1.34436E+00 -1.17714E+00  1.29365E+00  1.41215E+00
   2.33041E+00  1.16496E+00  2.84074E+00  4.40110E+00  2.60424E+00  8.21711E+00  5.45946E+00  2.31425E+00  4.57838E+00  3.91069E+00
   2.21564E+00  7.49904E+00  1.79847E+00  4.59497E+00  9.62144E+00  1.16982E+01  1.12809E+01  1.06263E+01  1.72226E+01  2.08390E+01
   2.71048E+01  2.69151E+01  2.62779E+01  2.61994E+01  1.79674E+01  1.67202E+01  1.10142E+01  1.15932E+01  7.04685E+00  7.42910E+00
   2.25548E+00  5.70535E+00  6.21830E+00  2.13889E+00  3.56335E-01 -1.03401E+00  4.35759E+00  4.46761E+00  4.08656E+00  1.03811E+01
   5.25196E+00  8.52524E+00  1.13407E+01  2.12599E+01  2.26512E+01  2.06953E+01  2.44026E+01  2.12443E+01  2.11631E+01  1.30427E+01
   1.45180E+01  1.28790E+01  1.02469E+01  7.12347E+00 -9.14725E-01  5.18285E+00 -9.79755E-01  6.86938E-02  1.84106E+00 -2.86450E+00
   2.09251E-01  1.88899E+00 -8.58718E-01  1.55906E-01  6.76727E-01  6.90020E-01 -1.36468E+00  2.52296E+00 -2.75095E+00 -5.02555E-02
  -4.04270E+00 -2.38624E+00 -3.79164E+00  5.99733E-01  8.48130E-01  1.91112E+00 -1.74039E+00 -1.08957E+00  1.37071E-01 -1.12831E+00
  -4.44918E+00 -4.77725E+00 -1.81176E+00 -1.15050E+00  1.66681E+00 -2.90249E+00 -2.50799E+00 -3.21860E+00 -4.24884E+00 -4.96472E+00
  -5.41778E+00 -3.63534E+00 -3.85261E+00 -6.05921E+00 -7.36577E+00 -9.55105E+00 -3.69992E+00 -5.04501E+00 -3.88642E+00 -4.85013E+00
  -6.95570E+00 -4.29516E+00 -4.98731E+00 -5.35683E+00 -3.65761E+00 -3.10645E+00 -7.62033E+00 -5.85306E+00 -5.46809E+00 -8.67091E+00
  -3.19621E+00  1.75070E+00 -1.53503E+00 -3.66474E+00  4.38883E-01  1.47471E+00  1.16132E-01 -5.95105E-01 -1.54735E+00 -1.88692E+00
   7.32812E-01  7.66393E-01 -1.11173E-01 -1.51956E+00  6.57527E-01  5.08730E+00  3.02468E+00  4.84145E-01  2.51897E+00  2.48656E+00
  -2.35095E+00  8.92208E-01  4.93688E+00  5.54558E-01  1.46218E+00  3.93267E+00  5.82977E+00  4.17848E+00  5.16283E-01 -1.36176E-01
   2.01773E+00  1.31382E+00  2.23620E-01  3.10412E+00 -1.54629E+00 -1.18743E+00  4.67697E+00  6.09039E+00  5.11013E+00  5.05036E+00
   1.93330E+00  5.62745E+00  3.95398E+00  7.08343E+00  1.14677E+00  1.19332E+00  8.16742E+00  4.84375E+00  2.01455E+00  3.45493E+00
   7.64558E+00  4.31008E+00  8.03532E+00  1.05146E+01  8.23118E+00  1.25005E+01  1.15381E+01  1.17441E+01  1.59703E+01  1.34269E+01
   2.19677E+01  2.49125E+01  2.33891E+01  2.89371E+01  2.69416E+01  2.96206E+01  3.59431E+01  4.00336E+01  3.93282E+01  4.31710E+01
   4.13092E+01  4.43547E+01  4.01255E+01  3.45834E+01  2.53941E+01  1.97891E+01  2.06823E+01  1.43322E+01  1.42318E+01  1.14558E+01
   7.04932E+00  8.57734E+00  9.66421E+00  4.57157E+00  5.27576E+00  7.10276E+00  2.67687E+00  6.87258E+00  4.90558E+00  5.63667E+00
   6.17782E+00  9.24786E+00  4.80683E+00  1.89222E+00  1.58301E+00  1.32784E+00  2.22044E+00  1.09601E+00  7.63020E+00  3.42468E+00
   4.64926E+00  9.34279E+00  5.66133E+00  1.67447E+00  4.98395E+00  4.52489E+00  2.21313E+00  2.22769E+00  7.62832E+00  6.77292E+00
   4.23070E+00  4.62949E+00  7.43329E+00  4.53723E+00  6.69480E+00  3.74191E+00  1.04140E+01  8.85706E+00  6.46710E+00  5.73305E+00
   2.91879E-01  5.09213E+00  4.50509E+00  7.19803E+00  4.92784E+00  8.84796E+00  9.67131E+00  7.46672E+00  5.39577E+00  9.21981E+00
   4.93669E+00  4.61159E+00  6.04713E+00  7.98281E+00  3.00094E+00  6.06560E+00  5.46462E+00  3.39180E+00  2.32620E+00  4.84574E+00
   6.77149E+00  4.68019E+00  7.27259E+00  1.89010E+00  7.72881E+00  9.21320E+00  8.75838E+00  5.99698E+00  1.18384E+01  4.72683E+00
   9.19814E+00  5.70460E+00  8.39883E+00  5.07927E+00  8.06448E+00  7.64073E+00  7.76917E+00  1.08265E+01  5.61067E+00  7.63364E+00
   1.01952E+01  7.23772E+00  6.74670E+00  8.64665E+00  6.56447E+00  1.05097E+01  4.96014E+00  1.13533E+01  1.05407E+01  1.05689E+01
   6.85863E+00  1.35487E+01  1.22177E+01  1.19901E+01  1.03204E+01  1.03378E+01  8.30228E+00  1.16305E+01  9.19842E+00  9.97079E+00
   1.27591E+01  1.31275E+01  1.25978E+01  1.50813E+01  1.26059E+01  1.27272E+01  1.17640E+01  1.31803E+01  1.15507E+01  8.47153E+00
   9.90273E+00  8.75506E+00  1.03745E+01  9.43209E+00  8.89806E+00  7.19497E+00  8.52064E+00  7.75064E+00  1.02954E+01  1.11623E+01
   9.44946E+00  1.20820E+01  9.49897E+00  1.16823E+01  1.14698E+01  1.28402E+01  1.06606E+01  9.04350E+00  8.77644E+00  1.47311E+01
   1.49878E+01  1.35428E+01  1.20248E+01  1.51432E+01  1.78191E+01  1.30567E+01  1.22538E+01  1.41435E+01  1.55255E+01  1.72087E+01
   1.08296E+01  1.54050E+01  1.46310E+01  1.30819E+01  1.46025E+01  1.38291E+01  1.07530E+01  1.19698E+01  1.69705E+01  1.02248E+01
   1.10482E+01  9.04962E+00  8.75825E+00  8.66300E+00  5.84166E+00  5.16630E+00  1.13675E+01  5.66051E+00  4.41327E+00  7.26744E+00
   6.27369E+00  6.00136E+00  8.41934E+00  7.78177E+00  5.78119E+00  2.99594E+00  5.61192E+00  7.58062E+00  6.26610E+00  8.20675E+00
   1.20642E+00  1.73614E+00  5.74535E+00  4.86621E+00  6.17370E+00  3.70243E+00  3.91561E+00  1.35640E-01  3.97930E+00  4.92280E+00
   2.25543E+00  4.36676E+00  8.05247E+00  5.20905E+00  1.75147E+00  5.35089E+00  6.11290E+00  4.94073E+00  6.60881E+00  4.57628E+00
   3.86614E+00  2.11145E+00  2.84235E+00  2.28479E+00  1.91941E+00  4.06087E+00 -1.77164E-01  6.92898E+00  2.41821E+00  6.49875E+00
   5.65925E+00  5.18262E+00  3.45769E+00  5.05241E+00  3.67501E+00  4.25832E+00  2.99120E+00  6.26268E+00  3.07366E+00  4.34356E+00
   5.82790E+00  5.75184E+00  6.64531E+00  6.98456E+00  4.95260E+00  5.16389E+00  5.09187E+00  2.11550E+00  6.52952E+00  3.25633E+00
   6.47627E-01  6.15368E+00  4.86828E+00  3.11624E+00  6.22318E+00  6.60927E-01  5.61195E+00  5.88576E+00
 NY points of the fit to the data follow
   1.62544E+00  2.30397E+00  3.22357E+00  4.32043E+00  5.54422E+00  6.79903E+00  7.93991E+00  8.81852E+00  9.29676E+00  9.28462E+00
   8.78838E+00  7.90129E+00  6.75951E+00  5.49790E+00  4.22006E+00  3.01389E+00  1.93643E+00  1.00546E+00  2.02212E-01 -4.18638E-01
  -6.94138E-01 -6.65228E-01 -4.83964E-01 -1.69711E-01  2.67719E-01  8.23684E-01  1.47057E+00  2.16915E+00  2.86216E+00  3.43893E+00
   3.78805E+00  3.86180E+00  3.68878E+00  3.32133E+00  2.80370E+00  2.21310E+00  1.65780E+00  1.27826E+00  1.16000E+00  1.26423E+00
   1.49876E+00  1.85149E+00  2.35522E+00  2.95070E+00  3.53282E+00  3.99483E+00  4.22862E+00  4.14841E+00  3.73307E+00  3.07764E+00
   2.31990E+00  1.57319E+00  9.24454E-01  4.16921E-01  6.66476E-02 -1.41180E-01 -2.37190E-01 -2.44852E-01 -2.02801E-01 -1.43193E-01
  -1.16591E-01 -1.62826E-01 -2.64679E-01 -3.84447E-01 -4.84821E-01 -5.30281E-01 -4.97195E-01 -3.96410E-01 -2.57762E-01 -1.16516E-01
   1.85457E-03  9.34079E-02  1.55803E-01  1.79720E-01  1.62673E-01  1.27391E-01  1.93610E-01  4.73361E-01  8.53579E-01  1.24644E+00
   1.65983E+00  2.14479E+00  2.70954E+00  3.28497E+00  3.75746E+00  4.01534E+00  4.01112E+00  3.74718E+00  3.27437E+00  2.70373E+00
   2.18349E+00  1.97731E+00  2.71820E+00  4.49791E+00  6.76610E+00  9.21424E+00  1.18633E+01  1.48582E+01  1.81742E+01  2.14334E+01
   2.40425E+01  2.55247E+01  2.56059E+01  2.42438E+01  2.16646E+01  1.83208E+01  1.47272E+01  1.12804E+01  8.19025E+00  5.53490E+00
   3.34027E+00  1.59570E+00  2.76253E-01 -5.70985E-01 -8.34435E-01 -6.07466E-01  2.45650E-01  1.94037E+00  4.10400E+00  6.42554E+00
   8.86801E+00  1.15419E+01  1.44614E+01  1.74030E+01  1.99689E+01  2.17248E+01  2.23612E+01  2.17698E+01  2.00651E+01  1.75749E+01
   1.47182E+01  1.18357E+01  9.13398E+00  6.69819E+00  4.58012E+00  2.81611E+00  1.42725E+00  4.59514E-01 -9.73369E-03 -7.83921E-02
  -1.99430E-02  4.17670E-02  6.30339E-02  2.77284E-02 -6.44934E-02 -1.99340E-01 -3.57884E-01 -5.34428E-01 -7.20948E-01 -9.07896E-01
  -1.09779E+00 -1.30022E+00 -1.50265E+00 -1.67949E+00 -1.81065E+00 -1.89455E+00 -1.96289E+00 -2.05055E+00 -2.16379E+00 -2.29032E+00
  -2.41517E+00 -2.52279E+00 -2.60927E+00 -2.68643E+00 -2.77444E+00 -2.89918E+00 -3.07931E+00 -3.29515E+00 -3.49175E+00 -3.64522E+00
  -3.76634E+00 -3.88935E+00 -4.02964E+00 -4.16792E+00 -4.26652E+00 -4.31506E+00 -4.32608E+00 -4.31945E+00 -4.29556E+00 -4.23039E+00
  -4.10604E+00 -3.91347E+00 -3.64664E+00 -3.30879E+00 -2.91387E+00 -2.46891E+00 -1.97969E+00 -1.46875E+00 -9.97412E-01 -5.94432E-01
  -2.69039E-01 -4.84294E-02  4.92853E-02  3.92109E-02 -1.62578E-02 -5.92285E-02 -5.07099E-02  1.41666E-02  1.26437E-01  2.77603E-01
   4.37055E-01  5.78731E-01  6.72915E-01  6.82792E-01  6.10460E-01  4.88127E-01  3.91049E-01  3.44814E-01  3.31118E-01  3.61663E-01
   4.65262E-01  6.64034E-01  9.05597E-01  1.10405E+00  1.22880E+00  1.27735E+00  1.21253E+00  1.00797E+00  6.95242E-01  3.69105E-01
   1.44741E-01  8.79463E-02  2.16142E-01  5.44020E-01  1.04622E+00  1.65141E+00  2.28192E+00  2.89466E+00  3.48692E+00  4.03320E+00
   4.51374E+00  4.94338E+00  5.34602E+00  5.71112E+00  6.02297E+00  6.28312E+00  6.51325E+00  6.71411E+00  6.89077E+00  7.07753E+00
   7.31839E+00  7.65336E+00  8.10386E+00  8.66810E+00  9.32778E+00  1.01131E+01  1.11469E+01  1.23478E+01  1.35699E+01  1.48622E+01
   1.67647E+01  1.97030E+01  2.32036E+01  2.67785E+01  3.02295E+01  3.35673E+01  3.67591E+01  3.95590E+01  4.15761E+01  4.24567E+01
   4.19845E+01  4.01048E+01  3.69640E+01  3.29431E+01  2.85525E+01  2.42334E+01  2.02526E+01  1.67565E+01  1.38287E+01  1.14145E+01
   9.43621E+00  7.89910E+00  6.90004E+00  6.35429E+00  5.96438E+00  5.62561E+00  5.31393E+00  5.01988E+00  4.74227E+00  4.48880E+00
   4.26329E+00  4.06768E+00  3.90553E+00  3.77948E+00  3.68821E+00  3.63064E+00  3.60727E+00  3.61793E+00  3.66081E+00  3.73244E+00
   3.83120E+00  3.95563E+00  4.10231E+00  4.26639E+00  4.44396E+00  4.63185E+00  4.82669E+00  5.02521E+00  5.22450E+00  5.42057E+00
   5.60879E+00  5.78428E+00  5.94177E+00  6.07673E+00  6.18626E+00  6.26796E+00  6.32031E+00  6.34338E+00  6.33870E+00  6.30903E+00
   6.25804E+00  6.19041E+00  6.11248E+00  6.03148E+00  5.95579E+00  5.89677E+00  5.87426E+00  5.91198E+00  5.97390E+00  6.01966E+00
   6.04539E+00  6.06025E+00  6.06172E+00  6.02237E+00  5.90581E+00  5.73352E+00  5.54452E+00  5.34770E+00  5.15622E+00  5.00606E+00
   4.95025E+00  5.03050E+00  5.25346E+00  5.59197E+00  6.00188E+00  6.43454E+00  6.84480E+00  7.20541E+00  7.50353E+00  7.73193E+00
   7.88513E+00  7.97625E+00  8.02623E+00  8.04629E+00  8.03894E+00  8.01491E+00  7.99113E+00  7.98954E+00  8.01905E+00  8.07961E+00
   8.18117E+00  8.33390E+00  8.53930E+00  8.78932E+00  9.07036E+00  9.36702E+00  9.66382E+00  9.94806E+00  1.02129E+01  1.04558E+01
   1.06719E+01  1.08559E+01  1.10067E+01  1.11231E+01  1.12029E+01  1.12439E+01  1.12455E+01  1.12112E+01  1.11418E+01  1.10360E+01
   1.08949E+01  1.07219E+01  1.05217E+01  1.03002E+01  1.00640E+01  9.82049E+00  9.57714E+00  9.34166E+00  9.12153E+00  8.92387E+00
   8.75523E+00  8.62155E+00  8.52799E+00  8.47893E+00  8.47786E+00  8.52739E+00  8.62916E+00  8.78391E+00  8.99135E+00  9.25020E+00
   9.55801E+00  9.91121E+00  1.03050E+01  1.07334E+01  1.11893E+01  1.16642E+01  1.21489E+01  1.26331E+01  1.31060E+01  1.35566E+01
   1.39736E+01  1.43466E+01  1.46657E+01  1.49224E+01  1.51097E+01  1.52224E+01  1.52576E+01  1.52142E+01  1.50936E+01  1.48992E+01
   1.46362E+01  1.43115E+01  1.39334E+01  1.35107E+01  1.30531E+01  1.25701E+01  1.20712E+01  1.15653E+01  1.10602E+01  1.05632E+01
   1.00800E+01  9.61563E+00  9.17366E+00  8.75676E+00  8.36654E+00  8.00380E+00  7.66859E+00  7.36043E+00  7.07832E+00  6.82100E+00
   6.58692E+00  6.37445E+00  6.18186E+00  6.00751E+00  5.84973E+00  5.70698E+00  5.57776E+00  5.46076E+00  5.35473E+00  5.25858E+00
   5.17129E+00  5.09199E+00  5.01983E+00  4.95414E+00  4.89426E+00  4.83967E+00  4.78984E+00  4.74435E+00  4.70276E+00  4.66477E+00
   4.63004E+00  4.59832E+00  4.56934E+00  4.54288E+00  4.51872E+00  4.49672E+00  4.47669E+00  4.45850E+00  4.44199E+00  4.42705E+00
   4.41356E+00  4.40145E+00  4.39060E+00  4.38095E+00  4.37238E+00  4.36485E+00  4.35828E+00  4.35264E+00  4.34784E+00  4.34386E+00
   4.34060E+00  4.33806E+00  4.33619E+00  4.33496E+00  4.33431E+00  4.33423E+00  4.33466E+00  4.33559E+00  4.33699E+00  4.33885E+00
   4.34111E+00  4.34377E+00  4.34678E+00  4.35015E+00  4.35385E+00  4.35787E+00  4.36216E+00  4.36673E+00  4.37153E+00  4.37659E+00
   4.38185E+00  4.38732E+00  4.39295E+00  4.39874E+00  4.40467E+00  4.41074E+00  4.41690E+00  4.42314E+00
 NY background values follow
    -5.305E+00   -5.288E+00   -5.271E+00   -5.254E+00   -5.236E+00   -5.219E+00   -5.202E+00   -5.185E+00   -5.167E+00   -5.150E+00
    -5.133E+00   -5.116E+00   -5.098E+00   -5.081E+00   -5.064E+00   -5.047E+00   -5.029E+00   -5.012E+00   -4.995E+00   -4.977E+00
    -4.960E+00   -4.943E+00   -4.925E+00   -4.908E+00   -4.891E+00   -4.874E+00   -4.856E+00   -4.839E+00   -4.822E+00   -4.804E+00
    -4.787E+00   -4.769E+00   -4.752E+00   -4.735E+00   -4.717E+00   -4.700E+00   -4.683E+00   -4.665E+00   -4.648E+00   -4.631E+00
    -4.613E+00   -4.596E+00   -4.578E+00   -4.561E+00   -4.544E+00   -4.526E+00   -4.509E+00   -4.492E+00   -4.474E+00   -4.457E+00
    -4.439E+00   -4.422E+00   -4.404E+00   -4.387E+00   -4.370E+00   -4.352E+00   -4.335E+00   -4.317E+00   -4.300E+00   -4.282E+00
    -4.265E+00   -4.248E+00   -4.230E+00   -4.213E+00   -4.195E+00   -4.178E+00   -4.160E+00   -4.143E+00   -4.125E+00   -4.108E+00
    -4.090E+00   -4.073E+00   -4.056E+00   -4.038E+00   -4.021E+00   -4.003E+00   -3.986E+00   -3.968E+00   -3.951E+00   -3.933E+00
    -3.916E+00   -3.898E+00   -3.881E+00   -3.863E+00   -3.846E+00   -3.828E+00   -3.811E+00   -3.793E+00   -3.776E+00   -3.758E+00
    -3.741E+00   -3.723E+00   -3.705E+00   -3.688E+00   -3.670E+00   -3.653E+00   -3.635E+00   -3.618E+00   -3.600E+00   -3.583E+00
    -3.565E+00   -3.548E+00   -3.530E+00   -3.512E+00   -3.495E+00   -3.477E+00   -3.460E+00   -3.442E+00   -3.425E+00   -3.407E+00
    -3.390E+00   -3.372E+00   -3.354E+00   -3.337E+00   -3.319E+00   -3.302E+00   -3.284E+00   -3.266E+00   -3.249E+00   -3.231E+00
    -3.214E+00   -3.196E+00   -3.179E+00   -3.161E+00   -3.143E+00   -3.126E+00   -3.108E+00   -3.091E+00   -3.073E+00   -3.055E+00
    -3.038E+00   -3.020E+00   -3.002E+00   -2.985E+00   -2.967E+00   -2.950E+00   -2.932E+00   -2.914E+00   -2.897E+00   -2.879E+00
    -2.861E+00   -2.844E+00   -2.826E+00   -2.809E+00   -2.791E+00   -2.773E+00   -2.756E+00   -2.738E+00   -2.720E+00   -2.703E+00
    -2.685E+00   -2.667E+00   -2.650E+00   -2.632E+00   -2.615E+00   -2.597E+00   -2.579E+00   -2.562E+00   -2.544E+00   -2.526E+00
    -2.509E+00   -2.491E+00   -2.473E+00   -2.456E+00   -2.438E+00   -2.420E+00   -2.403E+00   -2.385E+00   -2.367E+00   -2.350E+00
    -2.332E+00   -2.314E+00   -2.297E+00   -2.279E+00   -2.261E+00   -2.244E+00   -2.226E+00   -2.208E+00   -2.191E+00   -2.173E+00
    -2.155E+00   -2.137E+00   -2.120E+00   -2.102E+00   -2.084E+00   -2.067E+00   -2.049E+00   -2.031E+00   -2.014E+00   -1.996E+00
    -1.978E+00   -1.961E+00   -1.943E+00   -1.925E+00   -1.908E+00   -1.890E+00   -1.872E+00   -1.854E+00   -1.837E+00   -1.819E+00
    -1.801E+00   -1.784E+00   -1.766E+00   -1.748E+00   -1.731E+00   -1.713E+00   -1.695E+00   -1.677E+00   -1.660E+00   -1.642E+00
    -1.624E+00   -1.607E+00   -1.589E+00   -1.571E+00   -1.553E+00   -1.536E+00   -1.518E+00   -1.500E+00   -1.483E+00   -1.465E+00
    -1.447E+00   -1.430E+00   -1.412E+00   -1.394E+00   -1.376E+00   -1.359E+00   -1.341E+00   -1.323E+00   -1.306E+00   -1.288E+00
    -1.270E+00   -1.252E+00   -1.235E+00   -1.217E+00   -1.199E+00   -1.182E+00   -1.164E+00   -1.146E+00   -1.128E+00   -1.111E+00
    -1.093E+00   -1.075E+00   -1.058E+00   -1.040E+00   -1.022E+00   -1.004E+00   -9.867E-01   -9.690E-01   -9.513E-01   -9.336E-01
    -9.159E-01   -8.982E-01   -8.805E-01   -8.628E-01   -8.451E-01   -8.273E-01   -8.096E-01   -7.919E-01   -7.742E-01   -7.565E-01
    -7.388E-01   -7.211E-01   -7.034E-01   -6.857E-01   -6.680E-01   -6.503E-01   -6.326E-01   -6.149E-01   -5.972E-01   -5.795E-01
    -5.618E-01   -5.441E-01   -5.264E-01   -5.087E-01   -4.910E-01   -4.733E-01   -4.556E-01   -4.379E-01   -4.202E-01   -4.025E-01
    -3.848E-01   -3.671E-01   -3.494E-01   -3.317E-01   -3.140E-01   -2.963E-01   -2.786E-01   -2.609E-01   -2.432E-01   -2.255E-01
    -2.078E-01   -1.902E-01   -1.725E-01   -1.548E-01   -1.371E-01   -1.194E-01   -1.017E-01   -8.405E-02   -6.637E-02   -4.869E-02
    -3.101E-02   -1.334E-02    4.341E-03    2.202E-02    3.969E-02    5.736E-02    7.503E-02    9.271E-02    1.104E-01    1.280E-01
     1.457E-01    1.634E-01    1.810E-01    1.987E-01    2.164E-01    2.340E-01    2.517E-01    2.693E-01    2.870E-01    3.047E-01
     3.223E-01    3.400E-01    3.576E-01    3.753E-01    3.929E-01    4.106E-01    4.282E-01    4.458E-01    4.635E-01    4.811E-01
     4.988E-01    5.164E-01    5.340E-01    5.517E-01    5.693E-01    5.869E-01    6.046E-01    6.222E-01    6.398E-01    6.574E-01
     6.751E-01    6.927E-01    7.103E-01    7.279E-01    7.455E-01    7.631E-01    7.808E-01    7.984E-01    8.160E-01    8.336E-01
     8.512E-01    8.688E-01    8.864E-01    9.040E-01    9.216E-01    9.392E-01    9.568E-01    9.744E-01    9.919E-01    1.010E+00
     1.027E+00    1.045E+00    1.062E+00    1.080E+00    1.097E+00    1.115E+00    1.133E+00    1.150E+00    1.168E+00    1.185E+00
     1.203E+00    1.220E+00    1.238E+00    1.255E+00    1.273E+00    1.291E+00    1.308E+00    1.326E+00    1.343E+00    1.361E+00
     1.378E+00    1.396E+00    1.413E+00    1.431E+00    1.448E+00    1.466E+00    1.483E+00    1.501E+00    1.519E+00    1.536E+00
     1.554E+00    1.571E+00    1.589E+00    1.606E+00    1.624E+00    1.641E+00    1.659E+00    1.676E+00    1.694E+00    1.711E+00
     1.729E+00    1.746E+00    1.763E+00    1.781E+00    1.798E+00    1.816E+00    1.833E+00    1.851E+00    1.868E+00    1.886E+00
     1.903E+00    1.921E+00    1.938E+00    1.956E+00    1.973E+00    1.990E+00    2.008E+00    2.025E+00    2.043E+00    2.060E+00
     2.078E+00    2.095E+00    2.112E+00    2.130E+00    2.147E+00    2.165E+00    2.182E+00    2.200E+00    2.217E+00    2.234E+00
     2.252E+00    2.269E+00    2.287E+00    2.304E+00    2.321E+00    2.339E+00    2.356E+00    2.373E+00    2.391E+00    2.408E+00
     2.425E+00    2.443E+00    2.460E+00    2.478E+00    2.495E+00    2.512E+00    2.530E+00    2.547E+00    2.564E+00    2.582E+00
     2.599E+00    2.616E+00    2.634E+00    2.651E+00    2.668E+00    2.685E+00    2.703E+00    2.720E+00    2.737E+00    2.755E+00
     2.772E+00    2.789E+00    2.807E+00    2.824E+00    2.841E+00    2.858E+00    2.876E+00    2.893E+00    2.910E+00    2.927E+00
     2.945E+00    2.962E+00    2.979E+00    2.996E+00    3.014E+00    3.031E+00    3.048E+00    3.065E+00    3.082E+00    3.100E+00
     3.117E+00    3.134E+00    3.151E+00    3.169E+00    3.186E+00    3.203E+00    3.220E+00    3.237E+00    3.254E+00    3.272E+00
     3.289E+00    3.306E+00    3.323E+00    3.340E+00    3.357E+00    3.375E+00    3.392E+00    3.409E+00
 Ala      Conc. = 1.69E+02
