 LCModel (Version 6.3-1L) Copyright: S.W. Provencher.          Ref.: Magn. Reson. Med. 30:672-679 (1993).                
 Slice#1 Row#11 Col#11  PD_05_press_1_raw_act
 36 lines in following concentration table = NCONC+1
    Conc.  %SD /Cr+PCr  Metabolite                                         
  117.296  65%   0.229 Ala                                                 
    0.000 999%   0.000 Asp                                                 
  116.435 127%   0.227 Cr                                                  
  396.036  38%   0.773 PCr                                                 
   21.204 333% 4.1E-02 GABA                                                
   22.655 301% 4.4E-02 Glc                                                 
  459.960  38%   0.898 Gln                                                 
 1.02E+03  20%   1.994 Glu                                                 
  151.838   8%   0.296 GPC                                                 
    0.000 999%   0.000 PCh                                                 
  111.963  41%   0.218 GSH                                                 
  546.747  26%   1.067 Ins                                                 
    0.000 999%   0.000 Lac                                                 
 1.09E+03   9%   2.128 NAA                                                 
  198.528  52%   0.387 NAAG                                                
   47.291  30% 9.2E-02 Scyllo                                              
  135.690  71%   0.265 Tau                                                 
  297.844  20%   0.581 -CrCH2                                              
  151.838   8%   0.296 GPC+PCh                                             
 1.29E+03   4%   2.515 NAA+NAAG                                            
  512.471   6%   1.000 Cr+PCr                                              
 1.48E+03  21%   2.891 Glu+Gln                                             
 1.18E+03  26%   2.309 Lip13a                                              
    0.000 999%   0.000 Lip13b                                              
  243.653  60%   0.475 Lip09                                               
  574.081  26%   1.120 MM09                                                
  238.624  43%   0.466 Lip20                                               
  990.077  20%   1.932 MM20                                                
  155.364  59%   0.303 MM12                                                
  686.470  30%   1.340 MM14                                                
  441.698  24%   0.862 MM17                                                
 1.18E+03  26%   2.309 Lip13a+Lip13b                                       
 2.03E+03   9%   3.952 MM14+Lip13a+Lip13b+MM12                             
  817.735  11%   1.596 MM09+Lip09                                          
 1.23E+03  15%   2.398 MM20+Lip20                                          
   6 lines in following misc. output table
  FWHM = 0.069 ppm    S/N =  10                                            
  Data shift = 0.008 ppm                                                   
  Ph: -24 deg      -6.9 deg/ppm                                            
  alphaB,S = 8.5E+01,   3.9E+02                                            
   14 spline knots.   Ns = 8(1)                                            
   2 inflections.     1 extrema                                            
  498 points on ppm-axis = NY
      4.000000     3.992357     3.984714     3.977070     3.969427     3.961784     3.954141     3.946497     3.938854     3.931211
      3.923568     3.915925     3.908281     3.900638     3.892995     3.885352     3.877708     3.870065     3.862422     3.854779
      3.847136     3.839492     3.831849     3.824206     3.816563     3.808919     3.801276     3.793633     3.785990     3.778347
      3.770703     3.763060     3.755417     3.747774     3.740130     3.732487     3.724844     3.717201     3.709558     3.701914
      3.694271     3.686628     3.678985     3.671341     3.663698     3.656055     3.648412     3.640769     3.633125     3.625482
      3.617839     3.610196     3.602552     3.594909     3.587266     3.579623     3.571980     3.564336     3.556693     3.549050
      3.541407     3.533763     3.526120     3.518477     3.510834     3.503191     3.495547     3.487904     3.480261     3.472618
      3.464974     3.457331     3.449688     3.442045     3.434402     3.426758     3.419115     3.411472     3.403829     3.396185
      3.388542     3.380899     3.373256     3.365613     3.357969     3.350326     3.342683     3.335040     3.327396     3.319753
      3.312110     3.304467     3.296824     3.289180     3.281537     3.273894     3.266251     3.258607     3.250964     3.243321
      3.235678     3.228034     3.220391     3.212748     3.205105     3.197462     3.189818     3.182175     3.174532     3.166889
      3.159245     3.151602     3.143959     3.136316     3.128673     3.121029     3.113386     3.105743     3.098100     3.090456
      3.082813     3.075170     3.067527     3.059884     3.052240     3.044597     3.036954     3.029311     3.021667     3.014024
      3.006381     2.998738     2.991095     2.983451     2.975808     2.968165     2.960522     2.952878     2.945235     2.937592
      2.929949     2.922306     2.914662     2.907019     2.899376     2.891733     2.884089     2.876446     2.868803     2.861160
      2.853517     2.845873     2.838230     2.830587     2.822944     2.815300     2.807657     2.800014     2.792371     2.784728
      2.777084     2.769441     2.761798     2.754155     2.746511     2.738868     2.731225     2.723582     2.715939     2.708295
      2.700652     2.693009     2.685366     2.677722     2.670079     2.662436     2.654793     2.647150     2.639506     2.631863
      2.624220     2.616577     2.608933     2.601290     2.593647     2.586004     2.578361     2.570717     2.563074     2.555431
      2.547788     2.540144     2.532501     2.524858     2.517215     2.509572     2.501928     2.494285     2.486642     2.478999
      2.471355     2.463712     2.456069     2.448426     2.440783     2.433139     2.425496     2.417853     2.410210     2.402566
      2.394923     2.387280     2.379637     2.371994     2.364350     2.356707     2.349064     2.341421     2.333777     2.326134
      2.318491     2.310848     2.303205     2.295561     2.287918     2.280275     2.272632     2.264988     2.257345     2.249702
      2.242059     2.234416     2.226772     2.219129     2.211486     2.203843     2.196199     2.188556     2.180913     2.173270
      2.165627     2.157983     2.150340     2.142697     2.135054     2.127410     2.119767     2.112124     2.104481     2.096838
      2.089194     2.081551     2.073908     2.066265     2.058621     2.050978     2.043335     2.035692     2.028049     2.020405
      2.012762     2.005119     1.997476     1.989833     1.982190     1.974546     1.966903     1.959260     1.951617     1.943974
      1.936331     1.928688     1.921045     1.913402     1.905759     1.898115     1.890472     1.882829     1.875186     1.867543
      1.859900     1.852257     1.844614     1.836971     1.829327     1.821684     1.814041     1.806398     1.798755     1.791112
      1.783469     1.775826     1.768183     1.760540     1.752896     1.745253     1.737610     1.729967     1.722324     1.714681
      1.707038     1.699395     1.691752     1.684108     1.676465     1.668822     1.661179     1.653536     1.645893     1.638250
      1.630607     1.622964     1.615321     1.607677     1.600034     1.592391     1.584748     1.577105     1.569462     1.561819
      1.554176     1.546533     1.538890     1.531246     1.523603     1.515960     1.508317     1.500674     1.493031     1.485388
      1.477745     1.470102     1.462458     1.454815     1.447172     1.439529     1.431886     1.424243     1.416600     1.408957
      1.401314     1.393671     1.386027     1.378384     1.370741     1.363098     1.355455     1.347812     1.340169     1.332526
      1.324883     1.317240     1.309596     1.301953     1.294310     1.286667     1.279024     1.271381     1.263738     1.256095
      1.248452     1.240808     1.233165     1.225522     1.217879     1.210236     1.202593     1.194950     1.187307     1.179664
      1.172021     1.164377     1.156734     1.149091     1.141448     1.133805     1.126162     1.118519     1.110876     1.103233
      1.095590     1.087946     1.080303     1.072660     1.065017     1.057374     1.049731     1.042088     1.034445     1.026802
      1.019158     1.011515     1.003872     0.996229     0.988586     0.980943     0.973300     0.965657     0.958014     0.950371
      0.942727     0.935084     0.927441     0.919798     0.912155     0.904512     0.896869     0.889226     0.881583     0.873940
      0.866296     0.858653     0.851010     0.843367     0.835724     0.828081     0.820438     0.812795     0.805152     0.797508
      0.789865     0.782222     0.774579     0.766936     0.759293     0.751650     0.744007     0.736364     0.728721     0.721077
      0.713434     0.705791     0.698148     0.690505     0.682862     0.675219     0.667576     0.659933     0.652290     0.644646
      0.637003     0.629360     0.621717     0.614074     0.606431     0.598788     0.591145     0.583502     0.575858     0.568215
      0.560572     0.552929     0.545286     0.537643     0.530000     0.522357     0.514714     0.507071     0.499427     0.491784
      0.484141     0.476498     0.468855     0.461212     0.453569     0.445925     0.438282     0.430639     0.422996     0.415353
      0.407710     0.400067     0.392424     0.384780     0.377137     0.369494     0.361851     0.354208     0.346565     0.338922
      0.331278     0.323635     0.315992     0.308349     0.300706     0.293063     0.285420     0.277777     0.270133     0.262490
      0.254847     0.247204     0.239561     0.231918     0.224275     0.216631     0.208988     0.201345
 NY phased data points follow
   2.06780E+00  2.20651E+00  1.14851E+00  2.06349E+00  2.55738E+00  1.67440E+00  1.57705E+00  1.60763E+00  2.63427E+00  2.06481E+00
   6.22352E+00  3.94512E+00  2.99717E+00  4.23597E+00  3.64007E+00  2.25711E+00  9.90382E-01  1.77402E+00  3.41903E+00  2.26932E+00
   2.97113E+00  3.38630E-01  1.89082E+00 -1.32738E+00  2.45553E+00  1.59866E+00  3.79707E+00 -1.01808E-01  3.21958E+00 -5.54263E-03
   3.94839E+00  1.19089E+00 -8.86288E-01  1.91732E+00  3.01698E+00  3.19200E+00  3.64349E+00  2.16351E+00  2.31014E+00  3.56223E+00
   4.02094E-02 -1.84818E-01  4.63832E+00  5.92279E+00  1.88120E+00  5.06622E+00  3.26238E+00  4.72301E+00  3.61391E+00  3.56727E+00
   1.84038E+00  3.10822E+00  1.11485E+00  4.17229E+00  1.79323E+00  2.47326E+00  7.60107E-01  1.75466E+00  2.97011E-01  2.81831E+00
   1.46748E+00  1.51170E+00  1.88959E+00 -1.72788E+00 -3.37005E-01 -2.26921E-01  1.03497E+00  6.63954E-01  6.92780E-01  1.98331E+00
  -7.35400E-01  9.53572E-01  1.57022E+00  3.29542E-01  3.76311E+00 -1.30051E+00  1.56698E+00  2.59800E+00  4.90707E-01 -2.80425E-02
   7.73561E-01  1.08685E+00 -2.60114E-01  3.28122E+00 -2.58613E-01  2.40207E+00  1.13099E+00  2.36270E+00  5.29089E-01  1.17955E+00
   3.25045E+00  1.04048E+00  1.03284E+00  1.33148E+00  4.08877E+00  3.43914E+00  4.78138E+00  5.16203E+00  5.82570E+00  6.54414E+00
   7.56494E+00  8.95103E+00  6.58778E+00  1.14179E+01  1.31026E+01  1.15416E+01  1.14445E+01  7.14595E+00  3.00083E+00  4.30112E+00
   1.21909E+00  5.37010E-01  9.74665E-01 -6.21789E-01  2.97011E-01  4.35817E-01  4.00239E+00  2.20775E+00  2.91774E+00  3.34174E+00
   5.50640E+00  4.56387E+00  6.37864E+00  9.22612E+00  7.03915E+00  1.10234E+01  1.23519E+01  1.29213E+01  1.44585E+01  1.75572E+01
   1.30108E+01  1.06010E+01  8.19113E+00  3.12872E+00  1.42907E+00 -2.40787E+00  5.04581E-01  2.80135E+00  2.49635E+00  3.40095E+00
   5.60233E-01  1.14078E+00  3.50574E+00  3.09458E+00 -3.39622E-01  9.41595E-01  1.08032E+00 -5.46822E-01  4.14653E+00  1.94248E+00
   2.88857E+00  2.48859E+00  3.21284E+00  4.80641E+00  2.49426E+00  3.19131E+00  1.63461E+00  3.12068E+00  1.93508E+00  8.19026E-01
   8.50784E-01  1.45455E+00 -1.53701E+00  1.17417E+00 -1.75560E-01 -2.42209E+00 -1.27609E+00 -3.36949E+00 -2.98387E+00 -1.97043E+00
  -4.36304E+00 -1.56636E+00 -5.60305E+00 -6.65450E+00 -4.93495E+00 -6.29712E+00 -4.15572E+00 -4.69331E+00 -8.50654E+00 -3.76919E+00
  -4.26148E+00 -2.34681E+00 -6.59970E+00 -2.89182E+00 -2.02425E+00 -2.69002E+00 -2.61809E+00 -1.80670E+00 -2.81380E+00 -3.55147E+00
  -2.24139E+00 -2.89120E+00  1.40279E+00 -3.15052E+00 -2.74354E+00 -4.03635E+00 -4.82354E+00 -3.79588E+00 -3.09935E+00 -3.74000E+00
  -2.58896E+00 -3.24601E+00 -1.18682E+00  5.22647E-02  2.87009E+00  2.04538E+00  6.27437E-01  3.78180E+00 -2.01644E+00  6.63866E-01
   4.51094E-01  1.49157E+00  1.36180E+00  3.10619E+00  4.82039E+00  6.28504E+00  3.70540E+00  7.49843E+00  3.22858E+00  1.97563E+00
   2.56579E+00 -2.89207E-01  1.05825E+00 -2.22727E+00 -2.39967E+00  9.65009E-02  6.46192E-01  2.61005E+00  4.99773E+00  5.75334E+00
   3.01667E+00  1.07531E+00  5.32709E+00  4.59667E+00  4.27763E+00  3.98248E+00  3.80297E+00  3.08748E+00  2.16598E+00  1.80039E+00
   3.43410E+00  1.56585E+00  2.42261E+00  2.33335E-01 -8.30175E-01  1.90869E+00  3.64341E+00  4.92927E+00  7.73415E+00  7.20177E+00
   8.51919E+00  9.04660E+00  1.04135E+01  1.63636E+01  1.76178E+01  2.14025E+01  2.67424E+01  3.17938E+01  3.48337E+01  3.58180E+01
   3.76168E+01  3.74031E+01  3.47815E+01  3.06059E+01  2.39674E+01  1.62370E+01  8.31962E+00  4.76277E+00  3.23512E+00  4.04450E+00
   1.41872E+00  3.84332E+00  2.84462E+00  6.42346E+00  4.89864E+00  5.49671E+00  4.33128E+00 -4.74784E-01  2.07618E+00  1.39659E+00
   2.39645E+00  5.55387E-01  3.28691E+00  2.87907E+00  8.55523E-01  3.15008E+00  2.69525E+00  4.87681E+00  2.53773E+00  3.31051E+00
   4.32364E+00  2.71180E+00  1.90033E+00  3.94394E+00  3.23944E+00  4.19809E+00  2.86901E+00  3.44085E+00  1.14120E+00  2.96746E+00
   2.32390E+00  1.77930E+00  3.58906E+00  2.02371E+00  2.35651E+00  3.80758E+00  4.50640E+00  5.70402E+00  1.46904E+00  4.35672E+00
   3.86299E+00  4.26964E+00  5.43133E+00  3.43547E+00  1.58191E+00  8.23670E-01  1.33489E+00  2.24717E+00  4.13373E+00  9.17442E-01
   2.86468E+00  2.68755E+00  2.40665E+00  3.53399E+00  5.17851E+00  5.19609E+00  5.87922E+00  5.12273E+00  2.49051E+00  4.27654E+00
   4.10853E+00  3.47921E+00  2.90888E+00  4.34561E+00  4.68172E+00  5.45640E+00  6.84177E+00  6.21411E+00  7.51278E+00  5.63840E+00
   5.92956E+00  6.98033E+00  6.06843E+00  7.15814E+00  7.61840E+00  7.30880E+00  8.75886E+00  1.03402E+01  8.59030E+00  9.44704E+00
   7.92090E+00  7.93202E+00  7.14924E+00  6.86214E+00  6.23693E+00  7.80481E+00  9.58571E+00  6.42586E+00  6.61517E+00  6.80323E+00
   5.41355E+00  5.30243E+00  4.14019E+00  5.12494E+00  3.60786E+00  4.01226E+00  4.77868E+00  4.25268E+00  4.36134E+00  3.02561E+00
   3.34192E+00  5.26214E+00  3.56848E+00  4.32410E+00  2.80716E+00  5.15944E+00  1.61391E+00  4.00641E+00  1.90508E+00  3.06312E+00
   1.84683E+00  2.33947E+00  2.02661E+00  3.87852E+00  1.29326E+00  3.11200E+00  3.95239E+00  2.78933E+00  2.72082E+00  4.44323E+00
   5.64599E+00  4.77128E+00  4.25160E+00  4.16975E+00  3.59881E+00  2.55896E+00  4.40330E+00  6.50465E+00  4.66444E+00  5.99424E+00
   4.57755E+00  4.67889E+00  5.58963E+00  6.87332E+00  6.76764E+00  5.21968E+00  4.91054E+00  6.03496E+00  5.29728E+00  6.54084E+00
   5.32977E+00  5.81120E+00  5.06630E+00  2.49663E+00  4.60991E+00  1.70138E+00  1.73419E+00  2.69254E+00  2.00032E+00  3.53183E+00
   8.69003E-01  6.86698E-01 -1.38834E+00  1.17264E+00  1.48486E+00  8.80993E-01  1.16737E+00  2.49812E+00  2.32881E+00  1.99770E+00
   8.93283E-01  1.18414E+00  2.74168E+00  1.96263E+00  2.31385E+00  2.87146E+00 -6.29418E-02  1.09728E-01  2.57121E+00  1.56848E-01
   1.83165E+00  8.37510E-02  2.45776E+00  4.25093E-01  1.14339E+00 -2.90513E+00 -3.44594E-01  1.18540E+00 -6.46080E-02  5.12853E-01
   1.59402E-03  5.61557E-01  3.06270E-01 -9.77790E-01 -2.00228E+00 -2.08484E+00 -8.19623E-01  7.80685E-01  7.19633E-01 -6.67949E-01
   6.09603E-01  9.35569E-01 -1.36146E+00 -1.97518E+00  1.59273E-02 -1.73592E+00  2.53758E+00 -3.06672E-02  7.40951E-01  1.74196E+00
  -1.25972E+00 -1.60057E+00 -7.52204E-01  6.97032E-01  1.34891E+00 -1.59110E+00 -1.93513E+00  8.26433E-02 -9.45016E-03 -1.16590E+00
  -1.13653E+00  8.69398E-01  1.60952E+00  1.35531E+00 -1.35660E-02  8.95491E-01  1.98262E+00  2.13555E-01 -1.70557E-01  5.00696E-01
  -1.35516E+00 -9.02209E-01 -1.92463E+00 -2.64930E-01  1.74201E+00 -8.83854E-01  1.10587E+00  9.79068E-01
 NY points of the fit to the data follow
   7.68339E-01  6.95802E-01  7.60431E-01  9.83530E-01  1.37168E+00  1.87178E+00  2.42049E+00  2.96451E+00  3.45740E+00  3.85193E+00
   4.09412E+00  4.14825E+00  4.00798E+00  3.69551E+00  3.26112E+00  2.77648E+00  2.31588E+00  1.94928E+00  1.69890E+00  1.54806E+00
   1.42478E+00  1.29514E+00  1.19509E+00  1.13497E+00  1.14165E+00  1.24701E+00  1.45888E+00  1.76715E+00  2.12455E+00  2.50731E+00
   2.90469E+00  3.28537E+00  3.60586E+00  3.80031E+00  3.78968E+00  3.52566E+00  3.00407E+00  2.30653E+00  1.60313E+00  1.11147E+00
   9.81460E-01  1.21405E+00  1.71448E+00  2.34636E+00  2.97518E+00  3.49494E+00  3.84245E+00  3.99810E+00  3.95689E+00  3.71401E+00
   3.27708E+00  2.70050E+00  2.07666E+00  1.50945E+00  1.08942E+00  8.62775E-01  8.24028E-01  9.20407E-01  1.07628E+00  1.22986E+00
   1.33834E+00  1.38636E+00  1.36122E+00  1.26418E+00  1.12860E+00  9.90070E-01  8.78980E-01  8.33449E-01  8.80958E-01  1.00487E+00
   1.16147E+00  1.30666E+00  1.40600E+00  1.44337E+00  1.42495E+00  1.36212E+00  1.26362E+00  1.14337E+00  1.04723E+00  1.02767E+00
   1.06017E+00  1.12179E+00  1.21240E+00  1.32977E+00  1.46279E+00  1.58435E+00  1.65321E+00  1.63014E+00  1.50082E+00  1.26880E+00
   9.65242E-01  6.53559E-01  3.89897E-01  2.40170E-01  4.13017E-01  1.17676E+00  2.38711E+00  3.82271E+00  5.34941E+00  6.88851E+00
   8.36865E+00  9.69217E+00  1.07312E+01  1.13301E+01  1.13268E+01  1.06203E+01  9.24425E+00  7.39055E+00  5.37059E+00  3.51774E+00
   2.07559E+00  1.13799E+00  6.47415E-01  4.37018E-01  3.28597E-01  2.62145E-01  2.32078E-01  2.68021E-01  5.52710E-01  1.42244E+00
   2.81325E+00  4.50027E+00  6.33676E+00  8.22532E+00  1.00696E+01  1.17590E+01  1.31485E+01  1.40398E+01  1.42192E+01  1.35406E+01
   1.20125E+01  9.84509E+00  7.40450E+00  5.09826E+00  3.24692E+00  1.98810E+00  1.28000E+00  9.51567E-01  7.96451E-01  7.29324E-01
   7.30759E-01  7.82695E-01  8.56206E-01  9.18078E-01  9.40994E-01  9.13094E-01  8.38865E-01  7.33609E-01  6.20960E-01  5.21093E-01
   4.44364E-01  3.92985E-01  3.43553E-01  2.61900E-01  1.53824E-01  3.86066E-02 -5.71352E-02 -1.17473E-01 -1.68973E-01 -2.31749E-01
  -3.12341E-01 -4.09301E-01 -5.16129E-01 -6.18866E-01 -7.07152E-01 -7.88789E-01 -8.89082E-01 -1.04544E+00 -1.28843E+00 -1.57908E+00
  -1.85509E+00 -2.07470E+00 -2.22956E+00 -2.34652E+00 -2.43300E+00 -2.49447E+00 -2.52743E+00 -2.52504E+00 -2.49701E+00 -2.45979E+00
  -2.39370E+00 -2.29047E+00 -2.15011E+00 -1.96456E+00 -1.71858E+00 -1.40988E+00 -1.05564E+00 -6.68084E-01 -2.71782E-01  9.64074E-02
   3.83687E-01  5.69165E-01  6.51730E-01  6.42156E-01  5.72260E-01  5.05137E-01  5.02604E-01  6.16550E-01  8.70276E-01  1.23265E+00
   1.63470E+00  1.98973E+00  2.15754E+00  2.09126E+00  1.78392E+00  1.22505E+00  4.82928E-01 -3.13771E-01 -9.55013E-01 -1.28282E+00
  -1.26986E+00 -8.99809E-01 -1.92055E-01  7.49735E-01  1.70587E+00  2.42366E+00  2.75756E+00  2.66560E+00  2.12762E+00  1.21172E+00
   9.66419E-02 -9.63320E-01 -1.72267E+00 -2.00874E+00 -1.74644E+00 -9.70831E-01  1.61944E-01  1.39392E+00  2.46357E+00  3.23493E+00
   3.66553E+00  3.79277E+00  3.72478E+00  3.60180E+00  3.52089E+00  3.47933E+00  3.47496E+00  3.51488E+00  3.58116E+00  3.62883E+00
   3.63177E+00  3.58152E+00  3.48558E+00  3.37491E+00  3.30257E+00  3.34356E+00  3.55698E+00  3.99190E+00  4.73362E+00  5.72437E+00
   6.84726E+00  8.32502E+00  1.09865E+01  1.47306E+01  1.89975E+01  2.33955E+01  2.76389E+01  3.14347E+01  3.44644E+01  3.64376E+01
   3.70803E+01  3.61342E+01  3.34591E+01  2.91896E+01  2.37968E+01  1.80290E+01  1.27110E+01  8.47188E+00  5.59999E+00  4.01210E+00
   3.32054E+00  2.99936E+00  2.80733E+00  2.68613E+00  2.60843E+00  2.55316E+00  2.50261E+00  2.44462E+00  2.37057E+00  2.28146E+00
   2.18723E+00  2.10244E+00  2.04052E+00  2.01011E+00  2.01348E+00  2.04561E+00  2.09829E+00  2.16491E+00  2.24150E+00  2.32611E+00
   2.41793E+00  2.51634E+00  2.62144E+00  2.73167E+00  2.84287E+00  2.94998E+00  3.04828E+00  3.13378E+00  3.20410E+00  3.25861E+00
   3.29776E+00  3.32242E+00  3.33315E+00  3.32986E+00  3.31237E+00  3.28103E+00  3.23679E+00  3.18164E+00  3.11858E+00  3.05162E+00
   2.98533E+00  2.92424E+00  2.87245E+00  2.83391E+00  2.81231E+00  2.81145E+00  2.83560E+00  2.89070E+00  2.98763E+00  3.14597E+00
   3.34838E+00  3.54715E+00  3.72090E+00  3.86159E+00  3.96090E+00  4.00715E+00  3.98650E+00  3.91661E+00  3.84541E+00  3.79195E+00
   3.77481E+00  3.82707E+00  3.98561E+00  4.27475E+00  4.69346E+00  5.21127E+00  5.77298E+00  6.30991E+00  6.75709E+00  7.07846E+00
   7.27225E+00  7.35941E+00  7.37777E+00  7.36985E+00  7.36945E+00  7.39382E+00  7.43866E+00  7.48719E+00  7.52924E+00  7.55909E+00
   7.57263E+00  7.56669E+00  7.53864E+00  7.48650E+00  7.40884E+00  7.30496E+00  7.17475E+00  7.01887E+00  6.83857E+00  6.63584E+00
   6.41318E+00  6.17367E+00  5.92067E+00  5.65787E+00  5.38898E+00  5.11783E+00  4.84806E+00  4.58318E+00  4.32635E+00  4.08044E+00
   3.84792E+00  3.63098E+00  3.43136E+00  3.25058E+00  3.08976E+00  2.94985E+00  2.83154E+00  2.73546E+00  2.66209E+00  2.61185E+00
   2.58507E+00  2.58209E+00  2.60317E+00  2.64856E+00  2.71833E+00  2.81244E+00  2.93052E+00  3.07195E+00  3.23565E+00  3.42009E+00
   3.62308E+00  3.84183E+00  4.07279E+00  4.31181E+00  4.55405E+00  4.79415E+00  5.02626E+00  5.24432E+00  5.44222E+00  5.61410E+00
   5.75453E+00  5.85884E+00  5.92321E+00  5.94502E+00  5.92284E+00  5.85665E+00  5.74767E+00  5.59841E+00  5.41244E+00  5.19431E+00
   4.94922E+00  4.68288E+00  4.40110E+00  4.10972E+00  3.81422E+00  3.51969E+00  3.23059E+00  2.95076E+00  2.68320E+00  2.43026E+00
   2.19352E+00  1.97397E+00  1.77198E+00  1.58752E+00  1.42006E+00  1.26886E+00  1.13291E+00  1.01116E+00  9.02386E-01  8.05439E-01
   7.19102E-01  6.42277E-01  5.73888E-01  5.13010E-01  4.58742E-01  4.10323E-01  3.67009E-01  3.28211E-01  2.93361E-01  2.62024E-01
   2.33757E-01  2.08222E-01  1.85067E-01  1.64052E-01  1.44921E-01  1.27504E-01  1.11586E-01  9.70319E-02  8.36689E-02  7.14136E-02
   6.01395E-02  4.97870E-02  4.02359E-02  3.14361E-02  2.32928E-02  1.57875E-02  8.84553E-03  2.44929E-03 -3.48235E-03 -8.96162E-03
  -1.40483E-02 -1.87330E-02 -2.30706E-02 -2.70611E-02 -3.07654E-02 -3.41747E-02 -3.73300E-02 -4.02104E-02 -4.28624E-02 -4.52785E-02
  -4.75074E-02 -4.95273E-02 -5.13697E-02 -5.30090E-02 -5.44885E-02 -5.57944E-02 -5.69664E-02 -5.79746E-02 -5.88472E-02 -5.95594E-02
  -6.01535E-02 -6.06101E-02 -6.09606E-02 -6.11691E-02 -6.12621E-02 -6.12146E-02 -6.10655E-02 -6.07885E-02 -6.04073E-02 -5.98826E-02
  -5.92404E-02 -5.84544E-02 -5.75572E-02 -5.65125E-02 -5.53350E-02 -5.39799E-02 -5.24681E-02 -5.07646E-02
 NY background values follow
    -6.561E-01   -6.547E-01   -6.533E-01   -6.519E-01   -6.504E-01   -6.490E-01   -6.476E-01   -6.462E-01   -6.447E-01   -6.433E-01
    -6.419E-01   -6.405E-01   -6.390E-01   -6.376E-01   -6.362E-01   -6.348E-01   -6.333E-01   -6.319E-01   -6.305E-01   -6.291E-01
    -6.276E-01   -6.262E-01   -6.248E-01   -6.234E-01   -6.219E-01   -6.205E-01   -6.191E-01   -6.176E-01   -6.162E-01   -6.148E-01
    -6.134E-01   -6.119E-01   -6.105E-01   -6.091E-01   -6.076E-01   -6.062E-01   -6.048E-01   -6.033E-01   -6.019E-01   -6.005E-01
    -5.990E-01   -5.976E-01   -5.962E-01   -5.947E-01   -5.933E-01   -5.919E-01   -5.904E-01   -5.890E-01   -5.876E-01   -5.861E-01
    -5.847E-01   -5.832E-01   -5.818E-01   -5.804E-01   -5.789E-01   -5.775E-01   -5.761E-01   -5.746E-01   -5.732E-01   -5.717E-01
    -5.703E-01   -5.689E-01   -5.674E-01   -5.660E-01   -5.645E-01   -5.631E-01   -5.617E-01   -5.602E-01   -5.588E-01   -5.573E-01
    -5.559E-01   -5.545E-01   -5.530E-01   -5.516E-01   -5.501E-01   -5.487E-01   -5.472E-01   -5.458E-01   -5.444E-01   -5.429E-01
    -5.415E-01   -5.400E-01   -5.386E-01   -5.371E-01   -5.357E-01   -5.342E-01   -5.328E-01   -5.314E-01   -5.299E-01   -5.285E-01
    -5.270E-01   -5.256E-01   -5.241E-01   -5.227E-01   -5.212E-01   -5.198E-01   -5.183E-01   -5.169E-01   -5.154E-01   -5.140E-01
    -5.125E-01   -5.111E-01   -5.096E-01   -5.082E-01   -5.067E-01   -5.053E-01   -5.038E-01   -5.024E-01   -5.009E-01   -4.995E-01
    -4.980E-01   -4.966E-01   -4.951E-01   -4.937E-01   -4.922E-01   -4.908E-01   -4.893E-01   -4.879E-01   -4.864E-01   -4.849E-01
    -4.835E-01   -4.820E-01   -4.806E-01   -4.791E-01   -4.777E-01   -4.762E-01   -4.748E-01   -4.733E-01   -4.719E-01   -4.704E-01
    -4.689E-01   -4.675E-01   -4.660E-01   -4.646E-01   -4.631E-01   -4.617E-01   -4.602E-01   -4.587E-01   -4.573E-01   -4.558E-01
    -4.544E-01   -4.529E-01   -4.515E-01   -4.500E-01   -4.485E-01   -4.471E-01   -4.456E-01   -4.442E-01   -4.427E-01   -4.412E-01
    -4.398E-01   -4.383E-01   -4.369E-01   -4.354E-01   -4.339E-01   -4.325E-01   -4.310E-01   -4.296E-01   -4.281E-01   -4.266E-01
    -4.252E-01   -4.237E-01   -4.223E-01   -4.208E-01   -4.193E-01   -4.179E-01   -4.164E-01   -4.149E-01   -4.135E-01   -4.120E-01
    -4.105E-01   -4.091E-01   -4.076E-01   -4.062E-01   -4.047E-01   -4.032E-01   -4.018E-01   -4.003E-01   -3.988E-01   -3.974E-01
    -3.959E-01   -3.944E-01   -3.930E-01   -3.915E-01   -3.900E-01   -3.886E-01   -3.871E-01   -3.856E-01   -3.842E-01   -3.827E-01
    -3.812E-01   -3.798E-01   -3.783E-01   -3.768E-01   -3.754E-01   -3.739E-01   -3.724E-01   -3.710E-01   -3.695E-01   -3.680E-01
    -3.666E-01   -3.651E-01   -3.636E-01   -3.622E-01   -3.607E-01   -3.592E-01   -3.577E-01   -3.563E-01   -3.548E-01   -3.533E-01
    -3.519E-01   -3.504E-01   -3.489E-01   -3.475E-01   -3.460E-01   -3.445E-01   -3.430E-01   -3.416E-01   -3.401E-01   -3.386E-01
    -3.372E-01   -3.357E-01   -3.342E-01   -3.327E-01   -3.313E-01   -3.298E-01   -3.283E-01   -3.269E-01   -3.254E-01   -3.239E-01
    -3.224E-01   -3.210E-01   -3.195E-01   -3.180E-01   -3.166E-01   -3.151E-01   -3.136E-01   -3.121E-01   -3.107E-01   -3.092E-01
    -3.077E-01   -3.062E-01   -3.048E-01   -3.033E-01   -3.018E-01   -3.004E-01   -2.989E-01   -2.974E-01   -2.959E-01   -2.945E-01
    -2.930E-01   -2.915E-01   -2.900E-01   -2.886E-01   -2.871E-01   -2.856E-01   -2.841E-01   -2.827E-01   -2.812E-01   -2.797E-01
    -2.782E-01   -2.768E-01   -2.753E-01   -2.738E-01   -2.723E-01   -2.709E-01   -2.694E-01   -2.679E-01   -2.664E-01   -2.650E-01
    -2.635E-01   -2.620E-01   -2.605E-01   -2.591E-01   -2.576E-01   -2.561E-01   -2.546E-01   -2.532E-01   -2.517E-01   -2.502E-01
    -2.487E-01   -2.472E-01   -2.458E-01   -2.443E-01   -2.428E-01   -2.413E-01   -2.399E-01   -2.384E-01   -2.369E-01   -2.354E-01
    -2.340E-01   -2.325E-01   -2.310E-01   -2.295E-01   -2.281E-01   -2.266E-01   -2.251E-01   -2.236E-01   -2.222E-01   -2.207E-01
    -2.192E-01   -2.177E-01   -2.162E-01   -2.148E-01   -2.133E-01   -2.118E-01   -2.103E-01   -2.089E-01   -2.074E-01   -2.059E-01
    -2.044E-01   -2.030E-01   -2.015E-01   -2.000E-01   -1.985E-01   -1.970E-01   -1.956E-01   -1.941E-01   -1.926E-01   -1.911E-01
    -1.897E-01   -1.882E-01   -1.867E-01   -1.852E-01   -1.838E-01   -1.823E-01   -1.808E-01   -1.793E-01   -1.778E-01   -1.764E-01
    -1.749E-01   -1.734E-01   -1.719E-01   -1.705E-01   -1.690E-01   -1.675E-01   -1.660E-01   -1.646E-01   -1.631E-01   -1.616E-01
    -1.601E-01   -1.587E-01   -1.572E-01   -1.557E-01   -1.542E-01   -1.527E-01   -1.513E-01   -1.498E-01   -1.483E-01   -1.468E-01
    -1.454E-01   -1.439E-01   -1.424E-01   -1.409E-01   -1.395E-01   -1.380E-01   -1.365E-01   -1.350E-01   -1.336E-01   -1.321E-01
    -1.306E-01   -1.291E-01   -1.277E-01   -1.262E-01   -1.247E-01   -1.232E-01   -1.218E-01   -1.203E-01   -1.188E-01   -1.173E-01
    -1.159E-01   -1.144E-01   -1.129E-01   -1.114E-01   -1.100E-01   -1.085E-01   -1.070E-01   -1.055E-01   -1.041E-01   -1.026E-01
    -1.011E-01   -9.963E-02   -9.816E-02   -9.668E-02   -9.521E-02   -9.373E-02   -9.226E-02   -9.079E-02   -8.931E-02   -8.784E-02
    -8.637E-02   -8.489E-02   -8.342E-02   -8.194E-02   -8.047E-02   -7.900E-02   -7.753E-02   -7.605E-02   -7.458E-02   -7.311E-02
    -7.163E-02   -7.016E-02   -6.869E-02   -6.722E-02   -6.574E-02   -6.427E-02   -6.280E-02   -6.133E-02   -5.986E-02   -5.838E-02
    -5.691E-02   -5.544E-02   -5.397E-02   -5.250E-02   -5.103E-02   -4.956E-02   -4.809E-02   -4.661E-02   -4.514E-02   -4.367E-02
    -4.220E-02   -4.073E-02   -3.926E-02   -3.779E-02   -3.632E-02   -3.485E-02   -3.338E-02   -3.191E-02   -3.044E-02   -2.897E-02
    -2.750E-02   -2.604E-02   -2.457E-02   -2.310E-02   -2.163E-02   -2.016E-02   -1.869E-02   -1.722E-02   -1.576E-02   -1.429E-02
    -1.282E-02   -1.135E-02   -9.885E-03   -8.418E-03   -6.951E-03   -5.484E-03   -4.017E-03   -2.550E-03   -1.084E-03    3.829E-04
     1.849E-03    3.315E-03    4.781E-03    6.247E-03    7.713E-03    9.178E-03    1.064E-02    1.211E-02    1.357E-02    1.504E-02
     1.650E-02    1.797E-02    1.943E-02    2.090E-02    2.236E-02    2.382E-02    2.529E-02    2.675E-02    2.821E-02    2.968E-02
     3.114E-02    3.260E-02    3.406E-02    3.553E-02    3.699E-02    3.845E-02    3.991E-02    4.137E-02    4.284E-02    4.430E-02
     4.576E-02    4.722E-02    4.868E-02    5.014E-02    5.160E-02    5.306E-02    5.452E-02    5.598E-02    5.744E-02    5.890E-02
     6.036E-02    6.182E-02    6.327E-02    6.473E-02    6.619E-02    6.765E-02    6.911E-02    7.056E-02
 Ala      Conc. = 1.17E+02
