 LCModel (Version 6.3-1L) Copyright: S.W. Provencher.          Ref.: Magn. Reson. Med. 30:672-679 (1993).                
 Slice#3 Row#12 Col#7  PD_05_press_1_raw_act
 36 lines in following concentration table = NCONC+1
    Conc.  %SD /Cr+PCr  Metabolite                                         
  243.856  78%   0.238 Ala                                                 
    0.000 999%   0.000 Asp                                                 
   65.394 554% 6.4E-02 Cr                                                  
  960.023  38%   0.936 PCr                                                 
   30.304 367% 3.0E-02 GABA                                                
   72.351 149% 7.1E-02 Glc                                                 
 2.60E+03  20%   2.539 Gln                                                 
 1.89E+03  33%   1.845 Glu                                                 
  244.225  32%   0.238 GPC                                                 
   75.312 107% 7.3E-02 PCh                                                 
  305.001  35%   0.297 GSH                                                 
 1.59E+03  21%   1.555 Ins                                                 
    0.000 999%   0.000 Lac                                                 
 1.32E+03   5%   1.287 NAA                                                 
    0.000 999%   0.000 NAAG                                                
  142.746  18%   0.139 Scyllo                                              
  394.918  40%   0.385 Tau                                                 
  415.355  32%   0.405 -CrCH2                                              
  319.536   7%   0.312 GPC+PCh                                             
 1.32E+03   5%   1.287 NAA+NAAG                                            
 1.03E+03   5%   1.000 Cr+PCr                                              
 4.49E+03  24%   4.383 Glu+Gln                                             
  732.098  38%   0.714 Lip13a                                              
    0.000 999%   0.000 Lip13b                                              
  121.851 100%   0.119 Lip09                                               
  320.082  42%   0.312 MM09                                                
  123.978  66%   0.121 Lip20                                               
  512.118  46%   0.499 MM20                                                
  106.316  72%   0.104 MM12                                                
  792.736  23%   0.773 MM14                                                
   97.766 130% 9.5E-02 MM17                                                
  732.098  38%   0.714 Lip13a+Lip13b                                       
 1.63E+03  17%   1.591 MM14+Lip13a+Lip13b+MM12                             
  441.933  25%   0.431 MM09+Lip09                                          
  636.096  37%   0.620 MM20+Lip20                                          
   6 lines in following misc. output table
  FWHM = 0.107 ppm    S/N =   6                                            
  Data shift = 0.054 ppm                                                   
  Ph: -62 deg     -21.3 deg/ppm                                            
  alphaB,S = 9.3E-01,   1.5E+02                                            
   14 spline knots.   Ns = 6(2)                                            
  ( 9) 4 infls.   ( 3) 1 extrs.                                            
  498 points on ppm-axis = NY
      4.000000     3.992357     3.984714     3.977070     3.969427     3.961784     3.954141     3.946497     3.938854     3.931211
      3.923568     3.915925     3.908281     3.900638     3.892995     3.885352     3.877708     3.870065     3.862422     3.854779
      3.847136     3.839492     3.831849     3.824206     3.816563     3.808919     3.801276     3.793633     3.785990     3.778347
      3.770703     3.763060     3.755417     3.747774     3.740130     3.732487     3.724844     3.717201     3.709558     3.701914
      3.694271     3.686628     3.678985     3.671341     3.663698     3.656055     3.648412     3.640769     3.633125     3.625482
      3.617839     3.610196     3.602552     3.594909     3.587266     3.579623     3.571980     3.564336     3.556693     3.549050
      3.541407     3.533763     3.526120     3.518477     3.510834     3.503191     3.495547     3.487904     3.480261     3.472618
      3.464974     3.457331     3.449688     3.442045     3.434402     3.426758     3.419115     3.411472     3.403829     3.396185
      3.388542     3.380899     3.373256     3.365613     3.357969     3.350326     3.342683     3.335040     3.327396     3.319753
      3.312110     3.304467     3.296824     3.289180     3.281537     3.273894     3.266251     3.258607     3.250964     3.243321
      3.235678     3.228034     3.220391     3.212748     3.205105     3.197462     3.189818     3.182175     3.174532     3.166889
      3.159245     3.151602     3.143959     3.136316     3.128673     3.121029     3.113386     3.105743     3.098100     3.090456
      3.082813     3.075170     3.067527     3.059884     3.052240     3.044597     3.036954     3.029311     3.021667     3.014024
      3.006381     2.998738     2.991095     2.983451     2.975808     2.968165     2.960522     2.952878     2.945235     2.937592
      2.929949     2.922306     2.914662     2.907019     2.899376     2.891733     2.884089     2.876446     2.868803     2.861160
      2.853517     2.845873     2.838230     2.830587     2.822944     2.815300     2.807657     2.800014     2.792371     2.784728
      2.777084     2.769441     2.761798     2.754155     2.746511     2.738868     2.731225     2.723582     2.715939     2.708295
      2.700652     2.693009     2.685366     2.677722     2.670079     2.662436     2.654793     2.647150     2.639506     2.631863
      2.624220     2.616577     2.608933     2.601290     2.593647     2.586004     2.578361     2.570717     2.563074     2.555431
      2.547788     2.540144     2.532501     2.524858     2.517215     2.509572     2.501928     2.494285     2.486642     2.478999
      2.471355     2.463712     2.456069     2.448426     2.440783     2.433139     2.425496     2.417853     2.410210     2.402566
      2.394923     2.387280     2.379637     2.371994     2.364350     2.356707     2.349064     2.341421     2.333777     2.326134
      2.318491     2.310848     2.303205     2.295561     2.287918     2.280275     2.272632     2.264988     2.257345     2.249702
      2.242059     2.234416     2.226772     2.219129     2.211486     2.203843     2.196199     2.188556     2.180913     2.173270
      2.165627     2.157983     2.150340     2.142697     2.135054     2.127410     2.119767     2.112124     2.104481     2.096838
      2.089194     2.081551     2.073908     2.066265     2.058621     2.050978     2.043335     2.035692     2.028049     2.020405
      2.012762     2.005119     1.997476     1.989833     1.982190     1.974546     1.966903     1.959260     1.951617     1.943974
      1.936331     1.928688     1.921045     1.913402     1.905759     1.898115     1.890472     1.882829     1.875186     1.867543
      1.859900     1.852257     1.844614     1.836971     1.829327     1.821684     1.814041     1.806398     1.798755     1.791112
      1.783469     1.775826     1.768183     1.760540     1.752896     1.745253     1.737610     1.729967     1.722324     1.714681
      1.707038     1.699395     1.691752     1.684108     1.676465     1.668822     1.661179     1.653536     1.645893     1.638250
      1.630607     1.622964     1.615321     1.607677     1.600034     1.592391     1.584748     1.577105     1.569462     1.561819
      1.554176     1.546533     1.538890     1.531246     1.523603     1.515960     1.508317     1.500674     1.493031     1.485388
      1.477745     1.470102     1.462458     1.454815     1.447172     1.439529     1.431886     1.424243     1.416600     1.408957
      1.401314     1.393671     1.386027     1.378384     1.370741     1.363098     1.355455     1.347812     1.340169     1.332526
      1.324883     1.317240     1.309596     1.301953     1.294310     1.286667     1.279024     1.271381     1.263738     1.256095
      1.248452     1.240808     1.233165     1.225522     1.217879     1.210236     1.202593     1.194950     1.187307     1.179664
      1.172021     1.164377     1.156734     1.149091     1.141448     1.133805     1.126162     1.118519     1.110876     1.103233
      1.095590     1.087946     1.080303     1.072660     1.065017     1.057374     1.049731     1.042088     1.034445     1.026802
      1.019158     1.011515     1.003872     0.996229     0.988586     0.980943     0.973300     0.965657     0.958014     0.950371
      0.942727     0.935084     0.927441     0.919798     0.912155     0.904512     0.896869     0.889226     0.881583     0.873940
      0.866296     0.858653     0.851010     0.843367     0.835724     0.828081     0.820438     0.812795     0.805152     0.797508
      0.789865     0.782222     0.774579     0.766936     0.759293     0.751650     0.744007     0.736364     0.728721     0.721077
      0.713434     0.705791     0.698148     0.690505     0.682862     0.675219     0.667576     0.659933     0.652290     0.644646
      0.637003     0.629360     0.621717     0.614074     0.606431     0.598788     0.591145     0.583502     0.575858     0.568215
      0.560572     0.552929     0.545286     0.537643     0.530000     0.522357     0.514714     0.507071     0.499427     0.491784
      0.484141     0.476498     0.468855     0.461212     0.453569     0.445925     0.438282     0.430639     0.422996     0.415353
      0.407710     0.400067     0.392424     0.384780     0.377137     0.369494     0.361851     0.354208     0.346565     0.338922
      0.331278     0.323635     0.315992     0.308349     0.300706     0.293063     0.285420     0.277777     0.270133     0.262490
      0.254847     0.247204     0.239561     0.231918     0.224275     0.216631     0.208988     0.201345
 NY phased data points follow
  -3.89829E+01 -3.51520E+01 -3.49842E+01 -3.35203E+01 -3.30623E+01 -2.63701E+01 -2.83473E+01 -2.79872E+01 -2.76772E+01 -2.28456E+01
  -2.20103E+01 -2.28146E+01 -2.37929E+01 -2.89110E+01 -2.63093E+01 -2.72811E+01 -2.71273E+01 -3.10285E+01 -2.80312E+01 -3.07921E+01
  -2.96134E+01 -2.78860E+01 -2.85156E+01 -2.64331E+01 -2.51355E+01 -2.68718E+01 -2.63707E+01 -2.65741E+01 -2.45704E+01 -2.31638E+01
  -2.47828E+01 -2.38988E+01 -2.32758E+01 -1.94149E+01 -2.39624E+01 -2.37320E+01 -2.10495E+01 -2.25687E+01 -2.06686E+01 -2.17161E+01
  -2.17222E+01 -1.94514E+01 -2.43963E+01 -1.80357E+01 -1.89755E+01 -1.76506E+01 -1.87131E+01 -1.80753E+01 -1.50928E+01 -1.78993E+01
  -2.02502E+01 -1.92433E+01 -2.05198E+01 -2.25699E+01 -2.44216E+01 -1.84132E+01 -2.02646E+01 -2.03134E+01 -1.79526E+01 -1.69423E+01
  -1.95706E+01 -1.70532E+01 -1.96812E+01 -2.01845E+01 -2.13389E+01 -1.94465E+01 -1.79020E+01 -1.80625E+01 -2.06401E+01 -2.29795E+01
  -2.02818E+01 -1.90620E+01 -1.93169E+01 -1.62545E+01 -1.69673E+01 -1.96100E+01 -1.62848E+01 -1.88286E+01 -1.58050E+01 -1.52830E+01
  -1.55300E+01 -1.34371E+01 -1.56521E+01 -1.44540E+01 -1.31487E+01 -1.52098E+01 -1.50459E+01 -1.23574E+01 -1.29843E+01 -1.62996E+01
  -1.61906E+01 -1.25087E+01 -1.35160E+01 -1.22255E+01 -9.31407E+00 -8.40929E+00 -7.99115E+00 -9.18231E+00 -6.33239E+00 -4.45862E+00
  -3.39739E+00 -2.49181E+00  1.68208E+00 -6.22350E-01  1.29634E+00 -2.65381E+00 -2.44288E+00 -6.32760E+00 -9.39353E+00 -1.92409E+00
  -8.84976E+00 -8.21161E+00 -8.66241E+00 -1.08577E+01 -1.21351E+01 -1.30927E+01 -1.01969E+01 -7.24420E+00 -7.64488E+00 -5.68544E+00
  -2.17687E+00 -2.61684E+00 -1.52159E+00 -1.22384E+00  1.19851E+00  5.95214E+00  1.67294E-01  7.82520E+00  6.09237E+00  4.52533E+00
   5.90053E+00  1.77923E+00  6.02642E-01 -5.49879E+00 -6.01720E+00 -2.98284E+00 -6.23616E+00 -8.46777E+00 -9.33147E+00 -1.04458E+01
  -9.09166E+00 -1.01033E+01 -1.05925E+01 -1.07311E+01 -8.19715E+00 -8.93722E+00 -8.60483E+00 -9.46995E+00 -1.15555E+01 -9.61639E+00
  -5.98345E+00 -1.19909E+01 -1.03635E+01 -1.29006E+01 -5.49398E+00 -1.11633E+01 -9.95493E+00 -8.30148E+00 -1.12645E+01 -1.21304E+01
  -8.89384E+00 -1.23961E+01 -1.00160E+01 -1.05739E+01 -6.14403E+00 -1.06502E+01 -1.04051E+01 -9.72928E+00 -6.77244E+00 -1.06498E+01
  -1.32527E+01 -8.38544E+00 -1.01850E+01 -1.13975E+01 -1.31934E+01 -1.32924E+01 -1.26893E+01 -1.03294E+01 -1.46276E+01 -1.14409E+01
  -1.18931E+01 -1.14639E+01 -1.10455E+01 -9.22310E+00 -1.22650E+01 -9.07107E+00 -9.54524E+00 -9.74221E+00 -7.36180E+00 -1.03699E+01
  -8.00602E+00 -3.62522E+00 -8.82892E+00 -3.69932E+00 -2.83669E+00 -5.12694E+00 -7.06762E+00 -5.51841E+00 -2.96962E+00 -7.58353E+00
  -7.10992E+00 -6.12951E+00 -4.35457E+00 -6.90225E-01 -4.63194E+00 -2.79596E+00 -1.99130E+00 -2.09407E+00 -3.49836E+00 -3.29729E+00
  -1.87630E+00 -1.67960E+00 -5.40999E+00 -2.83528E+00  7.90991E-02 -1.24979E+00  1.95113E+00  1.21968E+00  1.77543E+00  1.06284E+00
  -1.14025E+00 -1.38062E+00 -5.24959E+00 -1.07137E+00  4.46125E-01  2.04099E+00  4.96409E+00  2.37791E+00  1.29865E+00  1.46813E+00
   6.03783E+00  1.06782E+00  2.28046E+00  2.37363E+00  9.71140E-01  2.81823E+00  4.17337E+00  1.45536E+00  3.05622E+00 -1.29718E+00
   9.80168E-02  1.30724E+00  1.93649E-01 -8.77571E-01 -8.15263E-01  5.28896E-01  1.03774E+00 -1.17420E+00  3.61627E-01  1.80191E+00
   5.25480E+00  8.52694E+00  8.78400E+00  1.28213E+01  1.37923E+01  1.81569E+01  2.06704E+01  2.28631E+01  2.06600E+01  2.76715E+01
   2.76402E+01  2.56260E+01  2.87722E+01  2.37319E+01  2.39182E+01  1.76550E+01  1.77274E+01  1.58155E+01  1.33021E+01  1.40660E+01
   9.25046E+00  8.16319E+00  3.64018E+00  5.99099E+00  5.21575E+00  4.12762E+00  6.14023E+00  1.80533E+00  4.10264E+00  6.24048E-01
   3.03961E+00 -2.85544E-01  5.97534E-01  6.01150E+00  2.52451E+00  8.04222E-01  2.99943E+00  8.23675E-01  3.87464E+00  2.01260E+00
   3.99635E+00  2.13600E-01  4.41786E+00  2.43370E+00 -9.22470E-01  1.57932E+00 -1.15737E+00  2.20192E+00  1.42898E+00  6.41899E+00
   3.87729E+00  3.39389E+00  2.40800E+00  2.89608E-01  4.96863E+00  2.75888E+00  5.84844E+00  7.52667E+00  4.31006E+00  4.30381E+00
   4.28671E+00  7.69661E+00  5.74188E+00  7.43026E+00  5.37666E+00  4.36908E+00  6.24046E+00  7.49258E+00  6.05678E+00  7.26721E+00
   8.02207E+00  5.62972E+00  8.55995E+00  4.38178E+00  7.51283E+00  9.46900E+00  1.04799E+01  8.68673E+00  7.08432E+00  6.82315E+00
   7.51631E+00  1.03556E+01  7.42668E+00  1.14950E+01  6.50751E+00  6.22756E+00  1.05702E+01  8.04921E+00  1.18267E+01  8.58750E+00
   7.07416E+00  9.79706E+00  7.59392E+00  1.23740E+01  1.25867E+01  7.21624E+00  6.24833E+00  8.85746E+00  7.56502E+00  8.24967E+00
   8.18722E+00  9.19881E+00  1.01243E+01  5.94090E+00  1.04943E+01  1.12580E+01  4.01659E+00  8.35771E+00  6.93604E+00  6.27859E+00
   4.18257E+00  8.67094E+00  9.46154E+00  6.14686E+00  6.98477E+00  5.39949E+00  6.80659E+00  7.23261E+00  4.41742E+00  7.21168E+00
   7.93475E+00  8.48772E+00  8.56332E+00  5.28279E+00  6.53706E+00  6.17261E+00  6.18924E+00  3.60914E+00  5.83023E+00  5.15646E+00
   2.52865E+00  4.74039E+00  5.71971E+00  4.65659E+00  5.32893E+00  8.11023E+00  3.25406E+00  4.27031E+00  6.26464E+00  4.84195E+00
   4.68084E+00  4.48354E+00  7.60693E+00  6.39441E+00  3.21360E+00  5.66331E+00  2.03824E+00  4.57478E+00  4.53833E+00  2.48510E+00
   5.45300E+00  3.29890E+00  7.66217E+00  6.64669E+00  4.99827E+00  8.36454E+00  7.71021E+00  7.01606E+00  7.52844E+00  5.48393E+00
   1.02376E+01  4.53642E+00  9.08136E+00  7.54355E+00  5.62546E+00  7.71562E+00  6.65126E+00  5.52328E+00  7.36309E+00  5.60866E+00
   7.43626E+00  5.02100E+00  7.61844E+00  5.66248E+00  5.07619E+00  4.39112E+00  4.85058E+00  4.74866E+00  3.85237E+00  3.07323E+00
   5.06572E+00  4.53137E+00  4.36037E+00  5.20281E+00  5.70741E+00  6.43958E+00  2.73762E+00  3.24227E+00  5.78895E+00  4.94498E+00
   2.43460E+00  3.59193E+00  3.50655E+00  2.32018E+00 -1.68789E+00  8.03141E-01  4.56057E+00  2.82712E+00  4.96048E+00  2.83929E+00
   5.45991E+00  3.13262E+00  1.67810E+00  2.90875E+00  5.95793E+00  4.86739E+00  2.54436E+00  4.45532E+00  4.15781E+00  4.62374E+00
   4.22107E+00  2.10963E+00  3.81757E+00  4.27424E+00  6.65551E+00  6.95886E+00  5.35120E+00  3.53639E+00  2.49580E+00  5.24980E+00
   3.65907E+00  4.58153E+00  2.04033E+00  2.11394E+00  2.61375E+00  3.31221E+00  2.21218E+00  3.12437E+00  2.75225E+00  4.60537E+00
   4.54154E+00  2.50836E+00  3.88646E-01  1.64931E+00  1.73914E+00  4.72064E+00  6.52997E+00  4.49208E+00  3.88237E+00  3.69454E+00
   3.95144E+00  7.68851E+00  3.64496E+00  3.72574E+00  3.49712E+00  2.80789E+00  4.60003E+00 -8.19366E-01
 NY points of the fit to the data follow
  -3.26659E+01 -3.13584E+01 -3.17809E+01 -3.04069E+01 -3.06428E+01 -2.91414E+01 -2.91332E+01 -2.77671E+01 -2.73591E+01 -2.65337E+01
  -2.58836E+01 -2.59663E+01 -2.52137E+01 -2.60648E+01 -2.55211E+01 -2.67303E+01 -2.65439E+01 -2.77080E+01 -2.75230E+01 -2.83041E+01
  -2.77076E+01 -2.78854E+01 -2.70950E+01 -2.69604E+01 -2.64969E+01 -2.59754E+01 -2.57160E+01 -2.50893E+01 -2.47274E+01 -2.38243E+01
  -2.32577E+01 -2.22213E+01 -2.19765E+01 -2.12597E+01 -2.16951E+01 -2.12622E+01 -2.20142E+01 -2.16553E+01 -2.21676E+01 -2.16771E+01
  -2.16896E+01 -2.10309E+01 -2.08254E+01 -2.02758E+01 -2.01629E+01 -1.97808E+01 -1.96812E+01 -1.93682E+01 -1.92615E+01 -1.91551E+01
  -1.93752E+01 -1.95992E+01 -2.00606E+01 -2.03673E+01 -2.07940E+01 -2.08410E+01 -2.10631E+01 -2.08405E+01 -2.10313E+01 -2.06172E+01
  -2.08932E+01 -2.04229E+01 -2.06853E+01 -2.00111E+01 -2.01989E+01 -1.95058E+01 -1.96929E+01 -1.89769E+01 -1.91645E+01 -1.85052E+01
  -1.86484E+01 -1.81393E+01 -1.81587E+01 -1.78354E+01 -1.75023E+01 -1.73009E+01 -1.68243E+01 -1.67879E+01 -1.63828E+01 -1.64574E+01
  -1.60717E+01 -1.61192E+01 -1.56789E+01 -1.56530E+01 -1.52625E+01 -1.52848E+01 -1.51228E+01 -1.51983E+01 -1.53317E+01 -1.52922E+01
  -1.48690E+01 -1.42676E+01 -1.30938E+01 -1.21918E+01 -1.06946E+01 -9.78926E+00 -8.16601E+00 -7.26459E+00 -5.40597E+00 -4.46441E+00
  -2.64571E+00 -1.89909E+00 -5.27013E-01 -4.64232E-01 -3.87340E-01 -1.27947E+00 -2.35842E+00 -3.85646E+00 -5.30791E+00 -6.84122E+00
  -8.13428E+00 -9.40831E+00 -1.04874E+01 -1.14614E+01 -1.19213E+01 -1.14131E+01 -1.14444E+01 -9.60593E+00 -9.13052E+00 -6.38014E+00
  -6.07095E+00 -2.81042E+00 -2.73015E+00  1.07662E+00  7.34527E-01  4.63093E+00  3.49263E+00  6.59616E+00  4.47774E+00  5.81764E+00
   3.11168E+00  2.72850E+00  1.42463E-01 -1.01802E+00 -3.05140E+00 -4.31541E+00 -5.79128E+00 -7.11229E+00 -8.02183E+00 -9.26206E+00
  -9.63723E+00 -1.07399E+01 -1.04815E+01 -1.07299E+01 -1.03718E+01 -1.05566E+01 -1.02902E+01 -1.04158E+01 -1.02239E+01 -1.03145E+01
  -1.01488E+01 -1.02489E+01 -1.01213E+01 -1.01851E+01 -1.01019E+01 -1.01296E+01 -1.00646E+01 -1.00789E+01 -1.00058E+01 -1.00237E+01
  -9.95673E+00 -9.95978E+00 -9.90863E+00 -9.88787E+00 -9.90135E+00 -9.86737E+00 -9.91688E+00 -9.91621E+00 -9.96222E+00 -1.00403E+01
  -1.00405E+01 -1.01531E+01 -1.00824E+01 -1.02014E+01 -1.00779E+01 -1.02235E+01 -1.00062E+01 -1.01603E+01 -9.78822E+00 -9.85667E+00
  -9.33969E+00 -9.31122E+00 -8.85052E+00 -8.76694E+00 -8.48692E+00 -8.36807E+00 -8.27986E+00 -8.08979E+00 -8.09384E+00 -7.65756E+00
  -7.59714E+00 -6.89101E+00 -6.85196E+00 -5.89916E+00 -5.90243E+00 -4.88975E+00 -4.93651E+00 -4.15347E+00 -4.60266E+00 -3.80041E+00
  -4.37840E+00 -3.48419E+00 -4.09306E+00 -3.27893E+00 -3.89720E+00 -3.51488E+00 -4.34305E+00 -4.37967E+00 -5.12251E+00 -5.25036E+00
  -5.51232E+00 -5.40078E+00 -4.54561E+00 -4.26821E+00 -2.60556E+00 -2.58409E+00 -1.06486E+00 -1.46353E+00 -6.18891E-01 -1.24298E+00
  -9.29041E-01 -1.22924E+00 -9.63748E-01 -8.35395E-01 -6.27679E-01 -1.52994E-01 -3.86478E-01  5.05295E-01  2.15354E-01  1.29676E+00
   8.04633E-01  1.70735E+00  1.29164E+00  1.79362E+00  1.42626E+00  1.63891E+00  1.55536E+00  1.39955E+00  1.57624E+00  8.67608E-01
   1.49044E+00  2.55686E-01  1.12703E+00 -4.69353E-01  6.09730E-01 -8.07181E-01  5.22327E-01 -5.72092E-02  2.57812E+00  3.39213E+00
   6.68509E+00  8.36004E+00  1.11974E+01  1.33587E+01  1.57415E+01  1.81877E+01  2.02163E+01  2.29227E+01  2.41393E+01  2.64621E+01
   2.61971E+01  2.76889E+01  2.51998E+01  2.54774E+01  2.13949E+01  2.07240E+01  1.65155E+01  1.56088E+01  1.21841E+01  1.13784E+01
   8.64936E+00  7.91748E+00  5.85814E+00  5.19272E+00  3.70810E+00  3.28195E+00  3.11581E+00  3.07718E+00  3.02104E+00  2.98679E+00
   2.98279E+00  2.92431E+00  2.94152E+00  2.89910E+00  2.93060E+00  2.90105E+00  2.93632E+00  2.91418E+00  2.94453E+00  2.94453E+00
   2.99338E+00  3.01540E+00  3.07607E+00  3.11650E+00  3.18644E+00  3.24043E+00  3.31487E+00  3.37514E+00  3.45879E+00  3.52663E+00
   3.61879E+00  3.69396E+00  3.79452E+00  3.87618E+00  3.98352E+00  4.07148E+00  4.18772E+00  4.28379E+00  4.41120E+00  4.52141E+00
   4.66659E+00  4.80076E+00  4.97753E+00  5.15751E+00  5.40943E+00  5.69454E+00  5.92109E+00  6.23669E+00  6.38003E+00  6.67417E+00
   6.73635E+00  6.99472E+00  6.96156E+00  7.28976E+00  7.21064E+00  7.56939E+00  7.43939E+00  7.72402E+00  7.54534E+00  7.72284E+00
   7.60689E+00  7.77505E+00  7.84694E+00  8.08257E+00  8.33553E+00  8.58325E+00  8.90773E+00  9.02071E+00  9.29533E+00  9.23380E+00
   9.39275E+00  9.23765E+00  9.33577E+00  9.20213E+00  9.20056E+00  9.02530E+00  8.96773E+00  8.78391E+00  8.69252E+00  8.50145E+00
   8.38136E+00  8.27402E+00  8.20107E+00  8.11408E+00  8.04855E+00  7.96099E+00  7.88886E+00  7.79041E+00  7.70408E+00  7.58947E+00
   7.48580E+00  7.35390E+00  7.23365E+00  7.08689E+00  6.95391E+00  6.79734E+00  6.65757E+00  6.49766E+00  6.35785E+00  6.20138E+00
   6.06810E+00  5.92124E+00  5.80011E+00  5.66781E+00  5.56308E+00  5.44891E+00  5.36347E+00  5.26968E+00  5.20524E+00  5.13309E+00
   5.09056E+00  5.04074E+00  5.02067E+00  4.99367E+00  4.99659E+00  4.99301E+00  5.01962E+00  5.04026E+00  5.09143E+00  5.13713E+00
   5.21353E+00  5.28464E+00  5.38613E+00  5.48180E+00  5.60654E+00  5.72371E+00  5.86724E+00  5.99983E+00  6.15435E+00  6.29284E+00
   6.44714E+00  6.57884E+00  6.71911E+00  6.82947E+00  6.94096E+00  7.01568E+00  7.08517E+00  7.11275E+00  7.13105E+00  7.10510E+00
   7.06899E+00  6.98965E+00  6.90263E+00  6.77657E+00  6.64814E+00  6.48720E+00  6.33094E+00  6.14975E+00  5.98066E+00  5.79396E+00
   5.62593E+00  5.44630E+00  5.29025E+00  5.12669E+00  4.98963E+00  4.84718E+00  4.73231E+00  4.61250E+00  4.51990E+00  4.42166E+00
   4.34936E+00  4.27006E+00  4.21502E+00  4.15142E+00  4.11034E+00  4.05919E+00  4.02897E+00  3.98741E+00  3.96546E+00  3.93115E+00
   3.91538E+00  3.88650E+00  3.87534E+00  3.85053E+00  3.84282E+00  3.82108E+00  3.81596E+00  3.79654E+00  3.79338E+00  3.77577E+00
   3.77412E+00  3.75791E+00  3.75743E+00  3.74233E+00  3.74278E+00  3.72859E+00  3.72978E+00  3.71632E+00  3.71810E+00  3.70526E+00
   3.70753E+00  3.69520E+00  3.69788E+00  3.68599E+00  3.68901E+00  3.67751E+00  3.68082E+00  3.66966E+00  3.67322E+00  3.66237E+00
   3.66614E+00  3.65557E+00  3.65955E+00  3.64924E+00  3.65340E+00  3.64335E+00  3.64769E+00  3.63789E+00  3.64240E+00  3.63285E+00
   3.63754E+00  3.62825E+00  3.63313E+00  3.62411E+00  3.62921E+00  3.62048E+00  3.62581E+00  3.61741E+00  3.62302E+00  3.61498E+00
   3.62092E+00  3.61331E+00  3.61964E+00  3.61255E+00  3.61938E+00  3.61291E+00  3.62039E+00  3.61471E+00
 NY background values follow
    -3.873E+01   -3.852E+01   -3.830E+01   -3.808E+01   -3.786E+01   -3.764E+01   -3.743E+01   -3.721E+01   -3.699E+01   -3.677E+01
    -3.656E+01   -3.634E+01   -3.612E+01   -3.590E+01   -3.569E+01   -3.547E+01   -3.525E+01   -3.503E+01   -3.482E+01   -3.460E+01
    -3.438E+01   -3.417E+01   -3.395E+01   -3.373E+01   -3.352E+01   -3.330E+01   -3.309E+01   -3.287E+01   -3.266E+01   -3.244E+01
    -3.223E+01   -3.201E+01   -3.180E+01   -3.159E+01   -3.137E+01   -3.116E+01   -3.095E+01   -3.073E+01   -3.052E+01   -3.031E+01
    -3.010E+01   -2.989E+01   -2.968E+01   -2.947E+01   -2.926E+01   -2.905E+01   -2.884E+01   -2.863E+01   -2.843E+01   -2.822E+01
    -2.801E+01   -2.781E+01   -2.760E+01   -2.739E+01   -2.719E+01   -2.699E+01   -2.678E+01   -2.658E+01   -2.638E+01   -2.618E+01
    -2.597E+01   -2.577E+01   -2.557E+01   -2.537E+01   -2.517E+01   -2.498E+01   -2.478E+01   -2.458E+01   -2.438E+01   -2.419E+01
    -2.399E+01   -2.380E+01   -2.360E+01   -2.341E+01   -2.322E+01   -2.303E+01   -2.284E+01   -2.265E+01   -2.246E+01   -2.227E+01
    -2.208E+01   -2.189E+01   -2.170E+01   -2.152E+01   -2.133E+01   -2.115E+01   -2.096E+01   -2.078E+01   -2.060E+01   -2.042E+01
    -2.024E+01   -2.006E+01   -1.988E+01   -1.970E+01   -1.952E+01   -1.934E+01   -1.917E+01   -1.899E+01   -1.882E+01   -1.864E+01
    -1.847E+01   -1.830E+01   -1.813E+01   -1.796E+01   -1.779E+01   -1.762E+01   -1.745E+01   -1.728E+01   -1.712E+01   -1.695E+01
    -1.678E+01   -1.662E+01   -1.646E+01   -1.629E+01   -1.613E+01   -1.597E+01   -1.581E+01   -1.565E+01   -1.549E+01   -1.533E+01
    -1.517E+01   -1.502E+01   -1.486E+01   -1.471E+01   -1.455E+01   -1.440E+01   -1.424E+01   -1.409E+01   -1.394E+01   -1.379E+01
    -1.364E+01   -1.349E+01   -1.334E+01   -1.319E+01   -1.304E+01   -1.290E+01   -1.275E+01   -1.261E+01   -1.246E+01   -1.232E+01
    -1.217E+01   -1.203E+01   -1.189E+01   -1.175E+01   -1.161E+01   -1.147E+01   -1.133E+01   -1.119E+01   -1.105E+01   -1.091E+01
    -1.078E+01   -1.064E+01   -1.051E+01   -1.037E+01   -1.024E+01   -1.010E+01   -9.971E+00   -9.839E+00   -9.707E+00   -9.576E+00
    -9.446E+00   -9.316E+00   -9.187E+00   -9.058E+00   -8.930E+00   -8.803E+00   -8.676E+00   -8.550E+00   -8.425E+00   -8.300E+00
    -8.175E+00   -8.051E+00   -7.928E+00   -7.805E+00   -7.683E+00   -7.561E+00   -7.440E+00   -7.320E+00   -7.200E+00   -7.080E+00
    -6.961E+00   -6.843E+00   -6.725E+00   -6.608E+00   -6.491E+00   -6.374E+00   -6.259E+00   -6.144E+00   -6.029E+00   -5.915E+00
    -5.802E+00   -5.689E+00   -5.577E+00   -5.466E+00   -5.355E+00   -5.245E+00   -5.136E+00   -5.027E+00   -4.919E+00   -4.811E+00
    -4.705E+00   -4.599E+00   -4.494E+00   -4.389E+00   -4.286E+00   -4.183E+00   -4.081E+00   -3.979E+00   -3.879E+00   -3.779E+00
    -3.680E+00   -3.582E+00   -3.485E+00   -3.388E+00   -3.293E+00   -3.198E+00   -3.104E+00   -3.011E+00   -2.919E+00   -2.828E+00
    -2.738E+00   -2.649E+00   -2.561E+00   -2.473E+00   -2.387E+00   -2.302E+00   -2.217E+00   -2.134E+00   -2.051E+00   -1.970E+00
    -1.889E+00   -1.810E+00   -1.731E+00   -1.653E+00   -1.577E+00   -1.501E+00   -1.426E+00   -1.352E+00   -1.278E+00   -1.206E+00
    -1.135E+00   -1.064E+00   -9.939E-01   -9.248E-01   -8.566E-01   -7.891E-01   -7.224E-01   -6.565E-01   -5.913E-01   -5.268E-01
    -4.631E-01   -4.002E-01   -3.379E-01   -2.763E-01   -2.155E-01   -1.552E-01   -9.571E-02   -3.682E-02    2.142E-02    7.903E-02
     1.360E-01    1.924E-01    2.482E-01    3.034E-01    3.580E-01    4.121E-01    4.656E-01    5.185E-01    5.710E-01    6.229E-01
     6.743E-01    7.252E-01    7.756E-01    8.256E-01    8.750E-01    9.240E-01    9.725E-01    1.021E+00    1.068E+00    1.115E+00
     1.162E+00    1.208E+00    1.253E+00    1.299E+00    1.343E+00    1.387E+00    1.431E+00    1.474E+00    1.517E+00    1.559E+00
     1.601E+00    1.643E+00    1.684E+00    1.724E+00    1.764E+00    1.803E+00    1.842E+00    1.881E+00    1.919E+00    1.956E+00
     1.994E+00    2.030E+00    2.066E+00    2.102E+00    2.137E+00    2.172E+00    2.207E+00    2.240E+00    2.274E+00    2.307E+00
     2.339E+00    2.371E+00    2.403E+00    2.434E+00    2.465E+00    2.495E+00    2.525E+00    2.554E+00    2.583E+00    2.611E+00
     2.639E+00    2.666E+00    2.694E+00    2.720E+00    2.746E+00    2.772E+00    2.797E+00    2.822E+00    2.847E+00    2.871E+00
     2.894E+00    2.917E+00    2.940E+00    2.963E+00    2.985E+00    3.006E+00    3.027E+00    3.048E+00    3.068E+00    3.088E+00
     3.108E+00    3.127E+00    3.146E+00    3.165E+00    3.183E+00    3.200E+00    3.218E+00    3.235E+00    3.251E+00    3.267E+00
     3.283E+00    3.299E+00    3.314E+00    3.329E+00    3.343E+00    3.358E+00    3.371E+00    3.385E+00    3.398E+00    3.411E+00
     3.423E+00    3.435E+00    3.447E+00    3.459E+00    3.470E+00    3.481E+00    3.492E+00    3.502E+00    3.512E+00    3.522E+00
     3.531E+00    3.540E+00    3.549E+00    3.558E+00    3.566E+00    3.574E+00    3.582E+00    3.590E+00    3.597E+00    3.604E+00
     3.611E+00    3.618E+00    3.624E+00    3.631E+00    3.637E+00    3.643E+00    3.648E+00    3.654E+00    3.659E+00    3.664E+00
     3.669E+00    3.674E+00    3.678E+00    3.683E+00    3.687E+00    3.691E+00    3.695E+00    3.699E+00    3.702E+00    3.706E+00
     3.709E+00    3.713E+00    3.716E+00    3.719E+00    3.722E+00    3.725E+00    3.727E+00    3.730E+00    3.733E+00    3.735E+00
     3.738E+00    3.740E+00    3.742E+00    3.744E+00    3.746E+00    3.748E+00    3.750E+00    3.752E+00    3.754E+00    3.755E+00
     3.757E+00    3.758E+00    3.760E+00    3.761E+00    3.762E+00    3.764E+00    3.765E+00    3.766E+00    3.767E+00    3.768E+00
     3.769E+00    3.769E+00    3.770E+00    3.771E+00    3.771E+00    3.772E+00    3.772E+00    3.772E+00    3.773E+00    3.773E+00
     3.773E+00    3.773E+00    3.773E+00    3.773E+00    3.773E+00    3.773E+00    3.772E+00    3.772E+00    3.772E+00    3.771E+00
     3.771E+00    3.770E+00    3.769E+00    3.769E+00    3.768E+00    3.767E+00    3.766E+00    3.766E+00    3.765E+00    3.764E+00
     3.763E+00    3.761E+00    3.760E+00    3.759E+00    3.758E+00    3.757E+00    3.755E+00    3.754E+00    3.753E+00    3.751E+00
     3.750E+00    3.748E+00    3.747E+00    3.745E+00    3.744E+00    3.742E+00    3.740E+00    3.739E+00    3.737E+00    3.735E+00
     3.734E+00    3.732E+00    3.730E+00    3.728E+00    3.726E+00    3.725E+00    3.723E+00    3.721E+00    3.719E+00    3.717E+00
     3.715E+00    3.713E+00    3.712E+00    3.710E+00    3.708E+00    3.706E+00    3.704E+00    3.702E+00
 Ala      Conc. = 2.44E+02
