 LCModel (Version 6.3-1L) Copyright: S.W. Provencher.          Ref.: Magn. Reson. Med. 30:672-679 (1993).                
 Slice#2 Row#1 Col#8  PD_05_press_1_raw_act
 36 lines in following concentration table = NCONC+1
    Conc.  %SD /Cr+PCr  Metabolite                                         
    4.490 551% 5.4E-02 Ala                                                 
   11.475  54%   0.139 Asp                                                 
   34.832 100%   0.423 Cr                                                  
   47.596  77%   0.577 PCr                                                 
    6.966  54% 8.5E-02 GABA                                                
    7.208  52% 8.7E-02 Glc                                                 
    0.000 999%   0.000 Gln                                                 
   84.772  64%   1.028 Glu                                                 
   20.340  34%   0.247 GPC                                                 
    0.000 999%   0.000 PCh                                                 
   71.633  34%   0.869 GSH                                                 
   69.436  88%   0.842 Ins                                                 
    0.000 999%   0.000 Lac                                                 
   85.377  26%   1.036 NAA                                                 
    0.000 999%   0.000 NAAG                                                
    2.467  51% 3.0E-02 Scyllo                                              
   11.741  53%   0.142 Tau                                                 
    0.000 999%   0.000 -CrCH2                                              
   20.340  34%   0.247 GPC+PCh                                             
   85.377  26%   1.036 NAA+NAAG                                            
   82.428  24%   1.000 Cr+PCr                                              
   84.772  64%   1.028 Glu+Gln                                             
    0.000 999%   0.000 Lip13a                                              
  874.296  12%  10.607 Lip13b                                              
  155.764  35%   1.890 Lip09                                               
    0.000 999%   0.000 MM09                                                
  104.386  40%   1.266 Lip20                                               
    0.000 999%   0.000 MM20                                                
 1.96E-05 999% 2.4E-07 MM12                                                
 1.07E-02 999% 1.3E-04 MM14                                                
    0.000 999%   0.000 MM17                                                
  874.296  12%  10.607 Lip13a+Lip13b                                       
  874.307  12%  10.607 MM14+Lip13a+Lip13b+MM12                             
  155.764  35%   1.890 MM09+Lip09                                          
  104.386  40%   1.266 MM20+Lip20                                          
   6 lines in following misc. output table
  FWHM = 0.031 ppm    S/N =   2                                            
  Data shift = 0.046 ppm                                                   
  Ph: -78 deg     -34.4 deg/ppm                                            
  alphaB,S = 1.9E+01,   1.4E+01                                            
   14 spline knots.   Ns = 5(1)                                            
   1 inflections.     2 extrema                                            
  498 points on ppm-axis = NY
      4.000000     3.992357     3.984714     3.977070     3.969427     3.961784     3.954141     3.946497     3.938854     3.931211
      3.923568     3.915925     3.908281     3.900638     3.892995     3.885352     3.877708     3.870065     3.862422     3.854779
      3.847136     3.839492     3.831849     3.824206     3.816563     3.808919     3.801276     3.793633     3.785990     3.778347
      3.770703     3.763060     3.755417     3.747774     3.740130     3.732487     3.724844     3.717201     3.709558     3.701914
      3.694271     3.686628     3.678985     3.671341     3.663698     3.656055     3.648412     3.640769     3.633125     3.625482
      3.617839     3.610196     3.602552     3.594909     3.587266     3.579623     3.571980     3.564336     3.556693     3.549050
      3.541407     3.533763     3.526120     3.518477     3.510834     3.503191     3.495547     3.487904     3.480261     3.472618
      3.464974     3.457331     3.449688     3.442045     3.434402     3.426758     3.419115     3.411472     3.403829     3.396185
      3.388542     3.380899     3.373256     3.365613     3.357969     3.350326     3.342683     3.335040     3.327396     3.319753
      3.312110     3.304467     3.296824     3.289180     3.281537     3.273894     3.266251     3.258607     3.250964     3.243321
      3.235678     3.228034     3.220391     3.212748     3.205105     3.197462     3.189818     3.182175     3.174532     3.166889
      3.159245     3.151602     3.143959     3.136316     3.128673     3.121029     3.113386     3.105743     3.098100     3.090456
      3.082813     3.075170     3.067527     3.059884     3.052240     3.044597     3.036954     3.029311     3.021667     3.014024
      3.006381     2.998738     2.991095     2.983451     2.975808     2.968165     2.960522     2.952878     2.945235     2.937592
      2.929949     2.922306     2.914662     2.907019     2.899376     2.891733     2.884089     2.876446     2.868803     2.861160
      2.853517     2.845873     2.838230     2.830587     2.822944     2.815300     2.807657     2.800014     2.792371     2.784728
      2.777084     2.769441     2.761798     2.754155     2.746511     2.738868     2.731225     2.723582     2.715939     2.708295
      2.700652     2.693009     2.685366     2.677722     2.670079     2.662436     2.654793     2.647150     2.639506     2.631863
      2.624220     2.616577     2.608933     2.601290     2.593647     2.586004     2.578361     2.570717     2.563074     2.555431
      2.547788     2.540144     2.532501     2.524858     2.517215     2.509572     2.501928     2.494285     2.486642     2.478999
      2.471355     2.463712     2.456069     2.448426     2.440783     2.433139     2.425496     2.417853     2.410210     2.402566
      2.394923     2.387280     2.379637     2.371994     2.364350     2.356707     2.349064     2.341421     2.333777     2.326134
      2.318491     2.310848     2.303205     2.295561     2.287918     2.280275     2.272632     2.264988     2.257345     2.249702
      2.242059     2.234416     2.226772     2.219129     2.211486     2.203843     2.196199     2.188556     2.180913     2.173270
      2.165627     2.157983     2.150340     2.142697     2.135054     2.127410     2.119767     2.112124     2.104481     2.096838
      2.089194     2.081551     2.073908     2.066265     2.058621     2.050978     2.043335     2.035692     2.028049     2.020405
      2.012762     2.005119     1.997476     1.989833     1.982190     1.974546     1.966903     1.959260     1.951617     1.943974
      1.936331     1.928688     1.921045     1.913402     1.905759     1.898115     1.890472     1.882829     1.875186     1.867543
      1.859900     1.852257     1.844614     1.836971     1.829327     1.821684     1.814041     1.806398     1.798755     1.791112
      1.783469     1.775826     1.768183     1.760540     1.752896     1.745253     1.737610     1.729967     1.722324     1.714681
      1.707038     1.699395     1.691752     1.684108     1.676465     1.668822     1.661179     1.653536     1.645893     1.638250
      1.630607     1.622964     1.615321     1.607677     1.600034     1.592391     1.584748     1.577105     1.569462     1.561819
      1.554176     1.546533     1.538890     1.531246     1.523603     1.515960     1.508317     1.500674     1.493031     1.485388
      1.477745     1.470102     1.462458     1.454815     1.447172     1.439529     1.431886     1.424243     1.416600     1.408957
      1.401314     1.393671     1.386027     1.378384     1.370741     1.363098     1.355455     1.347812     1.340169     1.332526
      1.324883     1.317240     1.309596     1.301953     1.294310     1.286667     1.279024     1.271381     1.263738     1.256095
      1.248452     1.240808     1.233165     1.225522     1.217879     1.210236     1.202593     1.194950     1.187307     1.179664
      1.172021     1.164377     1.156734     1.149091     1.141448     1.133805     1.126162     1.118519     1.110876     1.103233
      1.095590     1.087946     1.080303     1.072660     1.065017     1.057374     1.049731     1.042088     1.034445     1.026802
      1.019158     1.011515     1.003872     0.996229     0.988586     0.980943     0.973300     0.965657     0.958014     0.950371
      0.942727     0.935084     0.927441     0.919798     0.912155     0.904512     0.896869     0.889226     0.881583     0.873940
      0.866296     0.858653     0.851010     0.843367     0.835724     0.828081     0.820438     0.812795     0.805152     0.797508
      0.789865     0.782222     0.774579     0.766936     0.759293     0.751650     0.744007     0.736364     0.728721     0.721077
      0.713434     0.705791     0.698148     0.690505     0.682862     0.675219     0.667576     0.659933     0.652290     0.644646
      0.637003     0.629360     0.621717     0.614074     0.606431     0.598788     0.591145     0.583502     0.575858     0.568215
      0.560572     0.552929     0.545286     0.537643     0.530000     0.522357     0.514714     0.507071     0.499427     0.491784
      0.484141     0.476498     0.468855     0.461212     0.453569     0.445925     0.438282     0.430639     0.422996     0.415353
      0.407710     0.400067     0.392424     0.384780     0.377137     0.369494     0.361851     0.354208     0.346565     0.338922
      0.331278     0.323635     0.315992     0.308349     0.300706     0.293063     0.285420     0.277777     0.270133     0.262490
      0.254847     0.247204     0.239561     0.231918     0.224275     0.216631     0.208988     0.201345
 NY phased data points follow
   2.54401E-01 -8.42772E-01 -1.06007E-02 -1.77030E+00  7.75683E-01 -2.02483E+00  1.53159E+00  3.57820E+00  1.78575E+00  3.41731E+00
   3.76217E+00  6.51069E+00  4.48360E+00  2.54854E+00  4.40465E+00  4.26379E+00  5.10019E+00  3.41769E+00  1.93201E+00 -7.69686E-01
   1.82380E+00  2.60372E+00 -1.55036E-01  9.12324E-01 -4.44378E-01  1.80157E+00 -1.15295E-01 -2.54699E-01  6.78633E-01  3.11693E+00
   1.67572E+00  4.74696E+00  2.65585E+00  4.12935E+00  3.50901E+00  7.19878E-01  5.35450E+00  3.62854E+00  6.14515E-02  8.07638E-01
   3.04371E+00 -5.57695E-01  3.00048E-01  4.35494E+00  9.81719E-01  2.35578E-01 -1.79861E+00  9.24043E-01  8.57691E-02 -8.82923E-01
   8.51479E-01  1.19311E+00  2.29594E+00 -1.33524E+00  1.34173E+00 -1.69323E+00  5.57436E-01 -2.23565E+00 -8.10716E-01  3.04204E+00
   1.05956E+00 -2.44914E+00  2.02474E+00  2.70319E+00  1.61708E+00 -1.20651E+00  2.17873E+00 -8.29437E-02 -1.55166E+00 -4.29211E-01
   4.05151E-02 -2.05506E+00 -1.60109E+00 -2.19035E+00 -2.02988E+00 -1.63044E+00  1.63101E+00 -1.03100E+00  2.53172E+00 -1.48276E+00
   1.16770E+00  8.02050E-01  2.12714E+00 -1.18564E+00  1.07577E+00  4.20524E-01  1.55928E+00  1.46602E+00  1.99523E+00 -8.87085E-01
   1.54625E+00 -3.75071E-01  2.95593E+00 -1.76122E+00  1.89064E+00 -2.27727E+00 -1.51479E+00 -3.14807E+00 -3.73093E+00 -4.67652E-01
   1.81758E-01  3.43604E+00 -2.53193E+00  2.21096E+00  2.11108E+00  5.00455E+00  2.48440E+00 -1.52517E+00  6.27180E-01  1.81665E+00
  -1.47605E+00 -6.57853E-01 -1.81930E+00  1.71451E+00 -3.13117E+00 -1.38312E+00  2.34710E+00 -9.44897E-01 -6.18237E-01  4.03250E-01
  -3.16663E+00 -1.84978E+00 -2.74535E+00 -3.58402E+00 -2.89262E+00 -2.28108E+00 -2.93065E-01  2.41903E+00  2.20111E+00  3.00383E-01
   2.33152E+00  5.52899E+00  1.66609E+00  1.86474E+00  4.20293E-01  2.12227E+00  1.11331E+00 -2.95740E+00 -1.93967E+00  4.80924E-03
  -3.00386E-01  9.00788E-01  1.74895E+00  1.20968E+00  4.01126E-01 -1.17469E+00  2.17529E-01 -2.13429E+00 -1.22143E+00 -1.90698E+00
   3.36718E+00 -1.56261E+00 -1.88907E+00  1.31773E-01  5.40751E-01 -3.09844E+00  3.40717E-01  1.80263E+00  8.21340E-01 -3.51641E+00
  -6.84582E-02  1.57577E+00 -3.03313E+00 -2.54209E-01 -4.68631E-01 -2.43915E+00 -2.50909E+00 -7.12495E-01  2.21385E-01 -2.78973E+00
  -4.21618E-01 -2.48434E+00  4.17544E-01 -4.25845E-01 -3.14606E+00 -4.98264E+00 -1.28993E+00 -1.72204E+00  9.52026E-01  1.66435E+00
  -1.75071E+00 -5.77370E-02  8.38649E-01  7.22200E-01  3.08160E-01 -2.52019E+00 -9.64404E-01 -3.50413E+00 -5.66234E-01 -2.74704E+00
   4.55277E-01 -3.92327E+00 -2.98408E+00 -1.97422E+00 -2.81117E-01  7.06271E-01  1.31608E+00 -2.73047E-01 -1.41749E+00  9.43718E-01
  -5.90342E-01  1.30154E+00 -1.67493E+00 -6.25915E-01 -1.00574E+00  7.77455E-01 -8.82242E-01 -1.83125E+00 -2.48790E+00 -1.17057E+00
  -1.82600E+00  3.14131E-02 -5.23799E-01 -5.58645E-01 -1.79405E+00 -1.17658E+00 -3.32602E+00  4.94650E+00  3.20648E+00 -1.67139E+00
  -2.08601E+00  1.71222E+00  6.21310E-01  1.70540E+00 -2.82243E+00 -1.74537E+00 -7.65701E-01  7.61428E-01 -1.09418E+00  6.94408E-03
  -3.19400E+00 -2.49772E+00  3.84398E-01  2.43645E+00 -1.51216E-01 -1.89674E+00  1.64658E-01  2.62924E+00 -2.71749E+00  2.22979E+00
  -1.01283E+00  1.63956E-01  1.49141E+00 -1.86420E+00 -1.44346E+00  5.78447E-01 -8.53965E-01 -3.73380E-01  2.28415E+00  4.80808E+00
   1.72261E+00 -5.59143E-01 -5.89291E-01 -1.44570E+00 -3.69708E-01 -4.66522E+00 -5.37341E+00 -5.09305E+00 -3.33126E+00 -2.09875E+00
   1.70510E+00 -1.95214E+00  4.11885E+00  3.13846E+00  5.52104E+00  2.71097E+00  5.09884E+00  2.11742E+00  2.63036E+00 -1.03134E+00
  -9.89195E-01 -5.23984E-01 -3.07512E+00 -6.62185E-01 -3.45246E+00  3.48703E-01 -1.73376E+00  1.21876E+00 -5.74828E-01 -3.07744E+00
  -1.39300E+00 -1.08093E+00 -3.70152E+00 -2.23222E+00 -2.54755E+00  1.35783E+00 -1.77789E+00 -3.75620E-02 -3.65316E+00 -4.62440E+00
  -1.21825E+00 -3.94858E-01 -2.21209E+00 -4.07016E+00 -4.11367E-01 -2.17935E+00 -1.83210E+00 -4.45274E+00 -3.65546E+00 -3.45410E+00
  -2.10534E+00 -1.78269E+00  1.21943E+00 -3.76393E-01 -1.67684E+00 -2.94588E+00 -1.69891E+00  2.54709E-02 -3.22906E+00 -3.89901E+00
   3.33419E-01 -1.14909E+00 -3.23417E+00 -3.38719E+00 -4.27345E+00 -3.72839E+00 -4.91559E-01 -8.85001E-01 -3.82047E-01  1.45460E-01
  -1.12770E+00  1.76280E-01  1.50432E+00  2.32674E+00  7.39997E-01  1.16447E+00 -1.79964E+00  1.82408E+00  1.20360E+00 -1.56843E+00
   6.20842E-01  1.24902E+00  9.05973E-01 -5.75543E-01  2.00368E+00  7.27595E-01  4.19269E+00  2.26363E+00  3.65259E+00  4.22018E+00
   1.94120E+00  3.19397E+00  4.31094E+00  4.99967E+00  2.84896E+00  5.54363E+00  6.74657E+00  7.07648E+00  6.39412E+00  8.80719E+00
   7.10242E+00  7.44207E+00  8.26979E+00  9.66075E+00  6.76720E+00  6.33477E+00  3.71132E+00  4.20480E+00  3.24307E+00  2.06441E+00
  -6.44645E-02  2.66293E+00 -2.23552E-01 -3.50425E+00 -1.18024E+00 -2.60093E+00  9.51201E-02 -1.94311E-01 -9.61351E-01  9.95726E-01
  -1.97173E+00  1.24983E+00  1.32585E+00 -2.26561E+00 -7.68942E-01  1.61514E+00  2.39709E+00 -4.15907E-01 -1.90208E+00 -1.89940E+00
  -4.94582E-01 -6.41369E-01 -1.34889E-01  2.22714E-01 -1.05851E+00 -3.17543E+00 -3.43480E+00 -8.66557E-01 -2.08274E+00  3.18738E+00
  -1.98104E+00 -2.85480E+00  2.80954E+00 -9.44273E-01 -2.88801E+00 -1.88957E+00 -2.21133E-01 -9.14807E-02 -6.80306E-01  3.98493E-02
  -7.25466E-01 -3.98303E+00 -1.95807E+00 -4.17659E+00 -2.60793E+00 -3.52051E+00 -3.97497E+00 -2.77916E+00 -3.93140E-01 -3.17669E+00
   4.75893E+00 -2.08366E+00 -1.25914E+00  1.63940E+00 -6.03704E-03 -2.42756E+00 -1.62725E+00 -1.49878E+00 -2.91770E+00  1.86826E+00
  -1.12371E+00  2.11641E+00 -2.68578E+00 -9.27673E-01 -2.29036E+00  3.02671E-02 -1.13752E+00  2.36129E-01  2.02074E+00 -1.33256E+00
  -1.70755E+00  2.42972E-01 -1.42179E+00  1.43367E+00  7.11320E-01  1.13726E-01 -2.31342E+00  1.87039E+00 -1.00283E+00  7.91504E-02
  -1.03943E+00 -2.06635E+00  1.61806E+00 -1.14271E+00  2.14229E-01 -8.80178E-01 -1.73677E+00 -1.60695E+00  3.19759E+00  6.86244E-02
  -1.54005E+00 -1.85902E+00 -3.02455E+00  3.74756E-01 -2.79678E+00  1.91484E+00 -2.84363E-01 -3.95983E-01 -1.69607E+00  1.15469E+00
  -1.52103E+00 -1.91842E+00 -1.49666E+00 -3.12265E+00 -3.37538E-02 -6.70393E-02 -2.79924E+00  2.35915E+00  4.88849E-01 -2.34276E+00
   1.84465E-02  2.99212E+00 -6.93426E-01  1.80445E+00  8.32065E-01  1.29176E+00 -3.25498E-01  1.23545E+00 -1.89861E+00  8.26022E-01
  -2.00880E+00 -1.40394E+00 -2.96691E+00 -2.84916E+00 -5.70577E-01 -1.34894E+00 -5.11275E+00 -4.99852E+00 -4.03815E-01  9.82068E-01
   6.17052E-01  5.32677E-01 -9.71067E-01  7.28510E-01  4.72387E-01 -6.23013E-01 -7.18087E-01 -5.49691E-01
 NY points of the fit to the data follow
   3.83420E-01  2.77226E-01  1.49278E-01  6.88534E-03 -2.57679E-01 -4.40129E-01 -3.85104E-01 -1.45006E-01  3.51668E-01  1.07156E+00
   1.87537E+00  2.56154E+00  2.97007E+00  3.00156E+00  2.61276E+00  1.94468E+00  1.32758E+00  7.36189E-01  3.06753E-01  2.31314E-01
   2.50452E-01  2.30092E-01  1.74244E-01  1.45253E-01 -7.60028E-03 -5.33653E-01 -9.36110E-01 -7.69879E-01 -1.21683E-01  7.16634E-01
   1.58268E+00  2.43052E+00  3.10540E+00  3.34576E+00  2.95011E+00  1.93876E+00  8.36012E-01  3.25069E-01  1.09365E-01 -3.33307E-02
  -7.76751E-02 -5.77771E-02 -7.22260E-02 -1.80378E-01 -2.28909E-01 -1.01770E-01  1.51073E-01  4.25025E-01  6.65770E-01  8.65571E-01
   9.88097E-01  9.44679E-01  7.09521E-01  3.49227E-01 -1.21243E-02 -2.39920E-01 -3.04410E-01 -2.70867E-01 -1.78645E-01 -4.98548E-02
   8.10017E-02  1.90783E-01  2.60744E-01  2.81419E-01  2.34673E-01  1.15084E-01 -2.36650E-02 -1.35567E-01 -1.94711E-01 -1.74876E-01
  -1.14103E-01 -5.26673E-02  5.08119E-03  6.45728E-02  1.25015E-01  1.72323E-01  1.97142E-01  1.79844E-01  1.20127E-01  5.98203E-02
  -5.23184E-03 -9.96044E-02 -1.54933E-01 -1.10514E-01 -7.13845E-03  8.06132E-02  1.10685E-01  8.23877E-02  1.82602E-02 -6.70985E-02
  -1.77274E-01 -3.01122E-01 -3.87887E-01 -3.64216E-01 -2.79491E-01 -2.12051E-01 -2.51315E-01 -6.25733E-01 -1.13923E+00 -1.12467E+00
  -4.77214E-01  4.61547E-01  1.38177E+00  2.21432E+00  2.93108E+00  3.31387E+00  3.08513E+00  2.13805E+00  8.18492E-01 -4.44334E-02
  -2.26003E-01 -2.55743E-01 -2.67453E-01 -2.72433E-01 -2.71238E-01 -2.50111E-01 -2.28285E-01 -2.23201E-01 -2.36279E-01 -2.73031E-01
  -3.59828E-01 -6.23166E-01 -1.29467E+00 -1.83315E+00 -1.52878E+00 -4.33725E-01  9.57657E-01  2.26966E+00  3.40320E+00  4.27710E+00
   4.68881E+00  4.31462E+00  3.08113E+00  1.55289E+00  6.86772E-01  3.49145E-01  5.90515E-04 -4.40518E-01 -8.59285E-01 -1.11208E+00
  -1.05215E+00 -6.99412E-01 -2.66239E-01  1.12464E-01  3.38116E-01  3.54845E-01  2.37509E-01  7.38484E-02 -5.65294E-02 -1.09223E-01
  -1.38984E-01 -1.76822E-01 -2.28445E-01 -2.79972E-01 -3.22709E-01 -3.46615E-01 -3.33828E-01 -3.00609E-01 -2.79529E-01 -2.83430E-01
  -3.17613E-01 -3.68669E-01 -4.17673E-01 -4.49285E-01 -4.58927E-01 -4.43315E-01 -3.99709E-01 -3.46980E-01 -3.27127E-01 -3.53439E-01
  -3.93810E-01 -4.19667E-01 -4.13466E-01 -4.24138E-01 -4.74664E-01 -5.32593E-01 -5.68577E-01 -5.88094E-01 -6.23079E-01 -6.67354E-01
  -6.67582E-01 -6.19538E-01 -5.70534E-01 -5.85338E-01 -7.07403E-01 -8.72679E-01 -1.01106E+00 -1.06727E+00 -1.01007E+00 -8.39935E-01
  -5.64329E-01 -2.16401E-01  1.32907E-01  3.93780E-01  3.87003E-01  8.30262E-02 -3.44341E-01 -7.16582E-01 -9.47381E-01 -1.04477E+00
  -1.02269E+00 -8.65823E-01 -5.78923E-01 -2.59612E-01 -5.95070E-02 -3.92551E-03  2.24380E-02  3.51532E-02 -1.95424E-03 -1.22466E-01
  -3.29606E-01 -5.95357E-01 -7.81314E-01 -7.60505E-01 -5.70362E-01 -2.93259E-01  3.49665E-02  3.70169E-01  6.22747E-01  5.97110E-01
   1.90025E-01 -4.34048E-01 -1.01701E+00 -1.33592E+00 -1.41605E+00 -1.30868E+00 -9.60715E-01 -4.45269E-01 -6.38860E-03  1.40226E-01
  -6.78856E-03 -2.71506E-01 -5.39617E-01 -7.50347E-01 -7.33500E-01 -4.37246E-01  2.31035E-02  4.51728E-01  6.79911E-01  6.35999E-01
   3.25454E-01 -2.13355E-01 -8.05983E-01 -1.23973E+00 -1.34331E+00 -1.10996E+00 -7.09940E-01 -2.75115E-01  8.23876E-02  2.84607E-01
   2.56561E-01  4.75173E-02 -1.96292E-01 -3.71748E-01 -5.35862E-01 -9.38582E-01 -1.69620E+00 -1.92876E+00 -1.21368E+00  8.49947E-02
   1.47640E+00  2.77132E+00  3.94562E+00  4.76000E+00  4.79941E+00  3.76442E+00  1.91349E+00  2.58343E-01 -3.18078E-01 -4.84681E-01
  -5.86298E-01 -6.43876E-01 -6.73004E-01 -6.91907E-01 -6.83526E-01 -6.49370E-01 -6.00588E-01 -5.55853E-01 -5.29844E-01 -5.34071E-01
  -5.61231E-01 -5.95670E-01 -6.29675E-01 -6.56851E-01 -6.72904E-01 -6.79293E-01 -6.77240E-01 -6.69555E-01 -6.62640E-01 -6.56895E-01
  -6.53394E-01 -6.53554E-01 -6.55727E-01 -6.57512E-01 -6.58801E-01 -6.60376E-01 -6.61763E-01 -6.62074E-01 -6.61893E-01 -6.61490E-01
  -6.60170E-01 -6.58212E-01 -6.55795E-01 -6.53108E-01 -6.50179E-01 -6.46904E-01 -6.43230E-01 -6.39261E-01 -6.35162E-01 -6.30948E-01
  -6.26274E-01 -6.20842E-01 -6.14681E-01 -6.07889E-01 -6.00539E-01 -5.92553E-01 -5.83800E-01 -5.74183E-01 -5.63696E-01 -5.52472E-01
  -5.40967E-01 -5.30755E-01 -5.22369E-01 -4.97325E-01 -4.46966E-01 -3.87788E-01 -3.36470E-01 -2.96769E-01 -2.64351E-01 -2.39890E-01
  -2.39819E-01 -2.64203E-01 -2.75311E-01 -2.31951E-01 -1.14546E-01  5.34319E-02  2.59148E-01  5.15276E-01  8.29559E-01  1.20108E+00
   1.62607E+00  2.10987E+00  2.68387E+00  3.36497E+00  4.13057E+00  4.94798E+00  5.77369E+00  6.55383E+00  7.22872E+00  7.73985E+00
   8.03792E+00  8.09042E+00  7.88700E+00  7.44153E+00  6.79012E+00  5.98569E+00  5.09015E+00  4.16587E+00  3.26823E+00  2.44036E+00
   1.71066E+00  1.09293E+00  5.88530E-01  1.89648E-01 -1.17082E-01 -3.47386E-01 -5.16938E-01 -6.39847E-01 -7.27933E-01 -7.90557E-01
  -8.34791E-01 -8.65769E-01 -8.87114E-01 -9.01350E-01 -9.10228E-01 -9.14961E-01 -9.16364E-01 -9.14972E-01 -9.11137E-01 -9.05105E-01
  -8.97060E-01 -8.87125E-01 -8.75364E-01 -8.61794E-01 -8.46418E-01 -8.29257E-01 -8.10346E-01 -7.89717E-01 -7.67401E-01 -7.43444E-01
  -7.17938E-01 -6.91037E-01 -6.62944E-01 -6.33894E-01 -6.04157E-01 -5.74059E-01 -5.43998E-01 -5.14437E-01 -4.85868E-01 -4.58798E-01
  -4.33736E-01 -4.11205E-01 -3.91730E-01 -3.75807E-01 -3.63863E-01 -3.56237E-01 -3.53180E-01 -3.54864E-01 -3.61369E-01 -3.72663E-01
  -3.88586E-01 -4.08865E-01 -4.33144E-01 -4.61003E-01 -4.91970E-01 -5.25517E-01 -5.61076E-01 -5.98070E-01 -6.35950E-01 -6.74210E-01
  -7.12387E-01 -7.50053E-01 -7.86828E-01 -8.22396E-01 -8.56520E-01 -8.89036E-01 -9.19825E-01 -9.48806E-01 -9.75936E-01 -1.00122E+00
  -1.02472E+00 -1.04651E+00 -1.06667E+00 -1.08528E+00 -1.10244E+00 -1.11826E+00 -1.13286E+00 -1.14635E+00 -1.15882E+00 -1.17035E+00
  -1.18103E+00 -1.19095E+00 -1.20019E+00 -1.20883E+00 -1.21691E+00 -1.22448E+00 -1.23159E+00 -1.23830E+00 -1.24465E+00 -1.25068E+00
  -1.25641E+00 -1.26185E+00 -1.26704E+00 -1.27202E+00 -1.27681E+00 -1.28142E+00 -1.28585E+00 -1.29012E+00 -1.29424E+00 -1.29825E+00
  -1.30215E+00 -1.30594E+00 -1.30961E+00 -1.31320E+00 -1.31670E+00 -1.32014E+00 -1.32351E+00 -1.32680E+00 -1.33003E+00 -1.33319E+00
  -1.33631E+00 -1.33940E+00 -1.34244E+00 -1.34542E+00 -1.34836E+00 -1.35126E+00 -1.35414E+00 -1.35699E+00 -1.35981E+00 -1.36259E+00
  -1.36533E+00 -1.36806E+00 -1.37077E+00 -1.37347E+00 -1.37613E+00 -1.37876E+00 -1.38138E+00 -1.38399E+00 -1.38658E+00 -1.38916E+00
  -1.39171E+00 -1.39423E+00 -1.39675E+00 -1.39926E+00 -1.40176E+00 -1.40424E+00 -1.40670E+00 -1.40914E+00
 NY background values follow
    -6.398E-02   -6.665E-02   -6.932E-02   -7.200E-02   -7.467E-02   -7.735E-02   -8.002E-02   -8.269E-02   -8.537E-02   -8.804E-02
    -9.071E-02   -9.339E-02   -9.606E-02   -9.873E-02   -1.014E-01   -1.041E-01   -1.068E-01   -1.094E-01   -1.121E-01   -1.148E-01
    -1.174E-01   -1.201E-01   -1.228E-01   -1.255E-01   -1.281E-01   -1.308E-01   -1.335E-01   -1.362E-01   -1.388E-01   -1.415E-01
    -1.442E-01   -1.468E-01   -1.495E-01   -1.522E-01   -1.549E-01   -1.575E-01   -1.602E-01   -1.629E-01   -1.656E-01   -1.682E-01
    -1.709E-01   -1.736E-01   -1.762E-01   -1.789E-01   -1.816E-01   -1.843E-01   -1.869E-01   -1.896E-01   -1.923E-01   -1.949E-01
    -1.976E-01   -2.003E-01   -2.030E-01   -2.056E-01   -2.083E-01   -2.110E-01   -2.136E-01   -2.163E-01   -2.190E-01   -2.216E-01
    -2.243E-01   -2.270E-01   -2.297E-01   -2.323E-01   -2.350E-01   -2.377E-01   -2.403E-01   -2.430E-01   -2.457E-01   -2.483E-01
    -2.510E-01   -2.537E-01   -2.563E-01   -2.590E-01   -2.617E-01   -2.644E-01   -2.670E-01   -2.697E-01   -2.724E-01   -2.750E-01
    -2.777E-01   -2.804E-01   -2.830E-01   -2.857E-01   -2.884E-01   -2.910E-01   -2.937E-01   -2.964E-01   -2.990E-01   -3.017E-01
    -3.044E-01   -3.070E-01   -3.097E-01   -3.124E-01   -3.150E-01   -3.177E-01   -3.203E-01   -3.230E-01   -3.257E-01   -3.283E-01
    -3.310E-01   -3.337E-01   -3.363E-01   -3.390E-01   -3.417E-01   -3.443E-01   -3.470E-01   -3.496E-01   -3.523E-01   -3.550E-01
    -3.576E-01   -3.603E-01   -3.630E-01   -3.656E-01   -3.683E-01   -3.709E-01   -3.736E-01   -3.763E-01   -3.789E-01   -3.816E-01
    -3.842E-01   -3.869E-01   -3.896E-01   -3.922E-01   -3.949E-01   -3.975E-01   -4.002E-01   -4.029E-01   -4.055E-01   -4.082E-01
    -4.108E-01   -4.135E-01   -4.161E-01   -4.188E-01   -4.215E-01   -4.241E-01   -4.268E-01   -4.294E-01   -4.321E-01   -4.347E-01
    -4.374E-01   -4.401E-01   -4.427E-01   -4.454E-01   -4.480E-01   -4.507E-01   -4.533E-01   -4.560E-01   -4.586E-01   -4.613E-01
    -4.639E-01   -4.666E-01   -4.692E-01   -4.719E-01   -4.745E-01   -4.772E-01   -4.798E-01   -4.825E-01   -4.851E-01   -4.878E-01
    -4.904E-01   -4.931E-01   -4.957E-01   -4.984E-01   -5.010E-01   -5.037E-01   -5.063E-01   -5.090E-01   -5.116E-01   -5.143E-01
    -5.169E-01   -5.196E-01   -5.222E-01   -5.249E-01   -5.275E-01   -5.302E-01   -5.328E-01   -5.355E-01   -5.381E-01   -5.407E-01
    -5.434E-01   -5.460E-01   -5.487E-01   -5.513E-01   -5.540E-01   -5.566E-01   -5.593E-01   -5.619E-01   -5.645E-01   -5.672E-01
    -5.698E-01   -5.725E-01   -5.751E-01   -5.777E-01   -5.804E-01   -5.830E-01   -5.857E-01   -5.883E-01   -5.909E-01   -5.936E-01
    -5.962E-01   -5.989E-01   -6.015E-01   -6.041E-01   -6.068E-01   -6.094E-01   -6.120E-01   -6.147E-01   -6.173E-01   -6.200E-01
    -6.226E-01   -6.252E-01   -6.279E-01   -6.305E-01   -6.331E-01   -6.358E-01   -6.384E-01   -6.410E-01   -6.437E-01   -6.463E-01
    -6.489E-01   -6.516E-01   -6.542E-01   -6.568E-01   -6.595E-01   -6.621E-01   -6.647E-01   -6.674E-01   -6.700E-01   -6.726E-01
    -6.752E-01   -6.779E-01   -6.805E-01   -6.831E-01   -6.858E-01   -6.884E-01   -6.910E-01   -6.936E-01   -6.963E-01   -6.989E-01
    -7.015E-01   -7.042E-01   -7.068E-01   -7.094E-01   -7.120E-01   -7.147E-01   -7.173E-01   -7.199E-01   -7.225E-01   -7.252E-01
    -7.278E-01   -7.304E-01   -7.330E-01   -7.356E-01   -7.383E-01   -7.409E-01   -7.435E-01   -7.461E-01   -7.488E-01   -7.514E-01
    -7.540E-01   -7.566E-01   -7.592E-01   -7.619E-01   -7.645E-01   -7.671E-01   -7.697E-01   -7.723E-01   -7.750E-01   -7.776E-01
    -7.802E-01   -7.828E-01   -7.854E-01   -7.880E-01   -7.907E-01   -7.933E-01   -7.959E-01   -7.985E-01   -8.011E-01   -8.037E-01
    -8.063E-01   -8.090E-01   -8.116E-01   -8.142E-01   -8.168E-01   -8.194E-01   -8.220E-01   -8.246E-01   -8.273E-01   -8.299E-01
    -8.325E-01   -8.351E-01   -8.377E-01   -8.403E-01   -8.429E-01   -8.455E-01   -8.481E-01   -8.507E-01   -8.534E-01   -8.560E-01
    -8.586E-01   -8.612E-01   -8.638E-01   -8.664E-01   -8.690E-01   -8.716E-01   -8.742E-01   -8.768E-01   -8.794E-01   -8.820E-01
    -8.846E-01   -8.873E-01   -8.899E-01   -8.925E-01   -8.951E-01   -8.977E-01   -9.003E-01   -9.029E-01   -9.055E-01   -9.081E-01
    -9.107E-01   -9.133E-01   -9.159E-01   -9.185E-01   -9.211E-01   -9.237E-01   -9.263E-01   -9.289E-01   -9.315E-01   -9.341E-01
    -9.367E-01   -9.393E-01   -9.419E-01   -9.445E-01   -9.471E-01   -9.497E-01   -9.523E-01   -9.549E-01   -9.575E-01   -9.601E-01
    -9.627E-01   -9.653E-01   -9.679E-01   -9.705E-01   -9.731E-01   -9.757E-01   -9.783E-01   -9.809E-01   -9.835E-01   -9.861E-01
    -9.887E-01   -9.913E-01   -9.939E-01   -9.965E-01   -9.991E-01   -1.002E+00   -1.004E+00   -1.007E+00   -1.009E+00   -1.012E+00
    -1.015E+00   -1.017E+00   -1.020E+00   -1.022E+00   -1.025E+00   -1.028E+00   -1.030E+00   -1.033E+00   -1.035E+00   -1.038E+00
    -1.041E+00   -1.043E+00   -1.046E+00   -1.048E+00   -1.051E+00   -1.053E+00   -1.056E+00   -1.059E+00   -1.061E+00   -1.064E+00
    -1.066E+00   -1.069E+00   -1.072E+00   -1.074E+00   -1.077E+00   -1.079E+00   -1.082E+00   -1.085E+00   -1.087E+00   -1.090E+00
    -1.092E+00   -1.095E+00   -1.098E+00   -1.100E+00   -1.103E+00   -1.105E+00   -1.108E+00   -1.110E+00   -1.113E+00   -1.116E+00
    -1.118E+00   -1.121E+00   -1.123E+00   -1.126E+00   -1.129E+00   -1.131E+00   -1.134E+00   -1.136E+00   -1.139E+00   -1.141E+00
    -1.144E+00   -1.147E+00   -1.149E+00   -1.152E+00   -1.154E+00   -1.157E+00   -1.160E+00   -1.162E+00   -1.165E+00   -1.167E+00
    -1.170E+00   -1.172E+00   -1.175E+00   -1.178E+00   -1.180E+00   -1.183E+00   -1.185E+00   -1.188E+00   -1.191E+00   -1.193E+00
    -1.196E+00   -1.198E+00   -1.201E+00   -1.203E+00   -1.206E+00   -1.209E+00   -1.211E+00   -1.214E+00   -1.216E+00   -1.219E+00
    -1.222E+00   -1.224E+00   -1.227E+00   -1.229E+00   -1.232E+00   -1.234E+00   -1.237E+00   -1.240E+00   -1.242E+00   -1.245E+00
    -1.247E+00   -1.250E+00   -1.253E+00   -1.255E+00   -1.258E+00   -1.260E+00   -1.263E+00   -1.265E+00   -1.268E+00   -1.271E+00
    -1.273E+00   -1.276E+00   -1.278E+00   -1.281E+00   -1.283E+00   -1.286E+00   -1.289E+00   -1.291E+00   -1.294E+00   -1.296E+00
    -1.299E+00   -1.301E+00   -1.304E+00   -1.307E+00   -1.309E+00   -1.312E+00   -1.314E+00   -1.317E+00   -1.320E+00   -1.322E+00
    -1.325E+00   -1.327E+00   -1.330E+00   -1.332E+00   -1.335E+00   -1.338E+00   -1.340E+00   -1.343E+00   -1.345E+00   -1.348E+00
    -1.350E+00   -1.353E+00   -1.356E+00   -1.358E+00   -1.361E+00   -1.363E+00   -1.366E+00   -1.368E+00
 Ala      Conc. = 4.49E+00
