 LCModel (Version 6.3-1L) Copyright: S.W. Provencher.          Ref.: Magn. Reson. Med. 30:672-679 (1993).                
 Slice#3 Row#7 Col#5  PD_05_press_1_raw_act
 36 lines in following concentration table = NCONC+1
    Conc.  %SD /Cr+PCr  Metabolite                                         
    0.000 999%   0.000 Ala                                                 
    0.000 999%   0.000 Asp                                                 
  718.088  19%   0.554 Cr                                                  
  578.557  24%   0.446 PCr                                                 
    0.000 999%   0.000 GABA                                                
    0.000 999%   0.000 Glc                                                 
  646.082  23%   0.498 Gln                                                 
 1.28E+03  13%   0.988 Glu                                                 
  357.716   4%   0.276 GPC                                                 
    0.000 999%   0.000 PCh                                                 
  297.489  16%   0.229 GSH                                                 
  143.441 106%   0.111 Ins                                                 
    0.000 999%   0.000 Lac                                                 
 1.78E+03   4%   1.372 NAA                                                 
  328.578  21%   0.253 NAAG                                                
    0.000 999%   0.000 Scyllo                                              
    0.000 999%   0.000 Tau                                                 
    0.000 999%   0.000 -CrCH2                                              
  357.716   4%   0.276 GPC+PCh                                             
 2.11E+03   3%   1.626 NAA+NAAG                                            
 1.30E+03   3%   1.000 Cr+PCr                                              
 1.93E+03  12%   1.486 Glu+Gln                                             
  738.208  38%   0.569 Lip13a                                              
    0.000 999%   0.000 Lip13b                                              
    0.000 999%   0.000 Lip09                                               
 1.04E+03  16%   0.803 MM09                                                
  123.005  93% 9.5E-02 Lip20                                               
 2.22E+03  13%   1.711 MM20                                                
  380.845  30%   0.294 MM12                                                
 1.29E+03  21%   0.995 MM14                                                
 1.10E+03  19%   0.849 MM17                                                
  738.208  38%   0.569 Lip13a+Lip13b                                       
 2.41E+03  15%   1.858 MM14+Lip13a+Lip13b+MM12                             
 1.04E+03  16%   0.803 MM09+Lip09                                          
 2.34E+03  13%   1.806 MM20+Lip20                                          
   6 lines in following misc. output table
  FWHM = 0.054 ppm    S/N =  15                                            
  Data shift = 0.023 ppm                                                   
  Ph:  -3 deg      -1.8 deg/ppm                                            
  alphaB,S = 9.4E-01,   4.8E+01                                            
   14 spline knots.   Ns = 6(1)                                            
  (12) 4 infls.   ( 9) 1 extrs.                                            
  498 points on ppm-axis = NY
      4.000000     3.992357     3.984714     3.977070     3.969427     3.961784     3.954141     3.946497     3.938854     3.931211
      3.923568     3.915925     3.908281     3.900638     3.892995     3.885352     3.877708     3.870065     3.862422     3.854779
      3.847136     3.839492     3.831849     3.824206     3.816563     3.808919     3.801276     3.793633     3.785990     3.778347
      3.770703     3.763060     3.755417     3.747774     3.740130     3.732487     3.724844     3.717201     3.709558     3.701914
      3.694271     3.686628     3.678985     3.671341     3.663698     3.656055     3.648412     3.640769     3.633125     3.625482
      3.617839     3.610196     3.602552     3.594909     3.587266     3.579623     3.571980     3.564336     3.556693     3.549050
      3.541407     3.533763     3.526120     3.518477     3.510834     3.503191     3.495547     3.487904     3.480261     3.472618
      3.464974     3.457331     3.449688     3.442045     3.434402     3.426758     3.419115     3.411472     3.403829     3.396185
      3.388542     3.380899     3.373256     3.365613     3.357969     3.350326     3.342683     3.335040     3.327396     3.319753
      3.312110     3.304467     3.296824     3.289180     3.281537     3.273894     3.266251     3.258607     3.250964     3.243321
      3.235678     3.228034     3.220391     3.212748     3.205105     3.197462     3.189818     3.182175     3.174532     3.166889
      3.159245     3.151602     3.143959     3.136316     3.128673     3.121029     3.113386     3.105743     3.098100     3.090456
      3.082813     3.075170     3.067527     3.059884     3.052240     3.044597     3.036954     3.029311     3.021667     3.014024
      3.006381     2.998738     2.991095     2.983451     2.975808     2.968165     2.960522     2.952878     2.945235     2.937592
      2.929949     2.922306     2.914662     2.907019     2.899376     2.891733     2.884089     2.876446     2.868803     2.861160
      2.853517     2.845873     2.838230     2.830587     2.822944     2.815300     2.807657     2.800014     2.792371     2.784728
      2.777084     2.769441     2.761798     2.754155     2.746511     2.738868     2.731225     2.723582     2.715939     2.708295
      2.700652     2.693009     2.685366     2.677722     2.670079     2.662436     2.654793     2.647150     2.639506     2.631863
      2.624220     2.616577     2.608933     2.601290     2.593647     2.586004     2.578361     2.570717     2.563074     2.555431
      2.547788     2.540144     2.532501     2.524858     2.517215     2.509572     2.501928     2.494285     2.486642     2.478999
      2.471355     2.463712     2.456069     2.448426     2.440783     2.433139     2.425496     2.417853     2.410210     2.402566
      2.394923     2.387280     2.379637     2.371994     2.364350     2.356707     2.349064     2.341421     2.333777     2.326134
      2.318491     2.310848     2.303205     2.295561     2.287918     2.280275     2.272632     2.264988     2.257345     2.249702
      2.242059     2.234416     2.226772     2.219129     2.211486     2.203843     2.196199     2.188556     2.180913     2.173270
      2.165627     2.157983     2.150340     2.142697     2.135054     2.127410     2.119767     2.112124     2.104481     2.096838
      2.089194     2.081551     2.073908     2.066265     2.058621     2.050978     2.043335     2.035692     2.028049     2.020405
      2.012762     2.005119     1.997476     1.989833     1.982190     1.974546     1.966903     1.959260     1.951617     1.943974
      1.936331     1.928688     1.921045     1.913402     1.905759     1.898115     1.890472     1.882829     1.875186     1.867543
      1.859900     1.852257     1.844614     1.836971     1.829327     1.821684     1.814041     1.806398     1.798755     1.791112
      1.783469     1.775826     1.768183     1.760540     1.752896     1.745253     1.737610     1.729967     1.722324     1.714681
      1.707038     1.699395     1.691752     1.684108     1.676465     1.668822     1.661179     1.653536     1.645893     1.638250
      1.630607     1.622964     1.615321     1.607677     1.600034     1.592391     1.584748     1.577105     1.569462     1.561819
      1.554176     1.546533     1.538890     1.531246     1.523603     1.515960     1.508317     1.500674     1.493031     1.485388
      1.477745     1.470102     1.462458     1.454815     1.447172     1.439529     1.431886     1.424243     1.416600     1.408957
      1.401314     1.393671     1.386027     1.378384     1.370741     1.363098     1.355455     1.347812     1.340169     1.332526
      1.324883     1.317240     1.309596     1.301953     1.294310     1.286667     1.279024     1.271381     1.263738     1.256095
      1.248452     1.240808     1.233165     1.225522     1.217879     1.210236     1.202593     1.194950     1.187307     1.179664
      1.172021     1.164377     1.156734     1.149091     1.141448     1.133805     1.126162     1.118519     1.110876     1.103233
      1.095590     1.087946     1.080303     1.072660     1.065017     1.057374     1.049731     1.042088     1.034445     1.026802
      1.019158     1.011515     1.003872     0.996229     0.988586     0.980943     0.973300     0.965657     0.958014     0.950371
      0.942727     0.935084     0.927441     0.919798     0.912155     0.904512     0.896869     0.889226     0.881583     0.873940
      0.866296     0.858653     0.851010     0.843367     0.835724     0.828081     0.820438     0.812795     0.805152     0.797508
      0.789865     0.782222     0.774579     0.766936     0.759293     0.751650     0.744007     0.736364     0.728721     0.721077
      0.713434     0.705791     0.698148     0.690505     0.682862     0.675219     0.667576     0.659933     0.652290     0.644646
      0.637003     0.629360     0.621717     0.614074     0.606431     0.598788     0.591145     0.583502     0.575858     0.568215
      0.560572     0.552929     0.545286     0.537643     0.530000     0.522357     0.514714     0.507071     0.499427     0.491784
      0.484141     0.476498     0.468855     0.461212     0.453569     0.445925     0.438282     0.430639     0.422996     0.415353
      0.407710     0.400067     0.392424     0.384780     0.377137     0.369494     0.361851     0.354208     0.346565     0.338922
      0.331278     0.323635     0.315992     0.308349     0.300706     0.293063     0.285420     0.277777     0.270133     0.262490
      0.254847     0.247204     0.239561     0.231918     0.224275     0.216631     0.208988     0.201345
 NY phased data points follow
   2.93364E+01  2.72658E+01  2.80742E+01  2.76027E+01  2.90811E+01  3.36273E+01  3.45296E+01  3.93437E+01  4.43676E+01  5.12632E+01
   5.65308E+01  5.88420E+01  5.61586E+01  5.26286E+01  4.71431E+01  4.31965E+01  3.85234E+01  3.27783E+01  3.12944E+01  2.73925E+01
   2.72454E+01  2.76697E+01  2.17814E+01  2.68341E+01  2.44352E+01  2.68578E+01  2.74956E+01  2.28390E+01  2.66976E+01  2.56068E+01
   2.81258E+01  3.07967E+01  3.14937E+01  2.88168E+01  2.60633E+01  2.38578E+01  2.71977E+01  2.46159E+01  2.55608E+01  2.19972E+01
   2.34459E+01  2.14812E+01  2.00943E+01  2.03109E+01  2.11549E+01  1.97496E+01  2.18351E+01  2.75826E+01  2.46428E+01  2.56392E+01
   2.10049E+01  1.95995E+01  1.91439E+01  1.70839E+01  1.47709E+01  1.50162E+01  1.59585E+01  1.60266E+01  1.68244E+01  1.74451E+01
   1.44047E+01  1.73414E+01  1.60328E+01  1.12651E+01  1.34559E+01  8.93756E+00  8.69718E+00  1.05933E+01  7.84899E+00  9.11239E+00
   8.68721E+00  9.33948E+00  1.11741E+01  8.70756E+00  1.01881E+01  9.47783E+00  1.19090E+01  9.03066E+00  1.13476E+01  9.68269E+00
   1.25260E+01  8.45258E+00  7.67572E+00  1.08985E+01  1.13783E+01  7.67718E+00  9.38708E+00  8.51464E+00  1.39397E+01  7.72278E+00
   1.12173E+01  9.80313E+00  1.20533E+01  1.03123E+01  9.53386E+00  1.29697E+01  1.26632E+01  1.38745E+01  1.42238E+01  1.93292E+01
   2.32742E+01  3.35004E+01  3.64102E+01  4.41531E+01  4.55980E+01  3.90243E+01  3.78330E+01  2.97122E+01  2.57722E+01  1.83592E+01
   1.89971E+01  1.41995E+01  1.43327E+01  1.05096E+01  1.27769E+01  1.12530E+01  9.12674E+00  1.02734E+01  1.09678E+01  1.08289E+01
   9.19161E+00  1.16733E+01  1.46189E+01  1.38399E+01  2.06548E+01  3.53531E+01  4.73971E+01  4.99797E+01  5.06380E+01  4.60302E+01
   4.23247E+01  3.47185E+01  2.84134E+01  2.27418E+01  1.93312E+01  1.52834E+01  1.14446E+01  1.06733E+01  9.23843E+00  6.27782E+00
   1.09703E+01  9.78684E+00  5.52036E+00  7.07056E+00  9.31097E+00  6.44000E+00  7.36362E+00  7.70043E+00  8.08876E+00  3.23611E+00
   6.58387E+00  3.67049E+00  3.81695E+00  4.19028E+00  4.84202E+00  4.56803E+00  3.93496E+00  4.30573E+00  5.90899E+00  4.37007E+00
   3.96272E+00  6.69586E-01 -7.59048E-01  9.72829E-01  2.36291E+00  2.81116E+00  4.50702E+00  4.11175E+00  2.21044E+00  2.06825E+00
   2.54813E+00  2.38295E+00 -2.64055E-01 -5.34927E+00 -4.22176E+00 -4.43921E+00 -4.46659E+00 -1.28691E+00 -4.55715E+00 -2.90784E+00
  -5.43918E+00 -5.24402E+00 -6.72090E+00 -5.35330E+00 -4.29556E+00 -3.94169E+00 -3.73542E+00  1.18082E+00  1.68360E+00 -6.83404E-01
   4.87291E+00  5.13866E+00  9.75680E+00  7.42446E+00  6.19290E+00  5.04011E+00  6.91639E+00  7.19850E+00  4.17310E+00  2.86176E+00
   1.35753E+00  3.71157E+00  4.07711E+00  9.85328E+00  6.50883E+00  7.09918E+00  5.97268E+00  3.56701E+00 -8.97651E-01 -4.37342E-01
  -2.67331E+00 -2.62831E+00 -5.42121E-01  2.65093E+00  8.57300E+00  1.48381E+01  1.49126E+01  1.34627E+01  1.32557E+01  1.02476E+01
   7.28977E+00 -3.41675E+00 -9.96057E-01  3.09318E+00  4.07676E+00  5.51785E+00  5.03807E+00  7.91780E+00  8.66369E+00  7.86902E+00
   1.07241E+01  6.63435E+00  9.91176E+00  6.60725E+00  6.95197E+00  5.08640E+00  8.58519E+00  8.92928E+00  6.38787E+00  9.70088E+00
   9.24645E+00  3.64611E+00  7.36831E+00  1.89099E+00  6.49428E+00  1.40348E+01  1.05318E+01  1.08679E+01  8.97077E+00  1.07532E+01
   1.45565E+01  1.67165E+01  2.14927E+01  2.64943E+01  2.81466E+01  2.28584E+01  2.75969E+01  3.88147E+01  5.62029E+01  7.43494E+01
   8.17049E+01  7.82128E+01  6.95589E+01  5.64239E+01  4.49758E+01  3.03005E+01  2.47902E+01  1.81041E+01  1.53173E+01  8.85330E+00
   9.31403E+00  6.53876E+00  1.26858E+01  1.01086E+01  1.07052E+01  7.28276E+00  6.16925E+00  4.64322E+00  7.61643E+00  5.27605E+00
   5.89847E+00  7.44055E+00  8.84665E+00  4.64303E+00  2.87463E+00  4.38618E+00  2.01843E+00  4.04532E+00  3.69589E+00  5.60723E+00
   5.16792E+00  5.06324E+00  5.56250E+00  6.19990E+00  7.27939E+00  5.09173E+00  8.95834E+00  8.45748E+00  7.42508E+00  7.66837E+00
   8.01420E+00  8.29365E+00  1.04828E+01  8.32552E+00  1.32722E+01  1.16627E+01  9.30136E+00  1.06530E+01  1.14726E+01  1.17523E+01
   1.11745E+01  1.19565E+01  1.21935E+01  1.30827E+01  1.21938E+01  1.14376E+01  1.08249E+01  1.15274E+01  7.66278E+00  1.10139E+01
   1.07918E+01  1.08271E+01  1.02082E+01  7.91060E+00  1.35474E+01  9.76458E+00  8.95655E+00  8.44733E+00  7.98924E+00  1.04851E+01
   1.19346E+01  1.03916E+01  1.24783E+01  1.16622E+01  1.00125E+01  1.14734E+01  7.41125E+00  6.89096E+00  6.56459E+00  9.92434E+00
   4.67692E+00  8.42819E+00  8.80926E+00  4.50801E+00  1.02381E+01  1.10814E+01  9.16794E+00  1.00539E+01  1.14594E+01  8.63012E+00
   7.07471E+00  8.48445E+00  7.17283E+00  7.88286E+00  1.10986E+01  7.48931E+00  8.13136E+00  4.46744E+00  8.33313E+00  6.01191E+00
   6.73939E+00  8.73786E+00  8.76514E+00  6.53679E+00  4.03247E+00  6.82528E+00  7.61181E+00  8.73202E+00  7.81477E+00  6.00222E+00
   7.76891E+00  9.48645E+00  1.16252E+01  9.11937E+00  1.00810E+01  7.22351E+00  4.30817E+00  4.02435E+00  7.94481E+00  3.97491E+00
   2.86156E+00  4.47674E+00  4.28015E+00  4.35193E+00  7.54154E+00  5.12148E+00  7.53623E+00  4.99201E+00  3.82650E+00  4.95958E+00
   6.01227E+00  5.27904E+00  3.23977E+00  4.71514E+00  7.38424E+00  6.25290E+00  7.10722E+00  7.74890E+00  8.84199E+00  1.14601E+01
   9.28011E+00  8.87742E+00  7.65718E+00  7.52237E+00  9.13432E+00  7.80289E+00  6.31422E+00  8.77465E+00  5.16172E+00  9.30421E+00
   9.49910E+00  5.62725E+00  5.89958E+00  7.43081E+00  5.65595E+00  4.61081E+00  4.17284E+00  2.66045E+00  2.11178E+00  5.25294E+00
   1.46410E+00  4.67188E+00  3.80119E+00  5.88860E+00  2.18435E+00  4.91877E+00  4.82612E+00  5.77230E+00  2.73462E+00  4.48364E+00
   4.78250E+00  4.35307E+00  2.74747E+00 -1.83872E-01  1.35973E+00  1.66573E+00  1.31290E+00  1.70273E+00  4.15093E+00 -1.29245E+00
  -4.07687E-02  6.78675E-01  2.07910E-01  1.38019E+00  2.22189E+00  5.17207E-01  2.28494E+00  1.41216E+00  2.47873E+00  3.66661E+00
   2.31704E+00  2.02389E+00  2.03648E+00  1.02786E+00  2.96886E+00  3.84286E+00 -1.54309E+00  1.15303E+00  2.19028E+00  7.57742E-01
   1.26966E+00  2.71078E+00  2.33899E+00  7.14283E-01  2.77546E-01  9.79303E-01  8.18800E-01  9.80098E-01  3.81959E+00  2.43402E+00
   3.00343E+00 -3.43875E-01  1.55322E+00 -7.79175E-01 -3.40098E-01  2.09603E-01 -2.99552E-01  8.05978E-01 -2.02678E+00  5.58088E-01
   5.12604E+00  9.19048E-01  2.28795E+00  2.93913E+00  2.74455E+00  2.12066E+00 -1.03649E+00 -3.31535E-01  1.61215E+00  2.81147E+00
   2.24299E+00  1.88256E+00 -2.06578E+00 -1.88739E+00  3.98709E+00 -6.97045E-01  4.01725E+00  2.05040E+00
 NY points of the fit to the data follow
   2.70505E+01  2.69633E+01  2.70313E+01  2.73397E+01  2.80970E+01  2.94731E+01  3.24495E+01  3.72292E+01  4.34456E+01  4.98280E+01
   5.43528E+01  5.56199E+01  5.37738E+01  4.99169E+01  4.53259E+01  4.09211E+01  3.67937E+01  3.31157E+01  3.04547E+01  2.80891E+01
   2.67446E+01  2.61617E+01  2.56771E+01  2.51107E+01  2.44944E+01  2.37025E+01  2.30935E+01  2.35576E+01  2.52872E+01  2.76171E+01
   2.96374E+01  3.09303E+01  3.12543E+01  3.03568E+01  2.82297E+01  2.56953E+01  2.34726E+01  2.16055E+01  2.04964E+01  2.02597E+01
   2.04763E+01  2.09222E+01  2.12294E+01  2.14975E+01  2.17425E+01  2.19207E+01  2.18860E+01  2.15159E+01  2.10034E+01  2.06180E+01
   2.01579E+01  1.95704E+01  1.90772E+01  1.86467E+01  1.81340E+01  1.76418E+01  1.72880E+01  1.70035E+01  1.67180E+01  1.64566E+01
   1.61777E+01  1.58718E+01  1.55290E+01  1.51650E+01  1.48337E+01  1.45627E+01  1.43407E+01  1.41471E+01  1.39895E+01  1.38630E+01
   1.37579E+01  1.36399E+01  1.34905E+01  1.33164E+01  1.31268E+01  1.29298E+01  1.27340E+01  1.25485E+01  1.23762E+01  1.22001E+01
   1.20307E+01  1.18681E+01  1.17071E+01  1.15314E+01  1.13241E+01  1.10841E+01  1.08352E+01  1.06158E+01  1.04516E+01  1.03464E+01
   1.02968E+01  1.02939E+01  1.03190E+01  1.03646E+01  1.04325E+01  1.05265E+01  1.07327E+01  1.14134E+01  1.29206E+01  1.58067E+01
   2.23574E+01  3.21902E+01  4.11958E+01  4.56290E+01  4.50883E+01  4.13065E+01  3.58565E+01  2.96269E+01  2.39055E+01  1.97637E+01
   1.58826E+01  1.18578E+01  1.00646E+01  9.50027E+00  9.24945E+00  9.12250E+00  9.06108E+00  9.03110E+00  9.03242E+00  9.10828E+00
   9.36609E+00  1.02205E+01  1.21468E+01  1.55269E+01  2.33430E+01  3.56453E+01  4.73994E+01  5.35897E+01  5.34345E+01  4.90948E+01
   4.27380E+01  3.54208E+01  2.83813E+01  2.29748E+01  1.76888E+01  1.16706E+01  8.55233E+00  7.41459E+00  7.05673E+00  7.20537E+00
   7.53530E+00  7.74244E+00  7.84024E+00  7.83407E+00  7.66307E+00  7.40614E+00  7.10685E+00  6.76601E+00  6.44281E+00  6.07371E+00
   5.72149E+00  5.38517E+00  5.07458E+00  4.84791E+00  4.75234E+00  4.74821E+00  4.75751E+00  4.63890E+00  4.19743E+00  3.51834E+00
   2.91148E+00  2.69156E+00  2.92391E+00  3.27734E+00  3.37842E+00  3.14086E+00  2.64980E+00  2.08296E+00  1.68310E+00  1.41667E+00
   1.15978E+00  8.67884E-01  3.74342E-01 -2.99382E-01 -8.71887E-01 -1.14162E+00 -9.65487E-01 -5.99147E-01 -4.95765E-01 -6.53598E-01
  -7.57387E-01 -6.56586E-01 -4.68666E-01 -3.10970E-01 -2.99864E-01 -3.63009E-01  6.50808E-03  9.27770E-01  2.30144E+00  3.78282E+00
   4.82057E+00  5.29793E+00  5.20536E+00  4.75535E+00  4.22762E+00  3.57607E+00  2.83429E+00  2.49396E+00  2.75532E+00  3.51524E+00
   4.66680E+00  6.10361E+00  7.49990E+00  8.45493E+00  8.45542E+00  7.57229E+00  5.76288E+00  3.11213E+00  4.75899E-01 -1.28930E+00
  -1.95200E+00 -1.59777E+00 -1.04571E-01  2.81299E+00  6.45572E+00  9.38208E+00  1.06103E+01  1.04162E+01  8.80536E+00  5.85140E+00
   2.29903E+00 -7.47631E-01 -2.16883E+00 -1.88744E+00 -5.22732E-01  1.80713E+00  4.30395E+00  6.43335E+00  7.72513E+00  8.19826E+00
   8.35115E+00  8.30721E+00  7.97717E+00  7.65746E+00  7.73365E+00  8.33594E+00  9.26563E+00  1.00176E+01  1.03882E+01  1.03162E+01
   9.61693E+00  8.47815E+00  7.64631E+00  7.61354E+00  8.03793E+00  8.63647E+00  9.42893E+00  1.02670E+01  1.09349E+01  1.15598E+01
   1.24943E+01  1.40904E+01  1.70310E+01  2.08464E+01  2.47349E+01  2.81566E+01  3.16432E+01  4.14466E+01  5.80037E+01  7.31963E+01
   7.97234E+01  7.72618E+01  6.89065E+01  5.77815E+01  4.57984E+01  3.49521E+01  2.77006E+01  2.06924E+01  1.24516E+01  9.17383E+00
   8.13779E+00  7.55978E+00  7.20366E+00  7.04763E+00  6.88857E+00  6.67463E+00  6.46138E+00  6.23601E+00  5.96864E+00  5.72303E+00
   5.53923E+00  5.37779E+00  5.23144E+00  5.13348E+00  5.06988E+00  5.02159E+00  4.97579E+00  4.94545E+00  4.97172E+00  5.05647E+00
   5.18709E+00  5.37221E+00  5.59806E+00  5.85949E+00  6.15052E+00  6.46003E+00  6.79386E+00  7.16307E+00  7.56032E+00  7.98278E+00
   8.42849E+00  8.88586E+00  9.34114E+00  9.77717E+00  1.01790E+01  1.05406E+01  1.08518E+01  1.11005E+01  1.12857E+01  1.14060E+01
   1.14619E+01  1.14561E+01  1.13954E+01  1.12877E+01  1.11419E+01  1.09679E+01  1.07764E+01  1.05784E+01  1.03838E+01  1.02010E+01
   1.00366E+01  9.89519E+00  9.77994E+00  9.69219E+00  9.63123E+00  9.59440E+00  9.57767E+00  9.57640E+00  9.58577E+00  9.60078E+00
   9.61627E+00  9.62725E+00  9.62951E+00  9.62011E+00  9.59724E+00  9.55996E+00  9.50796E+00  9.44174E+00  9.36280E+00  9.27360E+00
   9.17708E+00  9.07620E+00  8.97367E+00  8.87214E+00  8.77428E+00  8.68253E+00  8.59869E+00  8.52364E+00  8.45749E+00  8.39986E+00
   8.35004E+00  8.30687E+00  8.26850E+00  8.23250E+00  8.19620E+00  8.15708E+00  8.11290E+00  8.06147E+00  8.00064E+00  7.92842E+00
   7.84337E+00  7.74482E+00  7.63267E+00  7.50718E+00  7.36888E+00  7.21871E+00  7.05827E+00  6.88975E+00  6.71562E+00  6.53837E+00
   6.36048E+00  6.18464E+00  6.01378E+00  5.85095E+00  5.69902E+00  5.56047E+00  5.43761E+00  5.33274E+00  5.24817E+00  5.18604E+00
   5.14805E+00  5.13551E+00  5.14950E+00  5.19104E+00  5.26097E+00  5.35961E+00  5.48668E+00  5.64127E+00  5.82200E+00  6.02707E+00
   6.25398E+00  6.49932E+00  6.75869E+00  7.02699E+00  7.29858E+00  7.56744E+00  7.82702E+00  8.07037E+00  8.29045E+00  8.48060E+00
   8.63489E+00  8.74827E+00  8.81660E+00  8.83677E+00  8.80706E+00  8.72735E+00  8.59911E+00  8.42516E+00  8.20934E+00  7.95642E+00
   7.67200E+00  7.36238E+00  7.03422E+00  6.69400E+00  6.34779E+00  6.00114E+00  5.65914E+00  5.32630E+00  5.00632E+00  4.70196E+00
   4.41504E+00  4.14675E+00  3.89776E+00  3.66833E+00  3.45817E+00  3.26645E+00  3.09205E+00  2.93379E+00  2.79056E+00  2.66121E+00
   2.54447E+00  2.43898E+00  2.34346E+00  2.25686E+00  2.17836E+00  2.10715E+00  2.04235E+00  1.98310E+00  1.92873E+00  1.87877E+00
   1.83289E+00  1.79067E+00  1.75162E+00  1.71530E+00  1.68142E+00  1.64988E+00  1.62055E+00  1.59317E+00  1.56744E+00  1.54314E+00
   1.52020E+00  1.49865E+00  1.47841E+00  1.45929E+00  1.44107E+00  1.42368E+00  1.40718E+00  1.39160E+00  1.37684E+00  1.36273E+00
   1.34915E+00  1.33610E+00  1.32369E+00  1.31193E+00  1.30070E+00  1.28984E+00  1.27931E+00  1.26919E+00  1.25956E+00  1.25038E+00
   1.24153E+00  1.23289E+00  1.22448E+00  1.21642E+00  1.20877E+00  1.20142E+00  1.19426E+00  1.18722E+00  1.18039E+00  1.17387E+00
   1.16767E+00  1.16165E+00  1.15570E+00  1.14986E+00  1.14423E+00  1.13888E+00  1.13376E+00  1.12873E+00  1.12373E+00  1.11884E+00
   1.11418E+00  1.10977E+00  1.10549E+00  1.10124E+00  1.09703E+00  1.09298E+00  1.08916E+00  1.08555E+00
 NY background values follow
     2.600E+01    2.581E+01    2.561E+01    2.542E+01    2.522E+01    2.503E+01    2.483E+01    2.464E+01    2.444E+01    2.425E+01
     2.405E+01    2.386E+01    2.366E+01    2.347E+01    2.327E+01    2.308E+01    2.288E+01    2.269E+01    2.249E+01    2.230E+01
     2.211E+01    2.191E+01    2.172E+01    2.153E+01    2.133E+01    2.114E+01    2.095E+01    2.076E+01    2.057E+01    2.037E+01
     2.018E+01    1.999E+01    1.981E+01    1.962E+01    1.943E+01    1.924E+01    1.905E+01    1.887E+01    1.868E+01    1.849E+01
     1.831E+01    1.813E+01    1.794E+01    1.776E+01    1.758E+01    1.740E+01    1.722E+01    1.704E+01    1.686E+01    1.668E+01
     1.650E+01    1.633E+01    1.615E+01    1.598E+01    1.581E+01    1.563E+01    1.546E+01    1.529E+01    1.512E+01    1.495E+01
     1.478E+01    1.462E+01    1.445E+01    1.429E+01    1.412E+01    1.396E+01    1.380E+01    1.364E+01    1.348E+01    1.332E+01
     1.316E+01    1.300E+01    1.285E+01    1.269E+01    1.254E+01    1.239E+01    1.224E+01    1.209E+01    1.194E+01    1.179E+01
     1.164E+01    1.150E+01    1.135E+01    1.121E+01    1.107E+01    1.093E+01    1.079E+01    1.065E+01    1.051E+01    1.038E+01
     1.024E+01    1.011E+01    9.978E+00    9.847E+00    9.718E+00    9.590E+00    9.463E+00    9.337E+00    9.213E+00    9.090E+00
     8.968E+00    8.847E+00    8.728E+00    8.610E+00    8.493E+00    8.377E+00    8.262E+00    8.148E+00    8.036E+00    7.925E+00
     7.815E+00    7.706E+00    7.598E+00    7.491E+00    7.386E+00    7.281E+00    7.178E+00    7.076E+00    6.974E+00    6.874E+00
     6.775E+00    6.677E+00    6.580E+00    6.485E+00    6.390E+00    6.296E+00    6.203E+00    6.112E+00    6.021E+00    5.931E+00
     5.842E+00    5.755E+00    5.668E+00    5.582E+00    5.497E+00    5.414E+00    5.331E+00    5.249E+00    5.168E+00    5.088E+00
     5.009E+00    4.931E+00    4.853E+00    4.777E+00    4.702E+00    4.628E+00    4.555E+00    4.483E+00    4.411E+00    4.341E+00
     4.272E+00    4.204E+00    4.136E+00    4.070E+00    4.005E+00    3.941E+00    3.878E+00    3.816E+00    3.755E+00    3.695E+00
     3.636E+00    3.578E+00    3.521E+00    3.465E+00    3.410E+00    3.356E+00    3.304E+00    3.252E+00    3.201E+00    3.152E+00
     3.104E+00    3.056E+00    3.010E+00    2.965E+00    2.921E+00    2.878E+00    2.836E+00    2.795E+00    2.756E+00    2.717E+00
     2.680E+00    2.643E+00    2.608E+00    2.574E+00    2.541E+00    2.509E+00    2.478E+00    2.448E+00    2.419E+00    2.391E+00
     2.364E+00    2.338E+00    2.313E+00    2.289E+00    2.266E+00    2.243E+00    2.221E+00    2.201E+00    2.180E+00    2.161E+00
     2.143E+00    2.125E+00    2.108E+00    2.091E+00    2.076E+00    2.061E+00    2.046E+00    2.032E+00    2.019E+00    2.006E+00
     1.994E+00    1.983E+00    1.972E+00    1.961E+00    1.951E+00    1.941E+00    1.932E+00    1.923E+00    1.915E+00    1.907E+00
     1.899E+00    1.892E+00    1.885E+00    1.878E+00    1.871E+00    1.865E+00    1.859E+00    1.853E+00    1.848E+00    1.842E+00
     1.837E+00    1.832E+00    1.827E+00    1.822E+00    1.818E+00    1.814E+00    1.810E+00    1.806E+00    1.802E+00    1.798E+00
     1.795E+00    1.792E+00    1.788E+00    1.785E+00    1.783E+00    1.780E+00    1.777E+00    1.775E+00    1.773E+00    1.770E+00
     1.768E+00    1.766E+00    1.764E+00    1.763E+00    1.761E+00    1.759E+00    1.758E+00    1.756E+00    1.755E+00    1.754E+00
     1.753E+00    1.752E+00    1.751E+00    1.750E+00    1.749E+00    1.748E+00    1.747E+00    1.747E+00    1.746E+00    1.745E+00
     1.745E+00    1.744E+00    1.744E+00    1.743E+00    1.743E+00    1.742E+00    1.742E+00    1.741E+00    1.741E+00    1.740E+00
     1.740E+00    1.739E+00    1.739E+00    1.739E+00    1.738E+00    1.738E+00    1.737E+00    1.736E+00    1.736E+00    1.735E+00
     1.735E+00    1.734E+00    1.733E+00    1.732E+00    1.732E+00    1.731E+00    1.730E+00    1.729E+00    1.728E+00    1.726E+00
     1.725E+00    1.724E+00    1.723E+00    1.721E+00    1.720E+00    1.718E+00    1.716E+00    1.714E+00    1.712E+00    1.710E+00
     1.708E+00    1.706E+00    1.703E+00    1.701E+00    1.698E+00    1.695E+00    1.693E+00    1.690E+00    1.686E+00    1.683E+00
     1.680E+00    1.676E+00    1.672E+00    1.668E+00    1.664E+00    1.660E+00    1.656E+00    1.652E+00    1.647E+00    1.643E+00
     1.638E+00    1.633E+00    1.628E+00    1.623E+00    1.618E+00    1.613E+00    1.608E+00    1.602E+00    1.597E+00    1.591E+00
     1.585E+00    1.579E+00    1.573E+00    1.567E+00    1.561E+00    1.555E+00    1.548E+00    1.542E+00    1.535E+00    1.529E+00
     1.522E+00    1.515E+00    1.508E+00    1.501E+00    1.494E+00    1.487E+00    1.480E+00    1.472E+00    1.465E+00    1.458E+00
     1.450E+00    1.442E+00    1.435E+00    1.427E+00    1.419E+00    1.411E+00    1.404E+00    1.396E+00    1.388E+00    1.380E+00
     1.372E+00    1.363E+00    1.355E+00    1.347E+00    1.339E+00    1.331E+00    1.323E+00    1.314E+00    1.306E+00    1.298E+00
     1.290E+00    1.282E+00    1.274E+00    1.266E+00    1.258E+00    1.250E+00    1.242E+00    1.234E+00    1.226E+00    1.218E+00
     1.210E+00    1.202E+00    1.195E+00    1.187E+00    1.180E+00    1.172E+00    1.165E+00    1.158E+00    1.150E+00    1.143E+00
     1.136E+00    1.130E+00    1.123E+00    1.116E+00    1.110E+00    1.103E+00    1.097E+00    1.091E+00    1.085E+00    1.079E+00
     1.073E+00    1.068E+00    1.062E+00    1.057E+00    1.052E+00    1.047E+00    1.042E+00    1.037E+00    1.032E+00    1.028E+00
     1.023E+00    1.019E+00    1.015E+00    1.011E+00    1.006E+00    1.003E+00    9.987E-01    9.950E-01    9.914E-01    9.878E-01
     9.844E-01    9.810E-01    9.778E-01    9.746E-01    9.715E-01    9.685E-01    9.656E-01    9.627E-01    9.600E-01    9.573E-01
     9.547E-01    9.522E-01    9.497E-01    9.473E-01    9.450E-01    9.427E-01    9.405E-01    9.384E-01    9.363E-01    9.342E-01
     9.323E-01    9.304E-01    9.285E-01    9.267E-01    9.249E-01    9.232E-01    9.215E-01    9.199E-01    9.183E-01    9.167E-01
     9.152E-01    9.138E-01    9.123E-01    9.109E-01    9.096E-01    9.083E-01    9.070E-01    9.058E-01    9.046E-01    9.034E-01
     9.022E-01    9.011E-01    9.000E-01    8.990E-01    8.979E-01    8.969E-01    8.959E-01    8.950E-01    8.940E-01    8.931E-01
     8.922E-01    8.913E-01    8.905E-01    8.896E-01    8.888E-01    8.880E-01    8.872E-01    8.864E-01    8.856E-01    8.849E-01
     8.841E-01    8.834E-01    8.826E-01    8.819E-01    8.812E-01    8.804E-01    8.797E-01    8.790E-01
 Cr       Conc. = 7.18E+02
