 LCModel (Version 6.3-1L) Copyright: S.W. Provencher.          Ref.: Magn. Reson. Med. 30:672-679 (1993).                
 Slice#3 Row#2 Col#14  PD_05_press_1_raw_act
 36 lines in following concentration table = NCONC+1
    Conc.  %SD /Cr+PCr  Metabolite                                         
  396.141  33%   5.600 Ala                                                 
    5.509 145% 7.8E-02 Asp                                                 
   70.733  25%   1.000 Cr                                                  
    0.000 999%   0.000 PCr                                                 
    3.441 140% 4.9E-02 GABA                                                
    4.305 112% 6.1E-02 Glc                                                 
   32.103 586%   0.454 Gln                                                 
    0.000 999%   0.000 Glu                                                 
   19.989  34%   0.283 GPC                                                 
    0.000 999%   0.000 PCh                                                 
  128.037  25%   1.810 GSH                                                 
  291.485  23%   4.121 Ins                                                 
  487.084  23%   6.886 Lac                                                 
    0.000 999%   0.000 NAA                                                 
    0.000 999%   0.000 NAAG                                                
    1.797  88% 2.5E-02 Scyllo                                              
    8.034  98%   0.114 Tau                                                 
    0.000 999%   0.000 -CrCH2                                              
   19.989  34%   0.283 GPC+PCh                                             
    0.000 999%   0.000 NAA+NAAG                                            
   70.733  25%   1.000 Cr+PCr                                              
   32.103 586%   0.454 Glu+Gln                                             
    0.000 999%   0.000 Lip13a                                              
    0.000 999%   0.000 Lip13b                                              
 1.05E-04 999% 1.5E-06 Lip09                                               
   44.092  42%   0.623 MM09                                                
    0.000 999%   0.000 Lip20                                               
   44.887  67%   0.635 MM20                                                
   11.597  64%   0.164 MM12                                                
  107.613  22%   1.521 MM14                                                
    0.000 999%   0.000 MM17                                                
    0.000 999%   0.000 Lip13a+Lip13b                                       
  119.210  23%   1.685 MM14+Lip13a+Lip13b+MM12                             
   44.092  42%   0.623 MM09+Lip09                                          
   44.887  67%   0.635 MM20+Lip20                                          
   6 lines in following misc. output table
  FWHM = 0.168 ppm    S/N =   2                                            
  Data shift = 0.038 ppm                                                   
  Ph: -45 deg     -43.8 deg/ppm                                            
  alphaB,S = 8.5E+01,   3.6E+02                                            
    9 spline knots.   Ns = 9(2)                                            
   2 inflections.     1 extrema                                            
  498 points on ppm-axis = NY
      4.000000     3.992357     3.984714     3.977070     3.969427     3.961784     3.954141     3.946497     3.938854     3.931211
      3.923568     3.915925     3.908281     3.900638     3.892995     3.885352     3.877708     3.870065     3.862422     3.854779
      3.847136     3.839492     3.831849     3.824206     3.816563     3.808919     3.801276     3.793633     3.785990     3.778347
      3.770703     3.763060     3.755417     3.747774     3.740130     3.732487     3.724844     3.717201     3.709558     3.701914
      3.694271     3.686628     3.678985     3.671341     3.663698     3.656055     3.648412     3.640769     3.633125     3.625482
      3.617839     3.610196     3.602552     3.594909     3.587266     3.579623     3.571980     3.564336     3.556693     3.549050
      3.541407     3.533763     3.526120     3.518477     3.510834     3.503191     3.495547     3.487904     3.480261     3.472618
      3.464974     3.457331     3.449688     3.442045     3.434402     3.426758     3.419115     3.411472     3.403829     3.396185
      3.388542     3.380899     3.373256     3.365613     3.357969     3.350326     3.342683     3.335040     3.327396     3.319753
      3.312110     3.304467     3.296824     3.289180     3.281537     3.273894     3.266251     3.258607     3.250964     3.243321
      3.235678     3.228034     3.220391     3.212748     3.205105     3.197462     3.189818     3.182175     3.174532     3.166889
      3.159245     3.151602     3.143959     3.136316     3.128673     3.121029     3.113386     3.105743     3.098100     3.090456
      3.082813     3.075170     3.067527     3.059884     3.052240     3.044597     3.036954     3.029311     3.021667     3.014024
      3.006381     2.998738     2.991095     2.983451     2.975808     2.968165     2.960522     2.952878     2.945235     2.937592
      2.929949     2.922306     2.914662     2.907019     2.899376     2.891733     2.884089     2.876446     2.868803     2.861160
      2.853517     2.845873     2.838230     2.830587     2.822944     2.815300     2.807657     2.800014     2.792371     2.784728
      2.777084     2.769441     2.761798     2.754155     2.746511     2.738868     2.731225     2.723582     2.715939     2.708295
      2.700652     2.693009     2.685366     2.677722     2.670079     2.662436     2.654793     2.647150     2.639506     2.631863
      2.624220     2.616577     2.608933     2.601290     2.593647     2.586004     2.578361     2.570717     2.563074     2.555431
      2.547788     2.540144     2.532501     2.524858     2.517215     2.509572     2.501928     2.494285     2.486642     2.478999
      2.471355     2.463712     2.456069     2.448426     2.440783     2.433139     2.425496     2.417853     2.410210     2.402566
      2.394923     2.387280     2.379637     2.371994     2.364350     2.356707     2.349064     2.341421     2.333777     2.326134
      2.318491     2.310848     2.303205     2.295561     2.287918     2.280275     2.272632     2.264988     2.257345     2.249702
      2.242059     2.234416     2.226772     2.219129     2.211486     2.203843     2.196199     2.188556     2.180913     2.173270
      2.165627     2.157983     2.150340     2.142697     2.135054     2.127410     2.119767     2.112124     2.104481     2.096838
      2.089194     2.081551     2.073908     2.066265     2.058621     2.050978     2.043335     2.035692     2.028049     2.020405
      2.012762     2.005119     1.997476     1.989833     1.982190     1.974546     1.966903     1.959260     1.951617     1.943974
      1.936331     1.928688     1.921045     1.913402     1.905759     1.898115     1.890472     1.882829     1.875186     1.867543
      1.859900     1.852257     1.844614     1.836971     1.829327     1.821684     1.814041     1.806398     1.798755     1.791112
      1.783469     1.775826     1.768183     1.760540     1.752896     1.745253     1.737610     1.729967     1.722324     1.714681
      1.707038     1.699395     1.691752     1.684108     1.676465     1.668822     1.661179     1.653536     1.645893     1.638250
      1.630607     1.622964     1.615321     1.607677     1.600034     1.592391     1.584748     1.577105     1.569462     1.561819
      1.554176     1.546533     1.538890     1.531246     1.523603     1.515960     1.508317     1.500674     1.493031     1.485388
      1.477745     1.470102     1.462458     1.454815     1.447172     1.439529     1.431886     1.424243     1.416600     1.408957
      1.401314     1.393671     1.386027     1.378384     1.370741     1.363098     1.355455     1.347812     1.340169     1.332526
      1.324883     1.317240     1.309596     1.301953     1.294310     1.286667     1.279024     1.271381     1.263738     1.256095
      1.248452     1.240808     1.233165     1.225522     1.217879     1.210236     1.202593     1.194950     1.187307     1.179664
      1.172021     1.164377     1.156734     1.149091     1.141448     1.133805     1.126162     1.118519     1.110876     1.103233
      1.095590     1.087946     1.080303     1.072660     1.065017     1.057374     1.049731     1.042088     1.034445     1.026802
      1.019158     1.011515     1.003872     0.996229     0.988586     0.980943     0.973300     0.965657     0.958014     0.950371
      0.942727     0.935084     0.927441     0.919798     0.912155     0.904512     0.896869     0.889226     0.881583     0.873940
      0.866296     0.858653     0.851010     0.843367     0.835724     0.828081     0.820438     0.812795     0.805152     0.797508
      0.789865     0.782222     0.774579     0.766936     0.759293     0.751650     0.744007     0.736364     0.728721     0.721077
      0.713434     0.705791     0.698148     0.690505     0.682862     0.675219     0.667576     0.659933     0.652290     0.644646
      0.637003     0.629360     0.621717     0.614074     0.606431     0.598788     0.591145     0.583502     0.575858     0.568215
      0.560572     0.552929     0.545286     0.537643     0.530000     0.522357     0.514714     0.507071     0.499427     0.491784
      0.484141     0.476498     0.468855     0.461212     0.453569     0.445925     0.438282     0.430639     0.422996     0.415353
      0.407710     0.400067     0.392424     0.384780     0.377137     0.369494     0.361851     0.354208     0.346565     0.338922
      0.331278     0.323635     0.315992     0.308349     0.300706     0.293063     0.285420     0.277777     0.270133     0.262490
      0.254847     0.247204     0.239561     0.231918     0.224275     0.216631     0.208988     0.201345
 NY phased data points follow
  -7.13041E-01  1.54526E-01  1.10596E+00  1.00186E+00  1.08046E+00  1.51029E+00  1.21654E+00  3.75519E-01  1.36626E+00  1.73996E-01
   7.74969E-01  1.19211E+00  1.20371E-01  8.24588E-01  1.20959E+00  6.84573E-01 -3.05662E-01  9.28521E-01  1.03953E+00  5.61327E-01
   3.52301E-01  9.65480E-01  1.42149E+00  1.26223E+00  3.76446E-01  1.02875E+00  1.28547E+00  1.31613E+00  1.42324E-01  1.37545E-01
   1.66718E+00  6.34985E-01  5.33945E-01  1.03308E+00  1.96148E+00  7.67253E-01  1.18061E+00  4.82755E-01  2.30968E-01  5.86023E-01
  -4.05124E-01  9.23932E-01  1.38099E+00  6.98870E-01 -2.07285E-01  5.75473E-01  4.13443E-01  2.44519E-02  1.08022E+00  7.24812E-01
   8.55969E-01 -3.63386E-01  9.86283E-01  4.28993E-01  1.15935E-02  1.30750E+00 -3.62032E-01 -9.60659E-01  5.80778E-01  1.56727E-01
  -1.01734E-01  8.13820E-01 -1.22659E+00  2.96799E-01 -5.17743E-01  1.13726E+00  3.22595E-01  1.10884E+00  6.59686E-01  2.41062E-01
   4.24307E-01 -3.44423E-01 -4.42683E-01  4.16648E-01  1.41567E-01  1.17380E+00  7.09314E-01 -3.09673E-01 -6.36003E-02 -4.04060E-01
   6.50882E-01  5.32341E-01  3.23196E-01  7.81193E-02  7.79150E-01  5.97650E-01 -3.32632E-01 -5.91855E-01 -2.52777E-02 -6.12295E-01
  -1.03573E+00  5.79665E-01  1.88056E-01 -7.23870E-01 -5.77558E-01  6.26933E-01 -4.49916E-01 -4.79444E-01  9.97258E-01  9.58473E-01
   4.08581E-01  1.55318E-01  6.54629E-01  2.32439E-01 -1.38836E-01  4.71729E-01 -3.51626E-01 -1.00025E+00 -3.53623E-01 -2.44963E-01
  -2.53378E-01 -7.08127E-01 -3.42966E-01  3.25373E-01  2.39841E-01  5.44558E-01  1.66124E-01 -9.26683E-01 -5.66012E-01 -9.35885E-02
   2.74864E-01  1.01585E+00 -1.68030E-02  1.03857E+00  1.86867E+00  2.13168E-01  1.01882E+00  1.27326E+00  1.94328E-01 -4.04782E-01
   1.19884E+00 -9.58388E-01 -5.29614E-01 -4.14814E-01 -5.08802E-01  1.23506E+00  9.16469E-01 -4.08353E-01 -2.76699E-01 -8.32095E-01
   3.66362E-03  1.62608E-01  1.77549E-01 -6.80163E-01  6.79069E-01 -3.15646E-01  7.70104E-02  4.04234E-02  4.23716E-01  8.34449E-01
   2.37359E-01  2.87159E-01 -1.33075E+00 -4.25347E-01  6.39197E-03  2.78366E-01  1.74854E-01 -8.33993E-01  4.28848E-01  4.57030E-02
   7.57321E-02 -5.94524E-01 -2.08927E+00 -1.46499E-01 -2.19977E-01  3.10681E-01 -7.83990E-02  1.91263E-01 -8.25521E-01 -1.86692E+00
  -9.18064E-01 -1.41574E+00  6.69663E-01 -7.77089E-01 -7.76152E-02 -1.17960E-01 -2.82914E-01 -2.49078E-01  2.06976E-01 -7.47938E-01
  -1.39115E+00 -7.56392E-01 -1.15419E+00 -8.32354E-01  8.79618E-02 -7.97217E-01  2.38438E-02 -2.03233E-01 -4.58346E-01  5.02065E-01
  -1.14458E+00 -5.68800E-01 -7.90582E-01 -1.26645E+00 -7.51430E-01 -5.12632E-02 -5.40652E-01 -1.11280E+00  6.00897E-01  8.39917E-02
   8.23330E-01  3.42550E-01 -2.83434E-01  1.72294E-01  3.75124E-01 -2.77381E-01 -7.22619E-01 -1.38331E+00 -5.76008E-01  1.02168E+00
  -1.35770E+00  4.29871E-01 -9.13578E-01  4.23848E-02 -1.77514E-03  5.07836E-01  1.06226E-01 -4.68746E-01 -1.51580E-01  2.39922E-01
  -1.44258E-01  9.29269E-02  3.34436E-01 -1.34282E+00 -3.21428E-01  3.58287E-01 -5.82559E-01 -4.07853E-01 -7.83587E-01 -2.78228E-01
  -4.64797E-01 -6.38945E-01 -5.98038E-01  6.85392E-01  6.03306E-02 -1.04178E+00 -8.60587E-01 -2.33431E+00 -7.36281E-01 -1.98053E+00
  -8.72920E-01 -1.71902E+00 -8.95780E-01 -5.28453E-01 -1.59183E+00  1.53298E-01  2.62699E-01 -1.46420E+00 -1.25698E+00 -1.13657E+00
  -6.69092E-01 -1.73896E+00 -1.38236E+00 -6.55022E-01 -3.79797E-01 -1.89615E-01  2.85746E-02  1.52808E-01  1.02398E+00  2.06979E-01
  -2.56149E-01  7.30139E-01  6.13392E-01 -1.78847E+00 -1.09895E+00 -3.40305E-01  9.21331E-02 -9.65232E-01 -6.73441E-02 -5.59481E-01
  -9.75672E-01 -1.08916E+00 -8.10674E-02  7.86800E-02 -7.44724E-01 -5.88450E-02 -1.24924E+00 -1.25295E-01  1.78662E-01  5.00643E-01
  -1.80084E+00 -8.05584E-02 -1.70684E+00 -1.00327E+00 -4.35433E-02 -4.11302E-01 -1.28021E+00 -5.91362E-01 -3.44160E-01 -6.72815E-01
  -1.27194E+00  4.92340E-02 -4.45195E-01 -1.33633E+00 -1.67403E-01 -1.27214E+00 -1.36817E-01 -2.05365E-01 -1.39181E+00 -1.50283E-01
   6.93001E-01 -2.79773E-02 -8.16376E-01 -4.53374E-01 -1.23580E+00 -1.15040E+00 -1.20154E+00 -2.56414E-01  2.06375E-01  6.48850E-01
   3.67299E-01 -1.47309E-01  3.20182E-01  5.45299E-01 -2.64706E-01  3.61462E-01  3.40877E-01  6.24982E-01 -5.10237E-01  1.27935E+00
   1.64909E+00  7.98383E-01  1.34695E+00  7.51156E-01  1.38269E+00  2.18807E+00  2.39642E+00  2.13042E+00  2.35728E+00  2.02166E+00
   2.06923E+00  2.05897E+00  2.54037E+00  2.67413E+00  2.91449E+00  2.53806E+00  2.32993E+00  2.85688E+00  2.57035E+00  1.62534E+00
   2.32485E+00  2.85611E+00  2.67719E+00  3.01059E+00  1.39159E+00  1.87697E+00  1.95134E+00  8.63640E-01  9.57519E-01  6.47579E-01
   1.17183E+00  6.63423E-01  8.91789E-01  6.53584E-01  7.69789E-01  5.19457E-01 -1.40075E-01 -3.73673E-02 -2.60951E-01 -1.92791E-01
  -1.98188E-01 -4.58050E-01 -1.70240E-01 -8.44540E-01 -1.54170E+00 -1.68688E+00 -1.70248E+00 -5.81657E-01 -1.15602E+00 -9.43956E-01
  -8.53503E-01  6.28358E-01  8.61572E-02  1.20791E+00 -5.99490E-01  6.96077E-01  1.27936E+00  1.12027E+00  9.51414E-01  1.71508E+00
   1.20033E+00  6.47283E-01 -6.87389E-02  2.45658E-02  7.73320E-01 -3.91910E-01 -6.94380E-01 -3.35092E-02 -7.21858E-01  2.93031E-01
  -8.20939E-01 -2.94745E-02 -1.35587E-01  8.21861E-01 -2.36269E-01 -2.67495E-01  1.72119E-01  3.05253E-01 -8.51086E-01 -2.74455E-01
  -7.29825E-02  1.99077E-01  4.55604E-01  1.16705E+00 -9.96792E-01  5.01441E-01  7.14208E-01  3.67863E-01 -3.40224E-01 -4.28785E-01
   6.43781E-03  3.11928E-02 -7.28160E-01 -6.47013E-01  4.39686E-01 -4.75731E-01 -1.10037E+00 -1.04279E+00 -1.28518E+00 -7.64641E-01
  -6.74764E-01 -1.31546E+00 -1.24559E+00 -5.89916E-01 -1.18586E+00 -9.14658E-02 -1.14102E+00  7.69541E-02 -3.01073E-01 -2.77999E-01
  -5.27469E-01 -1.09061E+00  3.57168E-01 -1.86498E+00  7.51718E-02 -7.28595E-01 -1.05200E+00 -3.02989E-01 -8.56708E-02 -8.46207E-01
  -1.16572E+00 -8.34652E-01 -1.13379E+00 -1.37530E-01  2.26631E-01  1.20721E-01  3.39822E-01  1.04716E-01  5.08552E-01 -1.79795E-01
   1.01341E-01  4.02938E-02 -5.16763E-01 -8.41393E-01 -7.61512E-02 -2.63238E-01 -1.46212E+00 -4.57217E-01  2.31619E-01  2.82834E-01
  -3.73206E-01 -1.22887E+00 -7.33778E-01 -4.24133E-01  5.66872E-02 -2.66257E-01 -4.79151E-01 -3.79639E-01 -2.67491E-01 -5.46977E-01
  -1.66627E-02  6.18878E-01 -4.21363E-01 -4.93873E-01  2.47401E-01 -1.86438E-01  1.45496E-01 -9.90520E-02 -5.20888E-01 -1.41348E-02
   5.37081E-01  3.00453E-01 -1.90912E-01  2.71850E-01  2.78566E-01 -6.52210E-01 -1.33374E+00 -4.75248E-01 -1.48125E+00 -1.16366E+00
  -2.82765E-01  5.42254E-01 -6.53345E-01  1.07106E-01  4.69695E-02 -8.39445E-01 -2.50311E-01  9.38689E-01
 NY points of the fit to the data follow
   5.62978E-01  5.13102E-01  5.63326E-01  5.31847E-01  5.82531E-01  5.55613E-01  5.83184E-01  5.70771E-01  5.54295E-01  5.36122E-01
   4.82450E-01  4.78772E-01  4.77348E-01  4.87363E-01  5.07168E-01  5.42405E-01  5.85275E-01  6.22241E-01  6.82360E-01  7.05051E-01
   7.83507E-01  7.88134E-01  8.72340E-01  8.43062E-01  9.34713E-01  8.70437E-01  9.68260E-01  8.69997E-01  9.72901E-01  8.68471E-01
   9.92563E-01  8.89282E-01  1.01492E+00  9.14064E-01  1.03122E+00  9.09785E-01  1.00701E+00  8.68991E-01  9.46228E-01  8.01673E-01
   8.60606E-01  7.30118E-01  7.90173E-01  6.78796E-01  7.38034E-01  6.38121E-01  6.78341E-01  5.82642E-01  5.85347E-01  4.85865E-01
   4.79257E-01  3.96043E-01  4.16970E-01  3.40711E-01  3.63937E-01  3.00484E-01  3.38666E-01  2.76727E-01  3.21979E-01  2.62394E-01
   3.11087E-01  2.45691E-01  2.82810E-01  2.07674E-01  2.41432E-01  1.64947E-01  1.98083E-01  1.29300E-01  1.71176E-01  1.14471E-01
   1.62346E-01  9.66439E-02  1.28438E-01  4.79651E-02  6.76203E-02 -2.11519E-02 -7.32834E-03 -9.83560E-02 -8.49508E-02 -1.72284E-01
  -1.61741E-01 -2.40507E-01 -2.28019E-01 -2.97155E-01 -2.68469E-01 -3.02201E-01 -2.77832E-01 -2.75661E-01 -2.65546E-01 -2.26863E-01
  -2.35635E-01 -1.64410E-01 -1.94499E-01 -9.66376E-02 -1.44653E-01 -2.38280E-02 -9.35910E-02  4.44637E-02 -4.73823E-02  9.93809E-02
  -1.43982E-02  1.29692E-01 -2.11566E-03  1.31359E-01 -1.01877E-02  1.08351E-01 -3.17054E-02  7.36064E-02 -4.83223E-02  7.64440E-02
  -2.60452E-02  1.04562E-01  2.11246E-02  1.52615E-01  8.98133E-02  2.24965E-01  1.84587E-01  3.05662E-01  2.75358E-01  3.73517E-01
   3.42870E-01  4.17474E-01  3.96719E-01  4.57170E-01  4.59081E-01  5.08305E-01  5.10214E-01  5.23507E-01  5.24206E-01  4.97107E-01
   4.97660E-01  4.36096E-01  4.38556E-01  3.51019E-01  3.58814E-01  2.52636E-01  2.67713E-01  1.49743E-01  1.72845E-01  4.91631E-02
   7.59955E-02 -5.17086E-02 -2.72372E-02 -1.55795E-01 -1.35077E-01 -2.58486E-01 -2.38252E-01 -3.41299E-01 -3.16464E-01 -3.79955E-01
  -3.57787E-01 -4.09429E-01 -3.93609E-01 -4.30528E-01 -4.17217E-01 -4.39003E-01 -4.29521E-01 -4.51303E-01 -4.54839E-01 -4.74772E-01
  -4.87325E-01 -4.99320E-01 -5.10774E-01 -5.15203E-01 -5.22039E-01 -5.25513E-01 -5.30651E-01 -5.38305E-01 -5.42712E-01 -5.54446E-01
  -5.57699E-01 -5.70080E-01 -5.66627E-01 -5.74331E-01 -5.61497E-01 -5.66815E-01 -5.49941E-01 -5.56890E-01 -5.41587E-01 -5.57196E-01
  -5.50798E-01 -5.63990E-01 -5.61282E-01 -5.64429E-01 -5.62883E-01 -5.53811E-01 -5.54912E-01 -5.34398E-01 -5.41651E-01 -5.13564E-01
  -5.29613E-01 -4.96173E-01 -5.22938E-01 -4.81474E-01 -5.13441E-01 -4.62325E-01 -4.96010E-01 -4.38664E-01 -4.72098E-01 -4.12011E-01
  -4.44237E-01 -3.85371E-01 -4.16243E-01 -3.61128E-01 -3.89731E-01 -3.40656E-01 -3.65917E-01 -3.25845E-01 -3.47382E-01 -3.14107E-01
  -3.28999E-01 -2.99021E-01 -3.03887E-01 -2.81643E-01 -2.84377E-01 -2.70793E-01 -2.75150E-01 -2.69744E-01 -2.76452E-01 -2.70243E-01
  -2.74939E-01 -2.66783E-01 -2.69724E-01 -2.65845E-01 -2.71458E-01 -2.77099E-01 -2.87259E-01 -2.97111E-01 -3.03140E-01 -3.14415E-01
  -3.13492E-01 -3.26921E-01 -3.19582E-01 -3.35198E-01 -3.22219E-01 -3.43659E-01 -3.28675E-01 -3.54373E-01 -3.36414E-01 -3.62638E-01
  -3.40693E-01 -3.64334E-01 -3.38210E-01 -3.58415E-01 -3.30281E-01 -3.47051E-01 -3.19349E-01 -3.32956E-01 -3.07948E-01 -3.18901E-01
  -2.97961E-01 -3.09115E-01 -2.94970E-01 -3.09150E-01 -3.02669E-01 -3.12698E-01 -3.07809E-01 -3.10505E-01 -3.04795E-01 -2.99342E-01
  -2.93041E-01 -2.91788E-01 -2.91643E-01 -2.93941E-01 -2.98811E-01 -3.03769E-01 -3.10385E-01 -3.12543E-01 -3.14682E-01 -3.15137E-01
  -3.14950E-01 -3.14911E-01 -3.13283E-01 -3.13083E-01 -3.11763E-01 -3.11668E-01 -3.10550E-01 -3.09634E-01 -3.08355E-01 -3.06727E-01
  -3.04933E-01 -3.02649E-01 -3.00012E-01 -2.96755E-01 -2.93040E-01 -2.88652E-01 -2.83739E-01 -2.78146E-01 -2.72000E-01 -2.65169E-01
  -2.57703E-01 -2.49542E-01 -2.40647E-01 -2.30855E-01 -2.20184E-01 -2.08377E-01 -1.95415E-01 -1.81003E-01 -1.65020E-01 -1.47131E-01
  -1.27101E-01 -1.04366E-01 -7.83826E-02 -4.82723E-02 -1.27944E-02  2.99369E-02  8.31452E-02  1.53128E-01  2.55677E-01  4.01437E-01
   4.71556E-01  6.17936E-01  6.26043E-01  7.42448E-01  6.77273E-01  7.40417E-01  5.94046E-01  6.92776E-01  5.65316E-01  7.02001E-01
   6.10950E-01  7.62191E-01  7.07549E-01  8.48628E-01  8.30618E-01  9.48922E-01  9.91877E-01  1.12767E+00  1.31789E+00  1.42363E+00
   1.64708E+00  1.69966E+00  1.89461E+00  1.86823E+00  1.97044E+00  1.85003E+00  1.95960E+00  1.82553E+00  1.92962E+00  1.79753E+00
   1.85957E+00  1.72807E+00  1.72093E+00  1.58969E+00  1.50653E+00  1.39832E+00  1.28714E+00  1.25070E+00  1.14633E+00  1.20019E+00
   1.05835E+00  1.12205E+00  9.50165E-01  1.01353E+00  7.99373E-01  8.65934E-01  6.25988E-01  7.40681E-01  5.47546E-01  6.53819E-01
   4.77958E-01  5.63045E-01  4.01312E-01  4.67467E-01  3.34183E-01  3.97789E-01  3.28188E-01  3.95602E-01  3.86944E-01  4.01403E-01
   3.26425E-01  2.95388E-01  1.72528E-01  1.03753E-01 -2.80745E-02 -1.06567E-01 -1.54529E-01 -1.87852E-01 -2.12179E-01 -2.30175E-01
  -2.43307E-01 -2.52463E-01 -2.58201E-01 -2.60904E-01 -2.60845E-01 -2.58239E-01 -2.53261E-01 -2.46079E-01 -2.36868E-01 -2.25840E-01
  -2.13247E-01 -1.99392E-01 -1.84625E-01 -1.69343E-01 -1.53990E-01 -1.39048E-01 -1.25023E-01 -1.12421E-01 -1.01722E-01 -9.33663E-02
  -8.77275E-02 -8.51000E-02 -8.56772E-02 -8.95385E-02 -9.66446E-02 -1.06842E-01 -1.19878E-01 -1.35407E-01 -1.53017E-01 -1.72244E-01
  -1.92600E-01 -2.13596E-01 -2.34772E-01 -2.55704E-01 -2.76025E-01 -2.95426E-01 -3.13670E-01 -3.30585E-01 -3.46070E-01 -3.60079E-01
  -3.72616E-01 -3.83723E-01 -3.93474E-01 -4.01965E-01 -4.09308E-01 -4.15620E-01 -4.21014E-01 -4.25601E-01 -4.29486E-01 -4.32765E-01
  -4.35525E-01 -4.37843E-01 -4.39782E-01 -4.41397E-01 -4.42738E-01 -4.43847E-01 -4.44759E-01 -4.45502E-01 -4.46097E-01 -4.46565E-01
  -4.46925E-01 -4.47191E-01 -4.47375E-01 -4.47486E-01 -4.47531E-01 -4.47518E-01 -4.47455E-01 -4.47348E-01 -4.47201E-01 -4.47015E-01
  -4.46795E-01 -4.46544E-01 -4.46266E-01 -4.45963E-01 -4.45638E-01 -4.45288E-01 -4.44919E-01 -4.44530E-01 -4.44126E-01 -4.43705E-01
  -4.43269E-01 -4.42816E-01 -4.42350E-01 -4.41871E-01 -4.41381E-01 -4.40878E-01 -4.40363E-01 -4.39835E-01 -4.39297E-01 -4.38748E-01
  -4.38190E-01 -4.37619E-01 -4.37037E-01 -4.36443E-01 -4.35840E-01 -4.35225E-01 -4.34600E-01 -4.33961E-01 -4.33309E-01 -4.32644E-01
  -4.31967E-01 -4.31275E-01 -4.30567E-01 -4.29842E-01 -4.29098E-01 -4.28335E-01 -4.27551E-01 -4.26744E-01 -4.25910E-01 -4.25046E-01
  -4.24149E-01 -4.23216E-01 -4.22240E-01 -4.21213E-01 -4.20127E-01 -4.18972E-01 -4.17732E-01 -4.16388E-01
 NY background values follow
    -6.037E-01   -6.033E-01   -6.029E-01   -6.025E-01   -6.020E-01   -6.016E-01   -6.012E-01   -6.008E-01   -6.003E-01   -5.999E-01
    -5.995E-01   -5.991E-01   -5.987E-01   -5.982E-01   -5.978E-01   -5.974E-01   -5.970E-01   -5.965E-01   -5.961E-01   -5.957E-01
    -5.953E-01   -5.948E-01   -5.944E-01   -5.940E-01   -5.936E-01   -5.931E-01   -5.927E-01   -5.923E-01   -5.919E-01   -5.914E-01
    -5.910E-01   -5.906E-01   -5.902E-01   -5.897E-01   -5.893E-01   -5.889E-01   -5.885E-01   -5.881E-01   -5.876E-01   -5.872E-01
    -5.868E-01   -5.864E-01   -5.859E-01   -5.855E-01   -5.851E-01   -5.847E-01   -5.842E-01   -5.838E-01   -5.834E-01   -5.830E-01
    -5.825E-01   -5.821E-01   -5.817E-01   -5.813E-01   -5.808E-01   -5.804E-01   -5.800E-01   -5.796E-01   -5.791E-01   -5.787E-01
    -5.783E-01   -5.779E-01   -5.774E-01   -5.770E-01   -5.766E-01   -5.762E-01   -5.757E-01   -5.753E-01   -5.749E-01   -5.745E-01
    -5.740E-01   -5.736E-01   -5.732E-01   -5.728E-01   -5.723E-01   -5.719E-01   -5.715E-01   -5.711E-01   -5.706E-01   -5.702E-01
    -5.698E-01   -5.694E-01   -5.689E-01   -5.685E-01   -5.681E-01   -5.676E-01   -5.672E-01   -5.668E-01   -5.664E-01   -5.659E-01
    -5.655E-01   -5.651E-01   -5.647E-01   -5.642E-01   -5.638E-01   -5.634E-01   -5.630E-01   -5.625E-01   -5.621E-01   -5.617E-01
    -5.613E-01   -5.608E-01   -5.604E-01   -5.600E-01   -5.596E-01   -5.591E-01   -5.587E-01   -5.583E-01   -5.579E-01   -5.574E-01
    -5.570E-01   -5.566E-01   -5.561E-01   -5.557E-01   -5.553E-01   -5.549E-01   -5.544E-01   -5.540E-01   -5.536E-01   -5.532E-01
    -5.527E-01   -5.523E-01   -5.519E-01   -5.515E-01   -5.510E-01   -5.506E-01   -5.502E-01   -5.497E-01   -5.493E-01   -5.489E-01
    -5.485E-01   -5.480E-01   -5.476E-01   -5.472E-01   -5.468E-01   -5.463E-01   -5.459E-01   -5.455E-01   -5.451E-01   -5.446E-01
    -5.442E-01   -5.438E-01   -5.433E-01   -5.429E-01   -5.425E-01   -5.421E-01   -5.416E-01   -5.412E-01   -5.408E-01   -5.404E-01
    -5.399E-01   -5.395E-01   -5.391E-01   -5.386E-01   -5.382E-01   -5.378E-01   -5.374E-01   -5.369E-01   -5.365E-01   -5.361E-01
    -5.357E-01   -5.352E-01   -5.348E-01   -5.344E-01   -5.339E-01   -5.335E-01   -5.331E-01   -5.327E-01   -5.322E-01   -5.318E-01
    -5.314E-01   -5.310E-01   -5.305E-01   -5.301E-01   -5.297E-01   -5.292E-01   -5.288E-01   -5.284E-01   -5.280E-01   -5.275E-01
    -5.271E-01   -5.267E-01   -5.262E-01   -5.258E-01   -5.254E-01   -5.250E-01   -5.245E-01   -5.241E-01   -5.237E-01   -5.232E-01
    -5.228E-01   -5.224E-01   -5.220E-01   -5.215E-01   -5.211E-01   -5.207E-01   -5.203E-01   -5.198E-01   -5.194E-01   -5.190E-01
    -5.185E-01   -5.181E-01   -5.177E-01   -5.173E-01   -5.168E-01   -5.164E-01   -5.160E-01   -5.155E-01   -5.151E-01   -5.147E-01
    -5.143E-01   -5.138E-01   -5.134E-01   -5.130E-01   -5.125E-01   -5.121E-01   -5.117E-01   -5.113E-01   -5.108E-01   -5.104E-01
    -5.100E-01   -5.095E-01   -5.091E-01   -5.087E-01   -5.082E-01   -5.078E-01   -5.074E-01   -5.070E-01   -5.065E-01   -5.061E-01
    -5.057E-01   -5.052E-01   -5.048E-01   -5.044E-01   -5.040E-01   -5.035E-01   -5.031E-01   -5.027E-01   -5.022E-01   -5.018E-01
    -5.014E-01   -5.010E-01   -5.005E-01   -5.001E-01   -4.997E-01   -4.992E-01   -4.988E-01   -4.984E-01   -4.979E-01   -4.975E-01
    -4.971E-01   -4.967E-01   -4.962E-01   -4.958E-01   -4.954E-01   -4.949E-01   -4.945E-01   -4.941E-01   -4.937E-01   -4.932E-01
    -4.928E-01   -4.924E-01   -4.919E-01   -4.915E-01   -4.911E-01   -4.906E-01   -4.902E-01   -4.898E-01   -4.894E-01   -4.889E-01
    -4.885E-01   -4.881E-01   -4.876E-01   -4.872E-01   -4.868E-01   -4.863E-01   -4.859E-01   -4.855E-01   -4.850E-01   -4.846E-01
    -4.842E-01   -4.838E-01   -4.833E-01   -4.829E-01   -4.825E-01   -4.820E-01   -4.816E-01   -4.812E-01   -4.807E-01   -4.803E-01
    -4.799E-01   -4.795E-01   -4.790E-01   -4.786E-01   -4.782E-01   -4.777E-01   -4.773E-01   -4.769E-01   -4.764E-01   -4.760E-01
    -4.756E-01   -4.751E-01   -4.747E-01   -4.743E-01   -4.739E-01   -4.734E-01   -4.730E-01   -4.726E-01   -4.721E-01   -4.717E-01
    -4.713E-01   -4.708E-01   -4.704E-01   -4.700E-01   -4.695E-01   -4.691E-01   -4.687E-01   -4.683E-01   -4.678E-01   -4.674E-01
    -4.670E-01   -4.665E-01   -4.661E-01   -4.657E-01   -4.652E-01   -4.648E-01   -4.644E-01   -4.639E-01   -4.635E-01   -4.631E-01
    -4.626E-01   -4.622E-01   -4.618E-01   -4.614E-01   -4.609E-01   -4.605E-01   -4.601E-01   -4.596E-01   -4.592E-01   -4.588E-01
    -4.583E-01   -4.579E-01   -4.575E-01   -4.570E-01   -4.566E-01   -4.562E-01   -4.557E-01   -4.553E-01   -4.549E-01   -4.545E-01
    -4.540E-01   -4.536E-01   -4.532E-01   -4.527E-01   -4.523E-01   -4.519E-01   -4.514E-01   -4.510E-01   -4.506E-01   -4.501E-01
    -4.497E-01   -4.493E-01   -4.488E-01   -4.484E-01   -4.480E-01   -4.475E-01   -4.471E-01   -4.467E-01   -4.462E-01   -4.458E-01
    -4.454E-01   -4.450E-01   -4.445E-01   -4.441E-01   -4.437E-01   -4.432E-01   -4.428E-01   -4.424E-01   -4.419E-01   -4.415E-01
    -4.411E-01   -4.406E-01   -4.402E-01   -4.398E-01   -4.393E-01   -4.389E-01   -4.385E-01   -4.380E-01   -4.376E-01   -4.372E-01
    -4.367E-01   -4.363E-01   -4.359E-01   -4.355E-01   -4.350E-01   -4.346E-01   -4.342E-01   -4.337E-01   -4.333E-01   -4.329E-01
    -4.324E-01   -4.320E-01   -4.316E-01   -4.311E-01   -4.307E-01   -4.303E-01   -4.298E-01   -4.294E-01   -4.290E-01   -4.285E-01
    -4.281E-01   -4.277E-01   -4.272E-01   -4.268E-01   -4.264E-01   -4.259E-01   -4.255E-01   -4.251E-01   -4.246E-01   -4.242E-01
    -4.238E-01   -4.234E-01   -4.229E-01   -4.225E-01   -4.221E-01   -4.216E-01   -4.212E-01   -4.208E-01   -4.203E-01   -4.199E-01
    -4.195E-01   -4.190E-01   -4.186E-01   -4.182E-01   -4.177E-01   -4.173E-01   -4.169E-01   -4.164E-01   -4.160E-01   -4.156E-01
    -4.151E-01   -4.147E-01   -4.143E-01   -4.138E-01   -4.134E-01   -4.130E-01   -4.125E-01   -4.121E-01   -4.117E-01   -4.113E-01
    -4.108E-01   -4.104E-01   -4.100E-01   -4.095E-01   -4.091E-01   -4.087E-01   -4.082E-01   -4.078E-01   -4.074E-01   -4.069E-01
    -4.065E-01   -4.061E-01   -4.056E-01   -4.052E-01   -4.048E-01   -4.043E-01   -4.039E-01   -4.035E-01   -4.030E-01   -4.026E-01
    -4.022E-01   -4.017E-01   -4.013E-01   -4.009E-01   -4.004E-01   -4.000E-01   -3.996E-01   -3.991E-01   -3.987E-01   -3.983E-01
    -3.979E-01   -3.974E-01   -3.970E-01   -3.966E-01   -3.961E-01   -3.957E-01   -3.953E-01   -3.948E-01   -3.944E-01   -3.940E-01
    -3.935E-01   -3.931E-01   -3.927E-01   -3.922E-01   -3.918E-01   -3.914E-01   -3.909E-01   -3.905E-01
 Ala      Conc. = 3.96E+02
