 LCModel (Version 6.3-1L) Copyright: S.W. Provencher.          Ref.: Magn. Reson. Med. 30:672-679 (1993).                
 Slice#3 Row#9 Col#1  PD_05_press_1_raw_act
 36 lines in following concentration table = NCONC+1
    Conc.  %SD /Cr+PCr  Metabolite                                         
    0.000 999%   0.000 Ala                                                 
    2.543 104%   0.465 Asp                                                 
    5.471 194%   1.000 Cr                                                  
    0.000 999%   0.000 PCr                                                 
    1.472 107%   0.269 GABA                                                
    1.529 104%   0.279 Glc                                                 
    0.000 999%   0.000 Gln                                                 
   44.687 116%   8.168 Glu                                                 
    2.975 802%   0.544 GPC                                                 
    3.431 698%   0.627 PCh                                                 
   30.052  53%   5.493 GSH                                                 
  290.846  19%  53.164 Ins                                                 
   19.523 131%   3.569 Lac                                                 
   23.947  51%   4.377 NAA                                                 
    0.000 999%   0.000 NAAG                                                
    0.483 110% 8.8E-02 Scyllo                                              
    2.319 114%   0.424 Tau                                                 
    2.798 186%   0.511 -CrCH2                                              
    6.407  65%   1.171 GPC+PCh                                             
   23.947  51%   4.377 NAA+NAAG                                            
    5.471 194%   1.000 Cr+PCr                                              
   44.687 116%   8.168 Glu+Gln                                             
    0.000 999%   0.000 Lip13a                                              
   52.768  45%   9.646 Lip13b                                              
    9.445 162%   1.726 Lip09                                               
   21.236 140%   3.882 MM09                                                
    8.062 130%   1.474 Lip20                                               
   53.124  98%   9.711 MM20                                                
    7.033 212%   1.286 MM12                                                
    0.000 999%   0.000 MM14                                                
   36.556  86%   6.682 MM17                                                
   52.768  45%   9.646 Lip13a+Lip13b                                       
   59.802  46%  10.931 MM14+Lip13a+Lip13b+MM12                             
   30.680  99%   5.608 MM09+Lip09                                          
   61.186  86%  11.184 MM20+Lip20                                          
   6 lines in following misc. output table
  FWHM = 0.061 ppm    S/N =   1                                            
  Data shift =-0.061 ppm                                                   
  Ph:-153 deg      15.9 deg/ppm                                            
  alphaB,S = 1.2E+00,   7.9E+01                                            
   14 spline knots.   Ns = 5(1)                                            
  ( 6) 2 infls.   ( 5) 1 extrs.                                            
  498 points on ppm-axis = NY
      4.000000     3.992357     3.984714     3.977070     3.969427     3.961784     3.954141     3.946497     3.938854     3.931211
      3.923568     3.915925     3.908281     3.900638     3.892995     3.885352     3.877708     3.870065     3.862422     3.854779
      3.847136     3.839492     3.831849     3.824206     3.816563     3.808919     3.801276     3.793633     3.785990     3.778347
      3.770703     3.763060     3.755417     3.747774     3.740130     3.732487     3.724844     3.717201     3.709558     3.701914
      3.694271     3.686628     3.678985     3.671341     3.663698     3.656055     3.648412     3.640769     3.633125     3.625482
      3.617839     3.610196     3.602552     3.594909     3.587266     3.579623     3.571980     3.564336     3.556693     3.549050
      3.541407     3.533763     3.526120     3.518477     3.510834     3.503191     3.495547     3.487904     3.480261     3.472618
      3.464974     3.457331     3.449688     3.442045     3.434402     3.426758     3.419115     3.411472     3.403829     3.396185
      3.388542     3.380899     3.373256     3.365613     3.357969     3.350326     3.342683     3.335040     3.327396     3.319753
      3.312110     3.304467     3.296824     3.289180     3.281537     3.273894     3.266251     3.258607     3.250964     3.243321
      3.235678     3.228034     3.220391     3.212748     3.205105     3.197462     3.189818     3.182175     3.174532     3.166889
      3.159245     3.151602     3.143959     3.136316     3.128673     3.121029     3.113386     3.105743     3.098100     3.090456
      3.082813     3.075170     3.067527     3.059884     3.052240     3.044597     3.036954     3.029311     3.021667     3.014024
      3.006381     2.998738     2.991095     2.983451     2.975808     2.968165     2.960522     2.952878     2.945235     2.937592
      2.929949     2.922306     2.914662     2.907019     2.899376     2.891733     2.884089     2.876446     2.868803     2.861160
      2.853517     2.845873     2.838230     2.830587     2.822944     2.815300     2.807657     2.800014     2.792371     2.784728
      2.777084     2.769441     2.761798     2.754155     2.746511     2.738868     2.731225     2.723582     2.715939     2.708295
      2.700652     2.693009     2.685366     2.677722     2.670079     2.662436     2.654793     2.647150     2.639506     2.631863
      2.624220     2.616577     2.608933     2.601290     2.593647     2.586004     2.578361     2.570717     2.563074     2.555431
      2.547788     2.540144     2.532501     2.524858     2.517215     2.509572     2.501928     2.494285     2.486642     2.478999
      2.471355     2.463712     2.456069     2.448426     2.440783     2.433139     2.425496     2.417853     2.410210     2.402566
      2.394923     2.387280     2.379637     2.371994     2.364350     2.356707     2.349064     2.341421     2.333777     2.326134
      2.318491     2.310848     2.303205     2.295561     2.287918     2.280275     2.272632     2.264988     2.257345     2.249702
      2.242059     2.234416     2.226772     2.219129     2.211486     2.203843     2.196199     2.188556     2.180913     2.173270
      2.165627     2.157983     2.150340     2.142697     2.135054     2.127410     2.119767     2.112124     2.104481     2.096838
      2.089194     2.081551     2.073908     2.066265     2.058621     2.050978     2.043335     2.035692     2.028049     2.020405
      2.012762     2.005119     1.997476     1.989833     1.982190     1.974546     1.966903     1.959260     1.951617     1.943974
      1.936331     1.928688     1.921045     1.913402     1.905759     1.898115     1.890472     1.882829     1.875186     1.867543
      1.859900     1.852257     1.844614     1.836971     1.829327     1.821684     1.814041     1.806398     1.798755     1.791112
      1.783469     1.775826     1.768183     1.760540     1.752896     1.745253     1.737610     1.729967     1.722324     1.714681
      1.707038     1.699395     1.691752     1.684108     1.676465     1.668822     1.661179     1.653536     1.645893     1.638250
      1.630607     1.622964     1.615321     1.607677     1.600034     1.592391     1.584748     1.577105     1.569462     1.561819
      1.554176     1.546533     1.538890     1.531246     1.523603     1.515960     1.508317     1.500674     1.493031     1.485388
      1.477745     1.470102     1.462458     1.454815     1.447172     1.439529     1.431886     1.424243     1.416600     1.408957
      1.401314     1.393671     1.386027     1.378384     1.370741     1.363098     1.355455     1.347812     1.340169     1.332526
      1.324883     1.317240     1.309596     1.301953     1.294310     1.286667     1.279024     1.271381     1.263738     1.256095
      1.248452     1.240808     1.233165     1.225522     1.217879     1.210236     1.202593     1.194950     1.187307     1.179664
      1.172021     1.164377     1.156734     1.149091     1.141448     1.133805     1.126162     1.118519     1.110876     1.103233
      1.095590     1.087946     1.080303     1.072660     1.065017     1.057374     1.049731     1.042088     1.034445     1.026802
      1.019158     1.011515     1.003872     0.996229     0.988586     0.980943     0.973300     0.965657     0.958014     0.950371
      0.942727     0.935084     0.927441     0.919798     0.912155     0.904512     0.896869     0.889226     0.881583     0.873940
      0.866296     0.858653     0.851010     0.843367     0.835724     0.828081     0.820438     0.812795     0.805152     0.797508
      0.789865     0.782222     0.774579     0.766936     0.759293     0.751650     0.744007     0.736364     0.728721     0.721077
      0.713434     0.705791     0.698148     0.690505     0.682862     0.675219     0.667576     0.659933     0.652290     0.644646
      0.637003     0.629360     0.621717     0.614074     0.606431     0.598788     0.591145     0.583502     0.575858     0.568215
      0.560572     0.552929     0.545286     0.537643     0.530000     0.522357     0.514714     0.507071     0.499427     0.491784
      0.484141     0.476498     0.468855     0.461212     0.453569     0.445925     0.438282     0.430639     0.422996     0.415353
      0.407710     0.400067     0.392424     0.384780     0.377137     0.369494     0.361851     0.354208     0.346565     0.338922
      0.331278     0.323635     0.315992     0.308349     0.300706     0.293063     0.285420     0.277777     0.270133     0.262490
      0.254847     0.247204     0.239561     0.231918     0.224275     0.216631     0.208988     0.201345
 NY phased data points follow
   2.25692E+01  2.18407E+01  2.26394E+01  2.34301E+01  2.20064E+01  2.21032E+01  2.25636E+01  2.27044E+01  2.24535E+01  2.15755E+01
   2.21980E+01  2.38587E+01  2.26599E+01  2.28127E+01  2.31887E+01  2.24067E+01  2.26112E+01  2.14691E+01  2.18285E+01  2.21022E+01
   2.22879E+01  2.32143E+01  2.13216E+01  2.26683E+01  2.30877E+01  2.15586E+01  2.30031E+01  2.18741E+01  2.01498E+01  2.27709E+01
   2.20944E+01  2.18061E+01  2.13162E+01  2.17076E+01  2.10983E+01  2.02230E+01  2.11885E+01  2.16338E+01  2.05269E+01  2.07140E+01
   2.02206E+01  1.99412E+01  2.05320E+01  1.89145E+01  2.10749E+01  1.97141E+01  2.11652E+01  2.01264E+01  2.00436E+01  1.91114E+01
   2.02293E+01  2.10163E+01  1.94939E+01  1.91066E+01  1.83477E+01  1.90319E+01  1.88014E+01  1.77378E+01  1.83138E+01  1.79841E+01
   1.88190E+01  1.77200E+01  1.82713E+01  1.67040E+01  1.70624E+01  1.86048E+01  1.81870E+01  1.60758E+01  1.64432E+01  1.61788E+01
   1.61613E+01  1.67854E+01  1.73643E+01  1.65107E+01  1.57989E+01  1.52620E+01  1.62192E+01  1.63663E+01  1.54807E+01  1.55043E+01
   1.48176E+01  1.62487E+01  1.46601E+01  1.52951E+01  1.41464E+01  1.28859E+01  1.37275E+01  1.44853E+01  1.30061E+01  1.26261E+01
   1.34513E+01  1.31455E+01  1.27684E+01  1.26734E+01  1.32891E+01  1.36242E+01  1.19118E+01  1.16966E+01  1.15480E+01  1.24404E+01
   1.19013E+01  1.02926E+01  1.31177E+01  1.30205E+01  1.31510E+01  1.20195E+01  1.06624E+01  1.20182E+01  1.16192E+01  1.08364E+01
   1.12708E+01  1.10042E+01  9.93080E+00  9.97200E+00  9.67231E+00  1.03859E+01  1.01970E+01  1.05214E+01  1.01168E+01  9.56455E+00
   1.04437E+01  9.12495E+00  1.04963E+01  9.88615E+00  9.21885E+00  9.39314E+00  1.10359E+01  9.26101E+00  9.00092E+00  9.49406E+00
   1.15396E+01  7.95231E+00  8.45305E+00  8.72055E+00  7.85573E+00  8.89736E+00  8.27875E+00  8.39167E+00  8.51180E+00  9.03694E+00
   7.88515E+00  8.18424E+00  8.09124E+00  7.78537E+00  7.60956E+00  7.24900E+00  7.63767E+00  8.00546E+00  7.50199E+00  8.08056E+00
   7.32505E+00  7.37734E+00  7.61024E+00  6.48894E+00  7.71266E+00  7.91454E+00  6.71613E+00  8.44011E+00  4.31338E+00  6.31697E+00
   7.15171E+00  6.56303E+00  5.23026E+00  6.29015E+00  4.90103E+00  6.68457E+00  6.38228E+00  5.88255E+00  6.21798E+00  6.51112E+00
   6.28413E+00  6.10143E+00  4.69222E+00  4.91204E+00  6.00458E+00  3.98710E+00  6.60769E+00  4.51211E+00  6.40392E+00  4.75371E+00
   5.84411E+00  6.30331E+00  4.52268E+00  5.71566E+00  5.24772E+00  5.58072E+00  5.39351E+00  6.23206E+00  6.69960E+00  4.66621E+00
   5.50626E+00  4.91201E+00  5.50939E+00  4.45923E+00  5.50247E+00  5.31962E+00  5.23635E+00  5.06214E+00  4.87498E+00  4.05556E+00
   4.34302E+00  5.25752E+00  4.79311E+00  2.06389E+00  4.40532E+00  4.03133E+00  5.01036E+00  3.02112E+00  4.74840E+00  5.30973E+00
   3.99134E+00  4.98131E+00  4.08999E+00  3.87651E+00  3.02999E+00  4.07128E+00  3.54380E+00  5.07082E+00  4.60711E+00  4.13517E+00
   3.06062E+00  4.72471E+00  3.58943E+00  3.56175E+00  3.45439E+00  5.46380E+00  3.10944E+00  2.74290E+00  3.25379E+00  3.89544E+00
   3.19049E+00  3.19112E+00  3.72148E+00  4.11854E+00  3.35944E+00  4.17150E+00  3.12483E+00  2.67597E+00  3.04258E+00  3.23324E+00
   3.82424E+00  2.57289E+00  2.43900E+00  4.11580E+00  4.75320E+00  3.91068E+00  2.13330E+00  4.10997E+00  3.76302E+00  3.71156E+00
   4.55396E+00  3.85355E+00  4.91806E+00  3.44255E+00  3.05475E+00  3.54064E+00  4.03302E+00  2.56675E+00  3.95076E+00  3.24610E+00
   2.92329E+00  3.76645E+00  3.31599E+00  4.73543E+00  4.20690E+00  5.79599E+00  4.13093E+00  4.49033E+00  4.29478E+00  5.01042E+00
   3.82864E+00  2.93885E+00  4.70273E+00  4.70257E+00  4.16227E+00  4.37969E+00  4.51047E+00  5.51234E+00  3.64576E+00  3.47547E+00
   4.41498E+00  2.46366E+00  3.73592E+00  2.80104E+00  3.42248E+00  4.57366E+00  3.84031E+00  3.89020E+00  4.02870E+00  3.02223E+00
   3.17703E+00  3.79202E+00  4.53450E+00  3.69632E+00  2.62146E+00  3.98486E+00  5.55872E+00  3.47997E+00  3.41826E+00  4.83639E+00
   3.52258E+00  3.60329E+00  3.06506E+00  3.80412E+00  5.04082E+00  3.31214E+00  4.79065E+00  2.53070E+00  4.29443E+00  2.39987E+00
   4.15999E+00  3.77427E+00  5.06037E+00  4.36508E+00  3.44346E+00  4.31090E+00  3.71811E+00  3.51751E+00  2.66513E+00  2.70136E+00
   2.79708E+00  3.39072E+00  3.69153E+00  1.77445E+00  3.00377E+00  3.02905E+00  2.12857E+00  2.36405E+00  4.67587E+00  2.46873E+00
   1.93336E+00  2.31570E+00  3.52768E+00  2.09698E+00  2.69559E+00  3.04096E+00  2.64346E+00  2.77268E+00  2.59796E+00  2.90901E+00
   1.77531E+00  2.42453E+00  1.91930E+00  3.35152E+00  3.56773E+00  1.76917E+00  2.98822E+00  3.40282E+00  2.78000E+00  2.88355E+00
   3.60464E+00  2.98565E+00  2.61942E+00  2.92603E+00  3.26660E+00  2.81385E+00  2.59683E+00  3.46088E+00  4.00702E+00  4.98322E+00
   1.89191E+00  2.50011E+00  4.25472E+00  4.06108E+00  3.52803E+00  3.60323E+00  4.60589E+00  2.55869E+00  1.49839E+00  1.46089E+00
   2.81953E+00  3.95927E+00  1.33582E+00  4.66814E-01  2.32889E+00  3.09615E+00  2.09743E+00  1.97713E+00  2.85442E+00  1.90366E+00
   2.80855E+00  3.29810E+00  4.44885E+00  3.11219E+00  3.84446E+00  2.84212E+00  4.03965E+00  5.03138E+00  3.88121E+00  2.27856E+00
   2.85538E+00  4.08517E+00  2.19749E+00  2.96161E+00  1.99516E+00  1.29784E+00  2.57213E+00  3.48854E+00  2.11715E+00  4.31553E+00
   2.74148E+00  2.31256E+00  2.77189E+00  1.85115E+00  2.46327E+00  2.78788E+00  3.72772E+00  1.93465E+00  2.64863E+00  2.33860E+00
   2.88562E+00  2.56949E+00  2.97823E+00  1.97459E+00  1.57135E+00  1.75966E+00  1.80867E+00  2.17253E+00  2.59647E+00  2.48348E+00
   3.13532E+00  1.67374E+00  2.77771E+00  3.15405E+00  2.83848E+00  2.89303E+00  2.40548E+00  2.41229E+00  1.63647E+00  2.52518E+00
   7.26239E-01  2.10891E+00  1.86112E+00  1.09521E+00  2.92972E+00  1.99708E+00  1.67172E+00  5.75464E-01  2.49834E+00  6.27504E-01
   1.45762E+00  3.30140E-01  1.98162E+00  2.16941E+00  3.07021E+00  7.78859E-01  2.01449E+00  2.23687E+00  1.34458E+00  1.86945E+00
   2.96522E+00  1.76102E+00  4.37591E-01  1.77225E+00  2.77195E+00  1.94762E+00  2.08102E+00  1.33159E+00  1.52678E+00  1.87924E+00
   2.50328E+00  2.09104E+00  1.36115E+00  2.26581E+00  1.18061E+00  1.63175E+00  2.84552E+00  4.10618E-01  5.74919E-01  1.84148E+00
   1.41077E+00  8.15040E-01  1.20977E-01  9.28043E-01  2.02547E+00  1.08691E+00  1.78314E+00  1.75750E+00  1.93975E+00  6.93000E-01
   1.99603E+00  2.19830E+00  1.95074E+00 -9.83330E-02  1.85602E+00  2.78793E-01  1.50664E+00  8.94955E-01  2.57755E+00  1.25066E+00
   1.59795E+00  2.10597E+00  7.98983E-01  1.85528E+00  3.13887E-01  8.85893E-01  1.37028E+00  1.95289E+00
 NY points of the fit to the data follow
   2.39785E+01  2.37256E+01  2.35214E+01  2.33816E+01  2.32678E+01  2.31623E+01  2.30710E+01  2.29940E+01  2.29230E+01  2.28518E+01
   2.27771E+01  2.26983E+01  2.26162E+01  2.25295E+01  2.24348E+01  2.23288E+01  2.22134E+01  2.21017E+01  2.20043E+01  2.19126E+01
   2.18182E+01  2.17235E+01  2.16319E+01  2.15419E+01  2.14707E+01  2.14643E+01  2.15076E+01  2.15598E+01  2.16016E+01  2.16227E+01
   2.16097E+01  2.15490E+01  2.14495E+01  2.13149E+01  2.11138E+01  2.08406E+01  2.05544E+01  2.03166E+01  2.01002E+01  1.98858E+01
   1.96890E+01  1.95503E+01  1.95651E+01  1.97905E+01  2.01576E+01  2.05169E+01  2.07374E+01  2.07771E+01  2.06436E+01  2.03462E+01
   1.98930E+01  1.93073E+01  1.86518E+01  1.80630E+01  1.77318E+01  1.77045E+01  1.78456E+01  1.80179E+01  1.81469E+01  1.81983E+01
   1.81557E+01  1.80196E+01  1.78120E+01  1.75562E+01  1.72698E+01  1.69806E+01  1.67533E+01  1.66375E+01  1.66177E+01  1.66491E+01
   1.66731E+01  1.66564E+01  1.65842E+01  1.64583E+01  1.62969E+01  1.61109E+01  1.59092E+01  1.56986E+01  1.55000E+01  1.53358E+01
   1.51905E+01  1.50414E+01  1.48567E+01  1.46196E+01  1.43340E+01  1.40250E+01  1.37225E+01  1.34501E+01  1.32272E+01  1.30716E+01
   1.29909E+01  1.29929E+01  1.30610E+01  1.31384E+01  1.31594E+01  1.30961E+01  1.29540E+01  1.27648E+01  1.25794E+01  1.24300E+01
   1.23122E+01  1.22251E+01  1.21638E+01  1.21270E+01  1.20918E+01  1.20261E+01  1.19145E+01  1.17540E+01  1.15561E+01  1.13528E+01
   1.11891E+01  1.10674E+01  1.09590E+01  1.08556E+01  1.07508E+01  1.06419E+01  1.05279E+01  1.04106E+01  1.02921E+01  1.01755E+01
   1.00643E+01  9.96208E+00  9.87914E+00  9.81712E+00  9.76607E+00  9.71690E+00  9.66374E+00  9.60366E+00  9.54125E+00  9.47951E+00
   9.40438E+00  9.30156E+00  9.16982E+00  9.01797E+00  8.86649E+00  8.72409E+00  8.58862E+00  8.46637E+00  8.35972E+00  8.27405E+00
   8.21761E+00  8.18663E+00  8.15801E+00  8.11474E+00  8.05046E+00  7.96263E+00  7.85846E+00  7.74959E+00  7.64409E+00  7.54822E+00
   7.45675E+00  7.36779E+00  7.28180E+00  7.19896E+00  7.11912E+00  7.04226E+00  6.96772E+00  6.89383E+00  6.82053E+00  6.74846E+00
   6.67849E+00  6.60954E+00  6.54002E+00  6.47129E+00  6.40485E+00  6.34091E+00  6.27908E+00  6.21791E+00  6.15546E+00  6.09163E+00
   6.02733E+00  5.96249E+00  5.89733E+00  5.83270E+00  5.76909E+00  5.70693E+00  5.64487E+00  5.58205E+00  5.51976E+00  5.46050E+00
   5.40336E+00  5.34556E+00  5.28414E+00  5.21795E+00  5.15202E+00  5.09675E+00  5.05940E+00  5.04111E+00  5.03614E+00  5.03690E+00
   5.03852E+00  5.03528E+00  5.01520E+00  4.96518E+00  4.88860E+00  4.79771E+00  4.70569E+00  4.62464E+00  4.56420E+00  4.52910E+00
   4.51647E+00  4.52070E+00  4.53523E+00  4.54795E+00  4.54740E+00  4.52321E+00  4.48317E+00  4.43515E+00  4.37955E+00  4.31915E+00
   4.26259E+00  4.22781E+00  4.22544E+00  4.24508E+00  4.27332E+00  4.29939E+00  4.31633E+00  4.30627E+00  4.25276E+00  4.15671E+00
   4.03460E+00  3.90640E+00  3.79532E+00  3.72737E+00  3.70954E+00  3.72756E+00  3.76895E+00  3.81680E+00  3.85709E+00  3.87461E+00
   3.86175E+00  3.83364E+00  3.81507E+00  3.81831E+00  3.83896E+00  3.86707E+00  3.89198E+00  3.90519E+00  3.89119E+00  3.83995E+00
   3.76457E+00  3.68633E+00  3.61845E+00  3.57373E+00  3.56680E+00  3.59941E+00  3.65062E+00  3.69841E+00  3.73115E+00  3.74456E+00
   3.73286E+00  3.69761E+00  3.65170E+00  3.60614E+00  3.56056E+00  3.54285E+00  3.60962E+00  3.74829E+00  3.91748E+00  4.08597E+00
   4.23745E+00  4.35902E+00  4.44181E+00  4.47479E+00  4.44125E+00  4.32924E+00  4.15648E+00  3.98867E+00  3.88590E+00  3.82087E+00
   3.77229E+00  3.73569E+00  3.70855E+00  3.68630E+00  3.66859E+00  3.65505E+00  3.64378E+00  3.63281E+00  3.62068E+00  3.60586E+00
   3.58851E+00  3.57062E+00  3.55377E+00  3.53848E+00  3.52504E+00  3.51367E+00  3.50443E+00  3.49702E+00  3.49075E+00  3.48547E+00
   3.48127E+00  3.47811E+00  3.47602E+00  3.47511E+00  3.47537E+00  3.47661E+00  3.47860E+00  3.48114E+00  3.48399E+00  3.48685E+00
   3.48944E+00  3.49148E+00  3.49266E+00  3.49269E+00  3.49135E+00  3.48844E+00  3.48383E+00  3.47743E+00  3.46919E+00  3.45912E+00
   3.44733E+00  3.43398E+00  3.41923E+00  3.40324E+00  3.38620E+00  3.36830E+00  3.34975E+00  3.33071E+00  3.31137E+00  3.29186E+00
   3.27228E+00  3.25274E+00  3.23330E+00  3.21402E+00  3.19491E+00  3.17596E+00  3.15717E+00  3.13850E+00  3.11992E+00  3.10139E+00
   3.08284E+00  3.06420E+00  3.04540E+00  3.02637E+00  3.00703E+00  2.98729E+00  2.96706E+00  2.94628E+00  2.92498E+00  2.90341E+00
   2.88242E+00  2.86517E+00  2.86448E+00  2.89066E+00  2.92545E+00  2.95262E+00  2.96586E+00  2.96408E+00  2.94660E+00  2.90868E+00
   2.85887E+00  2.82332E+00  2.81794E+00  2.85585E+00  2.95093E+00  3.09425E+00  3.24672E+00  3.38742E+00  3.50326E+00  3.57956E+00
   3.60108E+00  3.56161E+00  3.48417E+00  3.40122E+00  3.31975E+00  3.24243E+00  3.17156E+00  3.10844E+00  3.05335E+00  3.00579E+00
   2.96477E+00  2.92912E+00  2.89770E+00  2.86952E+00  2.84379E+00  2.81991E+00  2.79744E+00  2.77605E+00  2.75556E+00  2.73581E+00
   2.71674E+00  2.69830E+00  2.68047E+00  2.66328E+00  2.64674E+00  2.63092E+00  2.61588E+00  2.60171E+00  2.58848E+00  2.57627E+00
   2.56519E+00  2.55530E+00  2.54669E+00  2.53938E+00  2.53339E+00  2.52872E+00  2.52531E+00  2.52306E+00  2.52184E+00  2.52148E+00
   2.52175E+00  2.52240E+00  2.52317E+00  2.52377E+00  2.52391E+00  2.52332E+00  2.52174E+00  2.51894E+00  2.51476E+00  2.50905E+00
   2.50174E+00  2.49279E+00  2.48223E+00  2.47011E+00  2.45654E+00  2.44165E+00  2.42560E+00  2.40854E+00  2.39067E+00  2.37213E+00
   2.35310E+00  2.33373E+00  2.31414E+00  2.29446E+00  2.27478E+00  2.25518E+00  2.23572E+00  2.21644E+00  2.19738E+00  2.17855E+00
   2.15998E+00  2.14165E+00  2.12357E+00  2.10574E+00  2.08813E+00  2.07075E+00  2.05358E+00  2.03660E+00  2.01981E+00  2.00318E+00
   1.98672E+00  1.97040E+00  1.95423E+00  1.93818E+00  1.92225E+00  1.90643E+00  1.89072E+00  1.87511E+00  1.85959E+00  1.84416E+00
   1.82882E+00  1.81355E+00  1.79836E+00  1.78324E+00  1.76818E+00  1.75319E+00  1.73825E+00  1.72337E+00  1.70854E+00  1.69376E+00
   1.67902E+00  1.66431E+00  1.64965E+00  1.63502E+00  1.62042E+00  1.60585E+00  1.59131E+00  1.57679E+00  1.56229E+00  1.54781E+00
   1.53335E+00  1.51890E+00  1.50447E+00  1.49005E+00  1.47564E+00  1.46123E+00  1.44683E+00  1.43243E+00  1.41804E+00  1.40364E+00
   1.38925E+00  1.37484E+00  1.36043E+00  1.34601E+00  1.33159E+00  1.31715E+00  1.30269E+00  1.28821E+00  1.27372E+00  1.25919E+00
   1.24465E+00  1.23007E+00  1.21546E+00  1.20081E+00  1.18611E+00  1.17137E+00  1.15657E+00  1.14171E+00
 NY background values follow
     2.347E+01    2.338E+01    2.328E+01    2.319E+01    2.310E+01    2.301E+01    2.291E+01    2.282E+01    2.272E+01    2.263E+01
     2.253E+01    2.244E+01    2.234E+01    2.224E+01    2.214E+01    2.205E+01    2.195E+01    2.185E+01    2.175E+01    2.165E+01
     2.155E+01    2.145E+01    2.135E+01    2.125E+01    2.114E+01    2.104E+01    2.094E+01    2.083E+01    2.073E+01    2.062E+01
     2.052E+01    2.041E+01    2.031E+01    2.020E+01    2.009E+01    1.998E+01    1.988E+01    1.977E+01    1.966E+01    1.955E+01
     1.943E+01    1.932E+01    1.921E+01    1.910E+01    1.898E+01    1.887E+01    1.876E+01    1.864E+01    1.852E+01    1.841E+01
     1.829E+01    1.817E+01    1.806E+01    1.794E+01    1.782E+01    1.770E+01    1.758E+01    1.746E+01    1.734E+01    1.722E+01
     1.710E+01    1.698E+01    1.685E+01    1.673E+01    1.661E+01    1.649E+01    1.637E+01    1.624E+01    1.612E+01    1.600E+01
     1.587E+01    1.575E+01    1.563E+01    1.550E+01    1.538E+01    1.526E+01    1.514E+01    1.501E+01    1.489E+01    1.477E+01
     1.464E+01    1.452E+01    1.440E+01    1.428E+01    1.415E+01    1.403E+01    1.391E+01    1.379E+01    1.367E+01    1.355E+01
     1.343E+01    1.331E+01    1.319E+01    1.307E+01    1.295E+01    1.283E+01    1.271E+01    1.260E+01    1.248E+01    1.236E+01
     1.225E+01    1.213E+01    1.202E+01    1.190E+01    1.179E+01    1.167E+01    1.156E+01    1.145E+01    1.134E+01    1.123E+01
     1.112E+01    1.101E+01    1.090E+01    1.079E+01    1.068E+01    1.057E+01    1.047E+01    1.036E+01    1.026E+01    1.015E+01
     1.005E+01    9.946E+00    9.844E+00    9.743E+00    9.643E+00    9.543E+00    9.444E+00    9.347E+00    9.250E+00    9.154E+00
     9.058E+00    8.964E+00    8.871E+00    8.778E+00    8.687E+00    8.596E+00    8.506E+00    8.418E+00    8.330E+00    8.243E+00
     8.157E+00    8.072E+00    7.988E+00    7.905E+00    7.823E+00    7.742E+00    7.661E+00    7.582E+00    7.504E+00    7.426E+00
     7.349E+00    7.274E+00    7.199E+00    7.125E+00    7.052E+00    6.980E+00    6.908E+00    6.838E+00    6.768E+00    6.700E+00
     6.632E+00    6.565E+00    6.499E+00    6.434E+00    6.369E+00    6.306E+00    6.243E+00    6.181E+00    6.121E+00    6.060E+00
     6.001E+00    5.942E+00    5.885E+00    5.828E+00    5.772E+00    5.717E+00    5.662E+00    5.608E+00    5.555E+00    5.503E+00
     5.452E+00    5.401E+00    5.352E+00    5.303E+00    5.254E+00    5.207E+00    5.160E+00    5.114E+00    5.069E+00    5.024E+00
     4.981E+00    4.938E+00    4.895E+00    4.854E+00    4.813E+00    4.773E+00    4.734E+00    4.695E+00    4.657E+00    4.620E+00
     4.584E+00    4.548E+00    4.513E+00    4.479E+00    4.446E+00    4.413E+00    4.381E+00    4.349E+00    4.318E+00    4.288E+00
     4.259E+00    4.230E+00    4.202E+00    4.175E+00    4.148E+00    4.122E+00    4.097E+00    4.073E+00    4.049E+00    4.025E+00
     4.003E+00    3.981E+00    3.959E+00    3.939E+00    3.918E+00    3.899E+00    3.880E+00    3.862E+00    3.845E+00    3.828E+00
     3.811E+00    3.795E+00    3.780E+00    3.765E+00    3.751E+00    3.737E+00    3.724E+00    3.711E+00    3.699E+00    3.687E+00
     3.676E+00    3.665E+00    3.654E+00    3.644E+00    3.634E+00    3.624E+00    3.615E+00    3.606E+00    3.597E+00    3.589E+00
     3.581E+00    3.573E+00    3.566E+00    3.558E+00    3.551E+00    3.544E+00    3.538E+00    3.531E+00    3.525E+00    3.519E+00
     3.513E+00    3.507E+00    3.501E+00    3.495E+00    3.489E+00    3.484E+00    3.478E+00    3.473E+00    3.467E+00    3.462E+00
     3.456E+00    3.451E+00    3.445E+00    3.440E+00    3.434E+00    3.429E+00    3.423E+00    3.417E+00    3.412E+00    3.406E+00
     3.400E+00    3.394E+00    3.389E+00    3.383E+00    3.377E+00    3.371E+00    3.365E+00    3.359E+00    3.353E+00    3.346E+00
     3.340E+00    3.334E+00    3.327E+00    3.321E+00    3.315E+00    3.308E+00    3.301E+00    3.295E+00    3.288E+00    3.281E+00
     3.274E+00    3.267E+00    3.260E+00    3.253E+00    3.246E+00    3.239E+00    3.231E+00    3.224E+00    3.216E+00    3.209E+00
     3.201E+00    3.193E+00    3.185E+00    3.177E+00    3.169E+00    3.161E+00    3.153E+00    3.144E+00    3.136E+00    3.128E+00
     3.119E+00    3.110E+00    3.101E+00    3.093E+00    3.084E+00    3.075E+00    3.065E+00    3.056E+00    3.047E+00    3.038E+00
     3.028E+00    3.019E+00    3.009E+00    3.000E+00    2.990E+00    2.981E+00    2.971E+00    2.961E+00    2.951E+00    2.941E+00
     2.932E+00    2.922E+00    2.912E+00    2.902E+00    2.892E+00    2.882E+00    2.871E+00    2.861E+00    2.851E+00    2.841E+00
     2.831E+00    2.821E+00    2.810E+00    2.800E+00    2.790E+00    2.779E+00    2.769E+00    2.759E+00    2.749E+00    2.738E+00
     2.728E+00    2.718E+00    2.707E+00    2.697E+00    2.687E+00    2.676E+00    2.666E+00    2.655E+00    2.645E+00    2.635E+00
     2.624E+00    2.614E+00    2.603E+00    2.593E+00    2.582E+00    2.572E+00    2.561E+00    2.551E+00    2.540E+00    2.529E+00
     2.519E+00    2.508E+00    2.497E+00    2.486E+00    2.476E+00    2.465E+00    2.454E+00    2.443E+00    2.432E+00    2.421E+00
     2.410E+00    2.398E+00    2.387E+00    2.376E+00    2.365E+00    2.353E+00    2.342E+00    2.330E+00    2.319E+00    2.307E+00
     2.296E+00    2.284E+00    2.272E+00    2.260E+00    2.248E+00    2.236E+00    2.224E+00    2.212E+00    2.200E+00    2.188E+00
     2.175E+00    2.163E+00    2.151E+00    2.138E+00    2.126E+00    2.113E+00    2.101E+00    2.088E+00    2.075E+00    2.062E+00
     2.050E+00    2.037E+00    2.024E+00    2.011E+00    1.998E+00    1.985E+00    1.972E+00    1.959E+00    1.946E+00    1.933E+00
     1.920E+00    1.907E+00    1.894E+00    1.881E+00    1.868E+00    1.855E+00    1.842E+00    1.828E+00    1.815E+00    1.802E+00
     1.789E+00    1.776E+00    1.763E+00    1.749E+00    1.736E+00    1.723E+00    1.710E+00    1.697E+00    1.684E+00    1.670E+00
     1.657E+00    1.644E+00    1.631E+00    1.618E+00    1.605E+00    1.592E+00    1.579E+00    1.565E+00    1.552E+00    1.539E+00
     1.526E+00    1.513E+00    1.500E+00    1.487E+00    1.474E+00    1.461E+00    1.448E+00    1.435E+00    1.422E+00    1.409E+00
     1.396E+00    1.382E+00    1.369E+00    1.356E+00    1.343E+00    1.330E+00    1.317E+00    1.304E+00    1.291E+00    1.278E+00
     1.265E+00    1.252E+00    1.238E+00    1.225E+00    1.212E+00    1.199E+00    1.186E+00    1.173E+00    1.159E+00    1.146E+00
     1.133E+00    1.120E+00    1.107E+00    1.093E+00    1.080E+00    1.067E+00    1.054E+00    1.041E+00
 Asp      Conc. = 2.54E+00
