 LCModel (Version 6.3-1L) Copyright: S.W. Provencher.          Ref.: Magn. Reson. Med. 30:672-679 (1993).                
 Slice#2 Row#6 Col#14  PD_05_press_1_raw_act
 36 lines in following concentration table = NCONC+1
    Conc.  %SD /Cr+PCr  Metabolite                                         
    0.000 999%   0.000 Ala                                                 
   12.010  49%   0.000 Asp                                                 
    0.000 999%   0.000 Cr                                                  
    0.000 999%   0.000 PCr                                                 
    7.069  50%   0.000 GABA                                                
    7.191  49%   0.000 Glc                                                 
  224.500  63%   0.000 Gln                                                 
    0.000 999%   0.000 Glu                                                 
   39.613  36%   0.000 GPC                                                 
    0.000 999%   0.000 PCh                                                 
    0.000 999%   0.000 GSH                                                 
  596.192  25%   0.000 Ins                                                 
   34.439 190%   0.000 Lac                                                 
   49.059  95%   0.000 NAA                                                 
   68.559  71%   0.000 NAAG                                                
    2.515  47%   0.000 Scyllo                                              
   12.153  48%   0.000 Tau                                                 
 2.36E-02 999%   0.000 -CrCH2                                              
   39.613  36%   0.000 GPC+PCh                                             
  117.618  55%   0.000 NAA+NAAG                                            
    0.000 999%   0.000 Cr+PCr                                              
  224.500  63%   0.000 Glu+Gln                                             
    0.000 999%   0.000 Lip13a                                              
    0.000 999%   0.000 Lip13b                                              
    0.000 999%   0.000 Lip09                                               
  200.580  34%   0.000 MM09                                                
   10.645 317%   0.000 Lip20                                               
  696.004  25%   0.000 MM20                                                
    0.000 999%   0.000 MM12                                                
  377.262  15%   0.000 MM14                                                
  536.415  10%   0.000 MM17                                                
    0.000 999%   0.000 Lip13a+Lip13b                                       
  377.262  15%   0.000 MM14+Lip13a+Lip13b+MM12                             
  200.580  29%   0.000 MM09+Lip09                                          
  706.649  24%   0.000 MM20+Lip20                                          
   6 lines in following misc. output table
  FWHM = 0.199 ppm    S/N =   3                                            
  Data shift = 0.321 ppm                                                   
  Ph: -69 deg     -89.0 deg/ppm                                            
  alphaB,S = 1.1E+00,   6.6E+00                                            
    9 spline knots.   Ns = 9(2)                                            
  (15)15 infls.   (15) 9 extrs.                                            
  498 points on ppm-axis = NY
      4.000000     3.992357     3.984714     3.977070     3.969427     3.961784     3.954141     3.946497     3.938854     3.931211
      3.923568     3.915925     3.908281     3.900638     3.892995     3.885352     3.877708     3.870065     3.862422     3.854779
      3.847136     3.839492     3.831849     3.824206     3.816563     3.808919     3.801276     3.793633     3.785990     3.778347
      3.770703     3.763060     3.755417     3.747774     3.740130     3.732487     3.724844     3.717201     3.709558     3.701914
      3.694271     3.686628     3.678985     3.671341     3.663698     3.656055     3.648412     3.640769     3.633125     3.625482
      3.617839     3.610196     3.602552     3.594909     3.587266     3.579623     3.571980     3.564336     3.556693     3.549050
      3.541407     3.533763     3.526120     3.518477     3.510834     3.503191     3.495547     3.487904     3.480261     3.472618
      3.464974     3.457331     3.449688     3.442045     3.434402     3.426758     3.419115     3.411472     3.403829     3.396185
      3.388542     3.380899     3.373256     3.365613     3.357969     3.350326     3.342683     3.335040     3.327396     3.319753
      3.312110     3.304467     3.296824     3.289180     3.281537     3.273894     3.266251     3.258607     3.250964     3.243321
      3.235678     3.228034     3.220391     3.212748     3.205105     3.197462     3.189818     3.182175     3.174532     3.166889
      3.159245     3.151602     3.143959     3.136316     3.128673     3.121029     3.113386     3.105743     3.098100     3.090456
      3.082813     3.075170     3.067527     3.059884     3.052240     3.044597     3.036954     3.029311     3.021667     3.014024
      3.006381     2.998738     2.991095     2.983451     2.975808     2.968165     2.960522     2.952878     2.945235     2.937592
      2.929949     2.922306     2.914662     2.907019     2.899376     2.891733     2.884089     2.876446     2.868803     2.861160
      2.853517     2.845873     2.838230     2.830587     2.822944     2.815300     2.807657     2.800014     2.792371     2.784728
      2.777084     2.769441     2.761798     2.754155     2.746511     2.738868     2.731225     2.723582     2.715939     2.708295
      2.700652     2.693009     2.685366     2.677722     2.670079     2.662436     2.654793     2.647150     2.639506     2.631863
      2.624220     2.616577     2.608933     2.601290     2.593647     2.586004     2.578361     2.570717     2.563074     2.555431
      2.547788     2.540144     2.532501     2.524858     2.517215     2.509572     2.501928     2.494285     2.486642     2.478999
      2.471355     2.463712     2.456069     2.448426     2.440783     2.433139     2.425496     2.417853     2.410210     2.402566
      2.394923     2.387280     2.379637     2.371994     2.364350     2.356707     2.349064     2.341421     2.333777     2.326134
      2.318491     2.310848     2.303205     2.295561     2.287918     2.280275     2.272632     2.264988     2.257345     2.249702
      2.242059     2.234416     2.226772     2.219129     2.211486     2.203843     2.196199     2.188556     2.180913     2.173270
      2.165627     2.157983     2.150340     2.142697     2.135054     2.127410     2.119767     2.112124     2.104481     2.096838
      2.089194     2.081551     2.073908     2.066265     2.058621     2.050978     2.043335     2.035692     2.028049     2.020405
      2.012762     2.005119     1.997476     1.989833     1.982190     1.974546     1.966903     1.959260     1.951617     1.943974
      1.936331     1.928688     1.921045     1.913402     1.905759     1.898115     1.890472     1.882829     1.875186     1.867543
      1.859900     1.852257     1.844614     1.836971     1.829327     1.821684     1.814041     1.806398     1.798755     1.791112
      1.783469     1.775826     1.768183     1.760540     1.752896     1.745253     1.737610     1.729967     1.722324     1.714681
      1.707038     1.699395     1.691752     1.684108     1.676465     1.668822     1.661179     1.653536     1.645893     1.638250
      1.630607     1.622964     1.615321     1.607677     1.600034     1.592391     1.584748     1.577105     1.569462     1.561819
      1.554176     1.546533     1.538890     1.531246     1.523603     1.515960     1.508317     1.500674     1.493031     1.485388
      1.477745     1.470102     1.462458     1.454815     1.447172     1.439529     1.431886     1.424243     1.416600     1.408957
      1.401314     1.393671     1.386027     1.378384     1.370741     1.363098     1.355455     1.347812     1.340169     1.332526
      1.324883     1.317240     1.309596     1.301953     1.294310     1.286667     1.279024     1.271381     1.263738     1.256095
      1.248452     1.240808     1.233165     1.225522     1.217879     1.210236     1.202593     1.194950     1.187307     1.179664
      1.172021     1.164377     1.156734     1.149091     1.141448     1.133805     1.126162     1.118519     1.110876     1.103233
      1.095590     1.087946     1.080303     1.072660     1.065017     1.057374     1.049731     1.042088     1.034445     1.026802
      1.019158     1.011515     1.003872     0.996229     0.988586     0.980943     0.973300     0.965657     0.958014     0.950371
      0.942727     0.935084     0.927441     0.919798     0.912155     0.904512     0.896869     0.889226     0.881583     0.873940
      0.866296     0.858653     0.851010     0.843367     0.835724     0.828081     0.820438     0.812795     0.805152     0.797508
      0.789865     0.782222     0.774579     0.766936     0.759293     0.751650     0.744007     0.736364     0.728721     0.721077
      0.713434     0.705791     0.698148     0.690505     0.682862     0.675219     0.667576     0.659933     0.652290     0.644646
      0.637003     0.629360     0.621717     0.614074     0.606431     0.598788     0.591145     0.583502     0.575858     0.568215
      0.560572     0.552929     0.545286     0.537643     0.530000     0.522357     0.514714     0.507071     0.499427     0.491784
      0.484141     0.476498     0.468855     0.461212     0.453569     0.445925     0.438282     0.430639     0.422996     0.415353
      0.407710     0.400067     0.392424     0.384780     0.377137     0.369494     0.361851     0.354208     0.346565     0.338922
      0.331278     0.323635     0.315992     0.308349     0.300706     0.293063     0.285420     0.277777     0.270133     0.262490
      0.254847     0.247204     0.239561     0.231918     0.224275     0.216631     0.208988     0.201345
 NY phased data points follow
   8.67302E+00  7.69910E+00  7.73253E+00  5.60346E+00  7.37795E+00  6.58445E+00  7.41831E+00  7.54897E+00  7.08071E+00  5.61934E+00
   6.51340E+00  7.09504E+00  6.22448E+00  5.51387E+00  6.49061E+00  7.51266E+00  5.12956E+00  6.32046E+00  5.91771E+00  6.89530E+00
   6.18459E+00  5.42864E+00  5.34318E+00  5.15385E+00  5.49595E+00  6.24364E+00  5.28201E+00  5.78081E+00  6.28705E+00  6.75345E+00
   6.01802E+00  5.12696E+00  6.29577E+00  7.03342E+00  5.54480E+00  5.14422E+00  4.13832E+00  5.58674E+00  6.56326E+00  4.52094E+00
   4.63628E+00  5.06411E+00  3.96251E+00  5.09153E+00  4.28977E+00  5.66629E+00  3.94210E+00  4.86170E+00  4.15790E+00  5.53686E+00
   5.09029E+00  4.20045E+00  4.95841E+00  4.04085E+00  5.13260E+00  3.74145E+00  4.66456E+00  2.41606E+00  4.22023E+00  3.01033E+00
   2.17341E+00  2.35502E+00  3.89565E+00  4.72932E+00  4.57707E+00  2.12649E+00  2.91827E+00  2.70433E+00  1.71672E+00  3.02843E+00
   2.24272E+00  2.16565E+00  1.64045E+00  3.01141E+00  1.96024E+00  2.95833E+00  1.97946E+00  2.59782E+00  3.13369E+00  2.41793E+00
   2.26018E+00  1.61815E+00  2.29943E+00  7.76429E-01  6.71127E-01  2.15852E+00  2.46241E+00  4.93218E-01  2.07351E+00  1.42244E-01
   1.56224E-01  9.06588E-01  1.96624E+00  4.97137E-02 -3.18730E-02 -1.98645E+00 -3.91909E-01  2.68409E-01 -7.83301E-01  1.11637E+00
  -1.38903E+00 -1.19752E+00 -8.84078E-01 -1.21359E+00 -5.22636E-01 -1.51410E-01 -2.07481E+00 -3.26656E-01 -3.00528E-02 -2.51673E+00
  -2.45625E+00 -2.49160E+00 -9.91660E-01 -2.09078E+00 -2.48755E+00 -3.19248E+00 -2.27545E+00 -2.86764E+00 -1.73911E+00 -2.57292E+00
  -1.36689E+00 -2.90309E+00 -3.42495E+00 -3.25949E+00 -4.09972E+00 -2.83563E+00 -5.41254E+00 -3.29413E+00 -3.83761E+00 -3.64336E+00
  -3.96814E+00 -5.08405E+00 -3.06974E+00 -2.73474E+00 -3.63996E+00 -4.27392E+00 -3.35643E+00 -5.70800E+00 -4.49524E+00 -5.32559E+00
  -3.71459E+00 -4.45869E+00 -5.32727E+00 -4.63186E+00 -5.71321E+00 -5.86403E+00 -4.53277E+00 -6.02130E+00 -6.27536E+00 -4.79617E+00
  -5.23685E+00 -6.52817E+00 -6.25537E+00 -6.69467E+00 -5.33254E+00 -6.12855E+00 -7.63282E+00 -5.89800E+00 -8.68267E+00 -7.66266E+00
  -7.43066E+00 -8.08528E+00 -8.66523E+00 -7.45418E+00 -7.89397E+00 -8.74121E+00 -8.40261E+00 -8.10290E+00 -8.85385E+00 -7.93373E+00
  -8.72261E+00 -8.50682E+00 -8.10108E+00 -8.61930E+00 -9.72422E+00 -9.82037E+00 -1.02900E+01 -9.75732E+00 -9.01677E+00 -8.78352E+00
  -9.33832E+00 -1.04580E+01 -1.04369E+01 -1.05885E+01 -9.51688E+00 -1.12895E+01 -1.06336E+01 -1.14655E+01 -1.01087E+01 -1.15088E+01
  -1.12345E+01 -1.10877E+01 -1.19778E+01 -1.13877E+01 -1.18649E+01 -1.26553E+01 -1.02541E+01 -1.39603E+01 -1.20352E+01 -1.39451E+01
  -1.43122E+01 -1.22000E+01 -1.33928E+01 -1.40657E+01 -1.35192E+01 -1.30799E+01 -1.38070E+01 -1.38985E+01 -1.41796E+01 -1.39065E+01
  -1.47734E+01 -1.45766E+01 -1.44449E+01 -1.53839E+01 -1.58009E+01 -1.47043E+01 -1.54641E+01 -1.47011E+01 -1.48101E+01 -1.43311E+01
  -1.51316E+01 -1.52657E+01 -1.68555E+01 -1.52793E+01 -1.68809E+01 -1.52457E+01 -1.73933E+01 -1.77118E+01 -1.85350E+01 -1.86274E+01
  -2.00150E+01 -1.88522E+01 -1.71119E+01 -1.82444E+01 -1.97815E+01 -1.90608E+01 -1.86586E+01 -1.92840E+01 -1.91477E+01 -1.88101E+01
  -2.00855E+01 -1.94236E+01 -1.94113E+01 -1.91165E+01 -2.01988E+01 -2.06676E+01 -2.00452E+01 -2.08952E+01 -2.17382E+01 -2.16164E+01
  -2.15659E+01 -2.27200E+01 -2.30527E+01 -2.31877E+01 -2.38286E+01 -2.19966E+01 -2.26797E+01 -2.46529E+01 -2.45938E+01 -2.28281E+01
  -2.68329E+01 -2.46705E+01 -2.65975E+01 -2.60075E+01 -2.74247E+01 -2.78379E+01 -2.77229E+01 -2.94223E+01 -2.91689E+01 -2.90288E+01
  -3.01872E+01 -2.91554E+01 -3.28565E+01 -3.16143E+01 -3.14145E+01 -3.10347E+01 -3.25423E+01 -3.33087E+01 -3.34844E+01 -3.45057E+01
  -3.40824E+01 -3.42433E+01 -3.38250E+01 -3.47937E+01 -3.58135E+01 -3.62646E+01 -3.70730E+01 -3.89348E+01 -3.81515E+01 -3.76678E+01
  -3.73243E+01 -3.89074E+01 -3.94139E+01 -3.84068E+01 -3.80386E+01 -3.81161E+01 -3.82898E+01 -3.78591E+01 -3.70008E+01 -3.78647E+01
  -3.64965E+01 -3.61676E+01 -3.66920E+01 -3.87031E+01 -3.77182E+01 -3.73448E+01 -3.79680E+01 -3.85650E+01 -3.87616E+01 -3.77046E+01
  -3.81371E+01 -3.93180E+01 -3.82508E+01 -3.90156E+01 -3.83663E+01 -3.93714E+01 -3.88062E+01 -4.01948E+01 -4.05496E+01 -4.23490E+01
  -4.10935E+01 -4.36384E+01 -4.10282E+01 -4.31764E+01 -4.28837E+01 -4.24936E+01 -4.26679E+01 -4.20043E+01 -4.06060E+01 -4.12001E+01
  -4.30751E+01 -4.34192E+01 -4.22134E+01 -4.46750E+01 -4.39078E+01 -4.56959E+01 -4.40825E+01 -4.30627E+01 -4.40833E+01 -4.51179E+01
  -4.67503E+01 -4.74630E+01 -4.64919E+01 -4.65866E+01 -4.64665E+01 -4.67021E+01 -4.66333E+01 -4.76684E+01 -4.85446E+01 -4.57740E+01
  -4.59370E+01 -4.75383E+01 -4.75996E+01 -4.62240E+01 -4.90385E+01 -4.78707E+01 -4.69433E+01 -4.58076E+01 -4.45363E+01 -4.63820E+01
  -4.65256E+01 -4.38458E+01 -4.36038E+01 -4.39590E+01 -4.48639E+01 -4.44372E+01 -4.21174E+01 -4.30256E+01 -4.24608E+01 -4.27353E+01
  -4.30000E+01 -4.15270E+01 -4.13027E+01 -4.19917E+01 -4.15278E+01 -3.92818E+01 -4.17660E+01 -4.00125E+01 -4.04745E+01 -3.91396E+01
  -4.06130E+01 -4.15531E+01 -3.86520E+01 -4.03283E+01 -3.97722E+01 -3.85520E+01 -3.81205E+01 -3.67520E+01 -3.83970E+01 -3.72125E+01
  -3.79204E+01 -3.72687E+01 -3.65820E+01 -3.68849E+01 -3.47064E+01 -3.69748E+01 -3.49706E+01 -3.54263E+01 -3.54962E+01 -3.47841E+01
  -3.49475E+01 -3.53366E+01 -3.28817E+01 -3.49704E+01 -3.32178E+01 -3.43385E+01 -3.25306E+01 -3.26841E+01 -3.27728E+01 -3.28491E+01
  -3.26475E+01 -3.30147E+01 -3.18453E+01 -3.13692E+01 -3.23247E+01 -2.96811E+01 -3.01871E+01 -3.12752E+01 -2.96226E+01 -2.87831E+01
  -2.91023E+01 -2.88079E+01 -2.98592E+01 -3.06217E+01 -2.84006E+01 -2.79230E+01 -2.85194E+01 -2.82345E+01 -2.72219E+01 -2.62671E+01
  -2.77561E+01 -2.73525E+01 -2.70951E+01 -2.68173E+01 -2.66204E+01 -2.66296E+01 -2.50538E+01 -2.56283E+01 -2.48773E+01 -2.50266E+01
  -2.38522E+01 -2.46780E+01 -2.62161E+01 -2.28656E+01 -2.36639E+01 -2.25187E+01 -2.33706E+01 -2.21817E+01 -2.30635E+01 -2.22204E+01
  -2.29339E+01 -2.18110E+01 -2.11243E+01 -2.03549E+01 -2.00766E+01 -2.10129E+01 -2.00208E+01 -2.12848E+01 -2.09740E+01 -1.98115E+01
  -2.09242E+01 -2.13171E+01 -2.05512E+01 -1.97627E+01 -1.98746E+01 -1.92230E+01 -1.87746E+01 -1.76430E+01 -1.82047E+01 -1.66385E+01
  -1.77403E+01 -1.82002E+01 -1.75675E+01 -1.70754E+01 -1.73284E+01 -1.61671E+01 -1.55390E+01 -1.59398E+01 -1.63575E+01 -1.52743E+01
  -1.57188E+01 -1.34025E+01 -1.39179E+01 -1.57188E+01 -1.57819E+01 -1.50241E+01 -1.35705E+01 -1.47724E+01 -1.51002E+01 -1.36269E+01
  -1.41115E+01 -1.45423E+01 -1.48313E+01 -1.48215E+01 -1.35428E+01 -1.15188E+01 -1.27912E+01 -1.03423E+01
 NY points of the fit to the data follow
   8.02617E+00  7.66582E+00  7.47577E+00  7.33731E+00  7.13410E+00  6.81364E+00  6.96311E+00  7.10741E+00  6.78419E+00  6.72859E+00
   6.69451E+00  6.64800E+00  6.49239E+00  6.39723E+00  6.55667E+00  6.40214E+00  6.22185E+00  6.05900E+00  6.07471E+00  5.98428E+00
   5.96807E+00  5.93054E+00  5.84507E+00  5.63619E+00  5.41125E+00  5.40716E+00  5.35154E+00  5.35607E+00  5.46375E+00  5.88403E+00
   6.19795E+00  6.28370E+00  6.23582E+00  6.00835E+00  5.85241E+00  5.45822E+00  5.19911E+00  5.35255E+00  5.75267E+00  5.34491E+00
   4.68285E+00  4.80731E+00  5.09116E+00  5.20395E+00  5.08358E+00  4.82273E+00  4.67213E+00  4.58202E+00  4.76039E+00  5.11894E+00
   5.46308E+00  5.19551E+00  4.92187E+00  4.61191E+00  4.52378E+00  4.09728E+00  3.84203E+00  3.52650E+00  3.39456E+00  2.99776E+00
   2.76784E+00  3.18662E+00  3.99469E+00  4.05031E+00  3.88699E+00  3.52444E+00  3.40267E+00  2.86594E+00  2.49638E+00  2.02056E+00
   1.87567E+00  1.53606E+00  1.49338E+00  1.44736E+00  1.72441E+00  1.76483E+00  1.92749E+00  1.63465E+00  1.63678E+00  1.33893E+00
   1.11986E+00  8.50134E-01  6.66553E-01  6.32944E-01  1.15296E+00  1.35102E+00  1.32407E+00  1.22609E+00  8.90719E-01  5.02966E-01
   1.66009E-01 -3.07541E-03  3.22694E-01  2.39612E-01 -4.56480E-01 -5.66085E-01 -1.50594E-01 -4.02323E-02 -7.82448E-02 -3.96544E-02
  -4.14214E-01 -5.83986E-01 -6.13606E-01 -6.12846E-01 -4.21062E-01 -3.97311E-01 -8.35385E-01 -8.61028E-01 -9.33910E-01 -9.98907E-01
  -1.39002E+00 -1.54095E+00 -1.68631E+00 -1.89108E+00 -2.42896E+00 -2.54357E+00 -2.05736E+00 -1.94812E+00 -2.08584E+00 -2.12245E+00
  -2.24117E+00 -2.34636E+00 -2.68490E+00 -2.84046E+00 -2.91997E+00 -3.01249E+00 -3.08627E+00 -3.16481E+00 -3.23867E+00 -3.32396E+00
  -3.40912E+00 -3.50486E+00 -3.60700E+00 -3.71493E+00 -3.82854E+00 -3.94032E+00 -4.06712E+00 -4.19985E+00 -4.32025E+00 -4.44307E+00
  -4.54956E+00 -4.66355E+00 -4.79889E+00 -4.93871E+00 -5.08414E+00 -5.21677E+00 -5.33494E+00 -5.45597E+00 -5.59586E+00 -5.72463E+00
  -5.87995E+00 -6.03475E+00 -6.17207E+00 -6.28444E+00 -6.41161E+00 -6.54165E+00 -6.69297E+00 -6.84775E+00 -6.98544E+00 -7.10668E+00
  -7.24239E+00 -7.36002E+00 -7.48901E+00 -7.64253E+00 -7.79571E+00 -7.94005E+00 -8.06340E+00 -8.16953E+00 -8.28532E+00 -8.43080E+00
  -8.57595E+00 -8.71855E+00 -8.84677E+00 -8.95161E+00 -9.04113E+00 -9.20894E+00 -9.42625E+00 -9.59879E+00 -9.81447E+00 -9.93685E+00
  -1.01167E+01 -1.02272E+01 -1.03431E+01 -1.03971E+01 -1.04930E+01 -1.05532E+01 -1.06743E+01 -1.07348E+01 -1.09299E+01 -1.11312E+01
  -1.14467E+01 -1.17293E+01 -1.21656E+01 -1.22265E+01 -1.24193E+01 -1.23968E+01 -1.26249E+01 -1.26761E+01 -1.28911E+01 -1.30821E+01
  -1.34381E+01 -1.32617E+01 -1.32579E+01 -1.34336E+01 -1.37049E+01 -1.37216E+01 -1.39000E+01 -1.39218E+01 -1.41461E+01 -1.44390E+01
  -1.49149E+01 -1.51578E+01 -1.55924E+01 -1.56461E+01 -1.57988E+01 -1.58314E+01 -1.59486E+01 -1.60026E+01 -1.61686E+01 -1.61833E+01
  -1.63767E+01 -1.63693E+01 -1.64869E+01 -1.67279E+01 -1.72498E+01 -1.75225E+01 -1.78674E+01 -1.80137E+01 -1.81980E+01 -1.83438E+01
  -1.85054E+01 -1.86673E+01 -1.89780E+01 -1.91566E+01 -1.92053E+01 -1.92985E+01 -1.95444E+01 -1.95656E+01 -1.94207E+01 -1.95658E+01
  -1.96040E+01 -1.96953E+01 -1.96110E+01 -1.96907E+01 -2.00524E+01 -2.03253E+01 -2.03676E+01 -2.07762E+01 -2.14368E+01 -2.18942E+01
  -2.18598E+01 -2.20752E+01 -2.25607E+01 -2.29649E+01 -2.30870E+01 -2.31801E+01 -2.33542E+01 -2.36703E+01 -2.38803E+01 -2.45259E+01
  -2.50113E+01 -2.55403E+01 -2.57848E+01 -2.63300E+01 -2.70836E+01 -2.75615E+01 -2.80116E+01 -2.85346E+01 -2.93612E+01 -2.97149E+01
  -2.98573E+01 -3.03024E+01 -3.08930E+01 -3.14058E+01 -3.15515E+01 -3.19496E+01 -3.24824E+01 -3.28957E+01 -3.33091E+01 -3.37056E+01
  -3.41952E+01 -3.46103E+01 -3.49686E+01 -3.53285E+01 -3.56713E+01 -3.59956E+01 -3.62934E+01 -3.65882E+01 -3.68496E+01 -3.70941E+01
  -3.73102E+01 -3.75128E+01 -3.76762E+01 -3.78120E+01 -3.79017E+01 -3.79678E+01 -3.79926E+01 -3.79832E+01 -3.79452E+01 -3.78912E+01
  -3.78205E+01 -3.77498E+01 -3.76759E+01 -3.76190E+01 -3.75880E+01 -3.75882E+01 -3.76207E+01 -3.76989E+01 -3.78245E+01 -3.79996E+01
  -3.82181E+01 -3.84773E+01 -3.87745E+01 -3.90988E+01 -3.94369E+01 -3.97819E+01 -4.01237E+01 -4.04552E+01 -4.07691E+01 -4.10606E+01
  -4.13288E+01 -4.15725E+01 -4.17928E+01 -4.19926E+01 -4.21755E+01 -4.23453E+01 -4.25053E+01 -4.26562E+01 -4.27895E+01 -4.28957E+01
  -4.31272E+01 -4.33785E+01 -4.36174E+01 -4.38713E+01 -4.41151E+01 -4.43795E+01 -4.45793E+01 -4.46385E+01 -4.48484E+01 -4.50686E+01
  -4.51907E+01 -4.52616E+01 -4.54008E+01 -4.55419E+01 -4.56598E+01 -4.56623E+01 -4.56615E+01 -4.57059E+01 -4.57348E+01 -4.56590E+01
  -4.56721E+01 -4.56650E+01 -4.56205E+01 -4.55888E+01 -4.55546E+01 -4.54822E+01 -4.53603E+01 -4.51380E+01 -4.49890E+01 -4.48630E+01
  -4.46627E+01 -4.43882E+01 -4.42451E+01 -4.41405E+01 -4.40049E+01 -4.38473E+01 -4.36974E+01 -4.36246E+01 -4.34595E+01 -4.31911E+01
  -4.29601E+01 -4.27266E+01 -4.25026E+01 -4.22611E+01 -4.20293E+01 -4.18207E+01 -4.15938E+01 -4.13546E+01 -4.11067E+01 -4.08509E+01
  -4.05875E+01 -4.03167E+01 -4.00386E+01 -3.97530E+01 -3.94603E+01 -3.91606E+01 -3.88542E+01 -3.85416E+01 -3.82234E+01 -3.79005E+01
  -3.75738E+01 -3.72446E+01 -3.69141E+01 -3.65838E+01 -3.62553E+01 -3.59302E+01 -3.56100E+01 -3.52961E+01 -3.49899E+01 -3.46925E+01
  -3.44048E+01 -3.41272E+01 -3.38601E+01 -3.36032E+01 -3.33562E+01 -3.31184E+01 -3.28888E+01 -3.26663E+01 -3.24496E+01 -3.22374E+01
  -3.20284E+01 -3.18212E+01 -3.16146E+01 -3.14077E+01 -3.11995E+01 -3.09894E+01 -3.07767E+01 -3.05610E+01 -3.03420E+01 -3.01197E+01
  -2.98939E+01 -2.96647E+01 -2.94325E+01 -2.91973E+01 -2.89595E+01 -2.87193E+01 -2.84771E+01 -2.82331E+01 -2.79876E+01 -2.77408E+01
  -2.74931E+01 -2.72445E+01 -2.69954E+01 -2.67458E+01 -2.64960E+01 -2.62461E+01 -2.59961E+01 -2.57462E+01 -2.54965E+01 -2.52470E+01
  -2.49979E+01 -2.47491E+01 -2.45008E+01 -2.42529E+01 -2.40055E+01 -2.37588E+01 -2.35125E+01 -2.32669E+01 -2.30220E+01 -2.27777E+01
  -2.25341E+01 -2.22912E+01 -2.20490E+01 -2.18075E+01 -2.15668E+01 -2.13268E+01 -2.10876E+01 -2.08493E+01 -2.06117E+01 -2.03749E+01
  -2.01389E+01 -1.99037E+01 -1.96694E+01 -1.94360E+01 -1.92034E+01 -1.89716E+01 -1.87407E+01 -1.85107E+01 -1.82815E+01 -1.80532E+01
  -1.78259E+01 -1.75994E+01 -1.73738E+01 -1.71491E+01 -1.69253E+01 -1.67025E+01 -1.64805E+01 -1.62595E+01 -1.60394E+01 -1.58203E+01
  -1.56021E+01 -1.53848E+01 -1.51685E+01 -1.49531E+01 -1.47387E+01 -1.45253E+01 -1.43128E+01 -1.41013E+01 -1.38907E+01 -1.36811E+01
  -1.34725E+01 -1.32649E+01 -1.30582E+01 -1.28525E+01 -1.26478E+01 -1.24440E+01 -1.22412E+01 -1.20393E+01
 NY background values follow
     6.474E+00    6.408E+00    6.341E+00    6.274E+00    6.207E+00    6.139E+00    6.071E+00    6.003E+00    5.934E+00    5.865E+00
     5.795E+00    5.725E+00    5.655E+00    5.585E+00    5.514E+00    5.443E+00    5.371E+00    5.299E+00    5.227E+00    5.155E+00
     5.082E+00    5.009E+00    4.936E+00    4.862E+00    4.788E+00    4.714E+00    4.640E+00    4.565E+00    4.490E+00    4.415E+00
     4.339E+00    4.264E+00    4.188E+00    4.111E+00    4.035E+00    3.958E+00    3.882E+00    3.804E+00    3.727E+00    3.650E+00
     3.572E+00    3.494E+00    3.416E+00    3.338E+00    3.259E+00    3.181E+00    3.102E+00    3.023E+00    2.944E+00    2.865E+00
     2.785E+00    2.706E+00    2.626E+00    2.546E+00    2.466E+00    2.386E+00    2.306E+00    2.225E+00    2.145E+00    2.064E+00
     1.984E+00    1.903E+00    1.822E+00    1.741E+00    1.660E+00    1.579E+00    1.498E+00    1.417E+00    1.335E+00    1.254E+00
     1.173E+00    1.091E+00    1.010E+00    9.282E-01    8.466E-01    7.650E-01    6.835E-01    6.018E-01    5.202E-01    4.386E-01
     3.570E-01    2.753E-01    1.937E-01    1.121E-01    3.051E-02   -5.108E-02   -1.327E-01   -2.143E-01   -2.960E-01   -3.777E-01
    -4.595E-01   -5.414E-01   -6.234E-01   -7.055E-01   -7.877E-01   -8.701E-01   -9.527E-01   -1.035E+00   -1.118E+00   -1.201E+00
    -1.285E+00   -1.368E+00   -1.452E+00   -1.536E+00   -1.620E+00   -1.705E+00   -1.790E+00   -1.875E+00   -1.961E+00   -2.047E+00
    -2.133E+00   -2.219E+00   -2.306E+00   -2.394E+00   -2.482E+00   -2.570E+00   -2.659E+00   -2.748E+00   -2.838E+00   -2.928E+00
    -3.018E+00   -3.110E+00   -3.201E+00   -3.294E+00   -3.386E+00   -3.480E+00   -3.574E+00   -3.668E+00   -3.764E+00   -3.859E+00
    -3.956E+00   -4.053E+00   -4.151E+00   -4.249E+00   -4.349E+00   -4.449E+00   -4.549E+00   -4.651E+00   -4.753E+00   -4.856E+00
    -4.960E+00   -5.064E+00   -5.170E+00   -5.276E+00   -5.383E+00   -5.491E+00   -5.600E+00   -5.710E+00   -5.820E+00   -5.932E+00
    -6.044E+00   -6.158E+00   -6.272E+00   -6.388E+00   -6.504E+00   -6.622E+00   -6.740E+00   -6.859E+00   -6.980E+00   -7.102E+00
    -7.224E+00   -7.348E+00   -7.473E+00   -7.599E+00   -7.726E+00   -7.854E+00   -7.984E+00   -8.115E+00   -8.246E+00   -8.380E+00
    -8.514E+00   -8.650E+00   -8.786E+00   -8.925E+00   -9.064E+00   -9.205E+00   -9.347E+00   -9.491E+00   -9.636E+00   -9.783E+00
    -9.931E+00   -1.008E+01   -1.023E+01   -1.038E+01   -1.054E+01   -1.069E+01   -1.085E+01   -1.101E+01   -1.117E+01   -1.133E+01
    -1.150E+01   -1.166E+01   -1.183E+01   -1.200E+01   -1.217E+01   -1.234E+01   -1.252E+01   -1.269E+01   -1.287E+01   -1.305E+01
    -1.323E+01   -1.342E+01   -1.360E+01   -1.379E+01   -1.398E+01   -1.417E+01   -1.436E+01   -1.456E+01   -1.476E+01   -1.496E+01
    -1.516E+01   -1.536E+01   -1.557E+01   -1.578E+01   -1.599E+01   -1.620E+01   -1.642E+01   -1.663E+01   -1.685E+01   -1.707E+01
    -1.730E+01   -1.753E+01   -1.775E+01   -1.799E+01   -1.822E+01   -1.846E+01   -1.869E+01   -1.894E+01   -1.918E+01   -1.942E+01
    -1.967E+01   -1.992E+01   -2.018E+01   -2.043E+01   -2.069E+01   -2.095E+01   -2.122E+01   -2.149E+01   -2.176E+01   -2.203E+01
    -2.230E+01   -2.258E+01   -2.286E+01   -2.315E+01   -2.343E+01   -2.372E+01   -2.401E+01   -2.431E+01   -2.461E+01   -2.491E+01
    -2.521E+01   -2.552E+01   -2.583E+01   -2.614E+01   -2.645E+01   -2.677E+01   -2.708E+01   -2.740E+01   -2.773E+01   -2.805E+01
    -2.837E+01   -2.870E+01   -2.903E+01   -2.936E+01   -2.968E+01   -3.001E+01   -3.035E+01   -3.068E+01   -3.101E+01   -3.134E+01
    -3.167E+01   -3.200E+01   -3.233E+01   -3.266E+01   -3.299E+01   -3.332E+01   -3.365E+01   -3.398E+01   -3.431E+01   -3.463E+01
    -3.496E+01   -3.528E+01   -3.560E+01   -3.592E+01   -3.624E+01   -3.655E+01   -3.687E+01   -3.718E+01   -3.748E+01   -3.779E+01
    -3.809E+01   -3.839E+01   -3.869E+01   -3.898E+01   -3.927E+01   -3.956E+01   -3.984E+01   -4.012E+01   -4.040E+01   -4.067E+01
    -4.093E+01   -4.120E+01   -4.146E+01   -4.171E+01   -4.196E+01   -4.220E+01   -4.244E+01   -4.267E+01   -4.290E+01   -4.312E+01
    -4.334E+01   -4.355E+01   -4.376E+01   -4.396E+01   -4.415E+01   -4.434E+01   -4.452E+01   -4.469E+01   -4.486E+01   -4.502E+01
    -4.517E+01   -4.532E+01   -4.545E+01   -4.558E+01   -4.571E+01   -4.582E+01   -4.593E+01   -4.603E+01   -4.612E+01   -4.620E+01
    -4.628E+01   -4.635E+01   -4.640E+01   -4.645E+01   -4.649E+01   -4.652E+01   -4.655E+01   -4.656E+01   -4.657E+01   -4.657E+01
    -4.656E+01   -4.654E+01   -4.651E+01   -4.648E+01   -4.644E+01   -4.639E+01   -4.634E+01   -4.628E+01   -4.621E+01   -4.613E+01
    -4.605E+01   -4.596E+01   -4.587E+01   -4.577E+01   -4.566E+01   -4.554E+01   -4.542E+01   -4.530E+01   -4.517E+01   -4.503E+01
    -4.488E+01   -4.473E+01   -4.458E+01   -4.442E+01   -4.426E+01   -4.409E+01   -4.391E+01   -4.373E+01   -4.355E+01   -4.336E+01
    -4.317E+01   -4.297E+01   -4.277E+01   -4.256E+01   -4.235E+01   -4.214E+01   -4.192E+01   -4.170E+01   -4.147E+01   -4.124E+01
    -4.101E+01   -4.078E+01   -4.054E+01   -4.030E+01   -4.006E+01   -3.981E+01   -3.956E+01   -3.931E+01   -3.906E+01   -3.880E+01
    -3.854E+01   -3.828E+01   -3.802E+01   -3.776E+01   -3.749E+01   -3.722E+01   -3.695E+01   -3.668E+01   -3.641E+01   -3.614E+01
    -3.587E+01   -3.559E+01   -3.532E+01   -3.504E+01   -3.477E+01   -3.449E+01   -3.421E+01   -3.393E+01   -3.366E+01   -3.338E+01
    -3.310E+01   -3.283E+01   -3.255E+01   -3.227E+01   -3.200E+01   -3.172E+01   -3.145E+01   -3.118E+01   -3.090E+01   -3.063E+01
    -3.036E+01   -3.009E+01   -2.982E+01   -2.955E+01   -2.929E+01   -2.902E+01   -2.875E+01   -2.849E+01   -2.822E+01   -2.796E+01
    -2.770E+01   -2.743E+01   -2.717E+01   -2.691E+01   -2.665E+01   -2.639E+01   -2.613E+01   -2.588E+01   -2.562E+01   -2.537E+01
    -2.511E+01   -2.486E+01   -2.460E+01   -2.435E+01   -2.410E+01   -2.385E+01   -2.360E+01   -2.335E+01   -2.310E+01   -2.285E+01
    -2.261E+01   -2.236E+01   -2.212E+01   -2.187E+01   -2.163E+01   -2.139E+01   -2.115E+01   -2.091E+01   -2.067E+01   -2.043E+01
    -2.019E+01   -1.996E+01   -1.972E+01   -1.949E+01   -1.925E+01   -1.902E+01   -1.879E+01   -1.856E+01   -1.833E+01   -1.810E+01
    -1.787E+01   -1.764E+01   -1.741E+01   -1.719E+01   -1.696E+01   -1.674E+01   -1.652E+01   -1.630E+01   -1.608E+01   -1.586E+01
    -1.564E+01   -1.542E+01   -1.520E+01   -1.499E+01   -1.477E+01   -1.456E+01   -1.434E+01   -1.413E+01   -1.392E+01   -1.371E+01
    -1.350E+01   -1.329E+01   -1.309E+01   -1.288E+01   -1.268E+01   -1.247E+01   -1.227E+01   -1.207E+01
 Asp      Conc. = 1.20E+01
