 LCModel (Version 6.3-1L) Copyright: S.W. Provencher.          Ref.: Magn. Reson. Med. 30:672-679 (1993).                
 Slice#2 Row#8 Col#12  PD_05_press_1_raw_act
 36 lines in following concentration table = NCONC+1
    Conc.  %SD /Cr+PCr  Metabolite                                         
   17.444 237% 9.6E-02 Ala                                                 
   45.904 175%   0.252 Asp                                                 
   24.493 277%   0.135 Cr                                                  
  157.562  43%   0.865 PCr                                                 
   34.639 148%   0.190 GABA                                                
   58.371  89%   0.321 Glc                                                 
  327.572  28%   1.799 Gln                                                 
  610.990  19%   3.356 Glu                                                 
   44.521 113%   0.245 GPC                                                 
   15.640 324% 8.6E-02 PCh                                                 
    2.449 999% 1.3E-02 GSH                                                 
  125.928  77%   0.692 Ins                                                 
   81.745  55%   0.449 Lac                                                 
 1.16E+03   9%   6.379 NAA                                                 
  231.739  43%   1.273 NAAG                                                
   23.140  45%   0.127 Scyllo                                              
  125.454  59%   0.689 Tau                                                 
  122.477  29%   0.673 -CrCH2                                              
   60.161  14%   0.330 GPC+PCh                                             
 1.39E+03   3%   7.652 NAA+NAAG                                            
  182.055  13%   1.000 Cr+PCr                                              
  938.562  17%   5.155 Glu+Gln                                             
 1.76E+03  16%   9.669 Lip13a                                              
    0.000 999%   0.000 Lip13b                                              
    0.000 999%   0.000 Lip09                                               
  855.474  13%   4.699 MM09                                                
  301.743  34%   1.657 Lip20                                               
 1.59E+03  13%   8.746 MM20                                                
  267.799  26%   1.471 MM12                                                
 1.28E+03  17%   7.057 MM14                                                
 1.13E+03  13%   6.230+MM17                                                
 1.76E+03  16%   9.669 Lip13a+Lip13b                                       
 3.31E+03   8%  18.197 MM14+Lip13a+Lip13b+MM12                             
  855.474  13%   4.699 MM09+Lip09                                          
 1.89E+03  11%  10.403 MM20+Lip20                                          
   6 lines in following misc. output table
  FWHM = 0.038 ppm    S/N =  15                                            
  Data shift = 0.000 ppm                                                   
  Ph: -76 deg     -32.9 deg/ppm                                            
  alphaB,S = 9.4E-01,   4.8E+01                                            
   14 spline knots.   Ns = 7(1)                                            
  (10) 2 infls.   ( 8) 1 extrs.                                            
  498 points on ppm-axis = NY
      4.000000     3.992357     3.984714     3.977070     3.969427     3.961784     3.954141     3.946497     3.938854     3.931211
      3.923568     3.915925     3.908281     3.900638     3.892995     3.885352     3.877708     3.870065     3.862422     3.854779
      3.847136     3.839492     3.831849     3.824206     3.816563     3.808919     3.801276     3.793633     3.785990     3.778347
      3.770703     3.763060     3.755417     3.747774     3.740130     3.732487     3.724844     3.717201     3.709558     3.701914
      3.694271     3.686628     3.678985     3.671341     3.663698     3.656055     3.648412     3.640769     3.633125     3.625482
      3.617839     3.610196     3.602552     3.594909     3.587266     3.579623     3.571980     3.564336     3.556693     3.549050
      3.541407     3.533763     3.526120     3.518477     3.510834     3.503191     3.495547     3.487904     3.480261     3.472618
      3.464974     3.457331     3.449688     3.442045     3.434402     3.426758     3.419115     3.411472     3.403829     3.396185
      3.388542     3.380899     3.373256     3.365613     3.357969     3.350326     3.342683     3.335040     3.327396     3.319753
      3.312110     3.304467     3.296824     3.289180     3.281537     3.273894     3.266251     3.258607     3.250964     3.243321
      3.235678     3.228034     3.220391     3.212748     3.205105     3.197462     3.189818     3.182175     3.174532     3.166889
      3.159245     3.151602     3.143959     3.136316     3.128673     3.121029     3.113386     3.105743     3.098100     3.090456
      3.082813     3.075170     3.067527     3.059884     3.052240     3.044597     3.036954     3.029311     3.021667     3.014024
      3.006381     2.998738     2.991095     2.983451     2.975808     2.968165     2.960522     2.952878     2.945235     2.937592
      2.929949     2.922306     2.914662     2.907019     2.899376     2.891733     2.884089     2.876446     2.868803     2.861160
      2.853517     2.845873     2.838230     2.830587     2.822944     2.815300     2.807657     2.800014     2.792371     2.784728
      2.777084     2.769441     2.761798     2.754155     2.746511     2.738868     2.731225     2.723582     2.715939     2.708295
      2.700652     2.693009     2.685366     2.677722     2.670079     2.662436     2.654793     2.647150     2.639506     2.631863
      2.624220     2.616577     2.608933     2.601290     2.593647     2.586004     2.578361     2.570717     2.563074     2.555431
      2.547788     2.540144     2.532501     2.524858     2.517215     2.509572     2.501928     2.494285     2.486642     2.478999
      2.471355     2.463712     2.456069     2.448426     2.440783     2.433139     2.425496     2.417853     2.410210     2.402566
      2.394923     2.387280     2.379637     2.371994     2.364350     2.356707     2.349064     2.341421     2.333777     2.326134
      2.318491     2.310848     2.303205     2.295561     2.287918     2.280275     2.272632     2.264988     2.257345     2.249702
      2.242059     2.234416     2.226772     2.219129     2.211486     2.203843     2.196199     2.188556     2.180913     2.173270
      2.165627     2.157983     2.150340     2.142697     2.135054     2.127410     2.119767     2.112124     2.104481     2.096838
      2.089194     2.081551     2.073908     2.066265     2.058621     2.050978     2.043335     2.035692     2.028049     2.020405
      2.012762     2.005119     1.997476     1.989833     1.982190     1.974546     1.966903     1.959260     1.951617     1.943974
      1.936331     1.928688     1.921045     1.913402     1.905759     1.898115     1.890472     1.882829     1.875186     1.867543
      1.859900     1.852257     1.844614     1.836971     1.829327     1.821684     1.814041     1.806398     1.798755     1.791112
      1.783469     1.775826     1.768183     1.760540     1.752896     1.745253     1.737610     1.729967     1.722324     1.714681
      1.707038     1.699395     1.691752     1.684108     1.676465     1.668822     1.661179     1.653536     1.645893     1.638250
      1.630607     1.622964     1.615321     1.607677     1.600034     1.592391     1.584748     1.577105     1.569462     1.561819
      1.554176     1.546533     1.538890     1.531246     1.523603     1.515960     1.508317     1.500674     1.493031     1.485388
      1.477745     1.470102     1.462458     1.454815     1.447172     1.439529     1.431886     1.424243     1.416600     1.408957
      1.401314     1.393671     1.386027     1.378384     1.370741     1.363098     1.355455     1.347812     1.340169     1.332526
      1.324883     1.317240     1.309596     1.301953     1.294310     1.286667     1.279024     1.271381     1.263738     1.256095
      1.248452     1.240808     1.233165     1.225522     1.217879     1.210236     1.202593     1.194950     1.187307     1.179664
      1.172021     1.164377     1.156734     1.149091     1.141448     1.133805     1.126162     1.118519     1.110876     1.103233
      1.095590     1.087946     1.080303     1.072660     1.065017     1.057374     1.049731     1.042088     1.034445     1.026802
      1.019158     1.011515     1.003872     0.996229     0.988586     0.980943     0.973300     0.965657     0.958014     0.950371
      0.942727     0.935084     0.927441     0.919798     0.912155     0.904512     0.896869     0.889226     0.881583     0.873940
      0.866296     0.858653     0.851010     0.843367     0.835724     0.828081     0.820438     0.812795     0.805152     0.797508
      0.789865     0.782222     0.774579     0.766936     0.759293     0.751650     0.744007     0.736364     0.728721     0.721077
      0.713434     0.705791     0.698148     0.690505     0.682862     0.675219     0.667576     0.659933     0.652290     0.644646
      0.637003     0.629360     0.621717     0.614074     0.606431     0.598788     0.591145     0.583502     0.575858     0.568215
      0.560572     0.552929     0.545286     0.537643     0.530000     0.522357     0.514714     0.507071     0.499427     0.491784
      0.484141     0.476498     0.468855     0.461212     0.453569     0.445925     0.438282     0.430639     0.422996     0.415353
      0.407710     0.400067     0.392424     0.384780     0.377137     0.369494     0.361851     0.354208     0.346565     0.338922
      0.331278     0.323635     0.315992     0.308349     0.300706     0.293063     0.285420     0.277777     0.270133     0.262490
      0.254847     0.247204     0.239561     0.231918     0.224275     0.216631     0.208988     0.201345
 NY phased data points follow
   7.40584E+00  5.11052E+00  6.90985E+00  8.08554E+00  4.24745E+00  5.13265E+00  6.00462E+00  5.97023E+00  5.44935E+00  7.10094E+00
   5.62802E+00  5.02353E+00  2.92889E+00  6.68884E+00  6.25344E+00  4.55345E+00  7.42647E+00  5.77245E+00  5.70363E+00  5.58383E+00
   4.13775E+00  4.21266E+00  6.15978E+00  5.89602E+00  6.99147E+00  4.53538E+00  7.34174E+00  5.53906E+00  4.09129E+00  3.10675E+00
   7.23146E+00  4.96255E+00  6.36338E+00  5.80557E+00  5.47560E+00  6.22669E+00  5.07724E+00  5.75865E+00  5.12390E+00  4.37031E+00
   7.52391E+00  7.50403E+00  6.55920E+00  4.76869E+00  5.74178E+00  5.38128E+00  6.57515E+00  6.32080E+00  4.47242E+00  5.93094E+00
   3.77306E+00  2.68949E+00  5.40712E+00  3.49653E+00  5.05867E+00  3.71995E+00  4.13078E+00  6.31694E+00  4.42649E+00  6.08284E+00
   5.95891E+00  2.99734E+00  3.87689E+00  4.16788E+00  5.36964E+00  3.09360E+00  5.47285E+00  5.61543E+00  6.46753E+00  4.25317E+00
   5.44571E+00  5.10058E+00  7.89508E+00  3.17077E+00  4.54869E+00  5.37455E+00  8.36896E+00  3.37692E+00  5.43897E+00  5.21936E+00
   4.55138E+00  5.31410E+00  6.24501E+00  6.56349E+00  4.82790E+00  5.06279E+00  5.72997E+00  5.14209E+00  5.85239E+00  4.23923E+00
   7.85250E+00  5.83450E+00  6.34576E+00  5.78154E+00  5.26085E+00  1.00739E+01  8.00399E+00  7.62471E+00  6.41224E+00  7.21547E+00
   6.69422E+00  9.60986E+00  8.81924E+00  1.09956E+01  1.18709E+01  1.01389E+01  7.24233E+00  6.12157E+00  4.73952E+00  2.94508E+00
   4.74429E+00  4.65230E+00  2.54801E+00  4.12635E+00  5.05535E+00  6.40508E+00  4.44820E+00  5.01121E+00  2.93686E+00  6.05549E+00
   6.35439E+00  7.03883E+00  5.59357E+00  7.46495E+00  8.49843E+00  8.62015E+00  1.20729E+01  1.30997E+01  1.20121E+01  1.18296E+01
   7.88353E+00  7.89510E+00  2.55822E+00  3.79205E+00  1.62068E+00  1.88652E+00  2.99294E+00  3.13695E+00  4.20134E+00  5.29776E+00
   5.98953E+00  5.33415E+00  4.18893E+00  3.34837E+00  5.75015E+00  4.74108E+00  4.58727E+00  3.81234E+00  4.01285E+00  3.86468E+00
   4.30562E+00  4.45089E+00  4.24810E+00  4.57144E+00  4.09881E+00  5.96952E+00  3.23939E+00  3.71963E+00  4.41510E+00  5.60570E+00
   3.91442E+00  3.93481E+00  4.57697E+00  1.92661E+00  1.87243E+00  3.42559E+00  1.60590E+00  2.52830E+00  9.40178E-01  1.13485E+00
   1.38016E+00 -1.18689E-01  8.00712E-01  3.04088E+00  1.53754E+00  1.45347E-01 -7.45435E-02 -1.00951E+00 -1.18865E+00  1.75581E-01
   2.38561E+00  2.84256E+00  4.26501E+00  1.74424E+00 -5.68743E-02  1.73445E+00  2.01098E+00  1.59340E+00  1.15617E+00  1.61482E+00
   4.83945E+00  1.92720E+00  3.36798E+00  2.37608E+00  3.76047E+00  1.62720E+00  3.85588E+00  6.44808E-01  9.99669E-01  2.37046E+00
   2.63721E+00  4.76189E+00  2.39018E+00  6.00657E+00  5.30788E+00  4.93450E+00  4.26813E+00  4.29916E+00  5.08170E+00  4.42307E-01
   4.27163E+00  4.28190E+00  5.43699E+00  7.70444E+00  1.06101E+01  8.81662E+00  1.35267E+01  9.03774E+00  9.59810E+00  7.52100E+00
   5.29722E+00  4.25990E+00  3.32331E+00  3.40808E+00  5.15126E+00  4.06771E+00  8.18489E+00  9.33035E+00  9.94157E+00  9.73320E+00
   1.01525E+01  7.79630E+00  8.28247E+00  7.65775E+00  8.22223E+00  7.09434E+00  9.04643E+00  7.77807E+00  1.02648E+01  7.36348E+00
   9.95860E+00  8.94281E+00  8.20916E+00  9.77999E+00  8.20965E+00  8.42148E+00  1.05396E+01  1.16516E+01  1.32312E+01  1.48790E+01
   1.49755E+01  1.51067E+01  1.78932E+01  2.01566E+01  2.36132E+01  2.94904E+01  3.42165E+01  4.08599E+01  4.57858E+01  5.24295E+01
   5.79249E+01  5.62583E+01  5.13224E+01  4.16924E+01  2.78865E+01  1.91005E+01  1.08024E+01  1.00601E+01  7.79357E+00  8.34717E+00
   9.10410E+00  1.08842E+01  1.03337E+01  1.00455E+01  1.15078E+01  8.28293E+00  9.32324E+00  7.30384E+00  7.99545E+00  8.98081E+00
   9.79683E+00  7.70536E+00  1.02049E+01  6.21134E+00  7.93049E+00  1.03405E+01  7.78562E+00  8.10400E+00  7.65781E+00  1.04789E+01
   7.87682E+00  8.94639E+00  1.00073E+01  1.02697E+01  8.77980E+00  1.08984E+01  1.12326E+01  1.12784E+01  1.17060E+01  1.21980E+01
   1.25154E+01  1.30901E+01  1.17509E+01  1.37114E+01  1.48512E+01  1.29176E+01  1.27013E+01  1.37622E+01  1.45875E+01  1.67044E+01
   1.41749E+01  1.49562E+01  1.55222E+01  1.44185E+01  1.56136E+01  1.52243E+01  1.40472E+01  1.40099E+01  1.53342E+01  1.47389E+01
   1.26809E+01  1.43111E+01  1.39360E+01  1.42287E+01  1.29687E+01  1.13771E+01  1.18501E+01  1.38821E+01  1.03664E+01  1.13982E+01
   1.22105E+01  1.29171E+01  1.31561E+01  1.30396E+01  1.44900E+01  1.39143E+01  1.35202E+01  1.35644E+01  1.23552E+01  1.38312E+01
   1.35842E+01  1.58341E+01  1.47352E+01  1.38576E+01  1.78988E+01  1.82206E+01  1.99921E+01  1.93908E+01  2.09223E+01  1.68855E+01
   1.71218E+01  1.53111E+01  1.47142E+01  1.33992E+01  1.52308E+01  1.48870E+01  1.30990E+01  1.36785E+01  1.42933E+01  1.51196E+01
   1.19395E+01  1.29650E+01  1.36354E+01  1.23675E+01  1.24161E+01  1.49172E+01  1.25230E+01  1.35205E+01  1.35444E+01  1.26121E+01
   1.10478E+01  1.20255E+01  8.84200E+00  9.02258E+00  9.95332E+00  8.28734E+00  6.88760E+00  8.75813E+00  6.81709E+00  8.90166E+00
   8.85176E+00  7.09470E+00  8.34016E+00  8.37882E+00  3.56244E+00  7.57560E+00  8.72845E+00  7.16022E+00  7.27484E+00  5.99845E+00
   6.31846E+00  7.99765E+00  8.88249E+00  8.64460E+00  6.86249E+00  7.34905E+00  8.20343E+00  7.91273E+00  9.62781E+00  8.17380E+00
   1.02276E+01  1.00163E+01  8.20515E+00  6.02473E+00  9.79072E+00  9.71277E+00  8.60849E+00  8.08676E+00  8.41929E+00  8.79990E+00
   9.49818E+00  9.23378E+00  1.13155E+01  8.92467E+00  8.91345E+00  8.61082E+00  7.68106E+00  7.10821E+00  8.04231E+00  6.20067E+00
   4.98420E+00  5.50444E+00  8.50485E+00  6.96689E+00  5.90871E+00  4.69459E+00  5.06770E+00  7.95932E+00  5.75456E+00  3.71435E+00
   4.65020E+00  6.96530E+00  3.72033E+00  7.06062E+00  4.88303E+00  2.75546E+00  3.46714E+00  4.58932E+00  5.85724E+00  4.78453E+00
   3.68932E+00  2.76856E+00  2.17557E+00  6.83249E+00  2.83312E+00  5.10273E+00  3.81676E+00  3.14412E+00  3.26576E+00  4.02187E+00
   3.64362E+00  2.83798E+00  3.78801E+00  3.76948E+00  5.51247E+00  3.09994E+00  3.48378E+00  1.96428E+00  3.39951E+00  4.15720E+00
   3.26503E+00  1.88624E+00  3.48193E+00  3.38806E+00  3.14186E+00  2.61005E+00  2.56754E+00  4.31131E+00  4.11183E+00  3.41814E+00
   3.77389E+00  5.10119E+00  3.11275E+00  4.56556E+00  1.72380E+00  1.04460E+00  2.66901E+00  2.35656E+00  4.04378E+00  3.81173E+00
   3.65311E+00  3.85630E+00  3.86974E+00  2.40305E+00  9.42742E-01  3.30109E+00  2.76354E+00  2.46884E+00  2.84337E+00  2.07437E+00
   2.41262E+00  2.79035E+00  6.42419E+00  3.41630E+00  2.98214E+00  1.58251E+00  4.15469E+00  3.74101E+00
 NY points of the fit to the data follow
   5.17563E+00  5.23421E+00  5.37313E+00  5.50206E+00  5.69600E+00  5.94612E+00  6.19860E+00  6.43972E+00  6.60170E+00  6.59213E+00
   6.44799E+00  6.20774E+00  5.92756E+00  5.69052E+00  5.53375E+00  5.44378E+00  5.39984E+00  5.37824E+00  5.35881E+00  5.39681E+00
   5.50111E+00  5.58237E+00  5.62927E+00  5.64741E+00  5.59710E+00  5.43253E+00  5.17713E+00  4.91376E+00  4.78880E+00  4.92697E+00
   5.39761E+00  6.12327E+00  6.81896E+00  7.21635E+00  7.11458E+00  6.47611E+00  5.52193E+00  4.63234E+00  4.09967E+00  4.07223E+00
   4.46812E+00  5.05276E+00  5.58882E+00  5.92429E+00  6.04479E+00  6.06033E+00  6.05622E+00  6.03143E+00  5.95572E+00  5.77679E+00
   5.48316E+00  5.14298E+00  4.85794E+00  4.69459E+00  4.65889E+00  4.70595E+00  4.77601E+00  4.84230E+00  4.90887E+00  4.97723E+00
   5.03089E+00  5.04007E+00  5.00737E+00  4.92992E+00  4.84311E+00  4.79675E+00  4.79019E+00  4.80952E+00  4.86252E+00  4.91609E+00
   4.94426E+00  4.98773E+00  5.06681E+00  5.17929E+00  5.31516E+00  5.41229E+00  5.38077E+00  5.20478E+00  4.93002E+00  4.69380E+00
   4.59843E+00  4.64486E+00  4.84885E+00  5.16795E+00  5.50790E+00  5.79654E+00  5.94274E+00  5.86264E+00  5.57833E+00  5.17090E+00
   4.74374E+00  4.41689E+00  4.23516E+00  4.15611E+00  4.18205E+00  4.39754E+00  4.90821E+00  5.55735E+00  6.30463E+00  7.19469E+00
   8.22601E+00  9.37956E+00  1.04459E+01  1.09877E+01  1.07060E+01  9.60610E+00  7.97038E+00  6.31102E+00  5.07231E+00  4.45197E+00
   4.33488E+00  4.43575E+00  4.48269E+00  4.47895E+00  4.48071E+00  4.49837E+00  4.52540E+00  4.55964E+00  4.62779E+00  4.85821E+00
   5.36504E+00  5.90323E+00  6.52189E+00  7.39329E+00  8.55200E+00  9.94972E+00  1.12779E+01  1.19502E+01  1.16268E+01  1.03647E+01
   8.51733E+00  6.69055E+00  5.38075E+00  4.75117E+00  4.64314E+00  4.74374E+00  4.76611E+00  4.75137E+00  4.74827E+00  4.75154E+00
   4.74688E+00  4.72664E+00  4.69652E+00  4.66574E+00  4.64121E+00  4.62223E+00  4.60073E+00  4.56054E+00  4.49808E+00  4.42802E+00
   4.35879E+00  4.30053E+00  4.25585E+00  4.19335E+00  4.08373E+00  3.98569E+00  3.92679E+00  3.87905E+00  3.81286E+00  3.62073E+00
   3.30856E+00  3.03162E+00  2.91819E+00  3.01480E+00  3.26601E+00  3.46663E+00  3.43193E+00  3.12590E+00  2.62764E+00  2.10051E+00
   1.75523E+00  1.65988E+00  1.65857E+00  1.61159E+00  1.42699E+00  1.19866E+00  1.10471E+00  1.23254E+00  1.51646E+00  1.80567E+00
   1.94632E+00  1.97018E+00  1.99835E+00  2.09892E+00  2.33383E+00  2.68537E+00  3.06207E+00  3.44393E+00  3.87289E+00  4.34183E+00
   4.82730E+00  5.14742E+00  5.20105E+00  5.06660E+00  4.87590E+00  4.76347E+00  4.83676E+00  5.08753E+00  5.39007E+00  5.72409E+00
   6.07872E+00  6.39210E+00  6.61282E+00  6.69104E+00  6.51678E+00  5.91065E+00  4.81586E+00  3.48394E+00  2.27190E+00  1.58141E+00
   1.63968E+00  2.35606E+00  3.62303E+00  5.20585E+00  6.80297E+00  8.07898E+00  8.70224E+00  8.51743E+00  7.57898E+00  6.02866E+00
   4.24898E+00  2.79233E+00  2.12776E+00  2.47690E+00  3.70660E+00  5.40742E+00  7.12934E+00  8.47575E+00  9.14865E+00  9.19521E+00
   8.85583E+00  8.41993E+00  8.15028E+00  8.11004E+00  8.23336E+00  8.52262E+00  8.98143E+00  9.53879E+00  1.00638E+01  1.03870E+01
   1.03684E+01  1.00293E+01  9.56457E+00  9.24500E+00  9.28165E+00  9.71899E+00  1.04437E+01  1.12653E+01  1.20849E+01  1.30414E+01
   1.39613E+01  1.49160E+01  1.64932E+01  1.99070E+01  2.48716E+01  2.97780E+01  3.48320E+01  4.02670E+01  4.61423E+01  5.22575E+01
   5.66857E+01  5.66507E+01  5.12061E+01  4.11910E+01  2.91541E+01  1.84870E+01  1.16056E+01  8.87528E+00  8.86992E+00  9.38457E+00
   9.27428E+00  9.05654E+00  8.90438E+00  8.81563E+00  8.74773E+00  8.66719E+00  8.53062E+00  8.32831E+00  8.08543E+00  7.84912E+00
   7.65713E+00  7.53424E+00  7.48279E+00  7.48105E+00  7.50714E+00  7.55346E+00  7.61328E+00  7.68304E+00  7.77173E+00  7.89346E+00
   8.06561E+00  8.29709E+00  8.58267E+00  8.91378E+00  9.28135E+00  9.67211E+00  1.00802E+01  1.05051E+01  1.09477E+01  1.14096E+01
   1.18877E+01  1.23696E+01  1.28411E+01  1.32855E+01  1.36858E+01  1.40277E+01  1.43022E+01  1.45049E+01  1.46363E+01  1.46974E+01
   1.46910E+01  1.46228E+01  1.45002E+01  1.43327E+01  1.41314E+01  1.39085E+01  1.36765E+01  1.34474E+01  1.32330E+01  1.30445E+01
   1.28924E+01  1.27707E+01  1.26797E+01  1.26291E+01  1.26156E+01  1.26290E+01  1.26529E+01  1.26651E+01  1.26699E+01  1.26866E+01
   1.27286E+01  1.28222E+01  1.29850E+01  1.32154E+01  1.35010E+01  1.38139E+01  1.41156E+01  1.43864E+01  1.46198E+01  1.48225E+01
   1.50282E+01  1.52723E+01  1.55073E+01  1.57398E+01  1.59919E+01  1.62285E+01  1.64037E+01  1.64394E+01  1.62580E+01  1.59164E+01
   1.54776E+01  1.50528E+01  1.47996E+01  1.47976E+01  1.50417E+01  1.54439E+01  1.58213E+01  1.59981E+01  1.59173E+01  1.55740E+01
   1.50319E+01  1.44068E+01  1.38056E+01  1.32803E+01  1.28256E+01  1.23836E+01  1.19422E+01  1.15092E+01  1.10894E+01  1.06860E+01
   1.03017E+01  9.93866E+00  9.59870E+00  9.28300E+00  8.99240E+00  8.72744E+00  8.48844E+00  8.27544E+00  8.08832E+00  7.92678E+00
   7.79053E+00  7.67921E+00  7.59250E+00  7.53002E+00  7.49139E+00  7.47615E+00  7.48390E+00  7.51413E+00  7.56623E+00  7.63938E+00
   7.73253E+00  7.84432E+00  7.97312E+00  8.11688E+00  8.27315E+00  8.43898E+00  8.61100E+00  8.78544E+00  8.95824E+00  9.12503E+00
   9.28135E+00  9.42266E+00  9.54462E+00  9.64319E+00  9.71488E+00  9.75674E+00  9.76661E+00  9.74309E+00  9.68577E+00  9.59511E+00
   9.47251E+00  9.32010E+00  9.14077E+00  8.93792E+00  8.71544E+00  8.47745E+00  8.22817E+00  7.97172E+00  7.71202E+00  7.45266E+00
   7.19687E+00  6.94739E+00  6.70650E+00  6.47592E+00  6.25692E+00  6.05034E+00  5.85664E+00  5.67592E+00  5.50802E+00  5.35250E+00
   5.20879E+00  5.07623E+00  4.95408E+00  4.84156E+00  4.73787E+00  4.64220E+00  4.55383E+00  4.47205E+00  4.39624E+00  4.32579E+00
   4.26016E+00  4.19883E+00  4.14138E+00  4.08742E+00  4.03664E+00  3.98868E+00  3.94328E+00  3.90016E+00  3.85915E+00  3.82004E+00
   3.78269E+00  3.74690E+00  3.71256E+00  3.67952E+00  3.64772E+00  3.61704E+00  3.58741E+00  3.55872E+00  3.53090E+00  3.50388E+00
   3.47765E+00  3.45212E+00  3.42725E+00  3.40298E+00  3.37928E+00  3.35612E+00  3.33347E+00  3.31130E+00  3.28957E+00  3.26823E+00
   3.24729E+00  3.22671E+00  3.20651E+00  3.18663E+00  3.16706E+00  3.14776E+00  3.12876E+00  3.11002E+00  3.09155E+00  3.07331E+00
   3.05528E+00  3.03746E+00  3.01985E+00  3.00245E+00  2.98524E+00  2.96820E+00  2.95131E+00  2.93459E+00  2.91804E+00  2.90164E+00
   2.88539E+00  2.86926E+00  2.85325E+00  2.83738E+00  2.82165E+00  2.80605E+00  2.79056E+00  2.77517E+00
 NY background values follow
     4.770E+00    4.759E+00    4.747E+00    4.736E+00    4.725E+00    4.713E+00    4.702E+00    4.691E+00    4.680E+00    4.668E+00
     4.657E+00    4.646E+00    4.634E+00    4.623E+00    4.612E+00    4.601E+00    4.589E+00    4.578E+00    4.567E+00    4.556E+00
     4.545E+00    4.533E+00    4.522E+00    4.511E+00    4.500E+00    4.489E+00    4.478E+00    4.466E+00    4.455E+00    4.444E+00
     4.433E+00    4.422E+00    4.411E+00    4.400E+00    4.389E+00    4.378E+00    4.367E+00    4.356E+00    4.345E+00    4.334E+00
     4.323E+00    4.312E+00    4.301E+00    4.290E+00    4.279E+00    4.268E+00    4.257E+00    4.246E+00    4.235E+00    4.224E+00
     4.214E+00    4.203E+00    4.192E+00    4.181E+00    4.170E+00    4.160E+00    4.149E+00    4.138E+00    4.127E+00    4.117E+00
     4.106E+00    4.095E+00    4.085E+00    4.074E+00    4.063E+00    4.053E+00    4.042E+00    4.031E+00    4.021E+00    4.010E+00
     4.000E+00    3.989E+00    3.978E+00    3.968E+00    3.957E+00    3.947E+00    3.936E+00    3.926E+00    3.915E+00    3.905E+00
     3.894E+00    3.883E+00    3.873E+00    3.862E+00    3.852E+00    3.841E+00    3.831E+00    3.820E+00    3.810E+00    3.799E+00
     3.789E+00    3.778E+00    3.768E+00    3.758E+00    3.747E+00    3.737E+00    3.726E+00    3.716E+00    3.705E+00    3.695E+00
     3.685E+00    3.675E+00    3.665E+00    3.654E+00    3.644E+00    3.634E+00    3.624E+00    3.615E+00    3.605E+00    3.595E+00
     3.585E+00    3.576E+00    3.566E+00    3.557E+00    3.548E+00    3.539E+00    3.530E+00    3.521E+00    3.512E+00    3.504E+00
     3.495E+00    3.487E+00    3.478E+00    3.470E+00    3.462E+00    3.455E+00    3.447E+00    3.439E+00    3.432E+00    3.425E+00
     3.418E+00    3.411E+00    3.405E+00    3.398E+00    3.392E+00    3.386E+00    3.380E+00    3.375E+00    3.369E+00    3.364E+00
     3.359E+00    3.354E+00    3.350E+00    3.346E+00    3.341E+00    3.338E+00    3.334E+00    3.331E+00    3.327E+00    3.325E+00
     3.322E+00    3.320E+00    3.317E+00    3.316E+00    3.314E+00    3.313E+00    3.311E+00    3.311E+00    3.310E+00    3.310E+00
     3.310E+00    3.310E+00    3.311E+00    3.312E+00    3.313E+00    3.314E+00    3.316E+00    3.318E+00    3.320E+00    3.323E+00
     3.326E+00    3.329E+00    3.333E+00    3.337E+00    3.341E+00    3.345E+00    3.350E+00    3.355E+00    3.361E+00    3.367E+00
     3.373E+00    3.380E+00    3.387E+00    3.394E+00    3.401E+00    3.409E+00    3.418E+00    3.426E+00    3.435E+00    3.444E+00
     3.454E+00    3.463E+00    3.473E+00    3.483E+00    3.494E+00    3.505E+00    3.516E+00    3.527E+00    3.538E+00    3.550E+00
     3.562E+00    3.574E+00    3.586E+00    3.599E+00    3.612E+00    3.625E+00    3.638E+00    3.651E+00    3.664E+00    3.678E+00
     3.691E+00    3.705E+00    3.719E+00    3.733E+00    3.747E+00    3.762E+00    3.776E+00    3.791E+00    3.805E+00    3.820E+00
     3.835E+00    3.850E+00    3.864E+00    3.879E+00    3.894E+00    3.909E+00    3.924E+00    3.939E+00    3.955E+00    3.970E+00
     3.985E+00    4.000E+00    4.015E+00    4.030E+00    4.045E+00    4.060E+00    4.075E+00    4.090E+00    4.105E+00    4.120E+00
     4.135E+00    4.150E+00    4.164E+00    4.179E+00    4.194E+00    4.208E+00    4.223E+00    4.237E+00    4.251E+00    4.265E+00
     4.279E+00    4.293E+00    4.307E+00    4.320E+00    4.334E+00    4.347E+00    4.360E+00    4.373E+00    4.386E+00    4.399E+00
     4.411E+00    4.424E+00    4.436E+00    4.448E+00    4.459E+00    4.471E+00    4.482E+00    4.493E+00    4.504E+00    4.515E+00
     4.525E+00    4.536E+00    4.546E+00    4.555E+00    4.565E+00    4.574E+00    4.583E+00    4.591E+00    4.600E+00    4.608E+00
     4.616E+00    4.624E+00    4.631E+00    4.638E+00    4.645E+00    4.652E+00    4.658E+00    4.664E+00    4.670E+00    4.676E+00
     4.681E+00    4.686E+00    4.691E+00    4.695E+00    4.699E+00    4.703E+00    4.707E+00    4.710E+00    4.713E+00    4.716E+00
     4.719E+00    4.721E+00    4.723E+00    4.725E+00    4.726E+00    4.727E+00    4.728E+00    4.728E+00    4.729E+00    4.729E+00
     4.728E+00    4.728E+00    4.727E+00    4.725E+00    4.724E+00    4.722E+00    4.720E+00    4.718E+00    4.715E+00    4.712E+00
     4.709E+00    4.705E+00    4.701E+00    4.697E+00    4.693E+00    4.688E+00    4.683E+00    4.678E+00    4.672E+00    4.666E+00
     4.660E+00    4.654E+00    4.648E+00    4.641E+00    4.634E+00    4.627E+00    4.619E+00    4.611E+00    4.604E+00    4.595E+00
     4.587E+00    4.578E+00    4.570E+00    4.561E+00    4.551E+00    4.542E+00    4.532E+00    4.523E+00    4.513E+00    4.503E+00
     4.492E+00    4.482E+00    4.471E+00    4.460E+00    4.449E+00    4.438E+00    4.426E+00    4.415E+00    4.403E+00    4.391E+00
     4.379E+00    4.367E+00    4.355E+00    4.343E+00    4.330E+00    4.318E+00    4.305E+00    4.292E+00    4.279E+00    4.266E+00
     4.253E+00    4.239E+00    4.226E+00    4.212E+00    4.199E+00    4.185E+00    4.171E+00    4.157E+00    4.143E+00    4.129E+00
     4.115E+00    4.101E+00    4.087E+00    4.073E+00    4.058E+00    4.044E+00    4.029E+00    4.015E+00    4.000E+00    3.986E+00
     3.971E+00    3.957E+00    3.942E+00    3.927E+00    3.913E+00    3.898E+00    3.883E+00    3.869E+00    3.854E+00    3.839E+00
     3.825E+00    3.810E+00    3.795E+00    3.781E+00    3.766E+00    3.751E+00    3.737E+00    3.722E+00    3.708E+00    3.693E+00
     3.679E+00    3.665E+00    3.650E+00    3.636E+00    3.622E+00    3.607E+00    3.593E+00    3.579E+00    3.565E+00    3.551E+00
     3.537E+00    3.523E+00    3.509E+00    3.495E+00    3.481E+00    3.467E+00    3.453E+00    3.439E+00    3.426E+00    3.412E+00
     3.398E+00    3.384E+00    3.371E+00    3.357E+00    3.344E+00    3.330E+00    3.317E+00    3.303E+00    3.290E+00    3.277E+00
     3.263E+00    3.250E+00    3.237E+00    3.224E+00    3.210E+00    3.197E+00    3.184E+00    3.171E+00    3.158E+00    3.145E+00
     3.132E+00    3.119E+00    3.107E+00    3.094E+00    3.081E+00    3.068E+00    3.056E+00    3.043E+00    3.030E+00    3.018E+00
     3.005E+00    2.992E+00    2.980E+00    2.967E+00    2.955E+00    2.943E+00    2.930E+00    2.918E+00    2.906E+00    2.893E+00
     2.881E+00    2.869E+00    2.856E+00    2.844E+00    2.832E+00    2.820E+00    2.808E+00    2.795E+00    2.783E+00    2.771E+00
     2.759E+00    2.747E+00    2.735E+00    2.723E+00    2.711E+00    2.699E+00    2.687E+00    2.674E+00    2.662E+00    2.650E+00
     2.638E+00    2.626E+00    2.614E+00    2.602E+00    2.590E+00    2.578E+00    2.566E+00    2.554E+00
 Ala      Conc. = 1.74E+01
