 LCModel (Version 6.3-1L) Copyright: S.W. Provencher.          Ref.: Magn. Reson. Med. 30:672-679 (1993).                
 Slice#2 Row#6 Col#10  PD_05_press_1_raw_act
 36 lines in following concentration table = NCONC+1
    Conc.  %SD /Cr+PCr  Metabolite                                         
  113.648  65% 8.2E-02 Ala                                                 
    0.000 999%   0.000 Asp                                                 
  504.136  34%   0.366 Cr                                                  
  874.946  21%   0.634 PCr                                                 
   48.451 266% 3.5E-02 GABA                                                
    0.000 999%   0.000 Glc                                                 
  492.541  31%   0.357 Gln                                                 
 1.39E+03  13%   1.011 Glu                                                 
  540.501   4%   0.392 GPC                                                 
    0.000 999%   0.000 PCh                                                 
  379.532  15%   0.275 GSH                                                 
 1.03E+03  19%   0.749 Ins                                                 
   76.963 108% 5.6E-02 Lac                                                 
 2.15E+03   4%   1.559 NAA                                                 
  391.459  23%   0.284 NAAG                                                
   60.824  36% 4.4E-02 Scyllo                                              
    0.000 999%   0.000 Tau                                                 
  331.903  28%   0.241 -CrCH2                                              
  540.501   4%   0.392 GPC+PCh                                             
 2.54E+03   3%   1.842 NAA+NAAG                                            
 1.38E+03   4%   1.000 Cr+PCr                                              
 1.89E+03  13%   1.368 Glu+Gln                                             
   16.881 999% 1.2E-02 Lip13a                                              
  591.967 132%   0.429 Lip13b                                              
    0.000 999%   0.000 Lip09                                               
 1.32E+03  16%   0.957 MM09                                                
  143.592  77%   0.104 Lip20                                               
 2.88E+03  13%   2.090 MM20                                                
  394.750  33%   0.286 MM12                                                
 1.60E+03  21%   1.159 MM14                                                
 1.21E+03  21%   0.875 MM17                                                
  608.848  58%   0.441 Lip13a+Lip13b                                       
 2.60E+03  18%   1.887 MM14+Lip13a+Lip13b+MM12                             
 1.32E+03  16%   0.957 MM09+Lip09                                          
 3.03E+03  12%   2.194 MM20+Lip20                                          
   6 lines in following misc. output table
  FWHM = 0.046 ppm    S/N =  16                                            
  Data shift = 0.008 ppm                                                   
  Ph: -15 deg      -5.3 deg/ppm                                            
  alphaB,S = 4.2E-01,   8.8E+01                                            
   14 spline knots.   Ns = 6(1)                                            
  ( 7) 2 infls.   ( 3) 1 extrs.                                            
  498 points on ppm-axis = NY
      4.000000     3.992357     3.984714     3.977070     3.969427     3.961784     3.954141     3.946497     3.938854     3.931211
      3.923568     3.915925     3.908281     3.900638     3.892995     3.885352     3.877708     3.870065     3.862422     3.854779
      3.847136     3.839492     3.831849     3.824206     3.816563     3.808919     3.801276     3.793633     3.785990     3.778347
      3.770703     3.763060     3.755417     3.747774     3.740130     3.732487     3.724844     3.717201     3.709558     3.701914
      3.694271     3.686628     3.678985     3.671341     3.663698     3.656055     3.648412     3.640769     3.633125     3.625482
      3.617839     3.610196     3.602552     3.594909     3.587266     3.579623     3.571980     3.564336     3.556693     3.549050
      3.541407     3.533763     3.526120     3.518477     3.510834     3.503191     3.495547     3.487904     3.480261     3.472618
      3.464974     3.457331     3.449688     3.442045     3.434402     3.426758     3.419115     3.411472     3.403829     3.396185
      3.388542     3.380899     3.373256     3.365613     3.357969     3.350326     3.342683     3.335040     3.327396     3.319753
      3.312110     3.304467     3.296824     3.289180     3.281537     3.273894     3.266251     3.258607     3.250964     3.243321
      3.235678     3.228034     3.220391     3.212748     3.205105     3.197462     3.189818     3.182175     3.174532     3.166889
      3.159245     3.151602     3.143959     3.136316     3.128673     3.121029     3.113386     3.105743     3.098100     3.090456
      3.082813     3.075170     3.067527     3.059884     3.052240     3.044597     3.036954     3.029311     3.021667     3.014024
      3.006381     2.998738     2.991095     2.983451     2.975808     2.968165     2.960522     2.952878     2.945235     2.937592
      2.929949     2.922306     2.914662     2.907019     2.899376     2.891733     2.884089     2.876446     2.868803     2.861160
      2.853517     2.845873     2.838230     2.830587     2.822944     2.815300     2.807657     2.800014     2.792371     2.784728
      2.777084     2.769441     2.761798     2.754155     2.746511     2.738868     2.731225     2.723582     2.715939     2.708295
      2.700652     2.693009     2.685366     2.677722     2.670079     2.662436     2.654793     2.647150     2.639506     2.631863
      2.624220     2.616577     2.608933     2.601290     2.593647     2.586004     2.578361     2.570717     2.563074     2.555431
      2.547788     2.540144     2.532501     2.524858     2.517215     2.509572     2.501928     2.494285     2.486642     2.478999
      2.471355     2.463712     2.456069     2.448426     2.440783     2.433139     2.425496     2.417853     2.410210     2.402566
      2.394923     2.387280     2.379637     2.371994     2.364350     2.356707     2.349064     2.341421     2.333777     2.326134
      2.318491     2.310848     2.303205     2.295561     2.287918     2.280275     2.272632     2.264988     2.257345     2.249702
      2.242059     2.234416     2.226772     2.219129     2.211486     2.203843     2.196199     2.188556     2.180913     2.173270
      2.165627     2.157983     2.150340     2.142697     2.135054     2.127410     2.119767     2.112124     2.104481     2.096838
      2.089194     2.081551     2.073908     2.066265     2.058621     2.050978     2.043335     2.035692     2.028049     2.020405
      2.012762     2.005119     1.997476     1.989833     1.982190     1.974546     1.966903     1.959260     1.951617     1.943974
      1.936331     1.928688     1.921045     1.913402     1.905759     1.898115     1.890472     1.882829     1.875186     1.867543
      1.859900     1.852257     1.844614     1.836971     1.829327     1.821684     1.814041     1.806398     1.798755     1.791112
      1.783469     1.775826     1.768183     1.760540     1.752896     1.745253     1.737610     1.729967     1.722324     1.714681
      1.707038     1.699395     1.691752     1.684108     1.676465     1.668822     1.661179     1.653536     1.645893     1.638250
      1.630607     1.622964     1.615321     1.607677     1.600034     1.592391     1.584748     1.577105     1.569462     1.561819
      1.554176     1.546533     1.538890     1.531246     1.523603     1.515960     1.508317     1.500674     1.493031     1.485388
      1.477745     1.470102     1.462458     1.454815     1.447172     1.439529     1.431886     1.424243     1.416600     1.408957
      1.401314     1.393671     1.386027     1.378384     1.370741     1.363098     1.355455     1.347812     1.340169     1.332526
      1.324883     1.317240     1.309596     1.301953     1.294310     1.286667     1.279024     1.271381     1.263738     1.256095
      1.248452     1.240808     1.233165     1.225522     1.217879     1.210236     1.202593     1.194950     1.187307     1.179664
      1.172021     1.164377     1.156734     1.149091     1.141448     1.133805     1.126162     1.118519     1.110876     1.103233
      1.095590     1.087946     1.080303     1.072660     1.065017     1.057374     1.049731     1.042088     1.034445     1.026802
      1.019158     1.011515     1.003872     0.996229     0.988586     0.980943     0.973300     0.965657     0.958014     0.950371
      0.942727     0.935084     0.927441     0.919798     0.912155     0.904512     0.896869     0.889226     0.881583     0.873940
      0.866296     0.858653     0.851010     0.843367     0.835724     0.828081     0.820438     0.812795     0.805152     0.797508
      0.789865     0.782222     0.774579     0.766936     0.759293     0.751650     0.744007     0.736364     0.728721     0.721077
      0.713434     0.705791     0.698148     0.690505     0.682862     0.675219     0.667576     0.659933     0.652290     0.644646
      0.637003     0.629360     0.621717     0.614074     0.606431     0.598788     0.591145     0.583502     0.575858     0.568215
      0.560572     0.552929     0.545286     0.537643     0.530000     0.522357     0.514714     0.507071     0.499427     0.491784
      0.484141     0.476498     0.468855     0.461212     0.453569     0.445925     0.438282     0.430639     0.422996     0.415353
      0.407710     0.400067     0.392424     0.384780     0.377137     0.369494     0.361851     0.354208     0.346565     0.338922
      0.331278     0.323635     0.315992     0.308349     0.300706     0.293063     0.285420     0.277777     0.270133     0.262490
      0.254847     0.247204     0.239561     0.231918     0.224275     0.216631     0.208988     0.201345
 NY phased data points follow
   4.52362E+00  4.79078E+00  8.49914E+00  1.08883E+01  1.50201E+01  2.20925E+01  1.64375E+01  2.62937E+01  3.06700E+01  3.06646E+01
   3.62199E+01  3.25653E+01  2.91320E+01  2.52171E+01  1.49623E+01  1.11691E+01  9.96854E+00  9.79301E+00  6.27795E+00  7.09368E+00
   4.82138E+00  1.16750E+01  1.05716E+01  1.28168E+01  1.45117E+01  1.34510E+01  1.08131E+01  1.62012E+01  1.11471E+01  1.45085E+01
   1.59051E+01  1.74947E+01  1.32698E+01  1.21948E+01  1.20636E+01  1.20087E+01  9.48757E+00  9.32047E+00  9.62866E+00  1.14100E+01
   9.69516E+00  1.31499E+01  1.25964E+01  1.63745E+01  1.85004E+01  2.03531E+01  2.09342E+01  2.20036E+01  1.47928E+01  1.50184E+01
   9.56479E+00  1.11111E+01  1.26534E+01  8.81142E+00  9.93056E+00  1.20308E+01  9.82160E+00  1.02951E+01  7.71661E+00  8.45434E+00
   6.87145E+00  3.75360E+00  8.83749E-01  7.59694E-01 -4.66559E+00 -1.53035E-01 -2.33831E+00 -1.26534E+00  1.32663E+00  3.14353E-01
   1.63553E+00  2.63693E+00  3.48129E+00 -2.87768E-01  4.07916E+00  1.42403E+00  2.38120E+00 -2.12309E-01  7.18298E-01  2.95903E+00
   3.43903E+00 -3.41078E-01  3.59288E+00  4.57282E+00  4.69036E+00  5.06436E+00  3.66767E+00  4.66686E+00  2.87832E+00  4.45005E+00
   4.08179E+00  4.28213E+00  4.80957E+00  7.88346E+00  7.46466E+00  8.93883E+00  1.21825E+01  1.36643E+01  1.77473E+01  2.98404E+01
   4.34800E+01  5.70185E+01  6.12114E+01  5.80549E+01  4.44194E+01  3.35719E+01  2.43559E+01  1.48530E+01  8.40432E+00  5.39196E+00
   5.26223E+00  2.32063E+00  4.71907E+00  5.89765E-01  8.96762E+00  5.33411E+00  2.64980E+00  7.45677E+00  5.49167E+00  6.97406E+00
   1.11906E+01  1.46364E+01  1.80388E+01  2.09122E+01  3.84081E+01  4.71085E+01  5.58642E+01  5.43418E+01  4.81207E+01  3.64971E+01
   2.95843E+01  1.31567E+01  9.83613E+00  5.03593E+00 -1.97596E-01  1.84846E+00  2.33613E+00  8.26507E-01  3.64771E+00  3.43145E+00
   3.86938E+00  5.38333E+00  2.13593E+00  2.82234E+00  1.21972E+00  1.97385E+00  1.57570E+00  5.42641E+00  6.57547E-02  5.28358E+00
   3.33835E+00  2.32917E+00  2.73158E+00 -3.08962E-01  4.49385E+00  1.26521E+00 -2.91372E-01  7.12312E-01 -1.20663E+00 -3.64143E+00
  -2.98538E+00 -3.60831E+00 -2.56911E+00 -2.81218E+00 -2.81426E+00  8.70600E-01 -2.95593E+00 -4.28536E+00 -6.54607E+00 -8.71305E+00
  -9.06153E+00 -9.32929E+00 -1.17702E+01 -1.11206E+01 -1.39613E+01 -1.52006E+01 -1.50038E+01 -1.12774E+01 -9.09065E+00 -1.07934E+01
  -9.56462E+00 -1.22641E+01 -9.55677E+00 -9.78953E+00 -1.09703E+01 -1.17129E+01 -7.95969E+00 -9.42750E+00 -2.55593E+00 -1.67370E+00
  -1.08333E+00  1.49702E+00 -2.49063E-01 -5.16631E-01  8.18147E-01 -6.63212E-01 -4.57155E+00 -6.68462E+00 -1.12014E+01 -7.86057E+00
  -5.51427E+00 -3.03753E+00  6.84394E-01 -6.11188E-01  1.81890E+00 -3.32876E-02 -3.00476E-01 -1.42205E+00 -6.81795E+00 -6.16820E+00
  -4.91852E+00 -1.89748E+00  1.16642E+00  7.58128E+00  1.22946E+01  1.38320E+01  1.31526E+01  9.97538E+00  7.90000E+00  2.80078E+00
  -5.76450E+00 -6.32757E+00 -2.23487E+00 -1.46329E+00  4.81820E+00  4.35378E+00  7.77712E+00  1.23666E+01  6.04087E+00  9.93972E+00
   3.84040E+00  5.55856E+00  3.85840E+00  5.64437E+00  6.21279E+00  8.39342E+00  5.56982E+00  8.79650E+00  5.48186E+00  3.37990E+00
   5.18924E+00  3.27590E+00  2.60159E+00  3.64039E+00  6.53325E+00  1.23291E+01  1.28960E+01  1.23087E+01  1.35102E+01  1.39205E+01
   1.84491E+01  1.84757E+01  2.40017E+01  2.58799E+01  4.10248E+01  4.36234E+01  5.52953E+01  6.63184E+01  8.29092E+01  9.66136E+01
   1.00372E+02  9.19944E+01  7.05326E+01  4.79458E+01  2.54677E+01  1.70201E+01  9.32910E+00  5.77697E+00  4.30125E+00  4.67072E+00
   5.75712E+00  5.68556E+00  7.69203E+00  5.56325E+00  9.59707E+00  6.24007E+00  7.65169E+00  6.04938E+00  8.53275E+00  4.77238E+00
   5.39894E+00  7.41553E+00  5.57716E+00  6.22436E+00  6.42498E+00  3.59098E+00  6.74460E+00  5.61098E+00  5.72904E+00  1.95333E+00
   7.82918E+00  4.00825E+00  5.11941E+00  6.87109E+00  2.79043E+00  9.04993E+00  7.90716E+00  7.72923E+00  6.11564E+00  8.47491E+00
   6.01617E+00  7.79987E+00  4.98779E+00  1.09494E+01  1.01920E+01  8.30077E+00  6.99932E+00  8.00151E+00  6.06898E+00  5.80291E+00
   7.42163E+00  4.66499E+00  6.21370E+00  7.86420E+00  6.41675E+00  8.26654E+00  8.86691E+00  5.08573E+00  4.56087E+00  5.24825E+00
   4.49875E+00  8.13627E+00  6.49989E+00  6.76912E+00  1.01497E+01  3.55973E+00  5.69517E+00  5.05707E+00  9.42294E+00  6.51749E+00
   6.77589E+00  8.31503E+00  3.10095E+00  7.20274E+00  5.72850E+00  8.34558E+00  5.83152E+00  8.65236E+00  9.65366E+00  1.13048E+01
   9.12123E+00  5.51463E+00  4.39784E+00  1.01214E+01  1.31846E+01  7.41464E+00  5.52568E+00  6.37005E+00  7.08623E+00  4.57378E+00
   8.15971E+00  5.39895E+00  7.68342E+00  6.47656E+00  9.45919E+00  6.46851E+00  7.16429E+00  8.69177E+00  7.65097E+00  4.87533E+00
   3.37187E+00  4.45938E+00  7.26307E+00  3.53289E+00  5.37546E+00  1.90378E+00  5.48443E+00  4.20611E+00  2.78925E+00  3.73327E+00
   1.04024E+00  1.78302E+00  8.96293E-01  2.74864E+00  1.20477E+00 -1.01390E+00 -1.47785E+00 -7.58663E-01  2.30232E+00 -1.93605E+00
  -2.54379E+00 -2.92036E+00 -1.80577E+00 -1.71560E+00 -2.44774E+00 -1.72773E+00 -1.40784E+00 -3.42691E+00 -1.48099E+00  7.96866E-01
  -5.22261E-01 -3.80446E-01 -6.18010E-02  5.52007E+00  2.92520E+00  2.90834E+00  7.49273E+00  7.44426E+00  8.67245E+00  7.12043E+00
   6.05097E+00  4.40441E+00  7.35554E+00  7.56316E+00  7.28523E+00  7.26593E+00  8.65616E+00  8.38670E+00  7.57634E+00  1.06266E+01
   5.62087E+00  6.10376E+00  4.88796E+00  3.76777E+00  4.37487E+00  2.24568E+00  2.84307E+00  2.79100E+00 -1.07273E+00  1.72049E-01
  -3.44654E-02 -1.01150E+00  1.60554E+00  6.57117E-01 -3.39879E+00  1.08441E+00 -2.01248E+00 -2.23935E+00  2.11709E+00 -6.43722E-01
  -1.89298E+00 -2.07716E+00  1.13817E+00 -7.66516E-01 -2.52129E+00 -1.59793E+00 -6.84233E-01 -2.27644E+00  6.00086E-01  1.64403E-01
  -5.56344E-01  2.04300E+00 -1.73285E+00 -3.11661E+00 -7.12567E-01  1.34347E+00  2.14311E+00  1.66765E-02 -4.05761E+00 -4.31511E+00
   1.32477E+00 -1.32547E+00  6.55760E-01 -4.33415E-01 -1.19180E+00  3.10723E-01 -3.70574E-01 -5.26870E+00 -2.43254E+00 -5.24092E-01
  -3.56248E+00 -2.89232E+00 -5.89737E-01 -4.61958E+00 -1.27289E+00 -3.30752E+00 -3.35615E+00 -5.76692E-01  1.79132E-01 -1.26691E+00
   2.20920E+00 -3.90684E+00 -4.03625E+00  4.17179E-01 -9.60731E-01 -6.04632E-01 -3.35038E+00 -2.85791E+00  2.81257E+00 -2.14819E+00
   1.21479E+00  4.64709E-01 -5.36030E-01 -1.00380E+00 -3.03943E+00 -2.94192E-01  6.36300E-01  2.67546E+00  3.73309E-01 -6.11085E-01
  -1.26433E+00 -3.01073E-01 -1.65247E+00 -2.99710E+00 -1.17141E+00 -1.46650E+00 -2.32092E+00 -1.19527E+00
 NY points of the fit to the data follow
   7.72949E+00  7.89899E+00  8.62883E+00  1.02926E+01  1.27020E+01  1.62795E+01  2.09143E+01  2.59777E+01  3.07115E+01  3.39110E+01
   3.44706E+01  3.21403E+01  2.76965E+01  2.25536E+01  1.79897E+01  1.46297E+01  1.25164E+01  1.12419E+01  1.04665E+01  9.99403E+00
   9.63855E+00  9.31082E+00  8.93086E+00  8.91610E+00  9.31048E+00  9.69242E+00  1.05976E+01  1.23503E+01  1.45714E+01  1.66146E+01
   1.79148E+01  1.82942E+01  1.76267E+01  1.60087E+01  1.38053E+01  1.13364E+01  9.07603E+00  7.45495E+00  6.59134E+00  6.66378E+00
   7.71104E+00  9.33961E+00  1.10457E+01  1.27673E+01  1.46075E+01  1.61987E+01  1.68983E+01  1.62705E+01  1.44112E+01  1.18908E+01
   9.39802E+00  7.43137E+00  6.27650E+00  5.92163E+00  6.07199E+00  6.52231E+00  7.12007E+00  7.74951E+00  8.21957E+00  8.28827E+00
   7.83191E+00  6.92631E+00  5.81384E+00  4.82882E+00  4.21923E+00  4.13912E+00  4.46218E+00  4.96323E+00  5.49370E+00  5.93353E+00
   6.18305E+00  6.17710E+00  5.92721E+00  5.52141E+00  5.07838E+00  4.69481E+00  4.41646E+00  4.23508E+00  4.12462E+00  4.05775E+00
   4.08315E+00  4.23505E+00  4.34183E+00  4.51280E+00  4.74399E+00  4.82559E+00  4.57746E+00  4.03192E+00  3.38846E+00  2.92158E+00
   2.80405E+00  2.97784E+00  3.32144E+00  3.69243E+00  4.03666E+00  4.70722E+00  7.51262E+00  1.32382E+01  2.05501E+01  3.08177E+01
   4.38094E+01  5.56314E+01  6.13647E+01  5.84798E+01  4.82320E+01  3.45896E+01  2.17459E+01  1.23099E+01  6.74664E+00  4.14936E+00
   3.23912E+00  2.88733E+00  2.72239E+00  2.63425E+00  2.58377E+00  2.56849E+00  2.58650E+00  2.64970E+00  2.84128E+00  3.39005E+00
   5.36725E+00  1.04118E+01  1.69135E+01  2.53474E+01  3.65439E+01  4.80507E+01  5.54336E+01  5.55473E+01  4.83577E+01  3.68413E+01
   2.49568E+01  1.54311E+01  9.03195E+00  5.16290E+00  2.89432E+00  1.47038E+00  7.19113E-01  6.98375E-01  1.29741E+00  2.17512E+00
   2.92204E+00  3.25452E+00  3.11832E+00  2.64783E+00  2.03844E+00  1.46128E+00  1.00348E+00  6.43100E-01  3.14514E-01 -1.18333E-02
  -3.33777E-01 -6.55333E-01 -9.31928E-01 -1.10128E+00 -1.17731E+00 -1.28682E+00 -1.41443E+00 -1.65602E+00 -2.14200E+00 -2.74907E+00
  -3.34311E+00 -3.62074E+00 -3.40811E+00 -2.96497E+00 -2.73672E+00 -2.97023E+00 -3.64656E+00 -4.51817E+00 -5.29762E+00 -5.83681E+00
  -6.20869E+00 -6.50801E+00 -6.78414E+00 -7.23340E+00 -7.74140E+00 -8.05827E+00 -7.92983E+00 -7.43165E+00 -6.96959E+00 -6.83319E+00
  -6.95987E+00 -7.17982E+00 -7.16579E+00 -6.85017E+00 -6.38292E+00 -5.68018E+00 -4.54834E+00 -2.96867E+00 -1.16710E+00  4.48695E-01
   1.39888E+00  1.44399E+00  6.58500E-01 -5.06458E-01 -1.64553E+00 -2.44052E+00 -2.69954E+00 -2.34486E+00 -1.39412E+00 -7.86656E-02
   1.41277E+00  2.83785E+00  3.91146E+00  4.31303E+00  3.61298E+00  1.96995E+00 -3.51348E-01 -3.12234E+00 -5.52431E+00 -6.78324E+00
  -6.36678E+00 -4.48676E+00 -1.54133E+00  2.14681E+00  5.67734E+00  7.81183E+00  7.62179E+00  5.13910E+00  1.35670E+00 -2.67057E+00
  -6.12226E+00 -7.95139E+00 -7.52371E+00 -4.99365E+00 -1.28323E+00  2.37570E+00  5.13916E+00  6.63675E+00  6.89882E+00  6.35331E+00
   5.62105E+00  5.35362E+00  5.68192E+00  6.42502E+00  7.36162E+00  8.20577E+00  8.66705E+00  8.49917E+00  7.94271E+00  7.24140E+00
   6.53474E+00  6.10768E+00  6.37573E+00  7.41011E+00  8.91411E+00  1.04492E+01  1.16751E+01  1.24600E+01  1.29081E+01  1.36304E+01
   1.53018E+01  1.76958E+01  2.11537E+01  2.63082E+01  3.53553E+01  4.65201E+01  5.67805E+01  6.93663E+01  8.44167E+01  9.64142E+01
   9.88976E+01  8.94109E+01  7.08323E+01  4.93340E+01  3.06163E+01  1.77470E+01  1.05931E+01  7.46493E+00  6.34697E+00  5.74585E+00
   5.38137E+00  5.21904E+00  5.21817E+00  5.27910E+00  5.28874E+00  5.16683E+00  4.92612E+00  4.62502E+00  4.32128E+00  4.07222E+00
   3.92285E+00  3.88013E+00  3.92016E+00  4.01025E+00  4.12030E+00  4.23739E+00  4.36453E+00  4.50793E+00  4.68221E+00  4.90595E+00
   5.18375E+00  5.50061E+00  5.82886E+00  6.14181E+00  6.42778E+00  6.67832E+00  6.89244E+00  7.07749E+00  7.24169E+00  7.38807E+00
   7.51218E+00  7.60437E+00  7.65391E+00  7.65329E+00  7.60038E+00  7.49879E+00  7.35575E+00  7.18110E+00  6.98449E+00  6.77565E+00
   6.56363E+00  6.35686E+00  6.16323E+00  5.99072E+00  5.84679E+00  5.73827E+00  5.67072E+00  5.64907E+00  5.67826E+00  5.76568E+00
   5.92680E+00  6.19314E+00  6.51270E+00  6.80392E+00  7.09514E+00  7.29842E+00  7.25830E+00  6.91088E+00  6.34105E+00  5.78521E+00
   5.49570E+00  5.49174E+00  5.79703E+00  6.41697E+00  7.23840E+00  8.04541E+00  8.62216E+00  8.86430E+00  8.79741E+00  8.54026E+00
   8.24319E+00  8.02727E+00  7.87900E+00  7.77859E+00  7.72190E+00  7.62369E+00  7.38325E+00  6.97992E+00  6.50613E+00  6.16095E+00
   6.03221E+00  6.13548E+00  6.48245E+00  7.00393E+00  7.54291E+00  7.91544E+00  7.99653E+00  7.76676E+00  7.28844E+00  6.66267E+00
   5.98358E+00  5.30948E+00  4.67100E+00  4.07431E+00  3.52096E+00  3.01698E+00  2.56615E+00  2.16901E+00  1.82304E+00  1.52402E+00
   1.26671E+00  1.04591E+00  8.56774E-01  6.95486E-01  5.59201E-01  4.46312E-01  3.55985E-01  2.88229E-01  2.43469E-01  2.22785E-01
   2.27570E-01  2.59709E-01  3.21126E-01  4.13959E-01  5.40244E-01  7.02180E-01  9.01744E-01  1.14077E+00  1.42042E+00  1.74123E+00
   2.10270E+00  2.50338E+00  2.94039E+00  3.40938E+00  3.90412E+00  4.41672E+00  4.93750E+00  5.45543E+00  5.95812E+00  6.43245E+00
   6.86470E+00  7.24162E+00  7.55074E+00  7.78137E+00  7.92479E+00  7.97503E+00  7.92893E+00  7.78675E+00  7.55183E+00  7.23074E+00
   6.83253E+00  6.36855E+00  5.85155E+00  5.29539E+00  4.71411E+00  4.12146E+00  3.53008E+00  2.95131E+00  2.39463E+00  1.86786E+00
   1.37674E+00  9.25246E-01  5.15411E-01  1.47856E-01 -1.78181E-01 -4.64273E-01 -7.12870E-01 -9.26812E-01 -1.10940E+00 -1.26389E+00
  -1.39356E+00 -1.50137E+00 -1.59021E+00 -1.66263E+00 -1.72108E+00 -1.76752E+00 -1.80378E+00 -1.83125E+00 -1.85129E+00 -1.86496E+00
  -1.87331E+00 -1.87705E+00 -1.87687E+00 -1.87322E+00 -1.86667E+00 -1.85759E+00 -1.84642E+00 -1.83338E+00 -1.81874E+00 -1.80264E+00
  -1.78537E+00 -1.76707E+00 -1.74797E+00 -1.72808E+00 -1.70753E+00 -1.68632E+00 -1.66465E+00 -1.64253E+00 -1.62008E+00 -1.59721E+00
  -1.57403E+00 -1.55051E+00 -1.52680E+00 -1.50286E+00 -1.47876E+00 -1.45440E+00 -1.42988E+00 -1.40518E+00 -1.38042E+00 -1.35552E+00
  -1.33054E+00 -1.30536E+00 -1.28010E+00 -1.25472E+00 -1.22932E+00 -1.20380E+00 -1.17820E+00 -1.15244E+00 -1.12664E+00 -1.10074E+00
  -1.07483E+00 -1.04877E+00 -1.02262E+00 -9.96311E-01 -9.69948E-01 -9.43470E-01 -9.16925E-01 -8.90188E-01 -8.63313E-01 -8.36241E-01
  -8.09074E-01 -7.81723E-01 -7.54210E-01 -7.26405E-01 -6.98368E-01 -6.70036E-01 -6.41481E-01 -6.12576E-01
 NY background values follow
     5.785E+00    5.744E+00    5.702E+00    5.661E+00    5.619E+00    5.577E+00    5.536E+00    5.494E+00    5.451E+00    5.409E+00
     5.367E+00    5.324E+00    5.282E+00    5.239E+00    5.196E+00    5.153E+00    5.109E+00    5.066E+00    5.023E+00    4.979E+00
     4.935E+00    4.891E+00    4.847E+00    4.803E+00    4.758E+00    4.714E+00    4.669E+00    4.624E+00    4.579E+00    4.534E+00
     4.489E+00    4.443E+00    4.397E+00    4.352E+00    4.306E+00    4.259E+00    4.213E+00    4.167E+00    4.120E+00    4.073E+00
     4.026E+00    3.979E+00    3.932E+00    3.884E+00    3.836E+00    3.788E+00    3.740E+00    3.692E+00    3.644E+00    3.595E+00
     3.546E+00    3.497E+00    3.448E+00    3.399E+00    3.350E+00    3.301E+00    3.251E+00    3.202E+00    3.152E+00    3.102E+00
     3.053E+00    3.003E+00    2.953E+00    2.903E+00    2.853E+00    2.803E+00    2.753E+00    2.702E+00    2.652E+00    2.602E+00
     2.552E+00    2.502E+00    2.452E+00    2.402E+00    2.352E+00    2.302E+00    2.252E+00    2.202E+00    2.152E+00    2.103E+00
     2.053E+00    2.003E+00    1.954E+00    1.905E+00    1.855E+00    1.806E+00    1.757E+00    1.709E+00    1.660E+00    1.611E+00
     1.563E+00    1.515E+00    1.467E+00    1.419E+00    1.371E+00    1.323E+00    1.276E+00    1.228E+00    1.180E+00    1.133E+00
     1.085E+00    1.037E+00    9.895E-01    9.416E-01    8.936E-01    8.454E-01    7.970E-01    7.485E-01    6.997E-01    6.507E-01
     6.015E-01    5.519E-01    5.020E-01    4.518E-01    4.012E-01    3.503E-01    2.989E-01    2.471E-01    1.949E-01    1.421E-01
     8.892E-02    3.516E-02   -1.915E-02   -7.403E-02   -1.295E-01   -1.856E-01   -2.423E-01   -2.997E-01   -3.578E-01   -4.166E-01
    -4.762E-01   -5.365E-01   -5.976E-01   -6.595E-01   -7.222E-01   -7.858E-01   -8.502E-01   -9.155E-01   -9.816E-01   -1.048E+00
    -1.116E+00   -1.184E+00   -1.252E+00   -1.321E+00   -1.390E+00   -1.459E+00   -1.528E+00   -1.597E+00   -1.666E+00   -1.735E+00
    -1.804E+00   -1.873E+00   -1.941E+00   -2.008E+00   -2.076E+00   -2.142E+00   -2.208E+00   -2.272E+00   -2.336E+00   -2.399E+00
    -2.461E+00   -2.522E+00   -2.582E+00   -2.640E+00   -2.697E+00   -2.752E+00   -2.806E+00   -2.858E+00   -2.909E+00   -2.957E+00
    -3.004E+00   -3.049E+00   -3.091E+00   -3.132E+00   -3.170E+00   -3.206E+00   -3.240E+00   -3.271E+00   -3.299E+00   -3.325E+00
    -3.349E+00   -3.369E+00   -3.386E+00   -3.401E+00   -3.413E+00   -3.423E+00   -3.429E+00   -3.434E+00   -3.435E+00   -3.435E+00
    -3.432E+00   -3.426E+00   -3.419E+00   -3.409E+00   -3.398E+00   -3.384E+00   -3.368E+00   -3.351E+00   -3.331E+00   -3.310E+00
    -3.287E+00   -3.263E+00   -3.237E+00   -3.209E+00   -3.180E+00   -3.150E+00   -3.118E+00   -3.086E+00   -3.051E+00   -3.016E+00
    -2.980E+00   -2.943E+00   -2.905E+00   -2.866E+00   -2.826E+00   -2.785E+00   -2.744E+00   -2.702E+00   -2.660E+00   -2.617E+00
    -2.574E+00   -2.530E+00   -2.486E+00   -2.442E+00   -2.398E+00   -2.354E+00   -2.309E+00   -2.265E+00   -2.221E+00   -2.177E+00
    -2.133E+00   -2.089E+00   -2.045E+00   -2.001E+00   -1.958E+00   -1.914E+00   -1.871E+00   -1.829E+00   -1.786E+00   -1.744E+00
    -1.702E+00   -1.660E+00   -1.619E+00   -1.578E+00   -1.537E+00   -1.497E+00   -1.457E+00   -1.418E+00   -1.379E+00   -1.341E+00
    -1.303E+00   -1.266E+00   -1.229E+00   -1.193E+00   -1.157E+00   -1.122E+00   -1.088E+00   -1.054E+00   -1.021E+00   -9.888E-01
    -9.572E-01   -9.263E-01   -8.961E-01   -8.667E-01   -8.381E-01   -8.103E-01   -7.833E-01   -7.572E-01   -7.320E-01   -7.076E-01
    -6.842E-01   -6.617E-01   -6.402E-01   -6.196E-01   -5.999E-01   -5.812E-01   -5.635E-01   -5.467E-01   -5.308E-01   -5.160E-01
    -5.020E-01   -4.890E-01   -4.769E-01   -4.658E-01   -4.556E-01   -4.464E-01   -4.381E-01   -4.307E-01   -4.243E-01   -4.188E-01
    -4.142E-01   -4.106E-01   -4.079E-01   -4.062E-01   -4.053E-01   -4.054E-01   -4.064E-01   -4.084E-01   -4.112E-01   -4.150E-01
    -4.197E-01   -4.254E-01   -4.319E-01   -4.394E-01   -4.478E-01   -4.571E-01   -4.673E-01   -4.784E-01   -4.905E-01   -5.034E-01
    -5.173E-01   -5.321E-01   -5.477E-01   -5.643E-01   -5.818E-01   -6.002E-01   -6.195E-01   -6.397E-01   -6.608E-01   -6.827E-01
    -7.054E-01   -7.289E-01   -7.532E-01   -7.782E-01   -8.038E-01   -8.301E-01   -8.571E-01   -8.846E-01   -9.126E-01   -9.412E-01
    -9.703E-01   -9.998E-01   -1.030E+00   -1.060E+00   -1.091E+00   -1.122E+00   -1.153E+00   -1.185E+00   -1.217E+00   -1.249E+00
    -1.281E+00   -1.313E+00   -1.346E+00   -1.378E+00   -1.411E+00   -1.443E+00   -1.476E+00   -1.508E+00   -1.541E+00   -1.573E+00
    -1.605E+00   -1.637E+00   -1.669E+00   -1.700E+00   -1.731E+00   -1.762E+00   -1.792E+00   -1.823E+00   -1.852E+00   -1.881E+00
    -1.910E+00   -1.938E+00   -1.966E+00   -1.993E+00   -2.020E+00   -2.046E+00   -2.071E+00   -2.096E+00   -2.120E+00   -2.144E+00
    -2.167E+00   -2.189E+00   -2.211E+00   -2.231E+00   -2.252E+00   -2.271E+00   -2.290E+00   -2.308E+00   -2.325E+00   -2.342E+00
    -2.358E+00   -2.373E+00   -2.387E+00   -2.400E+00   -2.413E+00   -2.425E+00   -2.436E+00   -2.446E+00   -2.456E+00   -2.464E+00
    -2.472E+00   -2.478E+00   -2.484E+00   -2.489E+00   -2.493E+00   -2.496E+00   -2.498E+00   -2.499E+00   -2.499E+00   -2.498E+00
    -2.497E+00   -2.494E+00   -2.490E+00   -2.485E+00   -2.479E+00   -2.472E+00   -2.464E+00   -2.455E+00   -2.445E+00   -2.434E+00
    -2.422E+00   -2.409E+00   -2.395E+00   -2.380E+00   -2.364E+00   -2.347E+00   -2.329E+00   -2.311E+00   -2.291E+00   -2.271E+00
    -2.251E+00   -2.229E+00   -2.207E+00   -2.184E+00   -2.161E+00   -2.137E+00   -2.112E+00   -2.087E+00   -2.061E+00   -2.035E+00
    -2.009E+00   -1.982E+00   -1.955E+00   -1.927E+00   -1.899E+00   -1.870E+00   -1.842E+00   -1.813E+00   -1.784E+00   -1.754E+00
    -1.725E+00   -1.695E+00   -1.665E+00   -1.635E+00   -1.606E+00   -1.576E+00   -1.546E+00   -1.516E+00   -1.486E+00   -1.456E+00
    -1.426E+00   -1.397E+00   -1.367E+00   -1.338E+00   -1.309E+00   -1.280E+00   -1.252E+00   -1.223E+00   -1.195E+00   -1.166E+00
    -1.138E+00   -1.111E+00   -1.083E+00   -1.055E+00   -1.028E+00   -1.000E+00   -9.730E-01   -9.459E-01   -9.189E-01   -8.921E-01
    -8.653E-01   -8.386E-01   -8.121E-01   -7.856E-01   -7.592E-01   -7.329E-01   -7.067E-01   -6.805E-01   -6.545E-01   -6.285E-01
    -6.025E-01   -5.767E-01   -5.508E-01   -5.251E-01   -4.993E-01   -4.736E-01   -4.480E-01   -4.224E-01   -3.968E-01   -3.712E-01
    -3.456E-01   -3.201E-01   -2.946E-01   -2.691E-01   -2.435E-01   -2.180E-01   -1.925E-01   -1.669E-01
 Ala      Conc. = 1.14E+02
