 LCModel (Version 6.3-1L) Copyright: S.W. Provencher.          Ref.: Magn. Reson. Med. 30:672-679 (1993).                
 Slice#1 Row#13 Col#8  PD_05_press_1_raw_act
 36 lines in following concentration table = NCONC+1
    Conc.  %SD /Cr+PCr  Metabolite                                         
  152.231  53%   0.554 Ala                                                 
   50.678 122%   0.184 Asp                                                 
   40.453 346%   0.147 Cr                                                  
  234.400  61%   0.853 PCr                                                 
   37.251 102%   0.136 GABA                                                
   28.449 133%   0.104 Glc                                                 
  110.952 155%   0.404 Gln                                                 
  573.084  33%   2.085 Glu                                                 
    0.000 999%   0.000 GPC                                                 
   65.392  19%   0.238 PCh                                                 
   66.065  72%   0.240 GSH                                                 
  324.878  45%   1.182 Ins                                                 
  134.682  68%   0.490 Lac                                                 
  650.791  10%   2.368 NAA                                                 
   42.232 170%   0.154 NAAG                                                
   20.220  52% 7.4E-02 Scyllo                                              
   78.652  76%   0.286 Tau                                                 
   90.366  57%   0.329 -CrCH2                                              
   65.392  19%   0.238 GPC+PCh                                             
  693.023   6%   2.521 NAA+NAAG                                            
  274.852  12%   1.000 Cr+PCr                                              
  684.035  42%   2.489 Glu+Gln                                             
  219.443 103%   0.798 Lip13a                                              
   10.796 999% 3.9E-02 Lip13b                                              
    0.000 999%   0.000 Lip09                                               
  265.492  27%   0.966 MM09                                                
   40.451 108%   0.147 Lip20                                               
  439.268  27%   1.598 MM20                                                
   81.347  33%   0.296 MM12                                                
  204.332  40%   0.743 MM14                                                
  148.529  34%   0.540 MM17                                                
  230.239  59%   0.838 Lip13a+Lip13b                                       
  515.918  27%   1.877 MM14+Lip13a+Lip13b+MM12                             
  265.492  27%   0.966 MM09+Lip09                                          
  479.719  25%   1.745 MM20+Lip20                                          
   6 lines in following misc. output table
  FWHM = 0.069 ppm    S/N =   5                                            
  Data shift = 0.023 ppm                                                   
  Ph: -49 deg     -12.1 deg/ppm                                            
  alphaB,S = 8.5E+01,   2.0E+02                                            
   14 spline knots.   Ns = 7(1)                                            
   2 inflections.     1 extrema                                            
  498 points on ppm-axis = NY
      4.000000     3.992357     3.984714     3.977070     3.969427     3.961784     3.954141     3.946497     3.938854     3.931211
      3.923568     3.915925     3.908281     3.900638     3.892995     3.885352     3.877708     3.870065     3.862422     3.854779
      3.847136     3.839492     3.831849     3.824206     3.816563     3.808919     3.801276     3.793633     3.785990     3.778347
      3.770703     3.763060     3.755417     3.747774     3.740130     3.732487     3.724844     3.717201     3.709558     3.701914
      3.694271     3.686628     3.678985     3.671341     3.663698     3.656055     3.648412     3.640769     3.633125     3.625482
      3.617839     3.610196     3.602552     3.594909     3.587266     3.579623     3.571980     3.564336     3.556693     3.549050
      3.541407     3.533763     3.526120     3.518477     3.510834     3.503191     3.495547     3.487904     3.480261     3.472618
      3.464974     3.457331     3.449688     3.442045     3.434402     3.426758     3.419115     3.411472     3.403829     3.396185
      3.388542     3.380899     3.373256     3.365613     3.357969     3.350326     3.342683     3.335040     3.327396     3.319753
      3.312110     3.304467     3.296824     3.289180     3.281537     3.273894     3.266251     3.258607     3.250964     3.243321
      3.235678     3.228034     3.220391     3.212748     3.205105     3.197462     3.189818     3.182175     3.174532     3.166889
      3.159245     3.151602     3.143959     3.136316     3.128673     3.121029     3.113386     3.105743     3.098100     3.090456
      3.082813     3.075170     3.067527     3.059884     3.052240     3.044597     3.036954     3.029311     3.021667     3.014024
      3.006381     2.998738     2.991095     2.983451     2.975808     2.968165     2.960522     2.952878     2.945235     2.937592
      2.929949     2.922306     2.914662     2.907019     2.899376     2.891733     2.884089     2.876446     2.868803     2.861160
      2.853517     2.845873     2.838230     2.830587     2.822944     2.815300     2.807657     2.800014     2.792371     2.784728
      2.777084     2.769441     2.761798     2.754155     2.746511     2.738868     2.731225     2.723582     2.715939     2.708295
      2.700652     2.693009     2.685366     2.677722     2.670079     2.662436     2.654793     2.647150     2.639506     2.631863
      2.624220     2.616577     2.608933     2.601290     2.593647     2.586004     2.578361     2.570717     2.563074     2.555431
      2.547788     2.540144     2.532501     2.524858     2.517215     2.509572     2.501928     2.494285     2.486642     2.478999
      2.471355     2.463712     2.456069     2.448426     2.440783     2.433139     2.425496     2.417853     2.410210     2.402566
      2.394923     2.387280     2.379637     2.371994     2.364350     2.356707     2.349064     2.341421     2.333777     2.326134
      2.318491     2.310848     2.303205     2.295561     2.287918     2.280275     2.272632     2.264988     2.257345     2.249702
      2.242059     2.234416     2.226772     2.219129     2.211486     2.203843     2.196199     2.188556     2.180913     2.173270
      2.165627     2.157983     2.150340     2.142697     2.135054     2.127410     2.119767     2.112124     2.104481     2.096838
      2.089194     2.081551     2.073908     2.066265     2.058621     2.050978     2.043335     2.035692     2.028049     2.020405
      2.012762     2.005119     1.997476     1.989833     1.982190     1.974546     1.966903     1.959260     1.951617     1.943974
      1.936331     1.928688     1.921045     1.913402     1.905759     1.898115     1.890472     1.882829     1.875186     1.867543
      1.859900     1.852257     1.844614     1.836971     1.829327     1.821684     1.814041     1.806398     1.798755     1.791112
      1.783469     1.775826     1.768183     1.760540     1.752896     1.745253     1.737610     1.729967     1.722324     1.714681
      1.707038     1.699395     1.691752     1.684108     1.676465     1.668822     1.661179     1.653536     1.645893     1.638250
      1.630607     1.622964     1.615321     1.607677     1.600034     1.592391     1.584748     1.577105     1.569462     1.561819
      1.554176     1.546533     1.538890     1.531246     1.523603     1.515960     1.508317     1.500674     1.493031     1.485388
      1.477745     1.470102     1.462458     1.454815     1.447172     1.439529     1.431886     1.424243     1.416600     1.408957
      1.401314     1.393671     1.386027     1.378384     1.370741     1.363098     1.355455     1.347812     1.340169     1.332526
      1.324883     1.317240     1.309596     1.301953     1.294310     1.286667     1.279024     1.271381     1.263738     1.256095
      1.248452     1.240808     1.233165     1.225522     1.217879     1.210236     1.202593     1.194950     1.187307     1.179664
      1.172021     1.164377     1.156734     1.149091     1.141448     1.133805     1.126162     1.118519     1.110876     1.103233
      1.095590     1.087946     1.080303     1.072660     1.065017     1.057374     1.049731     1.042088     1.034445     1.026802
      1.019158     1.011515     1.003872     0.996229     0.988586     0.980943     0.973300     0.965657     0.958014     0.950371
      0.942727     0.935084     0.927441     0.919798     0.912155     0.904512     0.896869     0.889226     0.881583     0.873940
      0.866296     0.858653     0.851010     0.843367     0.835724     0.828081     0.820438     0.812795     0.805152     0.797508
      0.789865     0.782222     0.774579     0.766936     0.759293     0.751650     0.744007     0.736364     0.728721     0.721077
      0.713434     0.705791     0.698148     0.690505     0.682862     0.675219     0.667576     0.659933     0.652290     0.644646
      0.637003     0.629360     0.621717     0.614074     0.606431     0.598788     0.591145     0.583502     0.575858     0.568215
      0.560572     0.552929     0.545286     0.537643     0.530000     0.522357     0.514714     0.507071     0.499427     0.491784
      0.484141     0.476498     0.468855     0.461212     0.453569     0.445925     0.438282     0.430639     0.422996     0.415353
      0.407710     0.400067     0.392424     0.384780     0.377137     0.369494     0.361851     0.354208     0.346565     0.338922
      0.331278     0.323635     0.315992     0.308349     0.300706     0.293063     0.285420     0.277777     0.270133     0.262490
      0.254847     0.247204     0.239561     0.231918     0.224275     0.216631     0.208988     0.201345
 NY phased data points follow
  -8.13480E-02 -6.78880E-01 -1.81875E+00  2.57589E+00  6.54467E-02 -5.51154E-01 -1.82842E-01  6.75169E-01 -1.13864E+00  1.91417E+00
   3.50963E+00  3.17125E+00 -9.92329E-01 -4.83214E-01  4.98349E+00 -1.49705E+00 -1.52045E+00  2.73763E+00 -1.29242E+00 -4.50089E+00
  -1.12172E+00  3.10300E-01  3.08169E-01 -4.82164E-01 -1.35718E+00 -1.06392E+00 -6.46697E-01 -2.10813E+00 -1.20391E+00 -6.75416E-01
   1.15726E+00  9.53874E-01  1.43261E+00  1.13059E+00  3.57772E+00 -2.93082E-01 -3.93939E-01  1.88269E+00  2.82713E-02  1.33783E-01
   2.90463E+00 -5.15325E-01  1.53056E+00 -4.57184E-01  1.69974E+00 -2.62677E+00  6.98111E-01  2.74936E+00  5.35435E+00 -4.88438E-01
  -1.87622E-01  3.72974E-01 -2.22739E+00 -2.69096E+00 -3.44268E+00 -6.43518E-01 -3.76748E+00 -1.76434E+00 -1.69297E+00  2.75185E+00
   3.83787E-01  4.77311E-02 -3.11693E+00 -2.93333E+00  4.15618E+00 -1.38430E+00  1.05218E+00 -2.31211E+00 -4.30895E+00 -1.91559E+00
  -2.61511E+00  2.64060E+00  1.69155E+00 -1.10825E+00 -1.20085E+00 -1.37113E+00  2.18212E+00 -7.98958E-01  1.98423E+00 -1.77822E+00
   7.55549E-01 -2.48708E-01 -3.91989E-01 -7.16341E-01 -2.07594E+00  1.13996E+00  8.66975E-01  1.58940E+00 -1.65294E-01 -1.03148E-01
  -1.12827E+00 -2.05993E+00  1.20976E+00  1.68517E+00  2.51397E+00  4.22465E+00  3.37347E+00  8.98450E-01  1.74107E+00 -2.43534E-01
   9.91169E-01  2.25446E+00  1.72395E+00  3.52269E+00  9.38130E+00  5.15860E+00  4.51349E+00  2.27693E+00 -1.56571E+00 -1.54629E+00
   2.78268E+00  1.61507E+00 -2.31043E-01  1.72340E+00  8.62934E-01  1.34500E+00 -4.09190E+00  1.06618E+00 -1.61797E+00 -1.39581E+00
   1.52894E+00 -1.31264E+00  2.22276E+00  7.60913E-03  1.24113E+00  6.45118E+00  8.99200E+00  7.55886E+00  9.42880E+00  7.61288E+00
   4.64860E+00  4.83089E+00  4.39194E+00  1.56189E+00  3.26980E+00  8.90123E-01 -1.63493E-01  2.08436E+00 -6.87092E-01  1.20118E+00
   4.19456E+00  1.59328E-01 -1.54892E+00 -3.54499E+00 -1.04237E+00  7.27653E-01  3.09085E-01 -3.13818E+00 -3.81883E+00 -2.40850E+00
  -7.97737E-01 -3.99090E+00 -2.72939E+00 -4.44019E+00  4.43960E+00 -1.75943E+00 -1.22097E+00  1.44478E+00  1.98855E+00 -2.22676E+00
  -1.23683E+00  3.23093E+00 -1.09742E+00 -2.68752E+00 -1.64691E+00 -1.37623E+00 -2.43943E+00  1.92231E-02 -2.63224E+00 -6.51703E+00
   9.53492E-01 -2.82699E+00 -4.30312E+00 -3.33015E+00 -3.18555E+00 -7.17534E+00 -5.88879E+00 -5.58942E+00 -4.77711E+00 -3.20190E+00
  -4.31089E+00 -6.36521E+00 -2.53674E+00 -1.76353E+00 -3.54437E+00 -1.27254E-01 -2.24361E+00  8.34560E-02  3.40118E-01 -4.17167E+00
  -2.04167E+00 -4.13618E+00 -7.15911E-01 -7.44559E+00 -3.67292E+00  1.79107E+00  1.68160E-01 -1.52571E+00 -1.50468E+00 -1.80380E+00
  -1.64869E+00 -2.68878E+00 -1.99588E+00 -3.02854E+00  8.36470E-01  2.38602E+00 -1.24777E-01 -8.93500E-01 -1.57219E+00  5.63944E-02
  -1.66548E+00 -5.48573E-01  3.77453E+00  3.19455E-01 -5.84203E-01  2.01089E+00  3.38538E+00 -1.62797E-01 -1.66044E+00 -5.36590E-01
  -6.01767E-01 -7.55217E-01 -8.88003E-01 -2.97559E+00 -1.62874E+00  3.68632E+00 -4.15591E+00  2.74239E+00 -7.51872E-01 -1.73541E+00
   4.50193E+00  1.73878E+00  3.10463E+00  1.25874E+00  9.78569E-01  2.81317E+00  2.16381E+00  1.34845E+00  1.21989E+00  3.74356E+00
   1.86908E+00  2.51268E+00  4.80405E-01 -6.10559E-01  1.54847E-01  3.36770E+00 -5.67000E-01  3.87385E+00  3.53621E+00  1.30180E+00
   2.04867E+00  2.48162E+00  4.51431E+00  6.35017E+00  4.19094E+00  7.99462E+00  4.36791E+00  1.08561E+01  1.81029E+01  2.05569E+01
   2.09522E+01  2.33051E+01  1.89977E+01  1.42800E+01  1.43970E+01  1.04193E+01  9.46794E+00  5.04408E+00  4.80134E+00  3.95450E+00
   9.92806E-01 -7.68123E-01 -1.72358E-01  1.08799E+00  2.10823E+00  1.31854E+00 -8.64580E-01  5.24388E+00 -2.00245E-01 -2.09788E+00
   2.14736E+00  1.67561E+00  1.52892E+00  5.10135E-01  7.25297E+00  1.02857E+00 -2.63629E-01 -2.14233E+00  1.26586E+00 -2.19706E+00
  -2.66643E+00 -6.60113E-01 -1.76045E+00 -2.85775E+00  4.23413E+00  3.02237E+00 -1.50396E+00  2.22134E+00 -4.12306E-01 -1.35118E+00
   1.01379E+00 -2.22566E+00  3.56913E+00  2.29208E+00  2.66844E-01  1.95007E+00  2.05834E+00  2.26618E+00  3.23675E+00  1.81825E+00
   1.86636E+00  2.00339E+00  4.54114E+00  3.07746E+00  4.52506E+00  4.65127E+00  2.42997E+00  8.26965E-01  5.02726E-01 -1.18457E+00
  -4.06778E-02  4.60974E+00  4.59603E+00 -7.19762E-02 -5.63995E-02  1.52745E+00 -2.15458E+00  4.17881E+00  1.24073E+00 -3.52302E+00
  -1.12874E+00 -6.68996E-01  6.91121E-01  4.58845E-01  3.10299E+00 -1.79937E+00  2.56556E+00  5.36658E+00 -1.09415E+00  2.45929E+00
  -7.75093E-02  2.97893E+00  4.82325E+00  5.18324E+00  2.78844E-01  2.78524E+00  9.21627E-01 -9.06536E-01  7.48938E-01  8.29042E-01
   2.14563E+00  9.60985E-01 -8.83912E-01  3.98128E+00 -1.13549E+00  1.23423E+00  2.48309E+00  3.08937E+00  5.32894E-01 -7.88536E-01
   6.95807E+00  3.34904E+00  1.35851E+00  2.06321E+00  3.69340E+00  1.12861E+00  3.06332E+00  4.84481E+00  3.81735E+00 -1.85670E+00
   2.38026E+00 -1.21807E+00  3.64040E+00  1.78487E+00  4.02947E+00  1.28948E+00 -1.95374E+00  1.35420E+00 -2.66605E+00 -1.01575E+00
   1.08250E+00 -9.28797E-02 -1.22852E+00  7.65800E-01 -4.74366E+00 -1.79894E+00 -1.71550E+00 -2.04362E-01  2.05947E+00 -9.49029E-01
   1.17895E-01  6.74775E-01  4.35693E+00  2.47544E+00  2.39468E+00 -3.31243E+00 -2.94955E+00  6.01138E-01 -5.02716E-03  1.43357E+00
   2.85257E+00 -2.24031E+00  1.74995E+00 -4.71128E-01  8.35097E-01 -2.39769E+00  1.51970E+00  1.25769E-01 -1.08362E+00  8.92983E-01
  -2.06798E-01  2.44727E+00  3.15422E+00  7.06115E-01  9.33550E-01  3.77211E+00  3.05976E+00  3.40619E+00  3.26530E-01  2.87381E-01
  -4.75326E-01 -5.12826E-02 -1.29013E+00  4.08280E-01 -8.82862E-01 -1.10207E+00  1.05292E+00 -3.37472E-01 -5.63997E+00  9.66853E-01
  -1.06949E+00 -3.08163E+00  4.23407E+00  1.36151E+00 -2.28320E+00  7.91585E-01  1.21508E-01 -3.35079E-01  1.50886E+00 -1.36669E+00
   2.46730E+00 -2.11388E+00 -2.26340E+00 -1.57543E-01 -6.46053E-01  1.39227E+00  5.68011E-01 -1.00624E+00  2.12101E+00  2.88421E-01
  -2.01738E+00  1.07080E+00 -8.63758E-01 -2.33448E+00 -2.17158E+00  1.15371E+00 -7.46625E-01 -1.53432E+00 -7.37189E-01 -2.47619E+00
   1.89905E+00 -6.56584E-01  4.48789E-01  1.89904E+00 -2.67036E+00 -6.66028E-01 -1.86587E-01 -1.76658E-01  1.45903E+00 -1.74760E+00
   9.92454E-01  1.85887E+00  1.73379E+00 -2.52466E+00 -7.49467E-01  4.20058E-01  2.71941E+00  2.83717E+00  1.60310E+00  4.24224E-01
  -6.55228E-01  1.73827E+00 -1.50392E+00  7.06152E-01 -9.61142E-01 -5.99604E+00 -1.38618E-01  2.70690E+00 -1.12211E+00 -3.93308E-02
   9.63875E-01 -1.86262E-01  9.09162E-01  9.21727E-01  3.27208E-01  1.89641E+00  5.71476E-01  3.56966E-01
 NY points of the fit to the data follow
  -7.99868E-01 -1.00288E+00 -1.08591E+00 -1.00231E+00 -7.47240E-01 -3.17289E-01  2.37775E-01  8.40301E-01  1.40422E+00  1.84204E+00
   2.08163E+00  2.08821E+00  1.88233E+00  1.51719E+00  1.05212E+00  5.42267E-01  3.98024E-02 -3.86695E-01 -6.32754E-01 -6.74625E-01
  -6.00241E-01 -4.94219E-01 -4.27993E-01 -4.09328E-01 -4.33079E-01 -4.81861E-01 -4.98903E-01 -4.23071E-01 -2.20370E-01  9.13882E-02
   4.63926E-01  8.19057E-01  1.07022E+00  1.17473E+00  1.12651E+00  9.25580E-01  5.89056E-01  1.55834E-01 -2.84753E-01 -6.38227E-01
  -8.50960E-01 -8.74434E-01 -6.83062E-01 -3.22204E-01  1.19375E-01  5.45246E-01  8.79182E-01  1.05355E+00  1.03550E+00  8.58741E-01
   5.75569E-01  2.37977E-01 -1.03306E-01 -4.04391E-01 -6.35401E-01 -7.58338E-01 -7.35208E-01 -5.83330E-01 -3.85759E-01 -2.20507E-01
  -1.21877E-01 -9.57133E-02 -1.27411E-01 -1.98502E-01 -2.86477E-01 -3.62384E-01 -4.14142E-01 -4.39832E-01 -4.20745E-01 -3.45185E-01
  -2.30563E-01 -1.03149E-01  6.60501E-03  7.60984E-02  9.31602E-02  6.14596E-02 -7.24946E-03 -1.03050E-01 -2.03351E-01 -2.74850E-01
  -2.94120E-01 -2.64962E-01 -2.13107E-01 -1.61239E-01 -1.21460E-01 -1.09855E-01 -1.49866E-01 -2.46338E-01 -3.84482E-01 -5.37073E-01
  -6.79832E-01 -7.99871E-01 -8.92238E-01 -9.59106E-01 -9.90250E-01 -9.51508E-01 -7.64179E-01 -3.52022E-01  2.64062E-01  1.05472E+00
   1.96756E+00  2.89960E+00  3.69933E+00  4.22323E+00  4.38521E+00  4.18611E+00  3.70245E+00  3.03928E+00  2.28017E+00  1.47285E+00
   6.79465E-01  6.79494E-03 -4.04792E-01 -5.66682E-01 -6.48504E-01 -7.06729E-01 -7.55420E-01 -7.93099E-01 -8.12199E-01 -7.57641E-01
  -4.27022E-01  2.89103E-01  1.34076E+00  2.65701E+00  4.11968E+00  5.53255E+00  6.66793E+00  7.34075E+00  7.45256E+00  7.03146E+00
   6.21053E+00  5.13211E+00  3.90033E+00  2.60705E+00  1.37361E+00  3.92465E-01 -1.37077E-01 -3.41465E-01 -4.29208E-01 -4.54558E-01
  -4.41227E-01 -4.08131E-01 -3.65676E-01 -3.25574E-01 -3.06664E-01 -3.16572E-01 -3.55041E-01 -4.17660E-01 -4.91634E-01 -5.63450E-01
  -6.26602E-01 -6.77054E-01 -7.16986E-01 -7.48417E-01 -7.83398E-01 -8.33777E-01 -9.02704E-01 -9.88409E-01 -1.07495E+00 -1.14886E+00
  -1.20320E+00 -1.22967E+00 -1.22811E+00 -1.21189E+00 -1.19980E+00 -1.20431E+00 -1.22927E+00 -1.27104E+00 -1.32679E+00 -1.40972E+00
  -1.53896E+00 -1.69429E+00 -1.84135E+00 -1.95830E+00 -2.03516E+00 -2.08322E+00 -2.10872E+00 -2.10867E+00 -2.08949E+00 -2.06378E+00
  -2.04232E+00 -2.02114E+00 -1.98009E+00 -1.91029E+00 -1.81320E+00 -1.68981E+00 -1.52712E+00 -1.30359E+00 -1.03624E+00 -7.67624E-01
  -5.41114E-01 -3.81045E-01 -2.80764E-01 -2.28542E-01 -2.18027E-01 -2.44964E-01 -2.94752E-01 -3.19006E-01 -2.69341E-01 -1.37287E-01
   5.58746E-02  2.70656E-01  4.53589E-01  5.31457E-01  4.69125E-01  2.65714E-01 -6.42225E-02 -4.74628E-01 -8.62402E-01 -1.08503E+00
  -1.07800E+00 -8.44301E-01 -4.18813E-01  1.18872E-01  6.24567E-01  9.19914E-01  8.74847E-01  4.90118E-01 -1.44049E-01 -9.15997E-01
  -1.64877E+00 -2.19093E+00 -2.45586E+00 -2.38986E+00 -2.00208E+00 -1.37284E+00 -6.81146E-01 -5.78589E-02  4.47669E-01  8.05729E-01
   1.00105E+00  1.03809E+00  9.87141E-01  9.49071E-01  9.61666E-01  9.97101E-01  1.02016E+00  1.01562E+00  9.82003E-01  9.21172E-01
   8.38299E-01  7.72615E-01  7.66301E-01  8.21808E-01  9.17912E-01  1.03018E+00  1.15451E+00  1.28624E+00  1.42782E+00  1.60924E+00
   1.85207E+00  2.15338E+00  2.54692E+00  3.34125E+00  4.95562E+00  7.30604E+00  1.01874E+01  1.33774E+01  1.64934E+01  1.90184E+01
   2.04920E+01  2.06481E+01  1.95019E+01  1.73491E+01  1.46068E+01  1.16052E+01  8.52941E+00  5.56857E+00  3.06201E+00  1.48132E+00
   8.96343E-01  6.88229E-01  6.00551E-01  5.75911E-01  5.72530E-01  5.64989E-01  5.49450E-01  5.18782E-01  4.70030E-01  4.05895E-01
   3.33020E-01  2.58842E-01  1.95666E-01  1.52400E-01  1.28302E-01  1.19986E-01  1.24065E-01  1.36719E-01  1.55109E-01  1.76732E-01
   2.00091E-01  2.26528E-01  2.56639E-01  2.90422E-01  3.28393E-01  3.71139E-01  4.18066E-01  4.68108E-01  5.20661E-01  5.74960E-01
   6.29795E-01  6.84230E-01  7.36953E-01  7.86093E-01  8.30334E-01  8.68706E-01  9.00591E-01  9.25610E-01  9.43776E-01  9.55816E-01
   9.62840E-01  9.66229E-01  9.67850E-01  9.69772E-01  9.74379E-01  9.84562E-01  1.00405E+00  1.03810E+00  1.09552E+00  1.19496E+00
   1.36101E+00  1.55811E+00  1.73191E+00  1.84271E+00  1.84913E+00  1.71121E+00  1.40795E+00  9.53574E-01  4.42916E-01 -1.33022E-03
  -2.97011E-01 -3.96408E-01 -2.83057E-01  2.84608E-02  4.98434E-01  1.06994E+00  1.65545E+00  2.12643E+00  2.44820E+00  2.66300E+00
   2.82036E+00  2.91809E+00  2.92202E+00  2.83843E+00  2.71587E+00  2.53707E+00  2.24040E+00  1.81868E+00  1.35030E+00  9.33184E-01
   6.38672E-01  5.10914E-01  5.61283E-01  7.69743E-01  1.09586E+00  1.49040E+00  1.88879E+00  2.18689E+00  2.33329E+00  2.35367E+00
   2.27216E+00  2.10501E+00  1.87231E+00  1.61918E+00  1.41984E+00  1.27900E+00  1.16613E+00  1.06885E+00  9.82150E-01  9.03538E-01
   8.31724E-01  7.66018E-01  7.06132E-01  6.51970E-01  6.03595E-01  5.61102E-01  5.24652E-01  4.94398E-01  4.70541E-01  4.53255E-01
   4.42739E-01  4.39153E-01  4.42680E-01  4.53479E-01  4.71736E-01  4.97584E-01  5.31142E-01  5.72427E-01  6.21399E-01  6.77877E-01
   7.41567E-01  8.11957E-01  8.88342E-01  9.69742E-01  1.05496E+00  1.14252E+00  1.23075E+00  1.31771E+00  1.40135E+00  1.47947E+00
   1.54990E+00  1.61052E+00  1.65941E+00  1.69490E+00  1.71565E+00  1.72075E+00  1.70978E+00  1.68282E+00  1.64044E+00  1.58367E+00
   1.51395E+00  1.43306E+00  1.34306E+00  1.24612E+00  1.14452E+00  1.04040E+00  9.35858E-01  8.32730E-01  7.32652E-01  6.36944E-01
   5.46652E-01  4.62494E-01  3.84945E-01  3.14208E-01  2.50309E-01  1.93067E-01  1.42188E-01  9.72531E-02  5.78137E-02  2.33687E-02
  -6.56350E-03 -3.24879E-02 -5.48634E-02 -7.41422E-02 -9.07041E-02 -1.04911E-01 -1.17060E-01 -1.27444E-01 -1.36293E-01 -1.43831E-01
  -1.50217E-01 -1.55610E-01 -1.60126E-01 -1.63894E-01 -1.67000E-01 -1.69539E-01 -1.71559E-01 -1.73131E-01 -1.74293E-01 -1.75109E-01
  -1.75606E-01 -1.75826E-01 -1.75780E-01 -1.75503E-01 -1.75007E-01 -1.74332E-01 -1.73480E-01 -1.72476E-01 -1.71315E-01 -1.70023E-01
  -1.68603E-01 -1.67081E-01 -1.65451E-01 -1.63727E-01 -1.61901E-01 -1.59994E-01 -1.58005E-01 -1.55951E-01 -1.53822E-01 -1.51628E-01
  -1.49359E-01 -1.47036E-01 -1.44652E-01 -1.42221E-01 -1.39727E-01 -1.37182E-01 -1.34576E-01 -1.31928E-01 -1.29229E-01 -1.26490E-01
  -1.23693E-01 -1.20850E-01 -1.17950E-01 -1.15012E-01 -1.12021E-01 -1.08984E-01 -1.05884E-01 -1.02731E-01 -9.95150E-02 -9.62495E-02
  -9.29159E-02 -8.95187E-02 -8.60372E-02 -8.24814E-02 -7.88357E-02 -7.51070E-02 -7.12692E-02 -6.73199E-02
 NY background values follow
    -1.379E+00   -1.377E+00   -1.374E+00   -1.371E+00   -1.369E+00   -1.366E+00   -1.363E+00   -1.361E+00   -1.358E+00   -1.355E+00
    -1.353E+00   -1.350E+00   -1.347E+00   -1.345E+00   -1.342E+00   -1.339E+00   -1.337E+00   -1.334E+00   -1.331E+00   -1.329E+00
    -1.326E+00   -1.323E+00   -1.320E+00   -1.318E+00   -1.315E+00   -1.312E+00   -1.310E+00   -1.307E+00   -1.304E+00   -1.302E+00
    -1.299E+00   -1.296E+00   -1.293E+00   -1.291E+00   -1.288E+00   -1.285E+00   -1.283E+00   -1.280E+00   -1.277E+00   -1.274E+00
    -1.272E+00   -1.269E+00   -1.266E+00   -1.263E+00   -1.261E+00   -1.258E+00   -1.255E+00   -1.253E+00   -1.250E+00   -1.247E+00
    -1.244E+00   -1.242E+00   -1.239E+00   -1.236E+00   -1.233E+00   -1.231E+00   -1.228E+00   -1.225E+00   -1.222E+00   -1.220E+00
    -1.217E+00   -1.214E+00   -1.211E+00   -1.209E+00   -1.206E+00   -1.203E+00   -1.200E+00   -1.198E+00   -1.195E+00   -1.192E+00
    -1.189E+00   -1.186E+00   -1.184E+00   -1.181E+00   -1.178E+00   -1.175E+00   -1.173E+00   -1.170E+00   -1.167E+00   -1.164E+00
    -1.162E+00   -1.159E+00   -1.156E+00   -1.153E+00   -1.150E+00   -1.148E+00   -1.145E+00   -1.142E+00   -1.139E+00   -1.136E+00
    -1.134E+00   -1.131E+00   -1.128E+00   -1.125E+00   -1.122E+00   -1.120E+00   -1.117E+00   -1.114E+00   -1.111E+00   -1.108E+00
    -1.106E+00   -1.103E+00   -1.100E+00   -1.097E+00   -1.094E+00   -1.092E+00   -1.089E+00   -1.086E+00   -1.083E+00   -1.080E+00
    -1.077E+00   -1.075E+00   -1.072E+00   -1.069E+00   -1.066E+00   -1.063E+00   -1.061E+00   -1.058E+00   -1.055E+00   -1.052E+00
    -1.049E+00   -1.046E+00   -1.044E+00   -1.041E+00   -1.038E+00   -1.035E+00   -1.032E+00   -1.029E+00   -1.027E+00   -1.024E+00
    -1.021E+00   -1.018E+00   -1.015E+00   -1.012E+00   -1.009E+00   -1.007E+00   -1.004E+00   -1.001E+00   -9.981E-01   -9.952E-01
    -9.924E-01   -9.895E-01   -9.867E-01   -9.838E-01   -9.810E-01   -9.781E-01   -9.753E-01   -9.724E-01   -9.695E-01   -9.667E-01
    -9.638E-01   -9.610E-01   -9.581E-01   -9.552E-01   -9.524E-01   -9.495E-01   -9.466E-01   -9.438E-01   -9.409E-01   -9.380E-01
    -9.352E-01   -9.323E-01   -9.294E-01   -9.265E-01   -9.237E-01   -9.208E-01   -9.179E-01   -9.150E-01   -9.122E-01   -9.093E-01
    -9.064E-01   -9.035E-01   -9.006E-01   -8.978E-01   -8.949E-01   -8.920E-01   -8.891E-01   -8.862E-01   -8.833E-01   -8.804E-01
    -8.776E-01   -8.747E-01   -8.718E-01   -8.689E-01   -8.660E-01   -8.631E-01   -8.602E-01   -8.573E-01   -8.544E-01   -8.515E-01
    -8.486E-01   -8.457E-01   -8.429E-01   -8.400E-01   -8.371E-01   -8.342E-01   -8.313E-01   -8.284E-01   -8.255E-01   -8.226E-01
    -8.197E-01   -8.168E-01   -8.138E-01   -8.109E-01   -8.080E-01   -8.051E-01   -8.022E-01   -7.993E-01   -7.964E-01   -7.935E-01
    -7.906E-01   -7.877E-01   -7.848E-01   -7.819E-01   -7.790E-01   -7.760E-01   -7.731E-01   -7.702E-01   -7.673E-01   -7.644E-01
    -7.615E-01   -7.586E-01   -7.557E-01   -7.527E-01   -7.498E-01   -7.469E-01   -7.440E-01   -7.411E-01   -7.381E-01   -7.352E-01
    -7.323E-01   -7.294E-01   -7.265E-01   -7.235E-01   -7.206E-01   -7.177E-01   -7.148E-01   -7.119E-01   -7.089E-01   -7.060E-01
    -7.031E-01   -7.002E-01   -6.972E-01   -6.943E-01   -6.914E-01   -6.885E-01   -6.855E-01   -6.826E-01   -6.797E-01   -6.767E-01
    -6.738E-01   -6.709E-01   -6.680E-01   -6.650E-01   -6.621E-01   -6.592E-01   -6.562E-01   -6.533E-01   -6.504E-01   -6.474E-01
    -6.445E-01   -6.416E-01   -6.386E-01   -6.357E-01   -6.328E-01   -6.298E-01   -6.269E-01   -6.240E-01   -6.210E-01   -6.181E-01
    -6.152E-01   -6.122E-01   -6.093E-01   -6.064E-01   -6.034E-01   -6.005E-01   -5.976E-01   -5.946E-01   -5.917E-01   -5.887E-01
    -5.858E-01   -5.829E-01   -5.799E-01   -5.770E-01   -5.741E-01   -5.711E-01   -5.682E-01   -5.652E-01   -5.623E-01   -5.594E-01
    -5.564E-01   -5.535E-01   -5.505E-01   -5.476E-01   -5.447E-01   -5.417E-01   -5.388E-01   -5.358E-01   -5.329E-01   -5.300E-01
    -5.270E-01   -5.241E-01   -5.211E-01   -5.182E-01   -5.153E-01   -5.123E-01   -5.094E-01   -5.064E-01   -5.035E-01   -5.005E-01
    -4.976E-01   -4.947E-01   -4.917E-01   -4.888E-01   -4.858E-01   -4.829E-01   -4.800E-01   -4.770E-01   -4.741E-01   -4.711E-01
    -4.682E-01   -4.652E-01   -4.623E-01   -4.594E-01   -4.564E-01   -4.535E-01   -4.505E-01   -4.476E-01   -4.447E-01   -4.417E-01
    -4.388E-01   -4.358E-01   -4.329E-01   -4.299E-01   -4.270E-01   -4.241E-01   -4.211E-01   -4.182E-01   -4.152E-01   -4.123E-01
    -4.094E-01   -4.064E-01   -4.035E-01   -4.005E-01   -3.976E-01   -3.947E-01   -3.917E-01   -3.888E-01   -3.858E-01   -3.829E-01
    -3.800E-01   -3.770E-01   -3.741E-01   -3.711E-01   -3.682E-01   -3.653E-01   -3.623E-01   -3.594E-01   -3.564E-01   -3.535E-01
    -3.506E-01   -3.476E-01   -3.447E-01   -3.418E-01   -3.388E-01   -3.359E-01   -3.330E-01   -3.300E-01   -3.271E-01   -3.241E-01
    -3.212E-01   -3.183E-01   -3.153E-01   -3.124E-01   -3.095E-01   -3.065E-01   -3.036E-01   -3.007E-01   -2.977E-01   -2.948E-01
    -2.919E-01   -2.889E-01   -2.860E-01   -2.831E-01   -2.802E-01   -2.772E-01   -2.743E-01   -2.714E-01   -2.684E-01   -2.655E-01
    -2.626E-01   -2.597E-01   -2.567E-01   -2.538E-01   -2.509E-01   -2.479E-01   -2.450E-01   -2.421E-01   -2.392E-01   -2.362E-01
    -2.333E-01   -2.304E-01   -2.275E-01   -2.245E-01   -2.216E-01   -2.187E-01   -2.158E-01   -2.129E-01   -2.099E-01   -2.070E-01
    -2.041E-01   -2.012E-01   -1.983E-01   -1.953E-01   -1.924E-01   -1.895E-01   -1.866E-01   -1.837E-01   -1.808E-01   -1.779E-01
    -1.749E-01   -1.720E-01   -1.691E-01   -1.662E-01   -1.633E-01   -1.604E-01   -1.575E-01   -1.546E-01   -1.516E-01   -1.487E-01
    -1.458E-01   -1.429E-01   -1.400E-01   -1.371E-01   -1.342E-01   -1.313E-01   -1.284E-01   -1.255E-01   -1.226E-01   -1.197E-01
    -1.168E-01   -1.139E-01   -1.110E-01   -1.081E-01   -1.052E-01   -1.023E-01   -9.938E-02   -9.649E-02   -9.359E-02   -9.069E-02
    -8.780E-02   -8.490E-02   -8.201E-02   -7.912E-02   -7.623E-02   -7.334E-02   -7.044E-02   -6.755E-02   -6.467E-02   -6.178E-02
    -5.889E-02   -5.600E-02   -5.312E-02   -5.023E-02   -4.735E-02   -4.446E-02   -4.158E-02   -3.870E-02   -3.582E-02   -3.294E-02
    -3.006E-02   -2.718E-02   -2.430E-02   -2.143E-02   -1.855E-02   -1.567E-02   -1.280E-02   -9.926E-03   -7.053E-03   -4.181E-03
    -1.311E-03    1.559E-03    4.429E-03    7.297E-03    1.016E-02    1.303E-02    1.590E-02    1.876E-02    2.162E-02    2.449E-02
     2.735E-02    3.021E-02    3.307E-02    3.593E-02    3.879E-02    4.164E-02    4.450E-02    4.735E-02
 Ala      Conc. = 1.52E+02
