 LCModel (Version 6.3-1L) Copyright: S.W. Provencher.          Ref.: Magn. Reson. Med. 30:672-679 (1993).                
 Slice#3 Row#10 Col#2  PD_05_press_1_raw_act
 36 lines in following concentration table = NCONC+1
    Conc.  %SD /Cr+PCr  Metabolite                                         
    0.000 999%   0.000 Ala                                                 
  102.843  56%   0.532 Asp                                                 
    0.000 999%   0.000 Cr                                                  
  193.293  21%   1.000 PCr                                                 
    5.404 659% 2.8E-02 GABA                                                
   26.032 138%   0.135 Glc                                                 
    0.000 999%   0.000 Gln                                                 
 9.92E+03   6%  51.343 Glu                                                 
   13.927 132% 7.2E-02 GPC                                                 
    0.000 999%   0.000 PCh                                                 
    0.000 999%   0.000 GSH                                                 
  514.000  45%   2.659 Ins                                                 
    0.000 999%   0.000 Lac                                                 
  329.953  15%   1.707 NAA                                                 
    0.000 999%   0.000 NAAG                                                
   17.059  65% 8.8E-02 Scyllo                                              
  116.541  50%   0.603 Tau                                                 
    0.000 999%   0.000 -CrCH2                                              
   13.927 132% 7.2E-02 GPC+PCh                                             
  329.953  15%   1.707 NAA+NAAG                                            
  193.293  21%   1.000 Cr+PCr                                              
 9.92E+03   6%  51.343 Glu+Gln                                             
  439.684  39%   2.275 Lip13a                                              
    0.000 999%   0.000 Lip13b                                              
    0.000 999%   0.000 Lip09                                               
   15.830 268% 8.2E-02 MM09                                                
    0.000 999%   0.000 Lip20                                               
    0.000 999%   0.000 MM20                                                
   13.404 197% 6.9E-02 MM12                                                
    0.000 999%   0.000 MM14                                                
  183.421  31%   0.949 MM17                                                
  439.684  39%   2.275 Lip13a+Lip13b                                       
  453.088  38%   2.344 MM14+Lip13a+Lip13b+MM12                             
   15.830 268% 8.2E-02 MM09+Lip09                                          
    0.000 999%   0.000 MM20+Lip20                                          
   6 lines in following misc. output table
  FWHM = 0.183 ppm    S/N =   3                                            
  Data shift = 0.031 ppm                                                   
  Ph: -62 deg       8.4 deg/ppm                                            
  alphaB,S = 5.7E-01,   1.1E+02                                            
   11 spline knots.   Ns = 9(2)                                            
  (11) 5 infls.   ( 7) 1 extrs.                                            
  498 points on ppm-axis = NY
      4.000000     3.992357     3.984714     3.977070     3.969427     3.961784     3.954141     3.946497     3.938854     3.931211
      3.923568     3.915925     3.908281     3.900638     3.892995     3.885352     3.877708     3.870065     3.862422     3.854779
      3.847136     3.839492     3.831849     3.824206     3.816563     3.808919     3.801276     3.793633     3.785990     3.778347
      3.770703     3.763060     3.755417     3.747774     3.740130     3.732487     3.724844     3.717201     3.709558     3.701914
      3.694271     3.686628     3.678985     3.671341     3.663698     3.656055     3.648412     3.640769     3.633125     3.625482
      3.617839     3.610196     3.602552     3.594909     3.587266     3.579623     3.571980     3.564336     3.556693     3.549050
      3.541407     3.533763     3.526120     3.518477     3.510834     3.503191     3.495547     3.487904     3.480261     3.472618
      3.464974     3.457331     3.449688     3.442045     3.434402     3.426758     3.419115     3.411472     3.403829     3.396185
      3.388542     3.380899     3.373256     3.365613     3.357969     3.350326     3.342683     3.335040     3.327396     3.319753
      3.312110     3.304467     3.296824     3.289180     3.281537     3.273894     3.266251     3.258607     3.250964     3.243321
      3.235678     3.228034     3.220391     3.212748     3.205105     3.197462     3.189818     3.182175     3.174532     3.166889
      3.159245     3.151602     3.143959     3.136316     3.128673     3.121029     3.113386     3.105743     3.098100     3.090456
      3.082813     3.075170     3.067527     3.059884     3.052240     3.044597     3.036954     3.029311     3.021667     3.014024
      3.006381     2.998738     2.991095     2.983451     2.975808     2.968165     2.960522     2.952878     2.945235     2.937592
      2.929949     2.922306     2.914662     2.907019     2.899376     2.891733     2.884089     2.876446     2.868803     2.861160
      2.853517     2.845873     2.838230     2.830587     2.822944     2.815300     2.807657     2.800014     2.792371     2.784728
      2.777084     2.769441     2.761798     2.754155     2.746511     2.738868     2.731225     2.723582     2.715939     2.708295
      2.700652     2.693009     2.685366     2.677722     2.670079     2.662436     2.654793     2.647150     2.639506     2.631863
      2.624220     2.616577     2.608933     2.601290     2.593647     2.586004     2.578361     2.570717     2.563074     2.555431
      2.547788     2.540144     2.532501     2.524858     2.517215     2.509572     2.501928     2.494285     2.486642     2.478999
      2.471355     2.463712     2.456069     2.448426     2.440783     2.433139     2.425496     2.417853     2.410210     2.402566
      2.394923     2.387280     2.379637     2.371994     2.364350     2.356707     2.349064     2.341421     2.333777     2.326134
      2.318491     2.310848     2.303205     2.295561     2.287918     2.280275     2.272632     2.264988     2.257345     2.249702
      2.242059     2.234416     2.226772     2.219129     2.211486     2.203843     2.196199     2.188556     2.180913     2.173270
      2.165627     2.157983     2.150340     2.142697     2.135054     2.127410     2.119767     2.112124     2.104481     2.096838
      2.089194     2.081551     2.073908     2.066265     2.058621     2.050978     2.043335     2.035692     2.028049     2.020405
      2.012762     2.005119     1.997476     1.989833     1.982190     1.974546     1.966903     1.959260     1.951617     1.943974
      1.936331     1.928688     1.921045     1.913402     1.905759     1.898115     1.890472     1.882829     1.875186     1.867543
      1.859900     1.852257     1.844614     1.836971     1.829327     1.821684     1.814041     1.806398     1.798755     1.791112
      1.783469     1.775826     1.768183     1.760540     1.752896     1.745253     1.737610     1.729967     1.722324     1.714681
      1.707038     1.699395     1.691752     1.684108     1.676465     1.668822     1.661179     1.653536     1.645893     1.638250
      1.630607     1.622964     1.615321     1.607677     1.600034     1.592391     1.584748     1.577105     1.569462     1.561819
      1.554176     1.546533     1.538890     1.531246     1.523603     1.515960     1.508317     1.500674     1.493031     1.485388
      1.477745     1.470102     1.462458     1.454815     1.447172     1.439529     1.431886     1.424243     1.416600     1.408957
      1.401314     1.393671     1.386027     1.378384     1.370741     1.363098     1.355455     1.347812     1.340169     1.332526
      1.324883     1.317240     1.309596     1.301953     1.294310     1.286667     1.279024     1.271381     1.263738     1.256095
      1.248452     1.240808     1.233165     1.225522     1.217879     1.210236     1.202593     1.194950     1.187307     1.179664
      1.172021     1.164377     1.156734     1.149091     1.141448     1.133805     1.126162     1.118519     1.110876     1.103233
      1.095590     1.087946     1.080303     1.072660     1.065017     1.057374     1.049731     1.042088     1.034445     1.026802
      1.019158     1.011515     1.003872     0.996229     0.988586     0.980943     0.973300     0.965657     0.958014     0.950371
      0.942727     0.935084     0.927441     0.919798     0.912155     0.904512     0.896869     0.889226     0.881583     0.873940
      0.866296     0.858653     0.851010     0.843367     0.835724     0.828081     0.820438     0.812795     0.805152     0.797508
      0.789865     0.782222     0.774579     0.766936     0.759293     0.751650     0.744007     0.736364     0.728721     0.721077
      0.713434     0.705791     0.698148     0.690505     0.682862     0.675219     0.667576     0.659933     0.652290     0.644646
      0.637003     0.629360     0.621717     0.614074     0.606431     0.598788     0.591145     0.583502     0.575858     0.568215
      0.560572     0.552929     0.545286     0.537643     0.530000     0.522357     0.514714     0.507071     0.499427     0.491784
      0.484141     0.476498     0.468855     0.461212     0.453569     0.445925     0.438282     0.430639     0.422996     0.415353
      0.407710     0.400067     0.392424     0.384780     0.377137     0.369494     0.361851     0.354208     0.346565     0.338922
      0.331278     0.323635     0.315992     0.308349     0.300706     0.293063     0.285420     0.277777     0.270133     0.262490
      0.254847     0.247204     0.239561     0.231918     0.224275     0.216631     0.208988     0.201345
 NY phased data points follow
   8.38829E+00  7.99419E+00  7.63563E+00  8.05775E+00  7.08200E+00  6.56897E+00  7.51269E+00  5.73202E+00  6.23577E+00  6.60989E+00
   8.30425E+00  6.92320E+00  7.05843E+00  7.78381E+00  6.10521E+00  6.27256E+00  5.20587E+00  3.84024E+00  5.51675E+00  3.97318E+00
   5.84041E+00  3.03239E+00  4.73111E+00  3.87843E+00  3.99945E+00  3.58524E+00  3.85582E+00  2.95781E+00  4.46138E+00  1.61361E+00
   1.64939E+00  1.67881E+00  3.98920E+00  2.32812E+00  2.05093E+00  1.13496E+00  8.74298E-01  9.38982E-01  1.10984E+00  5.39722E-01
   5.73838E-01 -1.93306E-01  4.78505E-01  1.70958E-02  3.88476E-01 -1.00465E+00 -9.53380E-01  4.01114E-01 -3.99447E-01  1.26027E-01
  -2.15896E+00  3.92371E-01 -8.93402E-01 -1.39177E+00 -1.42647E+00 -2.42997E-01 -3.19505E+00 -1.76693E+00 -1.59752E+00 -3.13758E+00
  -1.91340E+00 -2.36043E+00 -1.33815E+00 -1.88487E+00 -2.02633E+00 -4.15958E+00 -4.43623E+00 -3.36558E+00 -2.15306E+00 -2.90348E+00
  -4.70870E+00 -3.40037E+00 -4.34409E+00 -5.59879E+00 -3.56024E+00 -4.53615E+00 -4.64937E+00 -5.22448E+00 -6.13685E+00 -5.97632E+00
  -5.04532E+00 -6.67426E+00 -7.41804E+00 -6.78316E+00 -5.75546E+00 -6.96481E+00 -5.84966E+00 -4.88951E+00 -5.56689E+00 -5.96580E+00
  -7.38658E+00 -5.23186E+00 -7.02622E+00 -7.96826E+00 -5.87335E+00 -7.53009E+00 -7.81363E+00 -7.89797E+00 -7.54210E+00 -7.78181E+00
  -7.48431E+00 -8.88829E+00 -8.17876E+00 -8.80508E+00 -8.16505E+00 -8.31775E+00 -9.07928E+00 -9.62035E+00 -8.78465E+00 -8.60448E+00
  -9.63271E+00 -8.22596E+00 -9.52450E+00 -8.32342E+00 -1.00257E+01 -1.00798E+01 -9.78889E+00 -1.06699E+01 -1.07708E+01 -9.47757E+00
  -9.33169E+00 -1.04134E+01 -1.01837E+01 -1.06721E+01 -1.04589E+01 -9.62319E+00 -1.08101E+01 -9.54572E+00 -1.01837E+01 -1.17193E+01
  -1.06751E+01 -1.28325E+01 -1.17227E+01 -1.12492E+01 -1.27800E+01 -1.19957E+01 -1.35038E+01 -1.28976E+01 -1.39878E+01 -1.40135E+01
  -1.47286E+01 -1.49061E+01 -1.51027E+01 -1.55168E+01 -1.57734E+01 -1.72732E+01 -1.56675E+01 -1.68923E+01 -1.72927E+01 -1.74178E+01
  -1.61437E+01 -1.66099E+01 -1.75036E+01 -1.74985E+01 -1.61808E+01 -1.83113E+01 -1.85474E+01 -1.89209E+01 -1.71933E+01 -1.68517E+01
  -1.74874E+01 -1.88615E+01 -1.74954E+01 -1.72978E+01 -1.81576E+01 -1.70475E+01 -1.75376E+01 -1.76875E+01 -1.80893E+01 -1.76021E+01
  -1.70347E+01 -1.79156E+01 -1.72072E+01 -1.85707E+01 -1.91585E+01 -1.75530E+01 -1.80517E+01 -1.63963E+01 -1.77413E+01 -1.81129E+01
  -1.92534E+01 -1.73108E+01 -1.97570E+01 -1.96701E+01 -1.93607E+01 -1.91317E+01 -2.04210E+01 -2.04602E+01 -2.03824E+01 -2.04045E+01
  -2.05217E+01 -1.99258E+01 -2.28651E+01 -2.14300E+01 -2.23376E+01 -2.18843E+01 -2.38317E+01 -2.54990E+01 -2.27858E+01 -2.42032E+01
  -2.55877E+01 -2.63264E+01 -2.71552E+01 -2.73675E+01 -2.79173E+01 -2.92250E+01 -3.05175E+01 -3.08130E+01 -3.14810E+01 -3.33548E+01
  -3.35041E+01 -3.41286E+01 -3.50534E+01 -3.68215E+01 -3.75378E+01 -3.76124E+01 -3.72069E+01 -3.96712E+01 -4.04120E+01 -4.22327E+01
  -4.11429E+01 -4.32745E+01 -4.24192E+01 -4.31008E+01 -4.39898E+01 -4.16059E+01 -4.12522E+01 -4.30219E+01 -4.35492E+01 -4.26597E+01
  -4.15841E+01 -4.32184E+01 -4.25039E+01 -4.11963E+01 -4.19973E+01 -4.14078E+01 -4.14966E+01 -4.04731E+01 -4.11429E+01 -4.09934E+01
  -4.16949E+01 -4.03229E+01 -3.93586E+01 -4.13737E+01 -4.04528E+01 -4.07017E+01 -4.11827E+01 -4.05666E+01 -3.90256E+01 -4.06913E+01
  -4.06217E+01 -3.87949E+01 -4.02595E+01 -4.03830E+01 -4.10936E+01 -3.98127E+01 -3.95250E+01 -3.87553E+01 -3.86118E+01 -4.02522E+01
  -3.79302E+01 -3.63343E+01 -3.56068E+01 -3.60198E+01 -3.64346E+01 -3.71959E+01 -3.77799E+01 -3.71011E+01 -3.70670E+01 -3.70764E+01
  -3.82168E+01 -3.79575E+01 -3.86173E+01 -3.80973E+01 -3.66391E+01 -3.68900E+01 -3.71949E+01 -3.80747E+01 -3.67812E+01 -3.78337E+01
  -3.69782E+01 -3.76427E+01 -3.64034E+01 -3.85444E+01 -3.79305E+01 -3.50476E+01 -3.68652E+01 -3.67805E+01 -3.64611E+01 -3.66134E+01
  -3.75039E+01 -3.72782E+01 -3.69926E+01 -3.60592E+01 -3.68651E+01 -3.69524E+01 -3.67424E+01 -3.57912E+01 -3.64527E+01 -3.62532E+01
  -3.70640E+01 -3.62797E+01 -3.46044E+01 -3.63911E+01 -3.54388E+01 -3.55048E+01 -3.52893E+01 -3.45402E+01 -3.39780E+01 -3.43469E+01
  -3.53583E+01 -3.32206E+01 -3.27266E+01 -3.50346E+01 -3.28884E+01 -3.44619E+01 -3.24954E+01 -3.39687E+01 -3.37001E+01 -3.23011E+01
  -3.29089E+01 -3.32745E+01 -3.16894E+01 -3.29627E+01 -3.12181E+01 -3.12245E+01 -3.04052E+01 -3.10349E+01 -2.95853E+01 -3.02490E+01
  -3.10399E+01 -2.99477E+01 -3.07059E+01 -3.16294E+01 -2.92610E+01 -3.00418E+01 -2.87838E+01 -2.98258E+01 -2.89077E+01 -2.80350E+01
  -2.81713E+01 -2.80598E+01 -2.74139E+01 -2.78999E+01 -2.56159E+01 -2.64979E+01 -2.60872E+01 -2.54973E+01 -2.47103E+01 -2.45158E+01
  -2.71284E+01 -2.56164E+01 -2.55433E+01 -2.55757E+01 -2.31389E+01 -2.43138E+01 -2.38285E+01 -2.40137E+01 -2.36459E+01 -2.37568E+01
  -2.32407E+01 -2.20591E+01 -2.18678E+01 -2.29145E+01 -2.10638E+01 -2.19506E+01 -2.10799E+01 -2.21096E+01 -2.09737E+01 -2.18441E+01
  -2.00887E+01 -2.11996E+01 -2.06458E+01 -2.06511E+01 -1.98766E+01 -1.97112E+01 -2.02624E+01 -2.03365E+01 -2.04870E+01 -2.09426E+01
  -2.05143E+01 -1.92419E+01 -2.09504E+01 -1.83969E+01 -1.91893E+01 -1.90358E+01 -1.89809E+01 -1.89447E+01 -1.91440E+01 -1.81635E+01
  -1.83239E+01 -1.62983E+01 -1.99573E+01 -1.95798E+01 -1.94636E+01 -1.90150E+01 -1.69256E+01 -1.74884E+01 -1.83934E+01 -1.82101E+01
  -1.71700E+01 -1.99249E+01 -1.88518E+01 -1.83685E+01 -1.78929E+01 -1.75221E+01 -1.96173E+01 -1.79070E+01 -1.82706E+01 -1.66437E+01
  -1.82120E+01 -1.76959E+01 -1.80277E+01 -1.66450E+01 -1.74562E+01 -1.57487E+01 -1.79163E+01 -1.66591E+01 -1.76211E+01 -1.53619E+01
  -1.51335E+01 -1.51033E+01 -1.59033E+01 -1.67459E+01 -1.73300E+01 -1.67379E+01 -1.77813E+01 -1.64683E+01 -1.65850E+01 -1.61628E+01
  -1.78082E+01 -1.61090E+01 -1.61144E+01 -1.65606E+01 -1.60567E+01 -1.61945E+01 -1.60814E+01 -1.58320E+01 -1.64841E+01 -1.41984E+01
  -1.60568E+01 -1.58706E+01 -1.50494E+01 -1.60252E+01 -1.61408E+01 -1.52264E+01 -1.54937E+01 -1.43627E+01 -1.35376E+01 -1.33822E+01
  -1.61083E+01 -1.48974E+01 -1.47398E+01 -1.39547E+01 -1.34865E+01 -1.48425E+01 -1.48116E+01 -1.47151E+01 -1.46556E+01 -1.57196E+01
  -1.36984E+01 -1.36276E+01 -1.33236E+01 -1.27267E+01 -1.27548E+01 -1.33036E+01 -1.34348E+01 -1.35239E+01 -1.31321E+01 -1.36232E+01
  -1.49941E+01 -1.35850E+01 -1.18570E+01 -1.34897E+01 -1.36124E+01 -1.35531E+01 -1.19942E+01 -1.31245E+01 -1.18405E+01 -1.31676E+01
  -1.27698E+01 -1.27471E+01 -1.15925E+01 -1.20916E+01 -1.33144E+01 -1.41922E+01 -1.39694E+01 -1.24484E+01 -1.31863E+01 -1.24074E+01
  -1.18994E+01 -1.01149E+01 -1.18001E+01 -1.14297E+01 -1.16482E+01 -1.12978E+01 -1.18554E+01 -1.27855E+01
 NY points of the fit to the data follow
   6.44904E+00  6.50750E+00  6.52460E+00  6.61881E+00  6.65896E+00  6.75516E+00  6.80210E+00  6.77851E+00  6.33413E+00  5.99324E+00
   6.07603E+00  6.03685E+00  6.46073E+00  6.64409E+00  6.97018E+00  6.59359E+00  6.49307E+00  5.87605E+00  5.96057E+00  5.46097E+00
   5.96123E+00  5.67477E+00  5.64489E+00  4.99450E+00  5.08090E+00  4.58287E+00  4.62956E+00  4.26550E+00  4.18126E+00  3.78201E+00
   3.84617E+00  3.78299E+00  3.56188E+00  3.35994E+00  2.71882E+00  2.35976E+00  1.58726E+00  1.40376E+00  1.07636E+00  1.41943E+00
   8.85469E-01  1.09482E+00  2.50881E-01  1.46899E-01 -7.08722E-01 -6.91404E-01 -1.12834E+00 -7.86765E-01 -1.39259E+00 -1.35200E+00
  -1.98994E+00 -2.23189E+00 -2.72012E+00 -2.69778E+00 -2.70449E+00 -2.62809E+00 -2.66254E+00 -2.73255E+00 -2.98781E+00 -3.39204E+00
  -3.47090E+00 -3.65662E+00 -3.63663E+00 -3.78086E+00 -3.76523E+00 -3.89975E+00 -3.88190E+00 -4.00968E+00 -3.99954E+00 -4.15041E+00
  -4.13835E+00 -4.30602E+00 -4.31827E+00 -4.50380E+00 -4.52540E+00 -4.75543E+00 -4.80539E+00 -5.03103E+00 -5.05925E+00 -5.28963E+00
  -5.31942E+00 -5.55267E+00 -5.58121E+00 -5.79100E+00 -5.79511E+00 -5.99797E+00 -6.04799E+00 -6.25852E+00 -6.33272E+00 -6.51070E+00
  -6.57606E+00 -6.70389E+00 -6.80910E+00 -6.91112E+00 -7.04379E+00 -7.13436E+00 -7.28889E+00 -7.33519E+00 -7.51956E+00 -7.54421E+00
  -7.76664E+00 -7.78099E+00 -8.00987E+00 -7.99797E+00 -8.23286E+00 -8.22466E+00 -8.46506E+00 -8.40522E+00 -8.52949E+00 -8.32362E+00
  -8.53685E+00 -8.52016E+00 -8.72065E+00 -8.68325E+00 -8.83903E+00 -8.75627E+00 -8.93475E+00 -8.97379E+00 -9.14958E+00 -9.20496E+00
  -9.36045E+00 -9.45352E+00 -9.63079E+00 -9.76765E+00 -9.95527E+00 -1.01768E+01 -1.03494E+01 -1.05389E+01 -1.07450E+01 -1.10451E+01
  -1.12942E+01 -1.16869E+01 -1.19021E+01 -1.22288E+01 -1.24304E+01 -1.27657E+01 -1.29730E+01 -1.33280E+01 -1.35377E+01 -1.39015E+01
  -1.40878E+01 -1.43962E+01 -1.45784E+01 -1.48667E+01 -1.50190E+01 -1.52403E+01 -1.53962E+01 -1.56557E+01 -1.57888E+01 -1.59056E+01
  -1.60303E+01 -1.61546E+01 -1.62927E+01 -1.64249E+01 -1.65801E+01 -1.67181E+01 -1.68852E+01 -1.70292E+01 -1.72161E+01 -1.73538E+01
  -1.75425E+01 -1.76888E+01 -1.78913E+01 -1.80470E+01 -1.82499E+01 -1.83992E+01 -1.86041E+01 -1.87647E+01 -1.89862E+01 -1.91613E+01
  -1.93572E+01 -1.95301E+01 -1.97268E+01 -1.99093E+01 -2.01073E+01 -2.03016E+01 -2.04815E+01 -2.06723E+01 -2.08282E+01 -2.10082E+01
  -2.11540E+01 -2.13479E+01 -2.14839E+01 -2.16554E+01 -2.17417E+01 -2.18496E+01 -2.18688E+01 -2.19634E+01 -2.22193E+01 -2.24534E+01
  -2.26878E+01 -2.33573E+01 -2.35111E+01 -2.40852E+01 -2.40058E+01 -2.42282E+01 -2.33979E+01 -2.28322E+01 -2.26325E+01 -2.32207E+01
  -2.33030E+01 -2.40739E+01 -2.45887E+01 -2.60909E+01 -2.71724E+01 -2.82372E+01 -2.86006E+01 -2.98862E+01 -3.04608E+01 -3.22303E+01
  -3.27813E+01 -3.40310E+01 -3.43530E+01 -3.58324E+01 -3.58469E+01 -3.69480E+01 -3.70850E+01 -3.86945E+01 -3.88804E+01 -4.06251E+01
  -4.02956E+01 -4.18437E+01 -4.15255E+01 -4.23559E+01 -4.17102E+01 -4.19269E+01 -4.08637E+01 -4.15394E+01 -4.12450E+01 -4.12671E+01
  -4.11549E+01 -4.12071E+01 -4.11618E+01 -4.07403E+01 -4.07609E+01 -4.04350E+01 -4.06736E+01 -3.96073E+01 -4.02237E+01 -3.96988E+01
  -4.05418E+01 -3.93665E+01 -3.99141E+01 -3.92365E+01 -4.05683E+01 -3.99492E+01 -4.10714E+01 -4.04359E+01 -4.10013E+01 -4.03029E+01
  -4.08012E+01 -4.01253E+01 -4.03702E+01 -3.98124E+01 -3.96140E+01 -3.90216E+01 -3.88072E+01 -3.86367E+01 -3.84956E+01 -3.83886E+01
  -3.78797E+01 -3.76983E+01 -3.71279E+01 -3.72496E+01 -3.72526E+01 -3.76185E+01 -3.73736E+01 -3.77437E+01 -3.75413E+01 -3.76182E+01
  -3.73904E+01 -3.76223E+01 -3.76795E+01 -3.80038E+01 -3.79554E+01 -3.82154E+01 -3.81768E+01 -3.82466E+01 -3.81051E+01 -3.82524E+01
  -3.83186E+01 -3.83804E+01 -3.81974E+01 -3.81069E+01 -3.78974E+01 -3.76542E+01 -3.75345E+01 -3.73379E+01 -3.72310E+01 -3.70681E+01
  -3.69826E+01 -3.68203E+01 -3.67617E+01 -3.66957E+01 -3.66701E+01 -3.65878E+01 -3.65289E+01 -3.64383E+01 -3.63620E+01 -3.62494E+01
  -3.61327E+01 -3.60105E+01 -3.58871E+01 -3.57472E+01 -3.56030E+01 -3.54436E+01 -3.52814E+01 -3.51035E+01 -3.49212E+01 -3.47300E+01
  -3.45368E+01 -3.43340E+01 -3.41320E+01 -3.39235E+01 -3.37161E+01 -3.35040E+01 -3.32926E+01 -3.30778E+01 -3.28637E+01 -3.26474E+01
  -3.24312E+01 -3.22133E+01 -3.19961E+01 -3.17783E+01 -3.15596E+01 -3.13400E+01 -3.11198E+01 -3.08987E+01 -3.06767E+01 -3.04537E+01
  -3.02296E+01 -3.00040E+01 -2.97768E+01 -2.95478E+01 -2.93165E+01 -2.90827E+01 -2.88461E+01 -2.86064E+01 -2.83631E+01 -2.81162E+01
  -2.78652E+01 -2.76101E+01 -2.73507E+01 -2.70871E+01 -2.68195E+01 -2.65480E+01 -2.62733E+01 -2.59958E+01 -2.57165E+01 -2.54362E+01
  -2.51561E+01 -2.48775E+01 -2.46017E+01 -2.43300E+01 -2.40640E+01 -2.38049E+01 -2.35542E+01 -2.33131E+01 -2.30825E+01 -2.28633E+01
  -2.26561E+01 -2.24613E+01 -2.22789E+01 -2.21088E+01 -2.19506E+01 -2.18037E+01 -2.16673E+01 -2.15405E+01 -2.14223E+01 -2.13116E+01
  -2.12073E+01 -2.11083E+01 -2.10135E+01 -2.09221E+01 -2.08330E+01 -2.07456E+01 -2.06591E+01 -2.05730E+01 -2.04867E+01 -2.04000E+01
  -2.03126E+01 -2.02242E+01 -2.01348E+01 -2.00443E+01 -1.99526E+01 -1.98598E+01 -1.97659E+01 -1.96710E+01 -1.95752E+01 -1.94784E+01
  -1.93808E+01 -1.92826E+01 -1.91837E+01 -1.90844E+01 -1.89847E+01 -1.88847E+01 -1.87847E+01 -1.86848E+01 -1.85852E+01 -1.84860E+01
  -1.83875E+01 -1.82898E+01 -1.81932E+01 -1.80978E+01 -1.80038E+01 -1.79114E+01 -1.78206E+01 -1.77316E+01 -1.76443E+01 -1.75589E+01
  -1.74753E+01 -1.73934E+01 -1.73132E+01 -1.72346E+01 -1.71575E+01 -1.70817E+01 -1.70072E+01 -1.69338E+01 -1.68614E+01 -1.67899E+01
  -1.67192E+01 -1.66492E+01 -1.65799E+01 -1.65112E+01 -1.64430E+01 -1.63753E+01 -1.63081E+01 -1.62414E+01 -1.61750E+01 -1.61092E+01
  -1.60437E+01 -1.59787E+01 -1.59140E+01 -1.58497E+01 -1.57858E+01 -1.57223E+01 -1.56591E+01 -1.55963E+01 -1.55337E+01 -1.54714E+01
  -1.54093E+01 -1.53474E+01 -1.52856E+01 -1.52240E+01 -1.51624E+01 -1.51008E+01 -1.50392E+01 -1.49776E+01 -1.49159E+01 -1.48541E+01
  -1.47921E+01 -1.47299E+01 -1.46675E+01 -1.46049E+01 -1.45420E+01 -1.44787E+01 -1.44151E+01 -1.43511E+01 -1.42867E+01 -1.42218E+01
  -1.41564E+01 -1.40905E+01 -1.40241E+01 -1.39572E+01 -1.38896E+01 -1.38214E+01 -1.37526E+01 -1.36832E+01 -1.36130E+01 -1.35422E+01
  -1.34707E+01 -1.33985E+01 -1.33255E+01 -1.32518E+01 -1.31773E+01 -1.31021E+01 -1.30261E+01 -1.29494E+01 -1.28719E+01 -1.27937E+01
  -1.27148E+01 -1.26351E+01 -1.25548E+01 -1.24738E+01 -1.23923E+01 -1.23101E+01 -1.22275E+01 -1.21445E+01 -1.20611E+01 -1.19775E+01
  -1.18939E+01 -1.18103E+01 -1.17270E+01 -1.16442E+01 -1.15623E+01 -1.14816E+01 -1.14027E+01 -1.13263E+01
 NY background values follow
     8.673E-01    8.569E-01    8.455E-01    8.329E-01    8.191E-01    8.043E-01    7.883E-01    7.712E-01    7.530E-01    7.337E-01
     7.133E-01    6.917E-01    6.691E-01    6.453E-01    6.204E-01    5.944E-01    5.672E-01    5.390E-01    5.096E-01    4.790E-01
     4.473E-01    4.145E-01    3.805E-01    3.453E-01    3.090E-01    2.714E-01    2.327E-01    1.928E-01    1.516E-01    1.092E-01
     6.555E-02    2.064E-02   -2.554E-02   -7.300E-02   -1.218E-01   -1.719E-01   -2.233E-01   -2.761E-01   -3.302E-01   -3.858E-01
    -4.427E-01   -5.011E-01   -5.609E-01   -6.222E-01   -6.850E-01   -7.493E-01   -8.152E-01   -8.826E-01   -9.516E-01   -1.022E+00
    -1.094E+00   -1.168E+00   -1.244E+00   -1.321E+00   -1.400E+00   -1.481E+00   -1.563E+00   -1.648E+00   -1.734E+00   -1.822E+00
    -1.912E+00   -2.004E+00   -2.098E+00   -2.194E+00   -2.292E+00   -2.392E+00   -2.494E+00   -2.598E+00   -2.703E+00   -2.811E+00
    -2.920E+00   -3.032E+00   -3.145E+00   -3.260E+00   -3.377E+00   -3.495E+00   -3.615E+00   -3.737E+00   -3.861E+00   -3.986E+00
    -4.113E+00   -4.241E+00   -4.371E+00   -4.502E+00   -4.635E+00   -4.770E+00   -4.905E+00   -5.042E+00   -5.181E+00   -5.320E+00
    -5.461E+00   -5.603E+00   -5.746E+00   -5.890E+00   -6.035E+00   -6.182E+00   -6.329E+00   -6.477E+00   -6.626E+00   -6.776E+00
    -6.926E+00   -7.077E+00   -7.229E+00   -7.382E+00   -7.535E+00   -7.688E+00   -7.842E+00   -7.996E+00   -8.151E+00   -8.306E+00
    -8.461E+00   -8.616E+00   -8.771E+00   -8.926E+00   -9.082E+00   -9.237E+00   -9.392E+00   -9.547E+00   -9.701E+00   -9.855E+00
    -1.001E+01   -1.016E+01   -1.031E+01   -1.047E+01   -1.062E+01   -1.077E+01   -1.092E+01   -1.107E+01   -1.122E+01   -1.136E+01
    -1.151E+01   -1.166E+01   -1.181E+01   -1.196E+01   -1.210E+01   -1.225E+01   -1.240E+01   -1.255E+01   -1.269E+01   -1.284E+01
    -1.299E+01   -1.314E+01   -1.330E+01   -1.345E+01   -1.360E+01   -1.376E+01   -1.391E+01   -1.407E+01   -1.423E+01   -1.439E+01
    -1.455E+01   -1.472E+01   -1.488E+01   -1.505E+01   -1.522E+01   -1.540E+01   -1.557E+01   -1.575E+01   -1.593E+01   -1.612E+01
    -1.631E+01   -1.650E+01   -1.669E+01   -1.689E+01   -1.710E+01   -1.730E+01   -1.751E+01   -1.773E+01   -1.794E+01   -1.817E+01
    -1.839E+01   -1.863E+01   -1.886E+01   -1.911E+01   -1.935E+01   -1.961E+01   -1.986E+01   -2.013E+01   -2.040E+01   -2.067E+01
    -2.095E+01   -2.124E+01   -2.154E+01   -2.184E+01   -2.214E+01   -2.246E+01   -2.278E+01   -2.311E+01   -2.344E+01   -2.378E+01
    -2.413E+01   -2.449E+01   -2.485E+01   -2.521E+01   -2.558E+01   -2.596E+01   -2.634E+01   -2.673E+01   -2.712E+01   -2.751E+01
    -2.791E+01   -2.831E+01   -2.871E+01   -2.911E+01   -2.952E+01   -2.993E+01   -3.034E+01   -3.075E+01   -3.117E+01   -3.158E+01
    -3.199E+01   -3.241E+01   -3.282E+01   -3.323E+01   -3.364E+01   -3.405E+01   -3.446E+01   -3.487E+01   -3.527E+01   -3.567E+01
    -3.607E+01   -3.646E+01   -3.685E+01   -3.724E+01   -3.762E+01   -3.800E+01   -3.837E+01   -3.873E+01   -3.909E+01   -3.944E+01
    -3.979E+01   -4.013E+01   -4.046E+01   -4.079E+01   -4.110E+01   -4.141E+01   -4.171E+01   -4.200E+01   -4.228E+01   -4.255E+01
    -4.281E+01   -4.305E+01   -4.329E+01   -4.352E+01   -4.374E+01   -4.394E+01   -4.413E+01   -4.431E+01   -4.447E+01   -4.462E+01
    -4.476E+01   -4.489E+01   -4.500E+01   -4.510E+01   -4.519E+01   -4.526E+01   -4.532E+01   -4.537E+01   -4.541E+01   -4.544E+01
    -4.546E+01   -4.546E+01   -4.545E+01   -4.544E+01   -4.541E+01   -4.537E+01   -4.532E+01   -4.527E+01   -4.520E+01   -4.512E+01
    -4.504E+01   -4.494E+01   -4.484E+01   -4.473E+01   -4.461E+01   -4.448E+01   -4.434E+01   -4.420E+01   -4.405E+01   -4.389E+01
    -4.373E+01   -4.356E+01   -4.338E+01   -4.320E+01   -4.301E+01   -4.282E+01   -4.262E+01   -4.242E+01   -4.221E+01   -4.199E+01
    -4.178E+01   -4.155E+01   -4.133E+01   -4.110E+01   -4.087E+01   -4.063E+01   -4.039E+01   -4.015E+01   -3.991E+01   -3.966E+01
    -3.941E+01   -3.916E+01   -3.891E+01   -3.866E+01   -3.841E+01   -3.815E+01   -3.790E+01   -3.764E+01   -3.739E+01   -3.713E+01
    -3.688E+01   -3.663E+01   -3.637E+01   -3.612E+01   -3.587E+01   -3.562E+01   -3.537E+01   -3.512E+01   -3.488E+01   -3.463E+01
    -3.438E+01   -3.414E+01   -3.390E+01   -3.366E+01   -3.341E+01   -3.318E+01   -3.294E+01   -3.270E+01   -3.246E+01   -3.223E+01
    -3.200E+01   -3.176E+01   -3.153E+01   -3.131E+01   -3.108E+01   -3.085E+01   -3.063E+01   -3.040E+01   -3.018E+01   -2.996E+01
    -2.974E+01   -2.953E+01   -2.931E+01   -2.910E+01   -2.888E+01   -2.867E+01   -2.846E+01   -2.826E+01   -2.805E+01   -2.785E+01
    -2.765E+01   -2.745E+01   -2.725E+01   -2.705E+01   -2.686E+01   -2.666E+01   -2.647E+01   -2.628E+01   -2.609E+01   -2.591E+01
    -2.572E+01   -2.554E+01   -2.536E+01   -2.518E+01   -2.501E+01   -2.483E+01   -2.466E+01   -2.449E+01   -2.432E+01   -2.416E+01
    -2.399E+01   -2.383E+01   -2.367E+01   -2.351E+01   -2.336E+01   -2.320E+01   -2.305E+01   -2.290E+01   -2.275E+01   -2.260E+01
    -2.246E+01   -2.232E+01   -2.217E+01   -2.204E+01   -2.190E+01   -2.176E+01   -2.163E+01   -2.150E+01   -2.137E+01   -2.124E+01
    -2.111E+01   -2.099E+01   -2.086E+01   -2.074E+01   -2.062E+01   -2.050E+01   -2.039E+01   -2.027E+01   -2.016E+01   -2.004E+01
    -1.993E+01   -1.982E+01   -1.972E+01   -1.961E+01   -1.950E+01   -1.940E+01   -1.930E+01   -1.920E+01   -1.910E+01   -1.900E+01
    -1.890E+01   -1.880E+01   -1.871E+01   -1.862E+01   -1.852E+01   -1.843E+01   -1.834E+01   -1.825E+01   -1.816E+01   -1.808E+01
    -1.799E+01   -1.790E+01   -1.782E+01   -1.774E+01   -1.765E+01   -1.757E+01   -1.749E+01   -1.741E+01   -1.733E+01   -1.725E+01
    -1.718E+01   -1.710E+01   -1.702E+01   -1.695E+01   -1.687E+01   -1.680E+01   -1.672E+01   -1.665E+01   -1.657E+01   -1.650E+01
    -1.643E+01   -1.636E+01   -1.628E+01   -1.621E+01   -1.614E+01   -1.607E+01   -1.600E+01   -1.593E+01   -1.585E+01   -1.578E+01
    -1.571E+01   -1.564E+01   -1.557E+01   -1.549E+01   -1.542E+01   -1.535E+01   -1.528E+01   -1.520E+01   -1.513E+01   -1.505E+01
    -1.498E+01   -1.490E+01   -1.482E+01   -1.475E+01   -1.467E+01   -1.459E+01   -1.451E+01   -1.443E+01   -1.435E+01   -1.427E+01
    -1.418E+01   -1.410E+01   -1.401E+01   -1.393E+01   -1.384E+01   -1.375E+01   -1.367E+01   -1.358E+01   -1.348E+01   -1.339E+01
    -1.330E+01   -1.320E+01   -1.311E+01   -1.301E+01   -1.291E+01   -1.281E+01   -1.271E+01   -1.261E+01   -1.251E+01   -1.240E+01
    -1.229E+01   -1.219E+01   -1.208E+01   -1.197E+01   -1.186E+01   -1.174E+01   -1.163E+01   -1.151E+01
 Asp      Conc. = 1.03E+02
