 LCModel (Version 6.3-1L) Copyright: S.W. Provencher.          Ref.: Magn. Reson. Med. 30:672-679 (1993).                
 Slice#2 Row#3 Col#13  PD_05_press_1_raw_act
 36 lines in following concentration table = NCONC+1
    Conc.  %SD /Cr+PCr  Metabolite                                         
 2.21E+03  42%  82.824 Ala                                                 
   13.803 122%   0.518 Asp                                                 
    0.000 999%   0.000 Cr                                                  
   26.668 253%   1.000 PCr                                                 
    7.941 128%   0.298 GABA                                                
    7.962 128%   0.299 Glc                                                 
    0.000 999%   0.000 Gln                                                 
  708.168 113%  26.555 Glu                                                 
    0.000 999%   0.000 GPC                                                 
   19.295 145%   0.723 PCh                                                 
    0.000 999%   0.000 GSH                                                 
  232.283 132%   8.710 Ins                                                 
 4.80E+03  30% 180.103 Lac                                                 
  183.697  57%   6.888 NAA                                                 
    0.000 999%   0.000 NAAG                                                
    2.848 119%   0.107 Scyllo                                              
   13.735 122%   0.515 Tau                                                 
   19.250 326%   0.722 -CrCH2                                              
   19.295 145%   0.723 GPC+PCh                                             
  183.697  57%   6.888 NAA+NAAG                                            
   26.668 253%   1.000 Cr+PCr                                              
  708.168 113%  26.555 Glu+Gln                                             
 3.13E+04  17% 1.2E+03 Lip13a                                              
   46.270 458%   1.735 Lip13b                                              
 9.48E+03  17% 355.351 Lip09                                               
 2.59E+03  33%  97.080 MM09                                                
 1.87E+03  33%  70.256 Lip20                                               
    0.000 999%   0.000 MM20                                                
   25.320 999%   0.949 MM12                                                
 4.84E+04   9% 1.8E+03+MM14                                                
 4.12E+04   7% 1.5E+03+MM17                                                
 3.14E+04  17% 1.2E+03 Lip13a+Lip13b                                       
 7.98E+04   7% 3.0E+03 MM14+Lip13a+Lip13b+MM12                             
 1.21E+04  14% 452.430 MM09+Lip09                                          
 1.87E+03  33%  70.256 MM20+Lip20                                          
   6 lines in following misc. output table
  FWHM = 0.199 ppm    S/N =  63                                            
  Data shift = 0.260 ppm                                                   
  Ph:-148 deg     -64.1 deg/ppm                                            
  alphaB,S = 3.1E+01,   3.8E+02                                            
    6 spline knots.   Ns = 9(2)                                            
  (15) 4 infls.   ( 5) 1 extrs.                                            
  498 points on ppm-axis = NY
      4.000000     3.992357     3.984714     3.977070     3.969427     3.961784     3.954141     3.946497     3.938854     3.931211
      3.923568     3.915925     3.908281     3.900638     3.892995     3.885352     3.877708     3.870065     3.862422     3.854779
      3.847136     3.839492     3.831849     3.824206     3.816563     3.808919     3.801276     3.793633     3.785990     3.778347
      3.770703     3.763060     3.755417     3.747774     3.740130     3.732487     3.724844     3.717201     3.709558     3.701914
      3.694271     3.686628     3.678985     3.671341     3.663698     3.656055     3.648412     3.640769     3.633125     3.625482
      3.617839     3.610196     3.602552     3.594909     3.587266     3.579623     3.571980     3.564336     3.556693     3.549050
      3.541407     3.533763     3.526120     3.518477     3.510834     3.503191     3.495547     3.487904     3.480261     3.472618
      3.464974     3.457331     3.449688     3.442045     3.434402     3.426758     3.419115     3.411472     3.403829     3.396185
      3.388542     3.380899     3.373256     3.365613     3.357969     3.350326     3.342683     3.335040     3.327396     3.319753
      3.312110     3.304467     3.296824     3.289180     3.281537     3.273894     3.266251     3.258607     3.250964     3.243321
      3.235678     3.228034     3.220391     3.212748     3.205105     3.197462     3.189818     3.182175     3.174532     3.166889
      3.159245     3.151602     3.143959     3.136316     3.128673     3.121029     3.113386     3.105743     3.098100     3.090456
      3.082813     3.075170     3.067527     3.059884     3.052240     3.044597     3.036954     3.029311     3.021667     3.014024
      3.006381     2.998738     2.991095     2.983451     2.975808     2.968165     2.960522     2.952878     2.945235     2.937592
      2.929949     2.922306     2.914662     2.907019     2.899376     2.891733     2.884089     2.876446     2.868803     2.861160
      2.853517     2.845873     2.838230     2.830587     2.822944     2.815300     2.807657     2.800014     2.792371     2.784728
      2.777084     2.769441     2.761798     2.754155     2.746511     2.738868     2.731225     2.723582     2.715939     2.708295
      2.700652     2.693009     2.685366     2.677722     2.670079     2.662436     2.654793     2.647150     2.639506     2.631863
      2.624220     2.616577     2.608933     2.601290     2.593647     2.586004     2.578361     2.570717     2.563074     2.555431
      2.547788     2.540144     2.532501     2.524858     2.517215     2.509572     2.501928     2.494285     2.486642     2.478999
      2.471355     2.463712     2.456069     2.448426     2.440783     2.433139     2.425496     2.417853     2.410210     2.402566
      2.394923     2.387280     2.379637     2.371994     2.364350     2.356707     2.349064     2.341421     2.333777     2.326134
      2.318491     2.310848     2.303205     2.295561     2.287918     2.280275     2.272632     2.264988     2.257345     2.249702
      2.242059     2.234416     2.226772     2.219129     2.211486     2.203843     2.196199     2.188556     2.180913     2.173270
      2.165627     2.157983     2.150340     2.142697     2.135054     2.127410     2.119767     2.112124     2.104481     2.096838
      2.089194     2.081551     2.073908     2.066265     2.058621     2.050978     2.043335     2.035692     2.028049     2.020405
      2.012762     2.005119     1.997476     1.989833     1.982190     1.974546     1.966903     1.959260     1.951617     1.943974
      1.936331     1.928688     1.921045     1.913402     1.905759     1.898115     1.890472     1.882829     1.875186     1.867543
      1.859900     1.852257     1.844614     1.836971     1.829327     1.821684     1.814041     1.806398     1.798755     1.791112
      1.783469     1.775826     1.768183     1.760540     1.752896     1.745253     1.737610     1.729967     1.722324     1.714681
      1.707038     1.699395     1.691752     1.684108     1.676465     1.668822     1.661179     1.653536     1.645893     1.638250
      1.630607     1.622964     1.615321     1.607677     1.600034     1.592391     1.584748     1.577105     1.569462     1.561819
      1.554176     1.546533     1.538890     1.531246     1.523603     1.515960     1.508317     1.500674     1.493031     1.485388
      1.477745     1.470102     1.462458     1.454815     1.447172     1.439529     1.431886     1.424243     1.416600     1.408957
      1.401314     1.393671     1.386027     1.378384     1.370741     1.363098     1.355455     1.347812     1.340169     1.332526
      1.324883     1.317240     1.309596     1.301953     1.294310     1.286667     1.279024     1.271381     1.263738     1.256095
      1.248452     1.240808     1.233165     1.225522     1.217879     1.210236     1.202593     1.194950     1.187307     1.179664
      1.172021     1.164377     1.156734     1.149091     1.141448     1.133805     1.126162     1.118519     1.110876     1.103233
      1.095590     1.087946     1.080303     1.072660     1.065017     1.057374     1.049731     1.042088     1.034445     1.026802
      1.019158     1.011515     1.003872     0.996229     0.988586     0.980943     0.973300     0.965657     0.958014     0.950371
      0.942727     0.935084     0.927441     0.919798     0.912155     0.904512     0.896869     0.889226     0.881583     0.873940
      0.866296     0.858653     0.851010     0.843367     0.835724     0.828081     0.820438     0.812795     0.805152     0.797508
      0.789865     0.782222     0.774579     0.766936     0.759293     0.751650     0.744007     0.736364     0.728721     0.721077
      0.713434     0.705791     0.698148     0.690505     0.682862     0.675219     0.667576     0.659933     0.652290     0.644646
      0.637003     0.629360     0.621717     0.614074     0.606431     0.598788     0.591145     0.583502     0.575858     0.568215
      0.560572     0.552929     0.545286     0.537643     0.530000     0.522357     0.514714     0.507071     0.499427     0.491784
      0.484141     0.476498     0.468855     0.461212     0.453569     0.445925     0.438282     0.430639     0.422996     0.415353
      0.407710     0.400067     0.392424     0.384780     0.377137     0.369494     0.361851     0.354208     0.346565     0.338922
      0.331278     0.323635     0.315992     0.308349     0.300706     0.293063     0.285420     0.277777     0.270133     0.262490
      0.254847     0.247204     0.239561     0.231918     0.224275     0.216631     0.208988     0.201345
 NY phased data points follow
   9.17103E+00  1.06655E+01  9.80729E+00  8.82362E+00  1.12613E+01  1.19635E+01  1.09805E+01  1.05936E+01  1.11729E+01  1.21424E+01
   1.45885E+01  1.07089E+01  1.16195E+01  1.41817E+01  1.44660E+01  1.11821E+01  1.15260E+01  1.47978E+01  1.37400E+01  1.48572E+01
   1.27140E+01  1.45249E+01  1.56901E+01  1.60206E+01  1.55343E+01  1.66124E+01  1.52703E+01  1.80331E+01  1.63776E+01  1.96338E+01
   1.90675E+01  1.93850E+01  1.82513E+01  1.92359E+01  1.87542E+01  2.10867E+01  1.99904E+01  1.95269E+01  2.07007E+01  2.20976E+01
   2.09114E+01  2.29856E+01  2.44189E+01  2.18777E+01  2.36282E+01  2.13659E+01  2.25469E+01  2.33968E+01  2.28939E+01  2.50067E+01
   2.48518E+01  2.41210E+01  2.51505E+01  2.41169E+01  2.67282E+01  2.68600E+01  2.92440E+01  2.48900E+01  2.72350E+01  2.66914E+01
   2.77615E+01  2.74680E+01  2.99721E+01  2.75292E+01  2.66707E+01  2.88629E+01  2.97109E+01  2.91237E+01  3.08479E+01  3.13832E+01
   3.09157E+01  2.91417E+01  2.93967E+01  3.10530E+01  3.01158E+01  3.24195E+01  3.16869E+01  3.25780E+01  3.30048E+01  3.15497E+01
   3.53691E+01  3.39583E+01  3.55621E+01  3.41267E+01  3.33439E+01  3.64300E+01  3.39343E+01  3.54178E+01  3.51803E+01  3.58452E+01
   3.49366E+01  3.67072E+01  3.80291E+01  3.71831E+01  3.66452E+01  3.84317E+01  3.83842E+01  3.88964E+01  4.10202E+01  3.78764E+01
   4.04740E+01  3.94805E+01  3.88800E+01  4.12250E+01  3.85355E+01  3.96830E+01  4.32028E+01  3.90596E+01  4.19610E+01  4.06410E+01
   4.17990E+01  4.13746E+01  4.20521E+01  4.34192E+01  4.25189E+01  4.34070E+01  4.52450E+01  4.52945E+01  4.29147E+01  4.61531E+01
   4.44655E+01  4.61134E+01  4.41851E+01  4.71122E+01  4.61543E+01  4.69249E+01  4.69633E+01  4.83245E+01  4.55025E+01  4.96523E+01
   4.86103E+01  4.90108E+01  4.82750E+01  4.99579E+01  4.78204E+01  5.03422E+01  5.00307E+01  4.90444E+01  4.96453E+01  5.03185E+01
   5.12660E+01  5.42704E+01  5.19813E+01  5.11714E+01  5.09306E+01  5.47506E+01  5.33906E+01  5.55372E+01  5.40100E+01  5.44265E+01
   5.38316E+01  5.75503E+01  5.46675E+01  5.79391E+01  5.45254E+01  5.60876E+01  5.48812E+01  5.59384E+01  5.78378E+01  5.67079E+01
   5.64154E+01  5.71400E+01  5.92450E+01  5.75956E+01  5.80623E+01  6.03808E+01  6.06539E+01  6.02864E+01  5.88359E+01  5.90891E+01
   5.94145E+01  6.07469E+01  6.00819E+01  5.95078E+01  6.09348E+01  6.27602E+01  6.37462E+01  6.14057E+01  6.51222E+01  6.28646E+01
   6.38936E+01  6.57335E+01  6.26692E+01  6.39195E+01  6.35437E+01  6.29520E+01  6.54316E+01  6.31851E+01  6.51357E+01  6.61359E+01
   6.56419E+01  6.58180E+01  6.34743E+01  6.45426E+01  6.64343E+01  6.66995E+01  6.82172E+01  6.65934E+01  6.68994E+01  6.67563E+01
   6.84215E+01  6.93317E+01  6.80938E+01  6.88145E+01  6.99015E+01  6.77687E+01  6.91134E+01  7.09240E+01  6.95739E+01  7.06313E+01
   7.17974E+01  7.10129E+01  7.20309E+01  7.18822E+01  7.31559E+01  7.29411E+01  7.31032E+01  7.38930E+01  7.62375E+01  7.37717E+01
   7.57018E+01  7.58829E+01  7.61004E+01  7.69963E+01  7.73087E+01  7.82288E+01  7.79370E+01  7.97201E+01  8.03035E+01  7.97722E+01
   7.96933E+01  8.12106E+01  8.11188E+01  8.01495E+01  8.24340E+01  8.44802E+01  8.31107E+01  8.54470E+01  8.53959E+01  8.48682E+01
   8.55154E+01  8.64214E+01  8.63246E+01  8.78001E+01  9.13529E+01  9.01029E+01  9.26591E+01  9.12336E+01  9.32946E+01  9.60867E+01
   9.47983E+01  9.68878E+01  9.81162E+01  9.82559E+01  1.00704E+02  1.00463E+02  1.02522E+02  1.02374E+02  1.01191E+02  1.04413E+02
   1.07357E+02  1.06763E+02  1.09352E+02  1.08772E+02  1.08996E+02  1.15362E+02  1.14182E+02  1.17628E+02  1.20595E+02  1.22164E+02
   1.23172E+02  1.26603E+02  1.27927E+02  1.32539E+02  1.36043E+02  1.37985E+02  1.42714E+02  1.45877E+02  1.49778E+02  1.54129E+02
   1.58436E+02  1.62726E+02  1.67140E+02  1.76987E+02  1.83567E+02  1.90560E+02  1.94848E+02  2.00385E+02  2.08390E+02  2.17219E+02
   2.22714E+02  2.30415E+02  2.40076E+02  2.47903E+02  2.56823E+02  2.63528E+02  2.74289E+02  2.79370E+02  2.86531E+02  2.96472E+02
   3.01577E+02  3.08828E+02  3.14101E+02  3.19014E+02  3.24609E+02  3.31335E+02  3.34670E+02  3.39934E+02  3.42884E+02  3.46473E+02
   3.49116E+02  3.53604E+02  3.56976E+02  3.53807E+02  3.56035E+02  3.53455E+02  3.59464E+02  3.58175E+02  3.57877E+02  3.56297E+02
   3.54880E+02  3.53180E+02  3.54027E+02  3.51262E+02  3.47435E+02  3.46206E+02  3.41374E+02  3.38297E+02  3.36665E+02  3.30255E+02
   3.25389E+02  3.19670E+02  3.11679E+02  3.03121E+02  2.95314E+02  2.83752E+02  2.75877E+02  2.67444E+02  2.61590E+02  2.53176E+02
   2.42825E+02  2.38840E+02  2.35622E+02  2.30380E+02  2.25311E+02  2.20680E+02  2.17026E+02  2.12687E+02  2.09373E+02  2.04898E+02
   2.02736E+02  1.98621E+02  1.94300E+02  1.92027E+02  1.88575E+02  1.87372E+02  1.84603E+02  1.82247E+02  1.76816E+02  1.77220E+02
   1.74432E+02  1.71064E+02  1.70140E+02  1.68776E+02  1.66902E+02  1.64234E+02  1.63024E+02  1.61671E+02  1.57139E+02  1.58247E+02
   1.55228E+02  1.56932E+02  1.53079E+02  1.52623E+02  1.51956E+02  1.49207E+02  1.48968E+02  1.48927E+02  1.46156E+02  1.46944E+02
   1.45240E+02  1.41843E+02  1.43324E+02  1.42857E+02  1.39432E+02  1.40593E+02  1.39512E+02  1.38010E+02  1.37681E+02  1.36173E+02
   1.35472E+02  1.35168E+02  1.34392E+02  1.31801E+02  1.32314E+02  1.30597E+02  1.31769E+02  1.27623E+02  1.28899E+02  1.27715E+02
   1.26999E+02  1.29167E+02  1.25987E+02  1.24793E+02  1.23436E+02  1.22278E+02  1.20642E+02  1.22780E+02  1.19328E+02  1.19528E+02
   1.17140E+02  1.18305E+02  1.17429E+02  1.15740E+02  1.15805E+02  1.15266E+02  1.13391E+02  1.12628E+02  1.12250E+02  1.12752E+02
   1.14062E+02  1.10186E+02  1.10413E+02  1.10376E+02  1.09533E+02  1.04821E+02  1.09403E+02  1.05217E+02  1.05502E+02  1.04107E+02
   1.02984E+02  1.03339E+02  1.02091E+02  1.03356E+02  1.00674E+02  9.94604E+01  1.01258E+02  9.84008E+01  9.69954E+01  9.76096E+01
   9.71186E+01  9.77977E+01  9.64643E+01  9.26675E+01  9.53611E+01  9.32759E+01  9.17103E+01  9.13352E+01  9.20250E+01  9.12144E+01
   8.83983E+01  8.96987E+01  8.93460E+01  8.93525E+01  8.55362E+01  8.75188E+01  8.72222E+01  8.57814E+01  8.60338E+01  8.34769E+01
   8.28898E+01  8.46073E+01  8.28900E+01  8.35303E+01  7.89148E+01  8.18542E+01  8.17353E+01  7.76916E+01  7.79318E+01  7.95816E+01
   7.73961E+01  7.68591E+01  7.58487E+01  7.72094E+01  7.65261E+01  7.60735E+01  7.51818E+01  7.63858E+01  7.44119E+01  7.44499E+01
   7.44843E+01  7.18776E+01  7.30415E+01  7.07391E+01  7.02081E+01  6.96832E+01  6.87722E+01  6.95670E+01  6.99398E+01  6.63691E+01
   6.87056E+01  6.42349E+01  6.73328E+01  6.58588E+01  6.47992E+01  6.45370E+01  6.60988E+01  6.30858E+01
 NY points of the fit to the data follow
   8.52172E+00  9.58340E+00  9.04627E+00  1.00312E+01  9.81005E+00  1.09096E+01  1.08536E+01  1.19710E+01  1.19002E+01  1.27551E+01
   1.25183E+01  1.30049E+01  1.26291E+01  1.30993E+01  1.27092E+01  1.33626E+01  1.32223E+01  1.39881E+01  1.40732E+01  1.48080E+01
   1.49496E+01  1.56447E+01  1.57996E+01  1.63613E+01  1.65458E+01  1.69484E+01  1.71565E+01  1.74158E+01  1.76860E+01  1.79101E+01
   1.83087E+01  1.85185E+01  1.90116E+01  1.91884E+01  1.97369E+01  1.98516E+01  2.04282E+01  2.04856E+01  2.10853E+01  2.10906E+01
   2.16655E+01  2.16708E+01  2.22586E+01  2.22657E+01  2.28689E+01  2.29059E+01  2.35450E+01  2.36689E+01  2.42346E+01  2.43348E+01
   2.48154E+01  2.48973E+01  2.52854E+01  2.53595E+01  2.56818E+01  2.58754E+01  2.62591E+01  2.65012E+01  2.68838E+01  2.71502E+01
   2.75113E+01  2.77852E+01  2.81082E+01  2.83601E+01  2.86755E+01  2.89215E+01  2.92311E+01  2.94780E+01  2.97931E+01  3.00466E+01
   3.03686E+01  3.06086E+01  3.09205E+01  3.11478E+01  3.14568E+01  3.16821E+01  3.19945E+01  3.22209E+01  3.25395E+01  3.27686E+01
   3.30842E+01  3.33224E+01  3.36356E+01  3.38827E+01  3.41995E+01  3.44965E+01  3.48454E+01  3.51470E+01  3.55178E+01  3.58016E+01
   3.61863E+01  3.64444E+01  3.68351E+01  3.70721E+01  3.74684E+01  3.76854E+01  3.80779E+01  3.82842E+01  3.86724E+01  3.88787E+01
   3.92637E+01  3.94714E+01  3.98519E+01  4.00586E+01  4.04329E+01  4.06357E+01  4.10017E+01  4.12078E+01  4.15809E+01  4.18161E+01
   4.21746E+01  4.24306E+01  4.27665E+01  4.30370E+01  4.33465E+01  4.36293E+01  4.39173E+01  4.42153E+01  4.44892E+01  4.47986E+01
   4.50601E+01  4.53758E+01  4.56285E+01  4.59580E+01  4.62099E+01  4.65752E+01  4.68405E+01  4.72117E+01  4.74813E+01  4.78524E+01
   4.81276E+01  4.84971E+01  4.87799E+01  4.91480E+01  4.94398E+01  4.98064E+01  5.01078E+01  5.04714E+01  5.07831E+01  5.11441E+01
   5.14669E+01  5.18262E+01  5.21561E+01  5.25063E+01  5.28399E+01  5.31803E+01  5.35201E+01  5.38579E+01  5.42037E+01  5.45463E+01
   5.48830E+01  5.52166E+01  5.55400E+01  5.58609E+01  5.61684E+01  5.64738E+01  5.67626E+01  5.70485E+01  5.73144E+01  5.75806E+01
   5.78334E+01  5.80827E+01  5.83242E+01  5.85525E+01  5.87839E+01  5.89974E+01  5.92215E+01  5.94245E+01  5.96414E+01  5.98332E+01
   6.00495E+01  6.02410E+01  6.04602E+01  6.06564E+01  6.08801E+01  6.10826E+01  6.13136E+01  6.15243E+01  6.17674E+01  6.19933E+01
   6.22445E+01  6.24837E+01  6.27393E+01  6.29877E+01  6.32500E+01  6.35161E+01  6.37985E+01  6.40881E+01  6.43929E+01  6.46809E+01
   6.49954E+01  6.52786E+01  6.55577E+01  6.58426E+01  6.60869E+01  6.63929E+01  6.66556E+01  6.70385E+01  6.74411E+01  6.78413E+01
   6.83104E+01  6.86657E+01  6.91301E+01  6.93745E+01  6.97236E+01  6.98527E+01  7.01808E+01  7.03111E+01  7.06539E+01  7.08559E+01
   7.12483E+01  7.15474E+01  7.19967E+01  7.23597E+01  7.28527E+01  7.32593E+01  7.37698E+01  7.41986E+01  7.47027E+01  7.51494E+01
   7.56454E+01  7.61153E+01  7.65938E+01  7.70817E+01  7.75528E+01  7.80413E+01  7.85381E+01  7.90460E+01  7.95885E+01  8.01014E+01
   8.07023E+01  8.12178E+01  8.18269E+01  8.23218E+01  8.29259E+01  8.34354E+01  8.40669E+01  8.46275E+01  8.53397E+01  8.59302E+01
   8.66628E+01  8.73194E+01  8.82431E+01  8.90550E+01  8.99986E+01  9.09206E+01  9.18630E+01  9.28823E+01  9.37645E+01  9.48639E+01
   9.56958E+01  9.68619E+01  9.76433E+01  9.88560E+01  9.96060E+01  1.00879E+02  1.01657E+02  1.03016E+02  1.03857E+02  1.05318E+02
   1.06242E+02  1.07815E+02  1.08824E+02  1.10506E+02  1.11651E+02  1.13466E+02  1.14817E+02  1.16829E+02  1.18455E+02  1.20712E+02
   1.22679E+02  1.25240E+02  1.27615E+02  1.30549E+02  1.33428E+02  1.36838E+02  1.40306E+02  1.44266E+02  1.48374E+02  1.52943E+02
   1.57748E+02  1.63000E+02  1.68621E+02  1.74620E+02  1.80960E+02  1.87647E+02  1.94654E+02  2.01948E+02  2.09508E+02  2.17282E+02
   2.25232E+02  2.33293E+02  2.41419E+02  2.49537E+02  2.57594E+02  2.65524E+02  2.73272E+02  2.80781E+02  2.88004E+02  2.94903E+02
   3.01448E+02  3.07621E+02  3.13415E+02  3.18836E+02  3.23901E+02  3.28639E+02  3.33097E+02  3.37357E+02  3.41594E+02  3.45951E+02
   3.49190E+02  3.52671E+02  3.54691E+02  3.56969E+02  3.57738E+02  3.58598E+02  3.58052E+02  3.58424E+02  3.57611E+02  3.57281E+02
   3.56224E+02  3.54907E+02  3.53385E+02  3.50886E+02  3.48571E+02  3.44850E+02  3.41724E+02  3.36996E+02  3.33643E+02  3.29283E+02
   3.24365E+02  3.18276E+02  3.11651E+02  3.03465E+02  2.95470E+02  2.85214E+02  2.76476E+02  2.67537E+02  2.59742E+02  2.52375E+02
   2.45816E+02  2.39949E+02  2.34527E+02  2.29840E+02  2.25136E+02  2.21199E+02  2.16968E+02  2.13367E+02  2.09443E+02  2.06154E+02
   2.02199E+02  1.99083E+02  1.95370E+02  1.92615E+02  1.89115E+02  1.86636E+02  1.83237E+02  1.81127E+02  1.78287E+02  1.76352E+02
   1.73903E+02  1.72186E+02  1.70022E+02  1.68404E+02  1.66406E+02  1.64588E+02  1.62840E+02  1.61119E+02  1.59900E+02  1.58978E+02
   1.57583E+02  1.56249E+02  1.54786E+02  1.53008E+02  1.51417E+02  1.49208E+02  1.47566E+02  1.46270E+02  1.45169E+02  1.44205E+02
   1.43343E+02  1.42562E+02  1.41840E+02  1.41164E+02  1.40515E+02  1.39883E+02  1.39251E+02  1.38610E+02  1.37947E+02  1.37254E+02
   1.36524E+02  1.35754E+02  1.34938E+02  1.34078E+02  1.33175E+02  1.32234E+02  1.31258E+02  1.30257E+02  1.29236E+02  1.28205E+02
   1.27172E+02  1.26147E+02  1.25134E+02  1.24144E+02  1.23180E+02  1.22247E+02  1.21349E+02  1.20488E+02  1.19662E+02  1.18874E+02
   1.18120E+02  1.17399E+02  1.16706E+02  1.16038E+02  1.15392E+02  1.14762E+02  1.14144E+02  1.13535E+02  1.12929E+02  1.12324E+02
   1.11714E+02  1.11099E+02  1.10474E+02  1.09838E+02  1.09188E+02  1.08525E+02  1.07845E+02  1.07150E+02  1.06439E+02  1.05712E+02
   1.04970E+02  1.04214E+02  1.03445E+02  1.02665E+02  1.01874E+02  1.01074E+02  1.00268E+02  9.94569E+01  9.86420E+01  9.78261E+01
   9.70098E+01  9.61960E+01  9.53850E+01  9.45795E+01  9.37797E+01  9.29881E+01  9.22047E+01  9.14316E+01  9.06685E+01  8.99175E+01
   8.91779E+01  8.84516E+01  8.77378E+01  8.70380E+01  8.63512E+01  8.56788E+01  8.50197E+01  8.43750E+01  8.37436E+01  8.31265E+01
   8.25223E+01  8.19321E+01  8.13543E+01  8.07900E+01  8.02377E+01  7.96981E+01  7.91699E+01  7.86538E+01  7.81483E+01  7.76543E+01
   7.71702E+01  7.66969E+01  7.62328E+01  7.57787E+01  7.53332E+01  7.48971E+01  7.44688E+01  7.40493E+01  7.36370E+01  7.32328E+01
   7.28353E+01  7.24454E+01  7.20615E+01  7.16846E+01  7.13133E+01  7.09486E+01  7.05889E+01  7.02353E+01  6.98863E+01  6.95430E+01
   6.92040E+01  6.88702E+01  6.85404E+01  6.82154E+01  6.78941E+01  6.75774E+01  6.72642E+01  6.69554E+01
 NY background values follow
     7.056E+00    7.351E+00    7.647E+00    7.942E+00    8.238E+00    8.534E+00    8.830E+00    9.125E+00    9.421E+00    9.717E+00
     1.001E+01    1.031E+01    1.060E+01    1.090E+01    1.120E+01    1.149E+01    1.179E+01    1.208E+01    1.238E+01    1.267E+01
     1.297E+01    1.326E+01    1.356E+01    1.386E+01    1.415E+01    1.445E+01    1.474E+01    1.504E+01    1.533E+01    1.562E+01
     1.592E+01    1.621E+01    1.651E+01    1.680E+01    1.710E+01    1.739E+01    1.768E+01    1.798E+01    1.827E+01    1.856E+01
     1.886E+01    1.915E+01    1.944E+01    1.973E+01    2.002E+01    2.032E+01    2.061E+01    2.090E+01    2.119E+01    2.148E+01
     2.177E+01    2.206E+01    2.235E+01    2.264E+01    2.293E+01    2.322E+01    2.351E+01    2.380E+01    2.409E+01    2.438E+01
     2.466E+01    2.495E+01    2.524E+01    2.552E+01    2.581E+01    2.610E+01    2.638E+01    2.667E+01    2.695E+01    2.724E+01
     2.752E+01    2.781E+01    2.809E+01    2.837E+01    2.865E+01    2.894E+01    2.922E+01    2.950E+01    2.978E+01    3.006E+01
     3.034E+01    3.062E+01    3.090E+01    3.118E+01    3.146E+01    3.173E+01    3.201E+01    3.229E+01    3.257E+01    3.284E+01
     3.312E+01    3.339E+01    3.367E+01    3.394E+01    3.421E+01    3.448E+01    3.476E+01    3.503E+01    3.530E+01    3.557E+01
     3.584E+01    3.611E+01    3.638E+01    3.665E+01    3.691E+01    3.718E+01    3.745E+01    3.771E+01    3.798E+01    3.824E+01
     3.851E+01    3.877E+01    3.903E+01    3.929E+01    3.956E+01    3.982E+01    4.008E+01    4.034E+01    4.059E+01    4.085E+01
     4.111E+01    4.137E+01    4.162E+01    4.188E+01    4.213E+01    4.238E+01    4.264E+01    4.289E+01    4.314E+01    4.339E+01
     4.364E+01    4.389E+01    4.414E+01    4.439E+01    4.463E+01    4.488E+01    4.513E+01    4.537E+01    4.561E+01    4.586E+01
     4.610E+01    4.634E+01    4.658E+01    4.682E+01    4.706E+01    4.730E+01    4.753E+01    4.777E+01    4.800E+01    4.824E+01
     4.847E+01    4.870E+01    4.894E+01    4.917E+01    4.940E+01    4.963E+01    4.985E+01    5.008E+01    5.031E+01    5.053E+01
     5.076E+01    5.098E+01    5.120E+01    5.142E+01    5.164E+01    5.186E+01    5.208E+01    5.230E+01    5.252E+01    5.273E+01
     5.295E+01    5.316E+01    5.337E+01    5.358E+01    5.379E+01    5.400E+01    5.421E+01    5.442E+01    5.463E+01    5.483E+01
     5.504E+01    5.524E+01    5.544E+01    5.564E+01    5.584E+01    5.604E+01    5.624E+01    5.644E+01    5.663E+01    5.683E+01
     5.702E+01    5.721E+01    5.741E+01    5.760E+01    5.779E+01    5.798E+01    5.816E+01    5.835E+01    5.853E+01    5.872E+01
     5.890E+01    5.908E+01    5.926E+01    5.944E+01    5.962E+01    5.980E+01    5.998E+01    6.015E+01    6.033E+01    6.050E+01
     6.067E+01    6.084E+01    6.101E+01    6.118E+01    6.135E+01    6.152E+01    6.168E+01    6.185E+01    6.201E+01    6.217E+01
     6.233E+01    6.249E+01    6.265E+01    6.281E+01    6.296E+01    6.312E+01    6.327E+01    6.343E+01    6.358E+01    6.373E+01
     6.388E+01    6.402E+01    6.417E+01    6.432E+01    6.446E+01    6.460E+01    6.475E+01    6.489E+01    6.503E+01    6.517E+01
     6.530E+01    6.544E+01    6.557E+01    6.571E+01    6.584E+01    6.597E+01    6.610E+01    6.623E+01    6.636E+01    6.648E+01
     6.661E+01    6.673E+01    6.686E+01    6.698E+01    6.710E+01    6.722E+01    6.733E+01    6.745E+01    6.756E+01    6.768E+01
     6.779E+01    6.790E+01    6.801E+01    6.812E+01    6.823E+01    6.833E+01    6.844E+01    6.854E+01    6.864E+01    6.875E+01
     6.885E+01    6.894E+01    6.904E+01    6.914E+01    6.923E+01    6.932E+01    6.942E+01    6.951E+01    6.960E+01    6.968E+01
     6.977E+01    6.986E+01    6.994E+01    7.002E+01    7.010E+01    7.018E+01    7.026E+01    7.034E+01    7.042E+01    7.049E+01
     7.056E+01    7.064E+01    7.071E+01    7.078E+01    7.084E+01    7.091E+01    7.097E+01    7.104E+01    7.110E+01    7.116E+01
     7.122E+01    7.128E+01    7.134E+01    7.139E+01    7.144E+01    7.150E+01    7.155E+01    7.160E+01    7.165E+01    7.169E+01
     7.174E+01    7.178E+01    7.183E+01    7.187E+01    7.191E+01    7.195E+01    7.198E+01    7.202E+01    7.205E+01    7.208E+01
     7.212E+01    7.215E+01    7.217E+01    7.220E+01    7.223E+01    7.225E+01    7.227E+01    7.229E+01    7.231E+01    7.233E+01
     7.235E+01    7.236E+01    7.238E+01    7.239E+01    7.240E+01    7.241E+01    7.242E+01    7.242E+01    7.243E+01    7.243E+01
     7.243E+01    7.243E+01    7.243E+01    7.243E+01    7.243E+01    7.242E+01    7.242E+01    7.241E+01    7.240E+01    7.239E+01
     7.238E+01    7.236E+01    7.235E+01    7.233E+01    7.231E+01    7.230E+01    7.227E+01    7.225E+01    7.223E+01    7.221E+01
     7.218E+01    7.215E+01    7.212E+01    7.210E+01    7.206E+01    7.203E+01    7.200E+01    7.196E+01    7.193E+01    7.189E+01
     7.185E+01    7.181E+01    7.177E+01    7.173E+01    7.168E+01    7.164E+01    7.159E+01    7.154E+01    7.150E+01    7.145E+01
     7.139E+01    7.134E+01    7.129E+01    7.123E+01    7.118E+01    7.112E+01    7.106E+01    7.100E+01    7.094E+01    7.088E+01
     7.082E+01    7.075E+01    7.069E+01    7.062E+01    7.055E+01    7.048E+01    7.041E+01    7.034E+01    7.027E+01    7.019E+01
     7.012E+01    7.004E+01    6.997E+01    6.989E+01    6.981E+01    6.973E+01    6.965E+01    6.956E+01    6.948E+01    6.940E+01
     6.931E+01    6.922E+01    6.914E+01    6.905E+01    6.896E+01    6.887E+01    6.877E+01    6.868E+01    6.859E+01    6.849E+01
     6.840E+01    6.830E+01    6.820E+01    6.810E+01    6.800E+01    6.790E+01    6.780E+01    6.769E+01    6.759E+01    6.748E+01
     6.738E+01    6.727E+01    6.716E+01    6.705E+01    6.694E+01    6.683E+01    6.672E+01    6.661E+01    6.649E+01    6.638E+01
     6.626E+01    6.615E+01    6.603E+01    6.591E+01    6.579E+01    6.567E+01    6.555E+01    6.543E+01    6.531E+01    6.518E+01
     6.506E+01    6.493E+01    6.481E+01    6.468E+01    6.455E+01    6.442E+01    6.429E+01    6.416E+01    6.403E+01    6.390E+01
     6.377E+01    6.363E+01    6.350E+01    6.336E+01    6.323E+01    6.309E+01    6.295E+01    6.282E+01    6.268E+01    6.254E+01
     6.240E+01    6.225E+01    6.211E+01    6.197E+01    6.182E+01    6.168E+01    6.154E+01    6.139E+01    6.124E+01    6.110E+01
     6.095E+01    6.080E+01    6.065E+01    6.050E+01    6.035E+01    6.020E+01    6.004E+01    5.989E+01    5.974E+01    5.958E+01
     5.943E+01    5.927E+01    5.912E+01    5.896E+01    5.880E+01    5.865E+01    5.849E+01    5.833E+01
 Ala      Conc. = 2.21E+03
