 LCModel (Version 6.3-1L) Copyright: S.W. Provencher.          Ref.: Magn. Reson. Med. 30:672-679 (1993).                
 Slice#1 Row#1 Col#12  PD_05_press_1_raw_act
 36 lines in following concentration table = NCONC+1
    Conc.  %SD /Cr+PCr  Metabolite                                         
  156.969  42%   5.467 Ala                                                 
    2.773 164% 9.7E-02 Asp                                                 
   28.710  78%   1.000 Cr                                                  
    0.000 999%   0.000 PCr                                                 
    1.625 168% 5.7E-02 GABA                                                
    1.626 169% 5.7E-02 Glc                                                 
    0.000 999%   0.000 Gln                                                 
    0.000 999%   0.000 Glu                                                 
    0.000 999%   0.000 GPC                                                 
    0.000 999%   0.000 PCh                                                 
   97.320  36%   3.390 GSH                                                 
    0.000 999%   0.000 Ins                                                 
    0.000 999%   0.000 Lac                                                 
    0.000 999%   0.000 NAA                                                 
   25.463  97%   0.887 NAAG                                                
    0.548 166% 1.9E-02 Scyllo                                              
    2.855 160% 9.9E-02 Tau                                                 
    3.118 301%   0.109 -CrCH2                                              
    0.000 999%   0.000 GPC+PCh                                             
   25.463  97%   0.887 NAA+NAAG                                            
   28.710  78%   1.000 Cr+PCr                                              
    0.000 999%   0.000 Glu+Gln                                             
 6.41E+03   4% 223.107 Lip13a                                              
    0.000 999%   0.000 Lip13b                                              
    0.000 999%   0.000 Lip09                                               
    0.000 999%   0.000 MM09                                                
    0.000 999%   0.000 Lip20                                               
    0.000 999%   0.000 MM20                                                
    0.000 999%   0.000 MM12                                                
    0.590 810% 2.1E-02 MM14                                                
    0.428 745% 1.5E-02 MM17                                                
 6.41E+03   4% 223.107 Lip13a+Lip13b                                       
 6.41E+03   4% 223.128 MM14+Lip13a+Lip13b+MM12                             
    0.000 999%   0.000 MM09+Lip09                                          
    0.000 999%   0.000 MM20+Lip20                                          
   6 lines in following misc. output table
  FWHM = 0.092 ppm    S/N =   8                                            
  Data shift =-0.046 ppm                                                   
  Ph: -47 deg     -17.3 deg/ppm                                            
  alphaB,S = 9.8E-01,   5.3E+00                                            
   14 spline knots.   Ns = 6(1)                                            
   2 inflections.     3 extrema                                            
  498 points on ppm-axis = NY
      4.000000     3.992357     3.984714     3.977070     3.969427     3.961784     3.954141     3.946497     3.938854     3.931211
      3.923568     3.915925     3.908281     3.900638     3.892995     3.885352     3.877708     3.870065     3.862422     3.854779
      3.847136     3.839492     3.831849     3.824206     3.816563     3.808919     3.801276     3.793633     3.785990     3.778347
      3.770703     3.763060     3.755417     3.747774     3.740130     3.732487     3.724844     3.717201     3.709558     3.701914
      3.694271     3.686628     3.678985     3.671341     3.663698     3.656055     3.648412     3.640769     3.633125     3.625482
      3.617839     3.610196     3.602552     3.594909     3.587266     3.579623     3.571980     3.564336     3.556693     3.549050
      3.541407     3.533763     3.526120     3.518477     3.510834     3.503191     3.495547     3.487904     3.480261     3.472618
      3.464974     3.457331     3.449688     3.442045     3.434402     3.426758     3.419115     3.411472     3.403829     3.396185
      3.388542     3.380899     3.373256     3.365613     3.357969     3.350326     3.342683     3.335040     3.327396     3.319753
      3.312110     3.304467     3.296824     3.289180     3.281537     3.273894     3.266251     3.258607     3.250964     3.243321
      3.235678     3.228034     3.220391     3.212748     3.205105     3.197462     3.189818     3.182175     3.174532     3.166889
      3.159245     3.151602     3.143959     3.136316     3.128673     3.121029     3.113386     3.105743     3.098100     3.090456
      3.082813     3.075170     3.067527     3.059884     3.052240     3.044597     3.036954     3.029311     3.021667     3.014024
      3.006381     2.998738     2.991095     2.983451     2.975808     2.968165     2.960522     2.952878     2.945235     2.937592
      2.929949     2.922306     2.914662     2.907019     2.899376     2.891733     2.884089     2.876446     2.868803     2.861160
      2.853517     2.845873     2.838230     2.830587     2.822944     2.815300     2.807657     2.800014     2.792371     2.784728
      2.777084     2.769441     2.761798     2.754155     2.746511     2.738868     2.731225     2.723582     2.715939     2.708295
      2.700652     2.693009     2.685366     2.677722     2.670079     2.662436     2.654793     2.647150     2.639506     2.631863
      2.624220     2.616577     2.608933     2.601290     2.593647     2.586004     2.578361     2.570717     2.563074     2.555431
      2.547788     2.540144     2.532501     2.524858     2.517215     2.509572     2.501928     2.494285     2.486642     2.478999
      2.471355     2.463712     2.456069     2.448426     2.440783     2.433139     2.425496     2.417853     2.410210     2.402566
      2.394923     2.387280     2.379637     2.371994     2.364350     2.356707     2.349064     2.341421     2.333777     2.326134
      2.318491     2.310848     2.303205     2.295561     2.287918     2.280275     2.272632     2.264988     2.257345     2.249702
      2.242059     2.234416     2.226772     2.219129     2.211486     2.203843     2.196199     2.188556     2.180913     2.173270
      2.165627     2.157983     2.150340     2.142697     2.135054     2.127410     2.119767     2.112124     2.104481     2.096838
      2.089194     2.081551     2.073908     2.066265     2.058621     2.050978     2.043335     2.035692     2.028049     2.020405
      2.012762     2.005119     1.997476     1.989833     1.982190     1.974546     1.966903     1.959260     1.951617     1.943974
      1.936331     1.928688     1.921045     1.913402     1.905759     1.898115     1.890472     1.882829     1.875186     1.867543
      1.859900     1.852257     1.844614     1.836971     1.829327     1.821684     1.814041     1.806398     1.798755     1.791112
      1.783469     1.775826     1.768183     1.760540     1.752896     1.745253     1.737610     1.729967     1.722324     1.714681
      1.707038     1.699395     1.691752     1.684108     1.676465     1.668822     1.661179     1.653536     1.645893     1.638250
      1.630607     1.622964     1.615321     1.607677     1.600034     1.592391     1.584748     1.577105     1.569462     1.561819
      1.554176     1.546533     1.538890     1.531246     1.523603     1.515960     1.508317     1.500674     1.493031     1.485388
      1.477745     1.470102     1.462458     1.454815     1.447172     1.439529     1.431886     1.424243     1.416600     1.408957
      1.401314     1.393671     1.386027     1.378384     1.370741     1.363098     1.355455     1.347812     1.340169     1.332526
      1.324883     1.317240     1.309596     1.301953     1.294310     1.286667     1.279024     1.271381     1.263738     1.256095
      1.248452     1.240808     1.233165     1.225522     1.217879     1.210236     1.202593     1.194950     1.187307     1.179664
      1.172021     1.164377     1.156734     1.149091     1.141448     1.133805     1.126162     1.118519     1.110876     1.103233
      1.095590     1.087946     1.080303     1.072660     1.065017     1.057374     1.049731     1.042088     1.034445     1.026802
      1.019158     1.011515     1.003872     0.996229     0.988586     0.980943     0.973300     0.965657     0.958014     0.950371
      0.942727     0.935084     0.927441     0.919798     0.912155     0.904512     0.896869     0.889226     0.881583     0.873940
      0.866296     0.858653     0.851010     0.843367     0.835724     0.828081     0.820438     0.812795     0.805152     0.797508
      0.789865     0.782222     0.774579     0.766936     0.759293     0.751650     0.744007     0.736364     0.728721     0.721077
      0.713434     0.705791     0.698148     0.690505     0.682862     0.675219     0.667576     0.659933     0.652290     0.644646
      0.637003     0.629360     0.621717     0.614074     0.606431     0.598788     0.591145     0.583502     0.575858     0.568215
      0.560572     0.552929     0.545286     0.537643     0.530000     0.522357     0.514714     0.507071     0.499427     0.491784
      0.484141     0.476498     0.468855     0.461212     0.453569     0.445925     0.438282     0.430639     0.422996     0.415353
      0.407710     0.400067     0.392424     0.384780     0.377137     0.369494     0.361851     0.354208     0.346565     0.338922
      0.331278     0.323635     0.315992     0.308349     0.300706     0.293063     0.285420     0.277777     0.270133     0.262490
      0.254847     0.247204     0.239561     0.231918     0.224275     0.216631     0.208988     0.201345
 NY phased data points follow
   4.92303E-01  2.89419E+00  2.37115E+00  2.60517E+00  1.64812E+00  2.48010E+00  3.58444E+00  7.00893E+00  3.56842E+00  2.29130E+00
   5.47113E+00  4.64442E+00  3.48196E+00  2.45943E+00  1.60305E+00  1.27048E+00  4.68058E+00  6.00818E+00  2.86510E+00  3.40089E+00
   4.32976E+00  4.01621E+00  3.57908E+00  7.85343E-01  3.66216E+00  6.96414E+00  3.26750E+00  3.27517E+00  2.34555E+00  2.98245E+00
   3.70588E+00  5.47324E+00  5.24924E+00  3.40751E+00  5.03034E+00  4.45612E+00  2.48748E+00  1.36939E+00  1.32482E+00  2.65142E+00
   1.68179E+00  3.29507E+00  4.02568E+00  3.76444E+00  2.84449E+00  2.84226E+00  5.57723E+00  3.47496E+00  3.77815E+00  3.22001E+00
   3.31376E+00  2.36439E+00  3.55168E+00  1.87307E+00  3.43110E+00  2.19337E+00  4.37582E+00  5.42115E+00  4.49413E+00  1.94879E+00
   2.92146E+00  1.97668E+00  3.78019E+00  3.47231E+00  1.26704E-01  4.57622E+00  4.27617E+00  3.50994E+00  5.82345E+00  5.08375E-01
   2.53280E+00  1.66826E+00  1.89820E+00  3.37817E+00  2.19667E+00  4.52937E+00  7.11385E-01  4.19428E+00  5.01795E+00  3.61449E+00
   2.63727E+00  2.96296E+00  2.61876E+00  3.84718E+00  5.03776E+00  2.66191E+00  2.47051E+00  3.23150E+00  4.10414E+00  3.78801E+00
   3.21058E+00  1.52951E+00  4.08683E+00  2.08129E+00  7.39800E+00  5.44998E+00  2.15327E+00  2.78391E+00  5.08478E+00  3.20960E+00
   4.95565E+00  4.67509E+00  2.65451E+00  4.38745E+00  9.30071E-01  1.96888E+00  2.52856E+00  3.67523E+00  5.20750E-01  4.95780E+00
   2.77406E+00  4.30043E+00  2.90606E+00  1.01222E+00  2.58197E+00  4.57029E+00  2.32879E+00  2.46397E+00  3.66420E+00  1.88899E+00
   2.39611E+00  4.29574E+00  5.27192E+00  3.31777E-01  6.49126E+00  1.65420E+00  2.44851E+00  4.92918E+00  3.68628E+00  5.05970E+00
   3.43441E+00  5.02179E+00  2.97656E+00  4.89277E+00  2.31074E+00  2.68549E+00  3.00509E+00  3.23168E+00  4.51444E-01  3.74032E+00
   4.49141E+00  3.62612E+00  3.25434E+00  3.66191E+00  6.34939E+00  3.72903E+00  4.61827E+00  4.71129E+00  3.47373E+00  3.47064E+00
   5.74109E+00  6.64790E+00  5.42323E+00  4.41045E+00  2.31378E+00  3.77180E+00  4.90223E+00  7.90568E+00  2.01359E+00  3.45075E+00
   1.14002E+00  3.02674E+00  3.63747E+00  5.55175E+00  3.69538E+00  2.01387E+00  4.02175E+00  1.69924E+00  4.36630E+00  2.54490E+00
   3.84031E+00  2.53143E+00  2.78637E+00  2.98873E+00  1.54627E+00  4.00405E+00  8.27768E-01  3.21953E+00  5.23385E+00  6.41018E+00
   2.61150E+00  4.12513E+00  2.91472E+00  4.82196E+00  4.01590E+00  3.83121E+00  4.86111E+00  4.83336E+00  2.73935E+00  3.21047E+00
   3.79383E+00  4.68762E+00  5.02108E+00  2.33880E+00  4.04955E+00  5.28495E+00  4.25573E+00  4.42293E+00  4.31785E+00  3.07770E+00
   2.97179E+00  1.12580E+00  5.37616E+00  4.21001E+00  4.58118E+00  7.06460E+00  5.41553E+00  5.32853E+00  5.64433E+00  5.44847E+00
   5.24215E+00  5.84626E+00  4.18692E+00  3.91638E+00  6.82771E+00  5.09137E+00  3.74615E+00  3.76191E+00  4.86831E+00  3.75336E+00
   4.04429E+00  3.60674E+00  5.41087E+00  4.97377E+00  4.47449E+00  2.43134E+00  6.23229E+00  4.49217E+00  4.68369E+00  5.21566E+00
   4.21645E+00  3.62081E+00  5.37734E+00  4.50645E+00  2.45557E+00  4.85292E+00  4.01104E+00  5.62833E+00  4.34036E+00  5.52543E+00
   5.47268E+00  5.84184E+00  2.75108E+00  4.91815E+00  4.35465E+00  4.96206E+00  4.17724E+00  6.63574E+00  5.72803E+00  4.11821E+00
   4.94219E+00  7.85679E+00  4.56953E+00  6.24199E+00  6.66811E+00  7.16308E+00  7.42814E+00  6.64739E+00  6.18878E+00  8.10901E+00
   7.22233E+00  5.65749E+00  6.92083E+00  6.43955E+00  4.67605E+00  5.34106E+00  5.25097E+00  7.07530E+00  5.69745E+00  5.29842E+00
   4.68458E+00  3.84912E+00  6.17818E+00  4.07987E+00  6.29833E+00  6.16500E+00  4.97640E+00  4.26540E+00  4.45564E+00  6.15719E+00
   6.46814E+00  6.76720E+00  6.89839E+00  5.97512E+00  5.49202E+00  7.57415E+00  8.04242E+00  6.11251E+00  9.37427E+00  8.78950E+00
   7.81949E+00  8.32799E+00  6.03967E+00  6.01934E+00  5.31002E+00  8.85186E+00  8.69833E+00  8.39307E+00  7.22629E+00  1.26848E+01
   8.97993E+00  7.82086E+00  8.37897E+00  1.05989E+01  9.75497E+00  8.16528E+00  1.24006E+01  9.44513E+00  1.22830E+01  9.39719E+00
   1.06903E+01  9.58868E+00  1.20372E+01  1.02994E+01  8.27248E+00  1.10331E+01  1.02109E+01  9.30800E+00  9.47925E+00  1.02119E+01
   1.17513E+01  1.28970E+01  9.96482E+00  1.32846E+01  1.02887E+01  1.11667E+01  1.02572E+01  1.27541E+01  1.32565E+01  1.22188E+01
   1.25470E+01  1.51305E+01  1.21733E+01  1.04931E+01  1.08529E+01  1.22142E+01  1.08753E+01  1.21335E+01  1.33092E+01  1.38148E+01
   1.50448E+01  1.47859E+01  1.49465E+01  1.57469E+01  1.66501E+01  1.73731E+01  1.90711E+01  1.86910E+01  1.93467E+01  1.75890E+01
   2.21272E+01  1.97473E+01  2.37554E+01  2.32146E+01  2.36692E+01  2.60356E+01  2.55229E+01  2.63184E+01  3.02812E+01  3.03278E+01
   2.81798E+01  3.33686E+01  3.11157E+01  3.17193E+01  3.75029E+01  3.68089E+01  3.54126E+01  3.94924E+01  3.92339E+01  3.62860E+01
   3.75656E+01  3.64310E+01  3.50878E+01  3.45649E+01  3.49598E+01  3.20427E+01  3.08712E+01  3.07214E+01  2.90812E+01  2.83095E+01
   2.55001E+01  2.85459E+01  2.38919E+01  2.23689E+01  2.33898E+01  2.10943E+01  2.21210E+01  2.13078E+01  1.82785E+01  1.93839E+01
   1.83673E+01  1.34302E+01  1.46048E+01  1.45981E+01  1.43889E+01  1.44099E+01  1.11015E+01  1.21425E+01  1.24592E+01  1.32634E+01
   1.28435E+01  8.20646E+00  9.60723E+00  1.08208E+01  7.47877E+00  1.06883E+01  1.11021E+01  1.10071E+01  1.24156E+01  1.05401E+01
   9.10823E+00  1.09507E+01  1.31240E+01  1.02879E+01  1.11849E+01  1.00431E+01  9.75070E+00  1.12973E+01  1.27395E+01  1.24661E+01
   1.36194E+01  1.37269E+01  1.00663E+01  1.42443E+01  1.26302E+01  1.25398E+01  1.12838E+01  9.23886E+00  1.20775E+01  1.12898E+01
   9.84213E+00  1.01156E+01  1.06689E+01  1.20296E+01  1.14016E+01  9.48020E+00  1.32070E+01  1.27266E+01  1.29840E+01  1.20494E+01
   8.31844E+00  1.19676E+01  9.24200E+00  8.18899E+00  1.04870E+01  1.12227E+01  1.26765E+01  1.21476E+01  1.28854E+01  1.12475E+01
   1.03115E+01  9.90168E+00  1.25345E+01  1.21428E+01  1.24147E+01  1.03293E+01  1.17256E+01  1.10093E+01  1.31185E+01  1.10836E+01
   1.07236E+01  1.01759E+01  1.21033E+01  8.81280E+00  9.27980E+00  1.02685E+01  1.05761E+01  8.26651E+00  1.01493E+01  9.89107E+00
   1.13858E+01  9.96281E+00  8.77834E+00  9.09941E+00  9.26136E+00  9.16063E+00  9.05343E+00  9.35652E+00  7.74894E+00  8.04930E+00
   8.52109E+00  7.56135E+00  7.03202E+00  7.02996E+00  6.53181E+00  7.74231E+00  7.69914E+00  8.23367E+00  7.06065E+00  7.59888E+00
   9.71839E+00  7.49385E+00  6.62294E+00  6.52807E+00  7.15487E+00  9.20298E+00  5.28822E+00  8.30400E+00
 NY points of the fit to the data follow
   2.87081E+00  2.87599E+00  2.87569E+00  2.86477E+00  2.88424E+00  3.05192E+00  3.30738E+00  3.32097E+00  3.07306E+00  2.90084E+00
   2.96786E+00  3.15069E+00  3.25179E+00  3.27606E+00  3.36666E+00  3.50845E+00  3.53116E+00  3.37259E+00  3.11319E+00  2.97532E+00
   3.02071E+00  2.96529E+00  2.83574E+00  3.11696E+00  4.15592E+00  4.96201E+00  4.28724E+00  3.15201E+00  2.95730E+00  3.72262E+00
   4.32133E+00  4.48207E+00  4.60101E+00  4.82197E+00  4.80179E+00  4.26910E+00  3.56166E+00  3.18514E+00  3.22277E+00  3.29275E+00
   3.23011E+00  3.12620E+00  3.05883E+00  2.99801E+00  2.92660E+00  2.88144E+00  2.88555E+00  2.92538E+00  2.96857E+00  2.98889E+00
   2.99563E+00  2.99865E+00  3.00018E+00  3.00161E+00  3.00393E+00  3.00660E+00  3.00850E+00  3.00950E+00  3.01069E+00  3.01271E+00
   3.01572E+00  3.01913E+00  3.02076E+00  3.02152E+00  3.02380E+00  3.02584E+00  3.02905E+00  3.03421E+00  3.03954E+00  3.04557E+00
   3.05433E+00  3.05830E+00  3.05303E+00  3.04712E+00  3.04789E+00  3.05529E+00  3.06611E+00  3.07744E+00  3.08468E+00  3.08802E+00
   3.09482E+00  3.10419E+00  3.10096E+00  3.08842E+00  3.08477E+00  3.09627E+00  3.11465E+00  3.12763E+00  3.13101E+00  3.13056E+00
   3.13223E+00  3.13386E+00  3.13373E+00  3.13490E+00  3.13526E+00  3.13035E+00  3.12649E+00  3.12855E+00  3.13429E+00  3.14258E+00
   3.15378E+00  3.16464E+00  3.17340E+00  3.17918E+00  3.18087E+00  3.18156E+00  3.18463E+00  3.19111E+00  3.19903E+00  3.20785E+00
   3.21767E+00  3.22859E+00  3.24128E+00  3.24888E+00  3.23772E+00  3.22372E+00  3.23683E+00  3.26915E+00  3.30661E+00  3.35262E+00
   3.43120E+00  3.66309E+00  3.96274E+00  3.90808E+00  3.58188E+00  3.44570E+00  3.68820E+00  4.14062E+00  4.50606E+00  4.51166E+00
   4.22124E+00  4.00023E+00  3.94243E+00  3.96710E+00  4.01237E+00  4.04922E+00  4.03269E+00  3.84498E+00  3.50227E+00  3.20339E+00
   3.11217E+00  3.25000E+00  3.50140E+00  3.75244E+00  3.93009E+00  3.98848E+00  3.93441E+00  3.82650E+00  3.71530E+00  3.62898E+00
   3.60284E+00  3.62654E+00  3.64568E+00  3.63016E+00  3.58648E+00  3.54469E+00  3.53085E+00  3.54447E+00  3.56953E+00  3.59691E+00
   3.62442E+00  3.64940E+00  3.66736E+00  3.66894E+00  3.65742E+00  3.65138E+00  3.67198E+00  3.70692E+00  3.72527E+00  3.71104E+00
   3.68541E+00  3.69133E+00  3.73319E+00  3.77613E+00  3.79678E+00  3.80033E+00  3.79765E+00  3.79060E+00  3.78848E+00  3.76948E+00
   3.72597E+00  3.72888E+00  3.77783E+00  3.85064E+00  3.95274E+00  4.07903E+00  4.15718E+00  4.11435E+00  3.97902E+00  3.90097E+00
   3.95646E+00  4.04711E+00  4.10446E+00  4.28790E+00  4.61354E+00  4.74436E+00  4.53880E+00  4.18849E+00  3.96159E+00  3.91265E+00
   3.96985E+00  4.08240E+00  4.26021E+00  4.48160E+00  4.65727E+00  4.72499E+00  4.70899E+00  4.68529E+00  4.66988E+00  4.65783E+00
   4.66851E+00  4.70740E+00  4.74845E+00  4.77258E+00  4.78291E+00  4.79236E+00  4.80590E+00  4.82246E+00  4.84468E+00  4.87755E+00
   4.91895E+00  4.96191E+00  4.99830E+00  5.02709E+00  5.04148E+00  4.98779E+00  4.88596E+00  4.91768E+00  5.12031E+00  5.30863E+00
   5.37270E+00  5.38398E+00  5.39378E+00  5.24428E+00  4.95251E+00  4.83895E+00  5.03899E+00  5.37547E+00  5.60828E+00  5.72946E+00
   5.82844E+00  5.80781E+00  5.56428E+00  5.23804E+00  5.06524E+00  5.12561E+00  5.30714E+00  5.50164E+00  5.71202E+00  5.98453E+00
   6.37860E+00  6.65534E+00  6.47020E+00  6.09732E+00  5.95999E+00  6.13970E+00  6.40779E+00  6.60645E+00  6.74195E+00  6.84388E+00
   6.86819E+00  6.76193E+00  6.57212E+00  6.41391E+00  6.36841E+00  6.39003E+00  6.43046E+00  6.47398E+00  6.51355E+00  6.55152E+00
   6.59059E+00  6.62735E+00  6.66363E+00  6.70809E+00  6.76134E+00  6.81506E+00  6.86281E+00  6.90768E+00  6.95322E+00  6.99616E+00
   7.03537E+00  7.07608E+00  7.12181E+00  7.17272E+00  7.22515E+00  7.27690E+00  7.33130E+00  7.38932E+00  7.44444E+00  7.49389E+00
   7.54106E+00  7.59095E+00  7.64405E+00  7.69770E+00  7.75261E+00  7.81197E+00  7.87420E+00  7.93532E+00  7.99343E+00  8.05015E+00
   8.10809E+00  8.16791E+00  8.22968E+00  8.29376E+00  8.36058E+00  8.42995E+00  8.50129E+00  8.57418E+00  8.64901E+00  8.72631E+00
   8.80668E+00  8.89087E+00  8.97961E+00  9.07373E+00  9.17437E+00  9.28334E+00  9.40355E+00  9.53979E+00  9.70071E+00  9.90459E+00
   1.02011E+01  1.07115E+01  1.11781E+01  1.07328E+01  9.68047E+00  9.44148E+00  1.01353E+01  1.09031E+01  1.10077E+01  1.08335E+01
   1.13316E+01  1.20980E+01  1.16553E+01  1.03323E+01  9.47897E+00  9.85447E+00  1.09236E+01  1.19990E+01  1.30119E+01  1.40670E+01
   1.50271E+01  1.56186E+01  1.58251E+01  1.59232E+01  1.62306E+01  1.67203E+01  1.73253E+01  1.80221E+01  1.88011E+01  1.96571E+01
   2.05863E+01  2.15842E+01  2.26451E+01  2.37617E+01  2.49244E+01  2.61214E+01  2.73388E+01  2.85603E+01  2.97675E+01  3.09405E+01
   3.20584E+01  3.30998E+01  3.40435E+01  3.48694E+01  3.55591E+01  3.60968E+01  3.64700E+01  3.66700E+01  3.66921E+01  3.65362E+01
   3.62063E+01  3.57109E+01  3.50620E+01  3.42752E+01  3.33684E+01  3.23616E+01  3.12758E+01  3.01322E+01  2.89519E+01  2.77546E+01
   2.65586E+01  2.53800E+01  2.42327E+01  2.31282E+01  2.20755E+01  2.10811E+01  2.01495E+01  1.92830E+01  1.84822E+01  1.77464E+01
   1.70734E+01  1.64606E+01  1.59044E+01  1.54009E+01  1.49460E+01  1.45356E+01  1.41657E+01  1.38322E+01  1.35316E+01  1.32603E+01
   1.30152E+01  1.27936E+01  1.25927E+01  1.24104E+01  1.22444E+01  1.20931E+01  1.19549E+01  1.18282E+01  1.17119E+01  1.16049E+01
   1.15062E+01  1.14149E+01  1.13303E+01  1.12517E+01  1.11786E+01  1.11104E+01  1.10466E+01  1.09869E+01  1.09308E+01  1.08781E+01
   1.08284E+01  1.07815E+01  1.07371E+01  1.06950E+01  1.06550E+01  1.06170E+01  1.05807E+01  1.05460E+01  1.05128E+01  1.04810E+01
   1.04504E+01  1.04210E+01  1.03926E+01  1.03652E+01  1.03386E+01  1.03129E+01  1.02879E+01  1.02635E+01  1.02398E+01  1.02166E+01
   1.01940E+01  1.01718E+01  1.01500E+01  1.01285E+01  1.01074E+01  1.00866E+01  1.00661E+01  1.00457E+01  1.00256E+01  1.00057E+01
   9.98585E+00  9.96616E+00  9.94657E+00  9.92706E+00  9.90761E+00  9.88820E+00  9.86885E+00  9.84953E+00  9.83026E+00  9.81101E+00
   9.79177E+00  9.77255E+00  9.75335E+00  9.73416E+00  9.71499E+00  9.69581E+00  9.67664E+00  9.65747E+00  9.63832E+00  9.61917E+00
   9.60003E+00  9.58089E+00  9.56176E+00  9.54264E+00  9.52354E+00  9.50446E+00  9.48539E+00  9.46634E+00  9.44732E+00  9.42833E+00
   9.40937E+00  9.39045E+00  9.37157E+00  9.35273E+00  9.33395E+00  9.31522E+00  9.29656E+00  9.27795E+00  9.25942E+00  9.24096E+00
   9.22259E+00  9.20431E+00  9.18612E+00  9.16803E+00  9.15005E+00  9.13217E+00  9.11442E+00  9.09680E+00
 NY background values follow
     2.807E+00    2.810E+00    2.812E+00    2.815E+00    2.817E+00    2.820E+00    2.822E+00    2.825E+00    2.828E+00    2.830E+00
     2.833E+00    2.835E+00    2.838E+00    2.840E+00    2.843E+00    2.845E+00    2.848E+00    2.850E+00    2.853E+00    2.856E+00
     2.858E+00    2.861E+00    2.863E+00    2.866E+00    2.868E+00    2.871E+00    2.873E+00    2.876E+00    2.878E+00    2.881E+00
     2.883E+00    2.886E+00    2.888E+00    2.891E+00    2.893E+00    2.896E+00    2.898E+00    2.901E+00    2.903E+00    2.906E+00
     2.908E+00    2.911E+00    2.914E+00    2.916E+00    2.919E+00    2.921E+00    2.924E+00    2.926E+00    2.929E+00    2.931E+00
     2.934E+00    2.936E+00    2.939E+00    2.942E+00    2.944E+00    2.947E+00    2.949E+00    2.952E+00    2.955E+00    2.957E+00
     2.960E+00    2.963E+00    2.965E+00    2.968E+00    2.971E+00    2.973E+00    2.976E+00    2.979E+00    2.982E+00    2.985E+00
     2.987E+00    2.990E+00    2.993E+00    2.996E+00    2.999E+00    3.002E+00    3.005E+00    3.008E+00    3.011E+00    3.014E+00
     3.017E+00    3.021E+00    3.024E+00    3.027E+00    3.030E+00    3.034E+00    3.037E+00    3.040E+00    3.044E+00    3.047E+00
     3.051E+00    3.054E+00    3.058E+00    3.062E+00    3.065E+00    3.069E+00    3.073E+00    3.077E+00    3.081E+00    3.085E+00
     3.089E+00    3.093E+00    3.097E+00    3.101E+00    3.105E+00    3.110E+00    3.114E+00    3.119E+00    3.123E+00    3.128E+00
     3.133E+00    3.138E+00    3.143E+00    3.148E+00    3.153E+00    3.158E+00    3.164E+00    3.169E+00    3.175E+00    3.181E+00
     3.186E+00    3.192E+00    3.198E+00    3.204E+00    3.211E+00    3.217E+00    3.224E+00    3.230E+00    3.237E+00    3.244E+00
     3.251E+00    3.258E+00    3.265E+00    3.273E+00    3.280E+00    3.288E+00    3.296E+00    3.304E+00    3.312E+00    3.321E+00
     3.329E+00    3.338E+00    3.347E+00    3.356E+00    3.365E+00    3.374E+00    3.384E+00    3.393E+00    3.403E+00    3.413E+00
     3.423E+00    3.433E+00    3.444E+00    3.454E+00    3.465E+00    3.476E+00    3.487E+00    3.499E+00    3.510E+00    3.522E+00
     3.534E+00    3.546E+00    3.558E+00    3.571E+00    3.584E+00    3.596E+00    3.609E+00    3.623E+00    3.636E+00    3.650E+00
     3.664E+00    3.678E+00    3.692E+00    3.706E+00    3.721E+00    3.736E+00    3.751E+00    3.766E+00    3.782E+00    3.797E+00
     3.813E+00    3.830E+00    3.846E+00    3.862E+00    3.879E+00    3.896E+00    3.914E+00    3.931E+00    3.949E+00    3.967E+00
     3.985E+00    4.003E+00    4.022E+00    4.041E+00    4.060E+00    4.079E+00    4.098E+00    4.118E+00    4.138E+00    4.158E+00
     4.179E+00    4.200E+00    4.220E+00    4.242E+00    4.263E+00    4.285E+00    4.307E+00    4.329E+00    4.351E+00    4.374E+00
     4.397E+00    4.420E+00    4.444E+00    4.467E+00    4.491E+00    4.515E+00    4.540E+00    4.564E+00    4.589E+00    4.615E+00
     4.640E+00    4.666E+00    4.692E+00    4.718E+00    4.745E+00    4.772E+00    4.799E+00    4.826E+00    4.854E+00    4.881E+00
     4.910E+00    4.938E+00    4.967E+00    4.996E+00    5.025E+00    5.054E+00    5.084E+00    5.114E+00    5.144E+00    5.174E+00
     5.205E+00    5.235E+00    5.266E+00    5.298E+00    5.329E+00    5.361E+00    5.393E+00    5.425E+00    5.457E+00    5.489E+00
     5.522E+00    5.555E+00    5.588E+00    5.621E+00    5.655E+00    5.688E+00    5.722E+00    5.756E+00    5.790E+00    5.824E+00
     5.859E+00    5.893E+00    5.928E+00    5.963E+00    5.998E+00    6.033E+00    6.069E+00    6.104E+00    6.140E+00    6.175E+00
     6.211E+00    6.247E+00    6.283E+00    6.320E+00    6.356E+00    6.393E+00    6.429E+00    6.466E+00    6.502E+00    6.539E+00
     6.576E+00    6.613E+00    6.650E+00    6.686E+00    6.723E+00    6.760E+00    6.797E+00    6.834E+00    6.871E+00    6.907E+00
     6.944E+00    6.981E+00    7.017E+00    7.054E+00    7.090E+00    7.127E+00    7.163E+00    7.199E+00    7.235E+00    7.271E+00
     7.306E+00    7.342E+00    7.377E+00    7.412E+00    7.447E+00    7.482E+00    7.516E+00    7.551E+00    7.585E+00    7.619E+00
     7.652E+00    7.686E+00    7.719E+00    7.752E+00    7.784E+00    7.816E+00    7.848E+00    7.880E+00    7.911E+00    7.942E+00
     7.973E+00    8.003E+00    8.033E+00    8.063E+00    8.092E+00    8.121E+00    8.150E+00    8.178E+00    8.206E+00    8.234E+00
     8.262E+00    8.289E+00    8.316E+00    8.343E+00    8.369E+00    8.395E+00    8.421E+00    8.446E+00    8.471E+00    8.496E+00
     8.520E+00    8.545E+00    8.568E+00    8.592E+00    8.615E+00    8.638E+00    8.661E+00    8.684E+00    8.706E+00    8.728E+00
     8.749E+00    8.770E+00    8.791E+00    8.812E+00    8.833E+00    8.853E+00    8.873E+00    8.892E+00    8.911E+00    8.930E+00
     8.949E+00    8.968E+00    8.986E+00    9.004E+00    9.021E+00    9.039E+00    9.056E+00    9.072E+00    9.089E+00    9.105E+00
     9.121E+00    9.137E+00    9.152E+00    9.167E+00    9.182E+00    9.197E+00    9.211E+00    9.225E+00    9.239E+00    9.252E+00
     9.266E+00    9.278E+00    9.291E+00    9.303E+00    9.316E+00    9.327E+00    9.339E+00    9.350E+00    9.361E+00    9.372E+00
     9.382E+00    9.392E+00    9.402E+00    9.412E+00    9.421E+00    9.430E+00    9.439E+00    9.448E+00    9.456E+00    9.464E+00
     9.471E+00    9.479E+00    9.486E+00    9.493E+00    9.499E+00    9.506E+00    9.512E+00    9.518E+00    9.523E+00    9.528E+00
     9.533E+00    9.538E+00    9.542E+00    9.546E+00    9.550E+00    9.554E+00    9.557E+00    9.560E+00    9.562E+00    9.565E+00
     9.567E+00    9.569E+00    9.570E+00    9.571E+00    9.572E+00    9.573E+00    9.573E+00    9.573E+00    9.573E+00    9.572E+00
     9.571E+00    9.570E+00    9.568E+00    9.567E+00    9.564E+00    9.562E+00    9.559E+00    9.556E+00    9.553E+00    9.549E+00
     9.545E+00    9.540E+00    9.536E+00    9.531E+00    9.525E+00    9.520E+00    9.514E+00    9.507E+00    9.501E+00    9.494E+00
     9.486E+00    9.478E+00    9.470E+00    9.462E+00    9.453E+00    9.444E+00    9.435E+00    9.425E+00    9.416E+00    9.405E+00
     9.395E+00    9.384E+00    9.373E+00    9.362E+00    9.350E+00    9.339E+00    9.327E+00    9.315E+00    9.302E+00    9.290E+00
     9.277E+00    9.264E+00    9.251E+00    9.238E+00    9.224E+00    9.211E+00    9.197E+00    9.183E+00    9.169E+00    9.155E+00
     9.141E+00    9.127E+00    9.112E+00    9.098E+00    9.084E+00    9.069E+00    9.054E+00    9.040E+00    9.025E+00    9.011E+00
     8.996E+00    8.981E+00    8.967E+00    8.952E+00    8.937E+00    8.923E+00    8.908E+00    8.894E+00
 Ala      Conc. = 1.57E+02
