 LCModel (Version 6.3-1L) Copyright: S.W. Provencher.          Ref.: Magn. Reson. Med. 30:672-679 (1993).                
 Slice#2 Row#13 Col#12  PD_05_press_1_raw_act
 36 lines in following concentration table = NCONC+1
    Conc.  %SD /Cr+PCr  Metabolite                                         
   47.019  62%   1.647 Ala                                                 
    2.395  53% 8.4E-02 Asp                                                 
    0.000 999%   0.000 Cr                                                  
   28.542  42%   1.000 PCr                                                 
    1.443  52% 5.1E-02 GABA                                                
    1.443  52% 5.1E-02 Glc                                                 
    0.000 999%   0.000 Gln                                                 
   94.234  66%   3.302 Glu                                                 
    1.137 999% 4.0E-02 GPC                                                 
    5.383 540%   0.189 PCh                                                 
    0.000 999%   0.000 GSH                                                 
    0.000 999%   0.000 Ins                                                 
   41.530  76%   1.455 Lac                                                 
    0.000 999%   0.000 NAA                                                 
    0.000 999%   0.000 NAAG                                                
    0.487  52% 1.7E-02 Scyllo                                              
    2.420  52% 8.5E-02 Tau                                                 
    2.829  69% 9.9E-02 -CrCH2                                              
    6.520  69%   0.228 GPC+PCh                                             
    0.000 999%   0.000 NAA+NAAG                                            
   28.542  42%   1.000 Cr+PCr                                              
   94.234  66%   3.302 Glu+Gln                                             
 2.71E+03  11%  95.013 Lip13a                                              
    0.000 999%   0.000 Lip13b                                              
  535.445  24%  18.760 Lip09                                               
   32.312 173%   1.132 MM09                                                
    0.000 999%   0.000 Lip20                                               
    0.000 999%   0.000 MM20                                                
   12.013 263%   0.421 MM12                                                
  588.038  16%  20.602+MM14                                                
  273.106  25%   9.568 MM17                                                
 2.71E+03  11%  95.013 Lip13a+Lip13b                                       
 3.31E+03   9% 116.036 MM14+Lip13a+Lip13b+MM12                             
  567.757  20%  19.892 MM09+Lip09                                          
    0.000 999%   0.000 MM20+Lip20                                          
   6 lines in following misc. output table
  FWHM = 0.054 ppm    S/N =   4                                            
  Data shift = 0.130 ppm                                                   
  Ph: -35 deg     -55.0 deg/ppm                                            
  alphaB,S = 8.6E-01,   3.5E+01                                            
   14 spline knots.   Ns = 5(1)                                            
  ( 9) 2 infls.   ( 9) 1 extrs.                                            
  498 points on ppm-axis = NY
      4.000000     3.992357     3.984714     3.977070     3.969427     3.961784     3.954141     3.946497     3.938854     3.931211
      3.923568     3.915925     3.908281     3.900638     3.892995     3.885352     3.877708     3.870065     3.862422     3.854779
      3.847136     3.839492     3.831849     3.824206     3.816563     3.808919     3.801276     3.793633     3.785990     3.778347
      3.770703     3.763060     3.755417     3.747774     3.740130     3.732487     3.724844     3.717201     3.709558     3.701914
      3.694271     3.686628     3.678985     3.671341     3.663698     3.656055     3.648412     3.640769     3.633125     3.625482
      3.617839     3.610196     3.602552     3.594909     3.587266     3.579623     3.571980     3.564336     3.556693     3.549050
      3.541407     3.533763     3.526120     3.518477     3.510834     3.503191     3.495547     3.487904     3.480261     3.472618
      3.464974     3.457331     3.449688     3.442045     3.434402     3.426758     3.419115     3.411472     3.403829     3.396185
      3.388542     3.380899     3.373256     3.365613     3.357969     3.350326     3.342683     3.335040     3.327396     3.319753
      3.312110     3.304467     3.296824     3.289180     3.281537     3.273894     3.266251     3.258607     3.250964     3.243321
      3.235678     3.228034     3.220391     3.212748     3.205105     3.197462     3.189818     3.182175     3.174532     3.166889
      3.159245     3.151602     3.143959     3.136316     3.128673     3.121029     3.113386     3.105743     3.098100     3.090456
      3.082813     3.075170     3.067527     3.059884     3.052240     3.044597     3.036954     3.029311     3.021667     3.014024
      3.006381     2.998738     2.991095     2.983451     2.975808     2.968165     2.960522     2.952878     2.945235     2.937592
      2.929949     2.922306     2.914662     2.907019     2.899376     2.891733     2.884089     2.876446     2.868803     2.861160
      2.853517     2.845873     2.838230     2.830587     2.822944     2.815300     2.807657     2.800014     2.792371     2.784728
      2.777084     2.769441     2.761798     2.754155     2.746511     2.738868     2.731225     2.723582     2.715939     2.708295
      2.700652     2.693009     2.685366     2.677722     2.670079     2.662436     2.654793     2.647150     2.639506     2.631863
      2.624220     2.616577     2.608933     2.601290     2.593647     2.586004     2.578361     2.570717     2.563074     2.555431
      2.547788     2.540144     2.532501     2.524858     2.517215     2.509572     2.501928     2.494285     2.486642     2.478999
      2.471355     2.463712     2.456069     2.448426     2.440783     2.433139     2.425496     2.417853     2.410210     2.402566
      2.394923     2.387280     2.379637     2.371994     2.364350     2.356707     2.349064     2.341421     2.333777     2.326134
      2.318491     2.310848     2.303205     2.295561     2.287918     2.280275     2.272632     2.264988     2.257345     2.249702
      2.242059     2.234416     2.226772     2.219129     2.211486     2.203843     2.196199     2.188556     2.180913     2.173270
      2.165627     2.157983     2.150340     2.142697     2.135054     2.127410     2.119767     2.112124     2.104481     2.096838
      2.089194     2.081551     2.073908     2.066265     2.058621     2.050978     2.043335     2.035692     2.028049     2.020405
      2.012762     2.005119     1.997476     1.989833     1.982190     1.974546     1.966903     1.959260     1.951617     1.943974
      1.936331     1.928688     1.921045     1.913402     1.905759     1.898115     1.890472     1.882829     1.875186     1.867543
      1.859900     1.852257     1.844614     1.836971     1.829327     1.821684     1.814041     1.806398     1.798755     1.791112
      1.783469     1.775826     1.768183     1.760540     1.752896     1.745253     1.737610     1.729967     1.722324     1.714681
      1.707038     1.699395     1.691752     1.684108     1.676465     1.668822     1.661179     1.653536     1.645893     1.638250
      1.630607     1.622964     1.615321     1.607677     1.600034     1.592391     1.584748     1.577105     1.569462     1.561819
      1.554176     1.546533     1.538890     1.531246     1.523603     1.515960     1.508317     1.500674     1.493031     1.485388
      1.477745     1.470102     1.462458     1.454815     1.447172     1.439529     1.431886     1.424243     1.416600     1.408957
      1.401314     1.393671     1.386027     1.378384     1.370741     1.363098     1.355455     1.347812     1.340169     1.332526
      1.324883     1.317240     1.309596     1.301953     1.294310     1.286667     1.279024     1.271381     1.263738     1.256095
      1.248452     1.240808     1.233165     1.225522     1.217879     1.210236     1.202593     1.194950     1.187307     1.179664
      1.172021     1.164377     1.156734     1.149091     1.141448     1.133805     1.126162     1.118519     1.110876     1.103233
      1.095590     1.087946     1.080303     1.072660     1.065017     1.057374     1.049731     1.042088     1.034445     1.026802
      1.019158     1.011515     1.003872     0.996229     0.988586     0.980943     0.973300     0.965657     0.958014     0.950371
      0.942727     0.935084     0.927441     0.919798     0.912155     0.904512     0.896869     0.889226     0.881583     0.873940
      0.866296     0.858653     0.851010     0.843367     0.835724     0.828081     0.820438     0.812795     0.805152     0.797508
      0.789865     0.782222     0.774579     0.766936     0.759293     0.751650     0.744007     0.736364     0.728721     0.721077
      0.713434     0.705791     0.698148     0.690505     0.682862     0.675219     0.667576     0.659933     0.652290     0.644646
      0.637003     0.629360     0.621717     0.614074     0.606431     0.598788     0.591145     0.583502     0.575858     0.568215
      0.560572     0.552929     0.545286     0.537643     0.530000     0.522357     0.514714     0.507071     0.499427     0.491784
      0.484141     0.476498     0.468855     0.461212     0.453569     0.445925     0.438282     0.430639     0.422996     0.415353
      0.407710     0.400067     0.392424     0.384780     0.377137     0.369494     0.361851     0.354208     0.346565     0.338922
      0.331278     0.323635     0.315992     0.308349     0.300706     0.293063     0.285420     0.277777     0.270133     0.262490
      0.254847     0.247204     0.239561     0.231918     0.224275     0.216631     0.208988     0.201345
 NY phased data points follow
   2.18235E+00  4.65631E-01  1.78206E+00  1.71997E+00  2.77016E+00  3.02164E+00  3.17070E+00  2.35162E+00  1.69834E+00  1.62326E+00
   1.32275E+00  2.83120E+00  1.67472E+00  3.58121E+00  1.88975E+00  6.38494E-01  2.34249E+00  8.85406E-01  1.95255E+00  2.20387E+00
   2.70089E+00  1.12839E+00  2.02340E+00  1.62774E+00  9.54017E-01  1.67529E+00  2.52771E+00  6.56873E-01  9.14384E-01  1.36151E+00
   3.25582E-01 -1.35370E+00  1.94259E+00  1.75900E+00  2.04783E+00  2.35695E+00  2.28892E+00  2.93839E+00  1.18321E+00  1.14126E+00
   2.25622E+00  1.48863E+00  1.15198E+00  1.26704E+00  6.00242E-01  2.97736E+00  4.47281E-01  8.84312E-01  5.89323E-01  1.49078E+00
   2.55326E+00  1.78748E+00  8.15342E-01  6.37196E-01  1.30135E+00  3.17445E+00  1.08482E+00  7.03030E-01  2.61297E+00  2.54086E+00
   2.21830E+00  1.29628E+00  1.16298E+00  2.69727E+00  1.90554E+00  2.12700E+00  2.02016E+00  9.31668E-01  2.02797E+00 -3.49220E-01
   6.92272E-01  4.51966E-01  1.48446E+00  2.41819E+00  1.70117E+00  2.09451E+00  1.33054E-01  1.24335E+00  2.17554E+00  8.05034E-01
   1.77928E+00  1.28664E+00  1.56865E+00  9.45994E-01  2.03263E+00  3.46408E+00  2.25906E+00  1.82014E+00  7.46662E-01  1.50159E+00
   1.48749E+00  1.49171E+00  4.54371E-01  2.58294E-01  1.60862E+00  1.17317E+00  1.48510E+00  8.75857E-02  1.76359E+00  1.96303E+00
   8.11475E-01  2.69903E+00  1.95332E+00  1.18333E+00  1.38688E+00  1.42488E+00  2.19075E+00  2.30203E+00  1.05984E+00  1.75573E+00
   1.44382E+00  2.01853E+00  8.40096E-01  1.17582E+00  1.71307E+00  2.54422E+00 -4.71041E-01  1.04250E+00  9.70419E-01  9.18488E-01
   4.58766E-01  7.46472E-01  8.73708E-01  1.80445E+00  1.38918E+00  2.29604E+00  1.19393E+00  3.16711E+00  2.57312E+00  1.18878E+00
   5.01927E-01  2.77964E+00 -7.12220E-03  1.48081E+00  2.23692E+00  7.02243E-01  1.96086E+00  9.60402E-01  1.89986E+00  1.09026E+00
   1.49206E+00  1.83881E+00 -7.92586E-01  1.45233E+00  2.58479E+00  9.09681E-01  2.41103E+00  4.39168E-01  9.83675E-01  8.47641E-01
   8.82467E-02  1.45452E+00  1.93044E+00  3.52855E-01  6.59456E-01  2.06150E+00  1.61429E+00  1.84971E+00  1.11284E+00  8.45658E-01
   1.32127E+00  2.05104E+00  1.80156E+00  4.44504E-01 -1.79989E-01  1.20224E+00  7.38091E-01  1.90968E+00  2.08088E+00 -4.30509E-01
   5.67269E-01  1.42894E+00  2.12614E+00 -2.69011E-02  6.47764E-01  1.53834E+00  3.88505E-01  1.13727E+00  8.86359E-01  6.17781E-01
  -8.23232E-02  8.16844E-01  1.84472E+00 -2.23456E-01  8.37502E-01  1.62807E-01  1.37861E+00  1.74357E+00 -9.20313E-01  1.37860E+00
   1.21871E+00  1.81733E+00  1.37689E+00  2.96472E-01  3.10453E-01  8.04426E-01  1.22607E+00 -1.81869E-02  1.77700E+00  4.58237E-01
   1.42429E+00  2.21184E-01  1.36887E+00  1.59052E-01  7.59034E-01  1.55139E+00  1.06011E+00  1.28470E+00  2.54262E-01  1.24266E-01
  -2.51841E-01  1.60826E+00  1.30562E+00  1.07963E+00  2.60489E+00  8.10260E-02  1.99111E+00  1.06044E+00  1.21873E+00  1.11935E+00
  -3.43380E-01  6.37006E-01  4.17873E-02  5.56026E-01  9.51672E-01 -1.69669E-01  3.03097E+00  9.64570E-01 -2.18250E-01  1.29925E+00
   9.98149E-01  2.01179E+00 -2.90077E-01  1.26061E+00  3.02602E-01  2.59259E-01  1.52915E+00  2.83353E+00  2.35934E+00 -5.89342E-01
   1.05815E+00  1.61328E+00  5.31147E-01  1.14083E+00  1.55395E+00  1.82106E+00  1.86356E+00  5.62299E-01  2.23082E+00  3.50418E-01
   1.48385E+00  3.31585E-01 -4.29368E-01 -4.22565E-01  4.32400E-01  9.13744E-01  1.23732E+00  9.23591E-01  1.99421E+00  1.56928E+00
   1.08269E+00  8.75606E-01  5.87638E-01  7.73161E-01  1.51251E+00  1.17141E+00  1.46166E+00  7.04181E-01  2.43102E+00  2.10811E+00
   5.26960E-01  6.39736E-01  6.65670E-01  2.36363E+00  7.38642E-01  9.65739E-01  1.17202E+00  1.91274E+00  1.55965E+00  2.69467E+00
   2.22887E+00  2.93121E+00  2.02197E+00  2.77724E+00  2.70193E+00  4.02301E+00  2.27109E+00  1.91262E+00  1.61990E+00  2.56299E+00
   2.45531E+00  1.46254E+00  1.84551E+00  3.54706E+00  3.14775E+00  3.03428E+00  3.95512E+00  4.77600E+00  4.43421E+00  4.63902E+00
   3.17591E+00  4.65217E+00  3.85539E+00  4.90324E+00  3.95633E+00  4.04266E+00  5.67006E+00  3.75464E+00  5.38791E+00  4.38419E+00
   6.51192E+00  4.29038E+00  6.46479E+00  7.12249E+00  7.68272E+00  5.30420E+00  7.95131E+00  7.65579E+00  8.42127E+00  9.16473E+00
   9.01199E+00  8.17454E+00  8.40427E+00  9.70687E+00  8.35510E+00  8.93539E+00  8.83413E+00  9.20471E+00  8.12400E+00  9.60721E+00
   9.00045E+00  9.97585E+00  9.74919E+00  8.90545E+00  9.55646E+00  8.80900E+00  8.33938E+00  9.91359E+00  8.78413E+00  9.35994E+00
   9.52304E+00  1.00412E+01  9.97757E+00  9.78970E+00  1.00682E+01  1.02897E+01  8.52698E+00  9.61586E+00  1.01514E+01  7.45482E+00
   7.05206E+00  7.78023E+00  8.48316E+00  8.44124E+00  9.20932E+00  8.34372E+00  6.49007E+00  8.36379E+00  7.24250E+00  7.71131E+00
   7.35671E+00  8.42424E+00  7.78318E+00  8.78851E+00  7.65738E+00  7.21997E+00  8.80928E+00  8.11520E+00  8.37608E+00  8.34191E+00
   8.03413E+00  8.92507E+00  9.40688E+00  7.40753E+00  7.82592E+00  5.83101E+00  6.73486E+00  6.16798E+00  8.64211E+00  6.58757E+00
   6.48440E+00  6.96506E+00  5.37271E+00  7.15553E+00  5.86002E+00  6.32180E+00  7.56368E+00  6.62452E+00  6.32221E+00  6.79280E+00
   5.12005E+00  6.61860E+00  6.36328E+00  4.35957E+00  6.82408E+00  5.69311E+00  6.81867E+00  7.48403E+00  6.59341E+00  4.82931E+00
   4.44479E+00  5.83259E+00  6.39447E+00  4.54537E+00  4.24722E+00  5.59809E+00  5.03706E+00  4.77204E+00  4.07805E+00  4.41321E+00
   3.90873E+00  4.33948E+00  4.59371E+00  4.87264E+00  4.22619E+00  5.51322E+00  3.55854E+00  3.73894E+00  4.32073E+00  3.94045E+00
   3.09033E+00  2.56062E+00  4.89873E+00  3.89897E+00  3.36133E+00  3.87742E+00  4.19211E+00  4.40720E+00  4.70639E+00  3.73880E+00
   3.17925E+00  4.31648E+00  3.67353E+00  3.98958E+00  2.42338E+00  4.39034E+00  2.87575E+00  4.59111E+00  2.84724E+00  3.35627E+00
   4.29470E+00  1.85559E+00  3.26108E+00  3.07075E+00  2.77383E+00  4.38727E+00  3.27934E+00  3.47026E+00  2.96901E+00  3.08713E+00
   4.36080E+00  2.27965E+00  3.56618E+00  3.53666E+00  4.18481E+00  2.48297E+00  3.47097E+00  3.12872E+00  1.92524E+00  3.93427E+00
   2.62962E+00  3.39624E+00  2.22216E+00  2.00935E+00  5.40690E-01  2.52325E+00  1.44658E+00  1.32055E+00  3.12573E+00  2.26717E+00
   2.07422E+00  2.24504E+00  1.96256E+00  1.36459E+00  1.26298E+00  2.53318E+00  1.58631E+00  1.86658E+00  3.11695E+00  2.64220E+00
   3.08760E+00  1.32166E+00  3.02746E+00  1.92233E+00  1.83123E+00  5.57253E-01  1.51093E+00  1.96019E+00 -1.58582E-01  1.44234E+00
   3.07487E+00  1.10246E+00  1.57503E+00  1.80910E+00  2.56338E+00  1.76079E+00  1.34598E+00  2.33157E+00
 NY points of the fit to the data follow
   1.70424E+00  1.70865E+00  1.72287E+00  1.75962E+00  1.85186E+00  1.98006E+00  2.10211E+00  2.19256E+00  2.24375E+00  2.25772E+00
   2.23561E+00  2.17682E+00  2.08315E+00  1.95914E+00  1.82311E+00  1.71339E+00  1.66574E+00  1.65736E+00  1.66543E+00  1.68883E+00
   1.73162E+00  1.78410E+00  1.82381E+00  1.82318E+00  1.77605E+00  1.69276E+00  1.59235E+00  1.49708E+00  1.43804E+00  1.44001E+00
   1.49437E+00  1.57639E+00  1.66713E+00  1.74205E+00  1.77951E+00  1.77558E+00  1.73898E+00  1.67860E+00  1.60343E+00  1.53301E+00
   1.49494E+00  1.49849E+00  1.52424E+00  1.55086E+00  1.56722E+00  1.56690E+00  1.55340E+00  1.53939E+00  1.52697E+00  1.51692E+00
   1.50855E+00  1.50114E+00  1.49387E+00  1.48670E+00  1.47979E+00  1.47269E+00  1.46534E+00  1.45810E+00  1.45056E+00  1.44320E+00
   1.43671E+00  1.43113E+00  1.42641E+00  1.42191E+00  1.41736E+00  1.41231E+00  1.40656E+00  1.40043E+00  1.39421E+00  1.38802E+00
   1.38291E+00  1.37983E+00  1.37790E+00  1.37592E+00  1.37298E+00  1.36847E+00  1.36276E+00  1.35624E+00  1.34932E+00  1.34237E+00
   1.33598E+00  1.33257E+00  1.33357E+00  1.33677E+00  1.33905E+00  1.33900E+00  1.33649E+00  1.33170E+00  1.32451E+00  1.31485E+00
   1.30305E+00  1.29014E+00  1.27826E+00  1.27068E+00  1.26806E+00  1.26847E+00  1.27237E+00  1.28823E+00  1.35099E+00  1.47833E+00
   1.62450E+00  1.74579E+00  1.82340E+00  1.85690E+00  1.84970E+00  1.80198E+00  1.71484E+00  1.59414E+00  1.45348E+00  1.32106E+00
   1.23905E+00  1.21072E+00  1.19866E+00  1.19053E+00  1.18410E+00  1.17885E+00  1.17447E+00  1.17124E+00  1.16958E+00  1.17094E+00
   1.18123E+00  1.23361E+00  1.38740E+00  1.60140E+00  1.80172E+00  1.94679E+00  2.02708E+00  2.04691E+00  2.00672E+00  1.90493E+00
   1.74741E+00  1.55014E+00  1.34373E+00  1.18716E+00  1.12402E+00  1.10339E+00  1.09225E+00  1.08448E+00  1.07836E+00  1.07324E+00
   1.06891E+00  1.06530E+00  1.06214E+00  1.05905E+00  1.05567E+00  1.05200E+00  1.04838E+00  1.04489E+00  1.04134E+00  1.03743E+00
   1.03327E+00  1.02923E+00  1.02559E+00  1.02252E+00  1.01962E+00  1.01633E+00  1.01282E+00  1.00942E+00  1.00626E+00  1.00325E+00
   1.00032E+00  9.97622E-01  9.95701E-01  9.94754E-01  9.94566E-01  9.94806E-01  9.95065E-01  9.95038E-01  9.94844E-01  9.94549E-01
   9.94161E-01  9.93458E-01  9.92239E-01  9.90656E-01  9.89125E-01  9.87675E-01  9.86205E-01  9.84762E-01  9.83404E-01  9.82409E-01
   9.82164E-01  9.82578E-01  9.83428E-01  9.84525E-01  9.85767E-01  9.87085E-01  9.88273E-01  9.89020E-01  9.89059E-01  9.88814E-01
   9.88868E-01  9.89728E-01  9.91714E-01  9.94781E-01  9.99056E-01  1.00442E+00  1.01063E+00  1.01763E+00  1.02563E+00  1.03515E+00
   1.04734E+00  1.06350E+00  1.07729E+00  1.08351E+00  1.08196E+00  1.06470E+00  1.03237E+00  9.92163E-01  9.55392E-01  9.39330E-01
   9.61117E-01  1.04852E+00  1.18215E+00  1.31444E+00  1.40928E+00  1.45173E+00  1.42985E+00  1.31512E+00  1.11167E+00  8.73603E-01
   6.66996E-01  5.29073E-01  4.83468E-01  5.44611E-01  6.77859E-01  8.46295E-01  1.02296E+00  1.18133E+00  1.29546E+00  1.34211E+00
   1.33173E+00  1.30384E+00  1.28308E+00  1.26902E+00  1.26430E+00  1.26428E+00  1.26151E+00  1.25387E+00  1.23395E+00  1.21036E+00
   1.19784E+00  1.20111E+00  1.21685E+00  1.24515E+00  1.28379E+00  1.32141E+00  1.34625E+00  1.35240E+00  1.34725E+00  1.33994E+00
   1.33117E+00  1.32953E+00  1.33965E+00  1.35241E+00  1.36426E+00  1.38441E+00  1.41557E+00  1.44848E+00  1.47630E+00  1.50399E+00
   1.53595E+00  1.56848E+00  1.60143E+00  1.63243E+00  1.65628E+00  1.66450E+00  1.65999E+00  1.65080E+00  1.64495E+00  1.64777E+00
   1.66224E+00  1.68870E+00  1.72062E+00  1.75355E+00  1.78938E+00  1.82551E+00  1.85869E+00  1.88776E+00  1.91245E+00  1.93331E+00
   1.95414E+00  1.97884E+00  2.00840E+00  2.04266E+00  2.08167E+00  2.12563E+00  2.17456E+00  2.22796E+00  2.28590E+00  2.34968E+00
   2.42041E+00  2.49901E+00  2.58643E+00  2.68355E+00  2.79095E+00  2.90889E+00  3.03751E+00  3.17684E+00  3.32653E+00  3.48592E+00
   3.65408E+00  3.82979E+00  4.01165E+00  4.19820E+00  4.38797E+00  4.57961E+00  4.77199E+00  4.96433E+00  5.15626E+00  5.34789E+00
   5.53987E+00  5.73323E+00  5.92929E+00  6.12961E+00  6.33582E+00  6.54945E+00  6.77185E+00  7.00402E+00  7.24678E+00  7.50118E+00
   7.76986E+00  8.06209E+00  8.39514E+00  8.72373E+00  8.97297E+00  9.12113E+00  9.18005E+00  9.16740E+00  9.09021E+00  8.95039E+00
   8.80422E+00  8.73563E+00  8.76232E+00  8.87615E+00  9.05760E+00  9.24030E+00  9.37617E+00  9.46279E+00  9.49621E+00  9.47257E+00
   9.39212E+00  9.27910E+00  9.21559E+00  9.21841E+00  9.20155E+00  9.13029E+00  9.01029E+00  8.85665E+00  8.67569E+00  8.47264E+00
   8.30803E+00  8.23709E+00  8.25992E+00  8.36523E+00  8.53986E+00  8.72823E+00  8.87420E+00  8.96712E+00  8.99899E+00  8.96235E+00
   8.85348E+00  8.69138E+00  8.53413E+00  8.40161E+00  8.27654E+00  8.15170E+00  8.02495E+00  7.89591E+00  7.76499E+00  7.63297E+00
   7.50087E+00  7.36974E+00  7.24065E+00  7.11465E+00  6.99272E+00  6.87579E+00  6.76468E+00  6.66010E+00  6.56263E+00  6.47272E+00
   6.39073E+00  6.31687E+00  6.25124E+00  6.19379E+00  6.14433E+00  6.10256E+00  6.06806E+00  6.04026E+00  6.01849E+00  6.00195E+00
   5.98971E+00  5.98078E+00  5.97408E+00  5.96846E+00  5.96272E+00  5.95567E+00  5.94609E+00  5.93286E+00  5.91492E+00  5.89130E+00
   5.86119E+00  5.82394E+00  5.77907E+00  5.72634E+00  5.66568E+00  5.59724E+00  5.52136E+00  5.43855E+00  5.34948E+00  5.25496E+00
   5.15589E+00  5.05319E+00  4.94785E+00  4.84083E+00  4.73308E+00  4.62547E+00  4.51880E+00  4.41378E+00  4.31102E+00  4.21102E+00
   4.11422E+00  4.02091E+00  3.93133E+00  3.84560E+00  3.76381E+00  3.68596E+00  3.61202E+00  3.54190E+00  3.47551E+00  3.41268E+00
   3.35329E+00  3.29716E+00  3.24413E+00  3.19403E+00  3.14668E+00  3.10192E+00  3.05958E+00  3.01952E+00  2.98160E+00  2.94565E+00
   2.91156E+00  2.87919E+00  2.84844E+00  2.81920E+00  2.79136E+00  2.76482E+00  2.73951E+00  2.71533E+00  2.69221E+00  2.67009E+00
   2.64890E+00  2.62857E+00  2.60904E+00  2.59028E+00  2.57223E+00  2.55485E+00  2.53810E+00  2.52193E+00  2.50632E+00  2.49124E+00
   2.47665E+00  2.46253E+00  2.44885E+00  2.43559E+00  2.42272E+00  2.41023E+00  2.39810E+00  2.38630E+00  2.37483E+00  2.36365E+00
   2.35277E+00  2.34217E+00  2.33184E+00  2.32176E+00  2.31192E+00  2.30232E+00  2.29294E+00  2.28377E+00  2.27481E+00  2.26605E+00
   2.25748E+00  2.24909E+00  2.24088E+00  2.23284E+00  2.22497E+00  2.21726E+00  2.20970E+00  2.20230E+00  2.19505E+00  2.18794E+00
   2.18097E+00  2.17414E+00  2.16744E+00  2.16088E+00  2.15444E+00  2.14813E+00  2.14195E+00  2.13588E+00
 NY background values follow
     1.682E+00    1.677E+00    1.671E+00    1.666E+00    1.661E+00    1.656E+00    1.650E+00    1.645E+00    1.640E+00    1.635E+00
     1.629E+00    1.624E+00    1.619E+00    1.614E+00    1.609E+00    1.603E+00    1.598E+00    1.593E+00    1.588E+00    1.582E+00
     1.577E+00    1.572E+00    1.567E+00    1.562E+00    1.556E+00    1.551E+00    1.546E+00    1.541E+00    1.536E+00    1.530E+00
     1.525E+00    1.520E+00    1.515E+00    1.510E+00    1.504E+00    1.499E+00    1.494E+00    1.489E+00    1.484E+00    1.479E+00
     1.473E+00    1.468E+00    1.463E+00    1.458E+00    1.453E+00    1.448E+00    1.442E+00    1.437E+00    1.432E+00    1.427E+00
     1.422E+00    1.417E+00    1.411E+00    1.406E+00    1.401E+00    1.396E+00    1.391E+00    1.386E+00    1.381E+00    1.375E+00
     1.370E+00    1.365E+00    1.360E+00    1.355E+00    1.350E+00    1.345E+00    1.340E+00    1.334E+00    1.329E+00    1.324E+00
     1.319E+00    1.314E+00    1.309E+00    1.304E+00    1.299E+00    1.293E+00    1.288E+00    1.283E+00    1.278E+00    1.273E+00
     1.268E+00    1.263E+00    1.258E+00    1.253E+00    1.248E+00    1.243E+00    1.238E+00    1.233E+00    1.227E+00    1.222E+00
     1.217E+00    1.212E+00    1.207E+00    1.202E+00    1.197E+00    1.192E+00    1.187E+00    1.182E+00    1.177E+00    1.172E+00
     1.167E+00    1.162E+00    1.157E+00    1.152E+00    1.147E+00    1.142E+00    1.138E+00    1.133E+00    1.128E+00    1.123E+00
     1.118E+00    1.113E+00    1.108E+00    1.104E+00    1.099E+00    1.094E+00    1.089E+00    1.085E+00    1.080E+00    1.075E+00
     1.070E+00    1.066E+00    1.061E+00    1.057E+00    1.052E+00    1.047E+00    1.043E+00    1.038E+00    1.034E+00    1.029E+00
     1.025E+00    1.021E+00    1.016E+00    1.012E+00    1.008E+00    1.003E+00    9.990E-01    9.948E-01    9.906E-01    9.864E-01
     9.823E-01    9.782E-01    9.742E-01    9.702E-01    9.662E-01    9.623E-01    9.584E-01    9.545E-01    9.507E-01    9.470E-01
     9.432E-01    9.396E-01    9.360E-01    9.324E-01    9.289E-01    9.254E-01    9.220E-01    9.187E-01    9.154E-01    9.121E-01
     9.090E-01    9.058E-01    9.028E-01    8.998E-01    8.968E-01    8.940E-01    8.912E-01    8.884E-01    8.857E-01    8.831E-01
     8.806E-01    8.781E-01    8.757E-01    8.734E-01    8.712E-01    8.690E-01    8.669E-01    8.649E-01    8.630E-01    8.611E-01
     8.593E-01    8.576E-01    8.560E-01    8.545E-01    8.531E-01    8.517E-01    8.505E-01    8.493E-01    8.482E-01    8.472E-01
     8.463E-01    8.455E-01    8.447E-01    8.441E-01    8.436E-01    8.431E-01    8.428E-01    8.425E-01    8.423E-01    8.423E-01
     8.423E-01    8.425E-01    8.427E-01    8.430E-01    8.435E-01    8.440E-01    8.447E-01    8.454E-01    8.463E-01    8.472E-01
     8.483E-01    8.495E-01    8.508E-01    8.521E-01    8.536E-01    8.553E-01    8.570E-01    8.588E-01    8.608E-01    8.628E-01
     8.650E-01    8.673E-01    8.697E-01    8.722E-01    8.749E-01    8.777E-01    8.805E-01    8.835E-01    8.867E-01    8.899E-01
     8.933E-01    8.968E-01    9.003E-01    9.040E-01    9.079E-01    9.118E-01    9.158E-01    9.200E-01    9.242E-01    9.286E-01
     9.330E-01    9.376E-01    9.422E-01    9.470E-01    9.519E-01    9.568E-01    9.619E-01    9.671E-01    9.723E-01    9.776E-01
     9.831E-01    9.886E-01    9.942E-01    9.999E-01    1.006E+00    1.012E+00    1.018E+00    1.024E+00    1.030E+00    1.036E+00
     1.042E+00    1.049E+00    1.055E+00    1.062E+00    1.068E+00    1.075E+00    1.082E+00    1.088E+00    1.095E+00    1.102E+00
     1.109E+00    1.116E+00    1.123E+00    1.131E+00    1.138E+00    1.145E+00    1.153E+00    1.160E+00    1.168E+00    1.175E+00
     1.183E+00    1.190E+00    1.198E+00    1.206E+00    1.213E+00    1.221E+00    1.229E+00    1.237E+00    1.245E+00    1.252E+00
     1.260E+00    1.268E+00    1.276E+00    1.284E+00    1.292E+00    1.300E+00    1.308E+00    1.316E+00    1.324E+00    1.332E+00
     1.340E+00    1.348E+00    1.355E+00    1.363E+00    1.371E+00    1.379E+00    1.387E+00    1.395E+00    1.403E+00    1.410E+00
     1.418E+00    1.426E+00    1.433E+00    1.441E+00    1.449E+00    1.456E+00    1.464E+00    1.471E+00    1.478E+00    1.486E+00
     1.493E+00    1.500E+00    1.507E+00    1.515E+00    1.522E+00    1.529E+00    1.536E+00    1.543E+00    1.549E+00    1.556E+00
     1.563E+00    1.570E+00    1.576E+00    1.583E+00    1.589E+00    1.596E+00    1.602E+00    1.609E+00    1.615E+00    1.621E+00
     1.627E+00    1.634E+00    1.640E+00    1.646E+00    1.652E+00    1.658E+00    1.664E+00    1.669E+00    1.675E+00    1.681E+00
     1.686E+00    1.692E+00    1.698E+00    1.703E+00    1.708E+00    1.714E+00    1.719E+00    1.724E+00    1.730E+00    1.735E+00
     1.740E+00    1.745E+00    1.750E+00    1.754E+00    1.759E+00    1.764E+00    1.769E+00    1.773E+00    1.778E+00    1.782E+00
     1.787E+00    1.791E+00    1.796E+00    1.800E+00    1.804E+00    1.808E+00    1.812E+00    1.816E+00    1.820E+00    1.824E+00
     1.828E+00    1.832E+00    1.836E+00    1.839E+00    1.843E+00    1.846E+00    1.850E+00    1.853E+00    1.857E+00    1.860E+00
     1.863E+00    1.866E+00    1.870E+00    1.873E+00    1.876E+00    1.879E+00    1.881E+00    1.884E+00    1.887E+00    1.890E+00
     1.892E+00    1.895E+00    1.897E+00    1.900E+00    1.902E+00    1.905E+00    1.907E+00    1.909E+00    1.911E+00    1.913E+00
     1.915E+00    1.917E+00    1.919E+00    1.921E+00    1.923E+00    1.925E+00    1.926E+00    1.928E+00    1.930E+00    1.931E+00
     1.932E+00    1.934E+00    1.935E+00    1.936E+00    1.938E+00    1.939E+00    1.940E+00    1.941E+00    1.942E+00    1.942E+00
     1.943E+00    1.944E+00    1.945E+00    1.945E+00    1.946E+00    1.946E+00    1.947E+00    1.947E+00    1.947E+00    1.948E+00
     1.948E+00    1.948E+00    1.948E+00    1.948E+00    1.948E+00    1.948E+00    1.947E+00    1.947E+00    1.947E+00    1.946E+00
     1.946E+00    1.945E+00    1.944E+00    1.944E+00    1.943E+00    1.942E+00    1.941E+00    1.940E+00    1.939E+00    1.938E+00
     1.937E+00    1.936E+00    1.935E+00    1.933E+00    1.932E+00    1.931E+00    1.929E+00    1.928E+00    1.926E+00    1.925E+00
     1.923E+00    1.922E+00    1.920E+00    1.919E+00    1.917E+00    1.915E+00    1.913E+00    1.912E+00    1.910E+00    1.908E+00
     1.906E+00    1.904E+00    1.903E+00    1.901E+00    1.899E+00    1.897E+00    1.895E+00    1.893E+00    1.891E+00    1.889E+00
     1.887E+00    1.886E+00    1.884E+00    1.882E+00    1.880E+00    1.878E+00    1.876E+00    1.874E+00
 Ala      Conc. = 4.70E+01
