 LCModel (Version 6.3-1L) Copyright: S.W. Provencher.          Ref.: Magn. Reson. Med. 30:672-679 (1993).                
 Slice#3 Row#1 Col#12  PD_05_press_1_raw_act
 36 lines in following concentration table = NCONC+1
    Conc.  %SD /Cr+PCr  Metabolite                                         
 1.46E+03  52%   0.000 Ala                                                 
    1.891 284%   0.000 Asp                                                 
    0.000 999%   0.000 Cr                                                  
    0.000 999%   0.000 PCr                                                 
    0.899 359%   0.000 GABA                                                
    1.044 310%   0.000 Glc                                                 
    0.000 999%   0.000 Gln                                                 
    0.000 999%   0.000 Glu                                                 
    0.000 999%   0.000 GPC                                                 
   11.236 118%   0.000 PCh                                                 
    0.000 999%   0.000 GSH                                                 
    0.000 999%   0.000 Ins                                                 
  205.739 235%   0.000 Lac                                                 
    0.000 999%   0.000 NAA                                                 
    0.000 999%   0.000 NAAG                                                
    0.441 243%   0.000 Scyllo                                              
    1.979 269%   0.000 Tau                                                 
    1.824 875%   0.000 -CrCH2                                              
   11.236 118%   0.000 GPC+PCh                                             
    0.000 999%   0.000 NAA+NAAG                                            
    0.000 999%   0.000 Cr+PCr                                              
    0.000 999%   0.000 Glu+Gln                                             
   13.784 999%   0.000 Lip13a                                              
 2.48E+04   6%   0.000 Lip13b                                              
 6.62E+03   4%   0.000 Lip09                                               
    0.000 999%   0.000 MM09                                                
 3.72E+03   4%   0.000 Lip20                                               
    0.000 999%   0.000 MM20                                                
   19.682 499%   0.000 MM12                                                
 2.61E+03  10%   0.000+MM14                                                
    0.000 999%   0.000 MM17                                                
 2.48E+04   4%   0.000 Lip13a+Lip13b                                       
 2.74E+04   3%   0.000 MM14+Lip13a+Lip13b+MM12                             
 6.62E+03   4%   0.000 MM09+Lip09                                          
 3.72E+03   4%   0.000 MM20+Lip20                                          
   6 lines in following misc. output table
  FWHM = 0.168 ppm    S/N =  32                                            
  Data shift = 0.206 ppm                                                   
  Ph: -61 deg     -43.7 deg/ppm                                            
  alphaB,S = 8.5E+01,   8.2E+02                                            
    6 spline knots.   Ns = 9(2)                                            
  ( 8) 2 infls.   ( 1) 1 extrs.                                            
  498 points on ppm-axis = NY
      4.000000     3.992357     3.984714     3.977070     3.969427     3.961784     3.954141     3.946497     3.938854     3.931211
      3.923568     3.915925     3.908281     3.900638     3.892995     3.885352     3.877708     3.870065     3.862422     3.854779
      3.847136     3.839492     3.831849     3.824206     3.816563     3.808919     3.801276     3.793633     3.785990     3.778347
      3.770703     3.763060     3.755417     3.747774     3.740130     3.732487     3.724844     3.717201     3.709558     3.701914
      3.694271     3.686628     3.678985     3.671341     3.663698     3.656055     3.648412     3.640769     3.633125     3.625482
      3.617839     3.610196     3.602552     3.594909     3.587266     3.579623     3.571980     3.564336     3.556693     3.549050
      3.541407     3.533763     3.526120     3.518477     3.510834     3.503191     3.495547     3.487904     3.480261     3.472618
      3.464974     3.457331     3.449688     3.442045     3.434402     3.426758     3.419115     3.411472     3.403829     3.396185
      3.388542     3.380899     3.373256     3.365613     3.357969     3.350326     3.342683     3.335040     3.327396     3.319753
      3.312110     3.304467     3.296824     3.289180     3.281537     3.273894     3.266251     3.258607     3.250964     3.243321
      3.235678     3.228034     3.220391     3.212748     3.205105     3.197462     3.189818     3.182175     3.174532     3.166889
      3.159245     3.151602     3.143959     3.136316     3.128673     3.121029     3.113386     3.105743     3.098100     3.090456
      3.082813     3.075170     3.067527     3.059884     3.052240     3.044597     3.036954     3.029311     3.021667     3.014024
      3.006381     2.998738     2.991095     2.983451     2.975808     2.968165     2.960522     2.952878     2.945235     2.937592
      2.929949     2.922306     2.914662     2.907019     2.899376     2.891733     2.884089     2.876446     2.868803     2.861160
      2.853517     2.845873     2.838230     2.830587     2.822944     2.815300     2.807657     2.800014     2.792371     2.784728
      2.777084     2.769441     2.761798     2.754155     2.746511     2.738868     2.731225     2.723582     2.715939     2.708295
      2.700652     2.693009     2.685366     2.677722     2.670079     2.662436     2.654793     2.647150     2.639506     2.631863
      2.624220     2.616577     2.608933     2.601290     2.593647     2.586004     2.578361     2.570717     2.563074     2.555431
      2.547788     2.540144     2.532501     2.524858     2.517215     2.509572     2.501928     2.494285     2.486642     2.478999
      2.471355     2.463712     2.456069     2.448426     2.440783     2.433139     2.425496     2.417853     2.410210     2.402566
      2.394923     2.387280     2.379637     2.371994     2.364350     2.356707     2.349064     2.341421     2.333777     2.326134
      2.318491     2.310848     2.303205     2.295561     2.287918     2.280275     2.272632     2.264988     2.257345     2.249702
      2.242059     2.234416     2.226772     2.219129     2.211486     2.203843     2.196199     2.188556     2.180913     2.173270
      2.165627     2.157983     2.150340     2.142697     2.135054     2.127410     2.119767     2.112124     2.104481     2.096838
      2.089194     2.081551     2.073908     2.066265     2.058621     2.050978     2.043335     2.035692     2.028049     2.020405
      2.012762     2.005119     1.997476     1.989833     1.982190     1.974546     1.966903     1.959260     1.951617     1.943974
      1.936331     1.928688     1.921045     1.913402     1.905759     1.898115     1.890472     1.882829     1.875186     1.867543
      1.859900     1.852257     1.844614     1.836971     1.829327     1.821684     1.814041     1.806398     1.798755     1.791112
      1.783469     1.775826     1.768183     1.760540     1.752896     1.745253     1.737610     1.729967     1.722324     1.714681
      1.707038     1.699395     1.691752     1.684108     1.676465     1.668822     1.661179     1.653536     1.645893     1.638250
      1.630607     1.622964     1.615321     1.607677     1.600034     1.592391     1.584748     1.577105     1.569462     1.561819
      1.554176     1.546533     1.538890     1.531246     1.523603     1.515960     1.508317     1.500674     1.493031     1.485388
      1.477745     1.470102     1.462458     1.454815     1.447172     1.439529     1.431886     1.424243     1.416600     1.408957
      1.401314     1.393671     1.386027     1.378384     1.370741     1.363098     1.355455     1.347812     1.340169     1.332526
      1.324883     1.317240     1.309596     1.301953     1.294310     1.286667     1.279024     1.271381     1.263738     1.256095
      1.248452     1.240808     1.233165     1.225522     1.217879     1.210236     1.202593     1.194950     1.187307     1.179664
      1.172021     1.164377     1.156734     1.149091     1.141448     1.133805     1.126162     1.118519     1.110876     1.103233
      1.095590     1.087946     1.080303     1.072660     1.065017     1.057374     1.049731     1.042088     1.034445     1.026802
      1.019158     1.011515     1.003872     0.996229     0.988586     0.980943     0.973300     0.965657     0.958014     0.950371
      0.942727     0.935084     0.927441     0.919798     0.912155     0.904512     0.896869     0.889226     0.881583     0.873940
      0.866296     0.858653     0.851010     0.843367     0.835724     0.828081     0.820438     0.812795     0.805152     0.797508
      0.789865     0.782222     0.774579     0.766936     0.759293     0.751650     0.744007     0.736364     0.728721     0.721077
      0.713434     0.705791     0.698148     0.690505     0.682862     0.675219     0.667576     0.659933     0.652290     0.644646
      0.637003     0.629360     0.621717     0.614074     0.606431     0.598788     0.591145     0.583502     0.575858     0.568215
      0.560572     0.552929     0.545286     0.537643     0.530000     0.522357     0.514714     0.507071     0.499427     0.491784
      0.484141     0.476498     0.468855     0.461212     0.453569     0.445925     0.438282     0.430639     0.422996     0.415353
      0.407710     0.400067     0.392424     0.384780     0.377137     0.369494     0.361851     0.354208     0.346565     0.338922
      0.331278     0.323635     0.315992     0.308349     0.300706     0.293063     0.285420     0.277777     0.270133     0.262490
      0.254847     0.247204     0.239561     0.231918     0.224275     0.216631     0.208988     0.201345
 NY phased data points follow
   2.01111E+00 -1.25417E-01  1.65394E+00  2.06186E+00  3.28204E+00  1.34869E+00  3.06857E+00  1.09017E+00  2.25563E+00  9.92048E-01
   1.16464E+00  2.08924E+00  9.42464E-01  2.28573E-01  1.21662E+00  2.53592E+00  3.52654E+00  2.77946E-01  7.81584E-01  1.41687E+00
   1.31317E+00  2.28675E+00  3.23875E+00  2.36798E+00  2.43714E-01  1.01666E+00  2.73485E+00  2.70183E+00  2.61439E+00  2.89425E+00
   1.02080E+00  2.49732E+00  5.56044E-01  2.92889E+00  3.00658E+00  2.78807E+00  2.54259E+00  3.36491E+00  5.61337E+00  1.56752E+00
   1.31347E+00  3.43880E+00  1.82943E+00  2.53265E+00  2.55968E+00  3.19109E+00  2.74129E+00  2.39545E+00  1.08122E+00  3.34491E+00
   2.20340E+00  5.44347E+00  5.24154E+00  3.07078E+00  4.36890E+00  4.66231E+00  3.08391E+00  2.79005E+00  4.13281E+00  3.10985E+00
   4.39997E+00  2.79240E+00  4.95324E+00  3.31251E+00  4.40588E+00  5.46052E+00  4.19087E+00  3.50976E+00  4.79246E+00  2.29296E+00
   6.19257E+00  3.36154E+00  4.25448E+00  6.72501E+00  6.43483E+00  6.30324E+00  3.50759E+00  4.24158E+00  3.48983E+00  4.47104E+00
   5.60025E+00  5.65407E+00  3.24641E+00  5.56957E+00  3.17088E+00  4.63499E+00  3.87072E+00  4.64044E+00  4.42176E+00  5.60592E+00
   5.52944E+00  7.89933E+00  5.94860E+00  4.99337E+00  4.82318E+00  5.54232E+00  5.84645E+00  5.53327E+00  6.62144E+00  5.92248E+00
   5.03225E+00  3.10595E+00  4.19712E+00  4.81864E+00  5.82246E+00  3.88851E+00  2.82558E+00  3.62683E+00  4.57509E+00  6.54074E+00
   7.48577E+00  5.18561E+00  6.05166E+00  5.29518E+00  5.37577E+00  5.88085E+00  5.39746E+00  6.41873E+00  7.10389E+00  6.88480E+00
   1.00107E+01  4.44510E+00  7.78952E+00  6.81568E+00  5.84832E+00  6.83686E+00  7.25046E+00  8.94101E+00  7.08860E+00  7.37472E+00
   7.40298E+00  7.70944E+00  7.91165E+00  7.07984E+00  7.10846E+00  9.90622E+00  6.56771E+00  5.62940E+00  7.32714E+00  8.68150E+00
   6.19178E+00  8.05497E+00  9.17991E+00  7.85538E+00  9.48517E+00  8.50369E+00  8.15220E+00  7.37213E+00  9.15114E+00  9.26070E+00
   8.35589E+00  8.00109E+00  8.34186E+00  8.83090E+00  7.71214E+00  8.79809E+00  9.32317E+00  1.04980E+01  9.00469E+00  8.17710E+00
   8.59115E+00  9.33824E+00  8.68369E+00  1.17117E+01  9.43279E+00  8.55723E+00  1.08365E+01  9.33008E+00  8.82143E+00  1.02409E+01
   9.40392E+00  9.84540E+00  1.05288E+01  1.03228E+01  8.71097E+00  1.05303E+01  9.83384E+00  1.09273E+01  9.90798E+00  1.19159E+01
   9.02897E+00  9.55670E+00  1.25462E+01  1.11312E+01  9.21034E+00  1.14934E+01  1.09443E+01  1.06738E+01  9.72959E+00  1.20215E+01
   9.94081E+00  1.03670E+01  1.36940E+01  1.24506E+01  1.18901E+01  1.31795E+01  1.26079E+01  1.06112E+01  1.33285E+01  1.26445E+01
   1.45801E+01  1.17653E+01  1.23343E+01  1.22113E+01  1.43471E+01  1.44737E+01  1.33580E+01  1.38546E+01  1.35181E+01  1.36716E+01
   1.56161E+01  1.33664E+01  1.49669E+01  1.40285E+01  1.22744E+01  1.22697E+01  1.49506E+01  1.51984E+01  1.50706E+01  1.73452E+01
   1.35864E+01  1.42881E+01  1.45676E+01  1.74315E+01  1.64255E+01  1.73989E+01  1.39487E+01  1.61125E+01  1.57468E+01  1.72125E+01
   1.48534E+01  1.77538E+01  1.58606E+01  1.81467E+01  1.96984E+01  1.63067E+01  1.61103E+01  1.60110E+01  1.67078E+01  1.58502E+01
   1.71663E+01  1.55218E+01  1.71978E+01  1.60742E+01  1.59343E+01  1.86629E+01  1.66552E+01  1.60885E+01  1.83605E+01  1.71585E+01
   1.78301E+01  1.76154E+01  1.77904E+01  1.81512E+01  1.86755E+01  1.97160E+01  1.56003E+01  1.98451E+01  1.86921E+01  1.80760E+01
   2.05193E+01  1.82858E+01  2.13106E+01  1.95584E+01  1.95930E+01  1.79055E+01  1.90285E+01  2.09383E+01  2.18563E+01  2.29034E+01
   2.11880E+01  2.22384E+01  2.18596E+01  2.13784E+01  2.13414E+01  2.18124E+01  2.22890E+01  1.98655E+01  2.07215E+01  2.25836E+01
   2.35383E+01  2.17752E+01  2.43133E+01  2.38518E+01  2.54594E+01  2.50271E+01  2.35525E+01  2.51377E+01  2.55193E+01  2.78929E+01
   2.71652E+01  2.87426E+01  2.81527E+01  3.00713E+01  2.87845E+01  2.90576E+01  3.10358E+01  3.27901E+01  3.22599E+01  3.29428E+01
   3.25487E+01  3.45604E+01  3.74934E+01  3.65922E+01  3.86808E+01  4.14010E+01  4.16153E+01  4.31093E+01  4.61521E+01  4.77653E+01
   4.75332E+01  5.30686E+01  5.36224E+01  5.52070E+01  5.77538E+01  5.98265E+01  6.34195E+01  6.45742E+01  6.67767E+01  7.10296E+01
   7.53986E+01  7.57486E+01  7.90101E+01  8.14951E+01  8.46321E+01  8.89782E+01  9.06216E+01  9.52791E+01  9.52391E+01  9.69283E+01
   9.98099E+01  1.01446E+02  1.02397E+02  1.03930E+02  1.04612E+02  1.05691E+02  1.09455E+02  1.09910E+02  1.08290E+02  1.08370E+02
   1.05497E+02  1.03778E+02  1.02187E+02  9.71478E+01  9.71565E+01  8.94210E+01  8.58474E+01  8.15352E+01  7.53574E+01  6.91435E+01
   6.35299E+01  5.65348E+01  5.14400E+01  4.94337E+01  4.40285E+01  3.95102E+01  3.54986E+01  3.06537E+01  2.82726E+01  2.50342E+01
   2.09958E+01  2.10826E+01  1.85096E+01  1.58369E+01  1.29923E+01  1.43357E+01  1.30807E+01  1.34776E+01  1.15609E+01  1.01071E+01
   9.59768E+00  1.01079E+01  9.85188E+00  8.53485E+00  8.88284E+00  8.42959E+00  1.01954E+01  8.50992E+00  8.68394E+00  9.99541E+00
   9.32483E+00  1.02420E+01  1.03060E+01  9.09740E+00  1.10744E+01  1.21120E+01  1.07819E+01  1.05884E+01  1.13735E+01  1.07576E+01
   1.16799E+01  1.01947E+01  9.92375E+00  9.87861E+00  1.15853E+01  8.86612E+00  1.18997E+01  1.18110E+01  1.25733E+01  1.11719E+01
   1.21058E+01  1.25148E+01  1.13255E+01  1.08843E+01  1.23828E+01  1.25801E+01  1.30091E+01  1.32927E+01  1.35319E+01  1.05111E+01
   1.34782E+01  1.12249E+01  1.20659E+01  1.33198E+01  1.34532E+01  1.11136E+01  1.19767E+01  1.08826E+01  1.28805E+01  1.30033E+01
   9.83150E+00  1.32020E+01  1.17801E+01  1.07238E+01  9.56751E+00  1.16559E+01  9.35848E+00  9.62412E+00  1.24875E+01  9.14133E+00
   1.00485E+01  1.08845E+01  9.44206E+00  1.06764E+01  8.44417E+00  9.02781E+00  1.07682E+01  1.09258E+01  9.63881E+00  1.03434E+01
   1.03594E+01  1.19343E+01  9.52607E+00  9.89400E+00  8.66156E+00  8.12613E+00  1.14571E+01  1.03437E+01  8.92924E+00  1.01485E+01
   9.41927E+00  1.12003E+01  7.76860E+00  1.01385E+01  8.96699E+00  1.05283E+01  1.06108E+01  1.06871E+01  7.59999E+00  8.43130E+00
   8.76321E+00  8.23714E+00  8.69065E+00  8.24215E+00  9.76552E+00  8.89601E+00  9.20614E+00  7.67610E+00  8.32395E+00  8.79126E+00
   9.98398E+00  9.43421E+00  8.16286E+00  8.83661E+00  7.16611E+00  1.00707E+01  7.14789E+00  7.19804E+00  1.10923E+01  1.14406E+01
   8.00870E+00  8.27146E+00  9.55490E+00  9.06119E+00  9.14816E+00  8.59595E+00  8.31879E+00  9.41495E+00  8.39685E+00  8.11848E+00
   1.01982E+01  1.03976E+01  8.31939E+00  8.83955E+00  9.71785E+00  8.91717E+00  9.17045E+00  7.50461E+00
 NY points of the fit to the data follow
   1.89776E+00  1.94764E+00  1.90697E+00  1.97899E+00  1.94846E+00  2.05046E+00  2.02900E+00  2.14970E+00  2.05924E+00  2.19445E+00
   2.02313E+00  2.18442E+00  1.93752E+00  2.13713E+00  1.83458E+00  2.14492E+00  1.80086E+00  2.20914E+00  1.82267E+00  2.30575E+00
   1.87830E+00  2.40677E+00  1.92243E+00  2.47381E+00  1.95620E+00  2.51275E+00  1.98852E+00  2.53483E+00  2.03468E+00  2.55751E+00
   2.10803E+00  2.59282E+00  2.21218E+00  2.64015E+00  2.33580E+00  2.68790E+00  2.46120E+00  2.72877E+00  2.58007E+00  2.76807E+00
   2.69919E+00  2.83633E+00  2.84260E+00  2.92323E+00  2.98081E+00  3.00560E+00  3.08090E+00  3.04922E+00  3.08680E+00  3.02634E+00
   3.07290E+00  3.01986E+00  3.08526E+00  3.06586E+00  3.15565E+00  3.19868E+00  3.29149E+00  3.33388E+00  3.40803E+00  3.44361E+00
   3.49446E+00  3.52187E+00  3.54904E+00  3.57783E+00  3.60957E+00  3.64295E+00  3.67813E+00  3.71509E+00  3.75322E+00  3.79296E+00
   3.83351E+00  3.87554E+00  3.91856E+00  3.96260E+00  4.00826E+00  4.05415E+00  4.10232E+00  4.15016E+00  4.20116E+00  4.25142E+00
   4.30592E+00  4.35940E+00  4.41854E+00  4.47753E+00  4.54632E+00  4.61949E+00  4.68898E+00  4.76957E+00  4.83447E+00  4.91876E+00
   4.97676E+00  5.06276E+00  5.11288E+00  5.19917E+00  5.24148E+00  5.32701E+00  5.36218E+00  5.44631E+00  5.47530E+00  5.55738E+00
   5.58135E+00  5.66074E+00  5.68078E+00  5.75641E+00  5.77406E+00  5.84490E+00  5.86289E+00  5.92926E+00  5.95082E+00  6.01368E+00
   6.04172E+00  6.10300E+00  6.14005E+00  6.20169E+00  6.24943E+00  6.31317E+00  6.37276E+00  6.44064E+00  6.51269E+00  6.58678E+00
   6.67078E+00  6.75265E+00  6.84689E+00  6.93766E+00  7.03888E+00  7.13797E+00  7.23557E+00  7.33097E+00  7.42560E+00  7.51833E+00
   7.61032E+00  7.70027E+00  7.78929E+00  7.87600E+00  7.96148E+00  8.04428E+00  8.12548E+00  8.20364E+00  8.27978E+00  8.35251E+00
   8.42282E+00  8.48940E+00  8.55318E+00  8.61304E+00  8.66978E+00  8.72247E+00  8.77181E+00  8.81711E+00  8.85899E+00  8.89696E+00
   8.93148E+00  8.96241E+00  8.98999E+00  9.01445E+00  9.03580E+00  9.05464E+00  9.07077E+00  9.08515E+00  9.09730E+00  9.10853E+00
   9.11814E+00  9.12771E+00  9.13631E+00  9.14581E+00  9.15500E+00  9.16605E+00  9.17753E+00  9.19165E+00  9.20692E+00  9.22548E+00
   9.24593E+00  9.27023E+00  9.29709E+00  9.32823E+00  9.36252E+00  9.40141E+00  9.44398E+00  9.49134E+00  9.54285E+00  9.59918E+00
   9.66005E+00  9.72568E+00  9.79615E+00  9.87129E+00  9.95144E+00  1.00361E+01  1.01258E+01  1.02199E+01  1.03190E+01  1.04223E+01
   1.05306E+01  1.06427E+01  1.07597E+01  1.08804E+01  1.10057E+01  1.11343E+01  1.12674E+01  1.14036E+01  1.15439E+01  1.16870E+01
   1.18339E+01  1.19833E+01  1.21359E+01  1.22908E+01  1.24486E+01  1.26081E+01  1.27700E+01  1.29333E+01  1.30983E+01  1.32642E+01
   1.34312E+01  1.35986E+01  1.37664E+01  1.39342E+01  1.41018E+01  1.42690E+01  1.44354E+01  1.46010E+01  1.47653E+01  1.49283E+01
   1.50896E+01  1.52494E+01  1.54072E+01  1.55631E+01  1.57169E+01  1.58687E+01  1.60183E+01  1.61659E+01  1.63112E+01  1.64545E+01
   1.65956E+01  1.67348E+01  1.68719E+01  1.70070E+01  1.71400E+01  1.72710E+01  1.73998E+01  1.75265E+01  1.76510E+01  1.77731E+01
   1.78927E+01  1.80098E+01  1.81240E+01  1.82354E+01  1.83437E+01  1.84489E+01  1.85507E+01  1.86492E+01  1.87442E+01  1.88359E+01
   1.89243E+01  1.90096E+01  1.90920E+01  1.91719E+01  1.92496E+01  1.93257E+01  1.94006E+01  1.94752E+01  1.95499E+01  1.96258E+01
   1.97034E+01  1.97838E+01  1.98676E+01  1.99561E+01  2.00499E+01  2.01503E+01  2.02578E+01  2.03737E+01  2.04986E+01  2.06338E+01
   2.07796E+01  2.09373E+01  2.11071E+01  2.12904E+01  2.14874E+01  2.16990E+01  2.19257E+01  2.21683E+01  2.24271E+01  2.27031E+01
   2.29966E+01  2.33084E+01  2.36391E+01  2.39894E+01  2.43600E+01  2.47517E+01  2.51654E+01  2.56022E+01  2.60631E+01  2.65495E+01
   2.70628E+01  2.76046E+01  2.81771E+01  2.87825E+01  2.94234E+01  3.01030E+01  3.08249E+01  3.15934E+01  3.24134E+01  3.32906E+01
   3.42316E+01  3.52438E+01  3.63359E+01  3.75178E+01  3.88006E+01  4.01975E+01  4.17250E+01  4.34053E+01  4.52748E+01  4.73249E+01
   4.92799E+01  5.15500E+01  5.35233E+01  5.59574E+01  5.79274E+01  6.04771E+01  6.24460E+01  6.53386E+01  6.74670E+01  7.06103E+01
   7.28874E+01  7.61379E+01  7.85093E+01  8.17318E+01  8.41336E+01  8.72051E+01  8.95762E+01  9.23950E+01  9.47007E+01  9.71898E+01
   9.93533E+01  1.01427E+02  1.03370E+02  1.04921E+02  1.06506E+02  1.07359E+02  1.08379E+02  1.08343E+02  1.08515E+02  1.07375E+02
   1.06443E+02  1.04070E+02  1.01892E+02  9.83101E+01  9.49037E+01  9.03097E+01  8.58649E+01  8.05954E+01  7.54100E+01  6.98533E+01
   6.41726E+01  5.86286E+01  5.30221E+01  4.79592E+01  4.28200E+01  3.85373E+01  3.41360E+01  3.08372E+01  2.73434E+01  2.47848E+01
   2.20505E+01  2.01106E+01  1.80315E+01  1.65947E+01  1.50599E+01  1.40175E+01  1.29190E+01  1.21767E+01  1.14131E+01  1.08913E+01
   1.03551E+01  9.98573E+00  9.64195E+00  9.40052E+00  9.21343E+00  9.08628E+00  9.02880E+00  9.02056E+00  9.05150E+00  9.11511E+00
   9.20621E+00  9.32043E+00  9.45393E+00  9.60337E+00  9.76568E+00  9.93818E+00  1.01183E+01  1.03039E+01  1.04927E+01  1.06829E+01
   1.08727E+01  1.10604E+01  1.12444E+01  1.14233E+01  1.15958E+01  1.17606E+01  1.19167E+01  1.20631E+01  1.21987E+01  1.23228E+01
   1.24346E+01  1.25337E+01  1.26194E+01  1.26915E+01  1.27496E+01  1.27935E+01  1.28233E+01  1.28390E+01  1.28407E+01  1.28287E+01
   1.28034E+01  1.27652E+01  1.27146E+01  1.26523E+01  1.25790E+01  1.24953E+01  1.24020E+01  1.23001E+01  1.21903E+01  1.20735E+01
   1.19505E+01  1.18224E+01  1.16900E+01  1.15541E+01  1.14156E+01  1.12753E+01  1.11341E+01  1.09925E+01  1.08514E+01  1.07115E+01
   1.05732E+01  1.04372E+01  1.03040E+01  1.01740E+01  1.00477E+01  9.92536E+00  9.80733E+00  9.69390E+00  9.58523E+00  9.48156E+00
   9.38298E+00  9.28964E+00  9.20155E+00  9.11882E+00  9.04139E+00  8.96932E+00  8.90250E+00  8.84096E+00  8.78455E+00  8.73325E+00
   8.68691E+00  8.64547E+00  8.60876E+00  8.57672E+00  8.54915E+00  8.52598E+00  8.50702E+00  8.49218E+00  8.48128E+00  8.47422E+00
   8.47081E+00  8.47097E+00  8.47451E+00  8.48135E+00  8.49131E+00  8.50431E+00  8.52016E+00  8.53882E+00  8.56009E+00  8.58394E+00
   8.61018E+00  8.63877E+00  8.66954E+00  8.70247E+00  8.73739E+00  8.77427E+00  8.81296E+00  8.85345E+00  8.89558E+00  8.93935E+00
   8.98461E+00  9.03136E+00  9.07947E+00  9.12895E+00  9.17965E+00  9.23159E+00  9.28466E+00  9.33886E+00  9.39408E+00  9.45034E+00
   9.50753E+00  9.56567E+00  9.62467E+00  9.68456E+00  9.74524E+00  9.80676E+00  9.86902E+00  9.93209E+00
 NY background values follow
    -7.265E+00   -7.274E+00   -7.282E+00   -7.289E+00   -7.297E+00   -7.304E+00   -7.312E+00   -7.318E+00   -7.325E+00   -7.332E+00
    -7.338E+00   -7.344E+00   -7.350E+00   -7.355E+00   -7.361E+00   -7.366E+00   -7.371E+00   -7.375E+00   -7.380E+00   -7.384E+00
    -7.388E+00   -7.392E+00   -7.396E+00   -7.399E+00   -7.402E+00   -7.405E+00   -7.408E+00   -7.410E+00   -7.413E+00   -7.415E+00
    -7.417E+00   -7.418E+00   -7.420E+00   -7.421E+00   -7.422E+00   -7.423E+00   -7.423E+00   -7.424E+00   -7.424E+00   -7.424E+00
    -7.423E+00   -7.423E+00   -7.422E+00   -7.421E+00   -7.420E+00   -7.418E+00   -7.417E+00   -7.415E+00   -7.413E+00   -7.411E+00
    -7.408E+00   -7.406E+00   -7.403E+00   -7.400E+00   -7.396E+00   -7.393E+00   -7.389E+00   -7.385E+00   -7.381E+00   -7.377E+00
    -7.372E+00   -7.367E+00   -7.362E+00   -7.357E+00   -7.352E+00   -7.346E+00   -7.340E+00   -7.334E+00   -7.328E+00   -7.321E+00
    -7.315E+00   -7.308E+00   -7.301E+00   -7.293E+00   -7.286E+00   -7.278E+00   -7.270E+00   -7.262E+00   -7.254E+00   -7.245E+00
    -7.236E+00   -7.227E+00   -7.218E+00   -7.209E+00   -7.199E+00   -7.189E+00   -7.179E+00   -7.169E+00   -7.159E+00   -7.148E+00
    -7.137E+00   -7.126E+00   -7.115E+00   -7.104E+00   -7.092E+00   -7.080E+00   -7.068E+00   -7.056E+00   -7.043E+00   -7.031E+00
    -7.018E+00   -7.005E+00   -6.992E+00   -6.978E+00   -6.964E+00   -6.951E+00   -6.937E+00   -6.922E+00   -6.908E+00   -6.893E+00
    -6.878E+00   -6.863E+00   -6.848E+00   -6.833E+00   -6.817E+00   -6.801E+00   -6.785E+00   -6.769E+00   -6.752E+00   -6.736E+00
    -6.719E+00   -6.702E+00   -6.685E+00   -6.667E+00   -6.650E+00   -6.632E+00   -6.614E+00   -6.596E+00   -6.577E+00   -6.559E+00
    -6.540E+00   -6.521E+00   -6.502E+00   -6.483E+00   -6.463E+00   -6.443E+00   -6.423E+00   -6.403E+00   -6.383E+00   -6.363E+00
    -6.342E+00   -6.321E+00   -6.300E+00   -6.279E+00   -6.257E+00   -6.236E+00   -6.214E+00   -6.192E+00   -6.170E+00   -6.147E+00
    -6.125E+00   -6.102E+00   -6.079E+00   -6.056E+00   -6.033E+00   -6.009E+00   -5.986E+00   -5.962E+00   -5.938E+00   -5.914E+00
    -5.889E+00   -5.865E+00   -5.840E+00   -5.815E+00   -5.790E+00   -5.765E+00   -5.739E+00   -5.714E+00   -5.688E+00   -5.662E+00
    -5.635E+00   -5.609E+00   -5.583E+00   -5.556E+00   -5.529E+00   -5.502E+00   -5.475E+00   -5.447E+00   -5.420E+00   -5.392E+00
    -5.364E+00   -5.336E+00   -5.307E+00   -5.279E+00   -5.250E+00   -5.221E+00   -5.192E+00   -5.163E+00   -5.134E+00   -5.104E+00
    -5.075E+00   -5.045E+00   -5.015E+00   -4.984E+00   -4.954E+00   -4.924E+00   -4.893E+00   -4.862E+00   -4.831E+00   -4.800E+00
    -4.768E+00   -4.737E+00   -4.705E+00   -4.673E+00   -4.641E+00   -4.609E+00   -4.576E+00   -4.544E+00   -4.511E+00   -4.478E+00
    -4.445E+00   -4.412E+00   -4.378E+00   -4.345E+00   -4.311E+00   -4.277E+00   -4.243E+00   -4.209E+00   -4.174E+00   -4.140E+00
    -4.105E+00   -4.070E+00   -4.035E+00   -4.000E+00   -3.965E+00   -3.929E+00   -3.893E+00   -3.858E+00   -3.822E+00   -3.785E+00
    -3.749E+00   -3.713E+00   -3.676E+00   -3.639E+00   -3.602E+00   -3.565E+00   -3.528E+00   -3.491E+00   -3.453E+00   -3.415E+00
    -3.377E+00   -3.339E+00   -3.301E+00   -3.263E+00   -3.224E+00   -3.186E+00   -3.147E+00   -3.108E+00   -3.069E+00   -3.030E+00
    -2.990E+00   -2.951E+00   -2.911E+00   -2.871E+00   -2.831E+00   -2.791E+00   -2.751E+00   -2.710E+00   -2.670E+00   -2.629E+00
    -2.588E+00   -2.547E+00   -2.506E+00   -2.465E+00   -2.423E+00   -2.381E+00   -2.340E+00   -2.298E+00   -2.256E+00   -2.214E+00
    -2.171E+00   -2.129E+00   -2.086E+00   -2.043E+00   -2.000E+00   -1.957E+00   -1.914E+00   -1.871E+00   -1.827E+00   -1.784E+00
    -1.740E+00   -1.696E+00   -1.652E+00   -1.608E+00   -1.564E+00   -1.519E+00   -1.475E+00   -1.430E+00   -1.385E+00   -1.340E+00
    -1.295E+00   -1.250E+00   -1.204E+00   -1.159E+00   -1.113E+00   -1.067E+00   -1.022E+00   -9.755E-01   -9.293E-01   -8.830E-01
    -8.366E-01   -7.900E-01   -7.433E-01   -6.965E-01   -6.495E-01   -6.024E-01   -5.552E-01   -5.079E-01   -4.604E-01   -4.128E-01
    -3.651E-01   -3.172E-01   -2.692E-01   -2.211E-01   -1.729E-01   -1.246E-01   -7.607E-02   -2.747E-02    2.125E-02    7.010E-02
     1.191E-01    1.682E-01    2.174E-01    2.667E-01    3.162E-01    3.657E-01    4.154E-01    4.653E-01    5.152E-01    5.653E-01
     6.154E-01    6.657E-01    7.161E-01    7.666E-01    8.173E-01    8.680E-01    9.189E-01    9.699E-01    1.021E+00    1.072E+00
     1.124E+00    1.175E+00    1.227E+00    1.278E+00    1.330E+00    1.382E+00    1.434E+00    1.486E+00    1.538E+00    1.590E+00
     1.643E+00    1.695E+00    1.748E+00    1.801E+00    1.854E+00    1.907E+00    1.960E+00    2.013E+00    2.066E+00    2.119E+00
     2.173E+00    2.226E+00    2.280E+00    2.334E+00    2.388E+00    2.442E+00    2.496E+00    2.550E+00    2.604E+00    2.659E+00
     2.713E+00    2.768E+00    2.822E+00    2.877E+00    2.932E+00    2.987E+00    3.042E+00    3.097E+00    3.152E+00    3.207E+00
     3.263E+00    3.318E+00    3.374E+00    3.429E+00    3.485E+00    3.541E+00    3.597E+00    3.653E+00    3.709E+00    3.765E+00
     3.821E+00    3.878E+00    3.934E+00    3.991E+00    4.047E+00    4.104E+00    4.161E+00    4.217E+00    4.274E+00    4.331E+00
     4.388E+00    4.445E+00    4.503E+00    4.560E+00    4.617E+00    4.675E+00    4.732E+00    4.790E+00    4.848E+00    4.905E+00
     4.963E+00    5.021E+00    5.079E+00    5.137E+00    5.195E+00    5.253E+00    5.311E+00    5.370E+00    5.428E+00    5.486E+00
     5.545E+00    5.604E+00    5.662E+00    5.721E+00    5.780E+00    5.838E+00    5.897E+00    5.956E+00    6.015E+00    6.074E+00
     6.133E+00    6.193E+00    6.252E+00    6.311E+00    6.370E+00    6.430E+00    6.489E+00    6.549E+00    6.608E+00    6.668E+00
     6.728E+00    6.787E+00    6.847E+00    6.907E+00    6.967E+00    7.027E+00    7.087E+00    7.147E+00    7.207E+00    7.267E+00
     7.327E+00    7.387E+00    7.448E+00    7.508E+00    7.568E+00    7.629E+00    7.689E+00    7.750E+00    7.810E+00    7.871E+00
     7.931E+00    7.992E+00    8.053E+00    8.113E+00    8.174E+00    8.235E+00    8.296E+00    8.357E+00    8.418E+00    8.478E+00
     8.539E+00    8.600E+00    8.662E+00    8.723E+00    8.784E+00    8.845E+00    8.906E+00    8.967E+00    9.028E+00    9.090E+00
     9.151E+00    9.212E+00    9.274E+00    9.335E+00    9.396E+00    9.458E+00    9.519E+00    9.581E+00    9.642E+00    9.704E+00
     9.765E+00    9.827E+00    9.888E+00    9.950E+00    1.001E+01    1.007E+01    1.013E+01    1.020E+01
 Ala      Conc. = 1.46E+03
