 LCModel (Version 6.3-1L) Copyright: S.W. Provencher.          Ref.: Magn. Reson. Med. 30:672-679 (1993).                
 Slice#3 Row#6 Col#3  PD_05_press_1_raw_act
 36 lines in following concentration table = NCONC+1
    Conc.  %SD /Cr+PCr  Metabolite                                         
    0.000 999%   0.000 Ala                                                 
   76.297 102%   0.174 Asp                                                 
  104.079 108%   0.238 Cr                                                  
  333.259  36%   0.762 PCr                                                 
    0.000 999%   0.000 GABA                                                
    0.000 999%   0.000 Glc                                                 
  191.067  60%   0.437 Gln                                                 
  468.758  27%   1.072 Glu                                                 
  103.035   9%   0.236 GPC                                                 
    0.000 999%   0.000 PCh                                                 
  130.541  27%   0.298 GSH                                                 
   93.386 126%   0.214 Ins                                                 
    0.000 999%   0.000 Lac                                                 
  764.555   9%   1.748 NAA                                                 
    9.943 765% 2.3E-02 NAAG                                                
    0.000 999%   0.000 Scyllo                                              
    0.000 999%   0.000 Tau                                                 
   19.713 260% 4.5E-02 -CrCH2                                              
  103.035   9%   0.236 GPC+PCh                                             
  774.498   5%   1.771 NAA+NAAG                                            
  437.339   6%   1.000 Cr+PCr                                              
  659.826  29%   1.509 Glu+Gln                                             
    0.000 999%   0.000 Lip13a                                              
  136.156  34%   0.311 Lip13b                                              
    6.493 999% 1.5E-02 Lip09                                               
  475.414  23%   1.087 MM09                                                
   25.393 207% 5.8E-02 Lip20                                               
  923.246  19%   2.111 MM20                                                
  280.305  29%   0.641 MM12                                                
    0.000 999%   0.000 MM14                                                
    0.000 999%   0.000 MM17                                                
  136.156  34%   0.311 Lip13a+Lip13b                                       
  416.462  20%   0.952 MM14+Lip13a+Lip13b+MM12                             
  481.907  20%   1.102 MM09+Lip09                                          
  948.639  18%   2.169 MM20+Lip20                                          
   6 lines in following misc. output table
  FWHM = 0.061 ppm    S/N =   8                                            
  Data shift = 0.031 ppm                                                   
  Ph:   6 deg      -3.4 deg/ppm                                            
  alphaB,S = 3.4E-01,   8.6E+01                                            
   14 spline knots.   Ns = 8(1)                                            
  (12) 4 infls.   (11) 1 extrs.                                            
  498 points on ppm-axis = NY
      4.000000     3.992357     3.984714     3.977070     3.969427     3.961784     3.954141     3.946497     3.938854     3.931211
      3.923568     3.915925     3.908281     3.900638     3.892995     3.885352     3.877708     3.870065     3.862422     3.854779
      3.847136     3.839492     3.831849     3.824206     3.816563     3.808919     3.801276     3.793633     3.785990     3.778347
      3.770703     3.763060     3.755417     3.747774     3.740130     3.732487     3.724844     3.717201     3.709558     3.701914
      3.694271     3.686628     3.678985     3.671341     3.663698     3.656055     3.648412     3.640769     3.633125     3.625482
      3.617839     3.610196     3.602552     3.594909     3.587266     3.579623     3.571980     3.564336     3.556693     3.549050
      3.541407     3.533763     3.526120     3.518477     3.510834     3.503191     3.495547     3.487904     3.480261     3.472618
      3.464974     3.457331     3.449688     3.442045     3.434402     3.426758     3.419115     3.411472     3.403829     3.396185
      3.388542     3.380899     3.373256     3.365613     3.357969     3.350326     3.342683     3.335040     3.327396     3.319753
      3.312110     3.304467     3.296824     3.289180     3.281537     3.273894     3.266251     3.258607     3.250964     3.243321
      3.235678     3.228034     3.220391     3.212748     3.205105     3.197462     3.189818     3.182175     3.174532     3.166889
      3.159245     3.151602     3.143959     3.136316     3.128673     3.121029     3.113386     3.105743     3.098100     3.090456
      3.082813     3.075170     3.067527     3.059884     3.052240     3.044597     3.036954     3.029311     3.021667     3.014024
      3.006381     2.998738     2.991095     2.983451     2.975808     2.968165     2.960522     2.952878     2.945235     2.937592
      2.929949     2.922306     2.914662     2.907019     2.899376     2.891733     2.884089     2.876446     2.868803     2.861160
      2.853517     2.845873     2.838230     2.830587     2.822944     2.815300     2.807657     2.800014     2.792371     2.784728
      2.777084     2.769441     2.761798     2.754155     2.746511     2.738868     2.731225     2.723582     2.715939     2.708295
      2.700652     2.693009     2.685366     2.677722     2.670079     2.662436     2.654793     2.647150     2.639506     2.631863
      2.624220     2.616577     2.608933     2.601290     2.593647     2.586004     2.578361     2.570717     2.563074     2.555431
      2.547788     2.540144     2.532501     2.524858     2.517215     2.509572     2.501928     2.494285     2.486642     2.478999
      2.471355     2.463712     2.456069     2.448426     2.440783     2.433139     2.425496     2.417853     2.410210     2.402566
      2.394923     2.387280     2.379637     2.371994     2.364350     2.356707     2.349064     2.341421     2.333777     2.326134
      2.318491     2.310848     2.303205     2.295561     2.287918     2.280275     2.272632     2.264988     2.257345     2.249702
      2.242059     2.234416     2.226772     2.219129     2.211486     2.203843     2.196199     2.188556     2.180913     2.173270
      2.165627     2.157983     2.150340     2.142697     2.135054     2.127410     2.119767     2.112124     2.104481     2.096838
      2.089194     2.081551     2.073908     2.066265     2.058621     2.050978     2.043335     2.035692     2.028049     2.020405
      2.012762     2.005119     1.997476     1.989833     1.982190     1.974546     1.966903     1.959260     1.951617     1.943974
      1.936331     1.928688     1.921045     1.913402     1.905759     1.898115     1.890472     1.882829     1.875186     1.867543
      1.859900     1.852257     1.844614     1.836971     1.829327     1.821684     1.814041     1.806398     1.798755     1.791112
      1.783469     1.775826     1.768183     1.760540     1.752896     1.745253     1.737610     1.729967     1.722324     1.714681
      1.707038     1.699395     1.691752     1.684108     1.676465     1.668822     1.661179     1.653536     1.645893     1.638250
      1.630607     1.622964     1.615321     1.607677     1.600034     1.592391     1.584748     1.577105     1.569462     1.561819
      1.554176     1.546533     1.538890     1.531246     1.523603     1.515960     1.508317     1.500674     1.493031     1.485388
      1.477745     1.470102     1.462458     1.454815     1.447172     1.439529     1.431886     1.424243     1.416600     1.408957
      1.401314     1.393671     1.386027     1.378384     1.370741     1.363098     1.355455     1.347812     1.340169     1.332526
      1.324883     1.317240     1.309596     1.301953     1.294310     1.286667     1.279024     1.271381     1.263738     1.256095
      1.248452     1.240808     1.233165     1.225522     1.217879     1.210236     1.202593     1.194950     1.187307     1.179664
      1.172021     1.164377     1.156734     1.149091     1.141448     1.133805     1.126162     1.118519     1.110876     1.103233
      1.095590     1.087946     1.080303     1.072660     1.065017     1.057374     1.049731     1.042088     1.034445     1.026802
      1.019158     1.011515     1.003872     0.996229     0.988586     0.980943     0.973300     0.965657     0.958014     0.950371
      0.942727     0.935084     0.927441     0.919798     0.912155     0.904512     0.896869     0.889226     0.881583     0.873940
      0.866296     0.858653     0.851010     0.843367     0.835724     0.828081     0.820438     0.812795     0.805152     0.797508
      0.789865     0.782222     0.774579     0.766936     0.759293     0.751650     0.744007     0.736364     0.728721     0.721077
      0.713434     0.705791     0.698148     0.690505     0.682862     0.675219     0.667576     0.659933     0.652290     0.644646
      0.637003     0.629360     0.621717     0.614074     0.606431     0.598788     0.591145     0.583502     0.575858     0.568215
      0.560572     0.552929     0.545286     0.537643     0.530000     0.522357     0.514714     0.507071     0.499427     0.491784
      0.484141     0.476498     0.468855     0.461212     0.453569     0.445925     0.438282     0.430639     0.422996     0.415353
      0.407710     0.400067     0.392424     0.384780     0.377137     0.369494     0.361851     0.354208     0.346565     0.338922
      0.331278     0.323635     0.315992     0.308349     0.300706     0.293063     0.285420     0.277777     0.270133     0.262490
      0.254847     0.247204     0.239561     0.231918     0.224275     0.216631     0.208988     0.201345
 NY phased data points follow
  -3.17499E-02  1.98052E+00  6.23864E-01 -8.85791E-01  1.60649E+00  2.05998E+00  3.77280E+00  5.13692E+00  6.09147E+00  8.45660E+00
   9.38191E+00  9.56054E+00  9.02924E+00  8.22447E+00  7.31192E+00  6.71864E+00  3.51911E+00  1.65661E+00  3.34057E+00  1.54280E+00
   3.55275E+00  1.68971E-01  2.99324E+00  1.53291E+00  3.64214E+00  2.39911E+00  3.93668E+00  2.45012E+00  2.38938E+00  3.13050E+00
   5.01753E+00  4.30480E+00  2.74799E+00  3.57579E+00  2.71523E+00  3.67646E+00  4.76605E+00  1.14302E+00  3.15475E+00  1.33025E+00
   4.40962E+00  2.01220E+00  3.09238E+00  3.74472E+00  4.20782E+00  3.22875E+00  3.28741E+00  2.94027E+00  3.36648E+00  4.12641E+00
   4.07030E+00  4.56647E+00  3.61108E+00  2.80734E+00  2.96712E+00  3.42333E+00  3.01513E+00  2.82519E+00  3.61630E+00  2.30259E+00
   2.55335E+00  9.06454E-01 -2.94748E-01 -1.67511E-01  2.26677E+00 -1.46089E+00 -8.18126E-01 -2.29284E+00  6.47684E-01 -2.42631E-01
   1.17038E-01 -9.93681E-03 -1.20022E+00 -7.56820E-01  2.69876E+00 -2.16135E-01  1.41366E+00  1.18814E+00 -1.54839E+00  1.43774E+00
   1.23261E+00  6.73165E-01 -1.53412E-01  3.75190E-01  1.42261E+00 -2.69180E-01  1.59345E+00  1.45105E+00  8.43156E-01  5.31841E-01
   1.36733E+00  2.41673E+00  8.81075E-01  4.48132E+00  2.66615E+00  3.21294E+00  1.28320E+00  2.66067E+00  2.31139E+00  5.41294E+00
   7.13204E+00  9.99628E+00  1.04166E+01  9.88207E+00  1.00204E+01  9.41255E+00  1.08379E+01  1.08378E+01  8.09325E+00  5.76196E+00
   4.38664E+00  6.40367E+00  5.68084E+00  4.32330E+00  3.07255E+00  3.90314E+00  3.41561E+00  2.70793E+00  5.02801E+00  5.11469E+00
   6.24900E+00  4.96852E+00  5.63176E+00  6.52798E+00  1.07003E+01  1.40802E+01  1.65355E+01  1.67271E+01  1.68389E+01  1.61767E+01
   1.75218E+01  1.33100E+01  1.27438E+01  1.17722E+01  8.48558E+00  8.38591E+00  7.51197E+00  6.48317E+00  5.69808E+00  6.96452E+00
   3.62021E+00  4.29199E+00  5.70145E+00  5.16510E+00  4.14770E+00  7.71181E+00  5.78505E+00  4.53775E+00  3.82212E+00  7.41549E+00
   4.31852E+00  2.98524E+00  6.88156E+00  2.64730E+00  5.29785E+00  4.97013E+00  3.27881E+00  5.98439E+00  6.40327E+00  5.29126E+00
   5.27043E+00  5.85600E+00  4.15277E+00  4.36135E+00  5.28150E+00  6.26594E+00  3.14448E+00  5.75837E+00  5.68732E+00  4.32717E+00
   5.65489E+00  2.53242E+00  5.78343E+00  6.65923E-01  2.34133E+00  5.58933E+00  5.41344E+00  2.90023E+00  2.96330E+00  3.25603E+00
   5.52831E+00  2.17606E+00  4.46599E+00  5.26762E+00  3.42878E+00  4.03257E+00  4.66073E+00  6.88821E+00  6.72365E+00  6.51797E+00
   7.04874E+00  7.74801E+00  7.82658E+00  8.87892E+00  5.63220E+00  9.98240E+00  1.01233E+01  7.03516E+00  7.98502E+00  7.96733E+00
   7.39438E+00  7.90790E+00  8.30544E+00  7.20549E+00  9.04558E+00  9.32613E+00  5.05420E+00  6.11129E+00  5.85856E+00  7.86656E+00
   5.92568E+00  6.66457E+00  6.40348E+00  6.34211E+00  7.81503E+00  8.72696E+00  9.81592E+00  1.02516E+01  8.48225E+00  7.89998E+00
   7.15198E+00  5.11129E+00  6.79797E+00  4.04700E+00  3.33528E+00  4.03451E+00  5.26899E+00  5.48001E+00  6.85946E+00  7.57472E+00
   4.78569E+00  3.71396E+00  3.80838E+00  4.05839E+00  4.03420E+00  5.07012E+00  5.73643E+00  3.54568E+00  6.48063E+00  5.24169E+00
   4.47251E+00  5.05443E+00  2.65661E+00  5.04076E+00  4.03705E+00  3.37304E+00  3.77099E+00  4.35422E+00  4.18698E+00  4.38591E+00
   4.70664E+00  5.61488E+00  5.18909E+00  6.31552E+00  7.08664E+00  7.89369E+00  1.02534E+01  1.50499E+01  2.15026E+01  2.38417E+01
   2.37333E+01  2.37893E+01  2.38485E+01  2.20345E+01  1.66270E+01  1.41160E+01  8.51408E+00  5.24622E+00  4.03287E+00  5.39103E+00
   2.85263E+00  1.63173E+00  2.41389E+00  8.97978E-01  7.05427E-01 -1.47643E+00 -1.51992E+00  1.36698E-01 -2.95914E+00 -2.52119E+00
  -3.03417E+00 -1.32568E+00 -2.72810E+00 -1.77053E+00 -4.61543E+00 -2.87340E+00 -4.12548E+00 -2.33073E+00 -3.45008E+00 -3.75374E+00
  -6.42286E+00 -4.33011E+00 -4.91619E+00 -3.61035E+00 -4.14904E+00 -4.84984E+00 -7.16047E+00 -5.64172E+00 -7.00150E+00 -5.85758E+00
  -6.20758E+00 -5.24592E+00 -6.79411E+00 -7.92434E+00 -6.61322E+00 -6.39286E+00 -7.80188E+00 -6.97433E+00 -6.67939E+00 -5.69083E+00
  -6.66114E+00 -5.75773E+00 -7.67223E+00 -6.62736E+00 -6.18851E+00 -7.19379E+00 -7.00120E+00 -5.73327E+00 -6.15606E+00 -8.93619E+00
  -6.44386E+00 -6.69947E+00 -8.62808E+00 -8.27607E+00 -6.69052E+00 -4.94369E+00 -1.09309E+01 -8.54713E+00 -6.66497E+00 -9.00484E+00
  -8.15180E+00 -9.09197E+00 -1.02716E+01 -7.04755E+00 -8.62983E+00 -8.36084E+00 -7.10328E+00 -8.68414E+00 -7.66119E+00 -1.35773E+01
  -9.15609E+00 -9.40355E+00 -1.01837E+01 -9.24284E+00 -1.01638E+01 -8.50801E+00 -7.30087E+00 -5.14386E+00 -5.96554E+00 -6.30038E+00
  -4.33215E+00 -6.96384E+00 -5.19319E+00 -4.27225E+00 -4.12106E+00 -3.08483E+00 -3.92672E+00 -4.08495E+00 -7.51505E+00 -6.09355E+00
  -4.08266E+00 -3.26217E+00 -4.61787E+00 -5.44211E+00 -5.95977E+00 -5.55604E+00 -5.87767E+00 -5.88442E+00 -3.16186E+00 -4.51180E+00
  -3.17236E+00 -1.72810E+00 -3.04713E+00 -4.65689E+00 -4.14929E+00 -7.27950E+00 -5.94958E+00 -4.82780E+00 -3.08408E+00 -3.75139E+00
  -4.42240E+00 -4.72496E+00 -4.66076E+00 -4.00808E+00 -3.86620E+00 -3.40338E+00 -4.34451E+00 -2.69431E+00 -4.58929E+00 -3.90327E+00
  -4.74874E+00 -2.61474E+00 -3.36685E+00 -6.46224E+00 -2.24442E+00 -4.26058E+00 -2.80481E+00 -2.63738E+00 -2.26447E+00 -1.77211E+00
  -2.23365E+00 -3.58385E+00 -2.88387E+00 -3.56137E+00 -4.52217E-01 -1.16981E+00 -4.34671E+00 -1.33785E+00 -2.19442E+00 -2.03233E+00
  -4.16564E+00 -2.49823E+00 -3.71160E+00 -4.65145E+00 -2.11892E+00 -1.26213E+00 -3.66690E+00 -3.65162E+00 -1.97859E+00 -2.88544E+00
  -9.93839E-01 -2.31807E+00 -1.67673E+00 -4.13979E+00 -2.90933E+00 -4.11623E+00 -3.06189E+00 -2.27037E+00 -2.63846E+00 -2.20622E+00
  -2.67204E+00 -1.14541E+00 -2.67293E+00 -2.82959E+00 -1.32443E+00 -8.63466E-01 -3.98346E+00 -3.43065E+00  9.75437E-02 -2.61139E+00
  -4.26703E+00 -1.73992E+00 -2.42723E+00 -1.70222E+00 -2.82202E+00 -1.69987E+00 -1.05292E+00 -1.98433E+00 -4.42645E+00 -1.35439E+00
  -3.15990E+00 -2.78258E-01 -3.43748E+00 -1.72525E+00 -1.59552E+00 -3.89748E+00  3.79591E-01 -4.71164E+00 -3.54454E+00 -1.86602E+00
  -4.11241E+00 -3.49548E+00 -3.55750E-01 -2.67820E+00 -2.25220E+00 -3.87421E+00 -1.42708E+00 -2.35584E+00 -3.98172E+00 -3.03375E+00
  -3.40771E+00 -4.01648E+00 -1.77738E+00 -4.15987E+00 -8.92879E-01 -2.79167E+00 -2.58895E+00 -3.63782E+00 -3.11921E+00 -4.43350E+00
  -1.11981E+00 -2.51888E+00 -2.05394E+00 -6.29387E-01 -1.78039E+00 -2.50381E+00 -2.24471E+00 -1.26433E+00 -1.76125E+00 -1.71711E+00
  -1.99089E+00 -2.61558E+00 -3.02537E+00  1.99439E+00 -2.12451E+00 -4.57590E+00 -2.76036E+00 -4.47366E+00
 NY points of the fit to the data follow
   4.76463E-01  5.52191E-01  7.50330E-01  1.01884E+00  1.47952E+00  2.34723E+00  3.74025E+00  5.45172E+00  7.04760E+00  8.19385E+00
   8.82315E+00  9.00807E+00  8.77862E+00  8.11741E+00  7.08155E+00  5.84434E+00  4.67803E+00  3.77525E+00  3.04772E+00  2.46407E+00
   2.13062E+00  1.91336E+00  1.82969E+00  1.78882E+00  1.74606E+00  1.77695E+00  2.00353E+00  2.46957E+00  3.05653E+00  3.61873E+00
   4.07835E+00  4.40742E+00  4.55913E+00  4.45352E+00  4.06968E+00  3.50645E+00  2.90628E+00  2.42853E+00  2.08641E+00  1.81865E+00
   1.71260E+00  1.75719E+00  1.89262E+00  2.08404E+00  2.28647E+00  2.46822E+00  2.56901E+00  2.59298E+00  2.56976E+00  2.49602E+00
   2.38098E+00  2.24240E+00  2.08576E+00  1.94434E+00  1.84341E+00  1.76469E+00  1.70455E+00  1.68269E+00  1.68942E+00  1.69120E+00
   1.67669E+00  1.64974E+00  1.61404E+00  1.57467E+00  1.53474E+00  1.49931E+00  1.47800E+00  1.47707E+00  1.49440E+00  1.52621E+00
   1.56418E+00  1.59765E+00  1.62450E+00  1.64381E+00  1.65692E+00  1.66405E+00  1.66551E+00  1.66489E+00  1.66556E+00  1.66958E+00
   1.67567E+00  1.67979E+00  1.68147E+00  1.67383E+00  1.65316E+00  1.62484E+00  1.60045E+00  1.58917E+00  1.59546E+00  1.62053E+00
   1.66496E+00  1.73012E+00  1.81383E+00  1.90984E+00  2.03085E+00  2.27144E+00  2.58794E+00  2.94932E+00  3.66786E+00  5.04588E+00
   6.97737E+00  8.91084E+00  1.02941E+01  1.10007E+01  1.12131E+01  1.10301E+01  1.03691E+01  9.21223E+00  7.77207E+00  6.39710E+00
   5.39132E+00  4.72204E+00  4.10245E+00  3.68849E+00  3.60669E+00  3.62251E+00  3.66740E+00  3.73218E+00  3.84380E+00  4.13895E+00
   4.59862E+00  5.12784E+00  6.12186E+00  8.03492E+00  1.07859E+01  1.36341E+01  1.57505E+01  1.68716E+01  1.72537E+01  1.70987E+01
   1.62928E+01  1.47315E+01  1.26392E+01  1.04887E+01  8.77311E+00  7.56415E+00  6.48868E+00  5.68748E+00  5.43732E+00  5.40114E+00
   5.45466E+00  5.56128E+00  5.67524E+00  5.76504E+00  5.82766E+00  5.84244E+00  5.81070E+00  5.75742E+00  5.69145E+00  5.61879E+00
   5.54914E+00  5.48590E+00  5.44501E+00  5.41706E+00  5.40545E+00  5.39746E+00  5.36609E+00  5.29132E+00  5.17268E+00  5.06794E+00
   5.03525E+00  5.07517E+00  5.14245E+00  5.19683E+00  5.23529E+00  5.27137E+00  5.30360E+00  5.30377E+00  5.24171E+00  5.14383E+00
   5.05240E+00  4.93705E+00  4.78849E+00  4.62629E+00  4.50889E+00  4.49385E+00  4.52202E+00  4.51945E+00  4.48671E+00  4.47691E+00
   4.53384E+00  4.62103E+00  4.66209E+00  4.64373E+00  4.64941E+00  4.78073E+00  5.03656E+00  5.35004E+00  5.67554E+00  5.98018E+00
   6.24338E+00  6.43856E+00  6.54436E+00  6.53938E+00  6.41888E+00  6.24215E+00  6.10460E+00  6.04412E+00  6.08710E+00  6.24470E+00
   6.48890E+00  6.78759E+00  7.06430E+00  7.24159E+00  7.23488E+00  6.98332E+00  6.52651E+00  5.98323E+00  5.43435E+00  4.96516E+00
   4.63744E+00  4.58509E+00  4.88997E+00  5.47551E+00  6.12815E+00  6.61206E+00  6.84132E+00  6.80504E+00  6.45660E+00  5.80262E+00
   4.93207E+00  4.13620E+00  3.66000E+00  3.51004E+00  3.61268E+00  3.89238E+00  4.31699E+00  4.83471E+00  5.25816E+00  5.51125E+00
   5.60164E+00  5.59448E+00  5.55806E+00  5.50507E+00  5.47591E+00  5.51447E+00  5.57359E+00  5.58269E+00  5.50048E+00  5.30414E+00
   5.03946E+00  4.77846E+00  4.55906E+00  4.41379E+00  4.36469E+00  4.40094E+00  4.47479E+00  4.57077E+00  4.67237E+00  4.74143E+00
   4.78754E+00  4.90441E+00  5.35910E+00  6.03779E+00  6.76405E+00  8.26594E+00  1.13426E+01  1.57785E+01  2.02096E+01  2.32300E+01
   2.44922E+01  2.44698E+01  2.34592E+01  2.12849E+01  1.78829E+01  1.37605E+01  9.78320E+00  6.72035E+00  4.53899E+00  2.51408E+00
   9.61375E-01  2.98659E-01 -7.52124E-02 -3.72756E-01 -6.33289E-01 -8.58953E-01 -1.07777E+00 -1.29978E+00 -1.52839E+00 -1.76472E+00
  -2.00228E+00 -2.23173E+00 -2.45295E+00 -2.66893E+00 -2.87554E+00 -3.06903E+00 -3.25179E+00 -3.42760E+00 -3.59884E+00 -3.76498E+00
  -3.92461E+00 -4.07986E+00 -4.23114E+00 -4.37762E+00 -4.51932E+00 -4.65672E+00 -4.79018E+00 -4.91979E+00 -5.04556E+00 -5.16784E+00
  -5.28650E+00 -5.40136E+00 -5.51261E+00 -5.62058E+00 -5.72545E+00 -5.82731E+00 -5.92621E+00 -6.02215E+00 -6.11519E+00 -6.20542E+00
  -6.29278E+00 -6.37703E+00 -6.45811E+00 -6.53600E+00 -6.61062E+00 -6.68200E+00 -6.75012E+00 -6.81490E+00 -6.87630E+00 -6.93435E+00
  -6.98916E+00 -7.04079E+00 -7.08924E+00 -7.13446E+00 -7.17643E+00 -7.21519E+00 -7.25082E+00 -7.28331E+00 -7.31261E+00 -7.33863E+00
  -7.36134E+00 -7.38074E+00 -7.39681E+00 -7.40943E+00 -7.41843E+00 -7.42359E+00 -7.42466E+00 -7.42129E+00 -7.41285E+00 -7.39828E+00
  -7.37599E+00 -7.34364E+00 -7.29802E+00 -7.23481E+00 -7.14862E+00 -7.03335E+00 -6.88300E+00 -6.69295E+00 -6.46144E+00 -6.19108E+00
  -5.89007E+00 -5.57257E+00 -5.25784E+00 -4.96814E+00 -4.72539E+00 -4.54749E+00 -4.44512E+00 -4.41984E+00 -4.46401E+00 -4.56243E+00
  -4.69541E+00 -4.84228E+00 -4.98478E+00 -5.10936E+00 -5.20826E+00 -5.27916E+00 -5.32396E+00 -5.34717E+00 -5.35437E+00 -5.35098E+00
  -5.34146E+00 -5.32892E+00 -5.31503E+00 -5.30025E+00 -5.28415E+00 -5.26572E+00 -5.24359E+00 -5.21622E+00 -5.18197E+00 -5.13931E+00
  -5.08687E+00 -5.02352E+00 -4.94835E+00 -4.86066E+00 -4.76002E+00 -4.64627E+00 -4.51960E+00 -4.38054E+00 -4.22996E+00 -4.06901E+00
  -3.89920E+00 -3.72239E+00 -3.54083E+00 -3.35706E+00 -3.17384E+00 -2.99408E+00 -2.82081E+00 -2.65709E+00 -2.50590E+00 -2.36998E+00
  -2.25173E+00 -2.15309E+00 -2.07549E+00 -2.01984E+00 -1.98642E+00 -1.97488E+00 -1.98423E+00 -2.01292E+00 -2.05896E+00 -2.12000E+00
  -2.19343E+00 -2.27643E+00 -2.36616E+00 -2.45987E+00 -2.55499E+00 -2.64923E+00 -2.74058E+00 -2.82731E+00 -2.90805E+00 -2.98180E+00
  -3.04791E+00 -3.10600E+00 -3.15596E+00 -3.19784E+00 -3.23188E+00 -3.25849E+00 -3.27817E+00 -3.29149E+00 -3.29899E+00 -3.30121E+00
  -3.29874E+00 -3.29211E+00 -3.28188E+00 -3.26850E+00 -3.25238E+00 -3.23389E+00 -3.21339E+00 -3.19120E+00 -3.16764E+00 -3.14291E+00
  -3.11722E+00 -3.09074E+00 -3.06366E+00 -3.03615E+00 -3.00835E+00 -2.98035E+00 -2.95223E+00 -2.92410E+00 -2.89606E+00 -2.86819E+00
  -2.84057E+00 -2.81323E+00 -2.78620E+00 -2.75955E+00 -2.73331E+00 -2.70751E+00 -2.68212E+00 -2.65713E+00 -2.63255E+00 -2.60839E+00
  -2.58467E+00 -2.56137E+00 -2.53848E+00 -2.51595E+00 -2.49381E+00 -2.47206E+00 -2.45069E+00 -2.42969E+00 -2.40901E+00 -2.38864E+00
  -2.36859E+00 -2.34885E+00 -2.32941E+00 -2.31023E+00 -2.29127E+00 -2.27254E+00 -2.25403E+00 -2.23573E+00 -2.21763E+00 -2.19966E+00
  -2.18182E+00 -2.16409E+00 -2.14649E+00 -2.12898E+00 -2.11153E+00 -2.09409E+00 -2.07667E+00 -2.05925E+00 -2.04182E+00 -2.02436E+00
  -2.00682E+00 -1.98917E+00 -1.97141E+00 -1.95352E+00 -1.93549E+00 -1.91727E+00 -1.89883E+00 -1.88013E+00
 NY background values follow
     3.547E-01    3.686E-01    3.825E-01    3.963E-01    4.100E-01    4.236E-01    4.371E-01    4.506E-01    4.640E-01    4.774E-01
     4.906E-01    5.039E-01    5.170E-01    5.302E-01    5.433E-01    5.563E-01    5.693E-01    5.823E-01    5.952E-01    6.081E-01
     6.210E-01    6.339E-01    6.467E-01    6.596E-01    6.724E-01    6.852E-01    6.980E-01    7.108E-01    7.236E-01    7.365E-01
     7.493E-01    7.622E-01    7.750E-01    7.879E-01    8.009E-01    8.138E-01    8.268E-01    8.398E-01    8.529E-01    8.660E-01
     8.791E-01    8.923E-01    9.056E-01    9.189E-01    9.322E-01    9.457E-01    9.592E-01    9.728E-01    9.865E-01    1.000E+00
     1.014E+00    1.028E+00    1.043E+00    1.057E+00    1.072E+00    1.087E+00    1.102E+00    1.118E+00    1.133E+00    1.150E+00
     1.166E+00    1.183E+00    1.200E+00    1.218E+00    1.236E+00    1.254E+00    1.273E+00    1.292E+00    1.312E+00    1.332E+00
     1.353E+00    1.375E+00    1.397E+00    1.419E+00    1.443E+00    1.467E+00    1.491E+00    1.516E+00    1.542E+00    1.569E+00
     1.596E+00    1.624E+00    1.653E+00    1.682E+00    1.713E+00    1.744E+00    1.776E+00    1.809E+00    1.843E+00    1.877E+00
     1.913E+00    1.950E+00    1.987E+00    2.025E+00    2.065E+00    2.105E+00    2.146E+00    2.188E+00    2.230E+00    2.274E+00
     2.318E+00    2.362E+00    2.408E+00    2.454E+00    2.501E+00    2.548E+00    2.596E+00    2.645E+00    2.694E+00    2.743E+00
     2.793E+00    2.844E+00    2.895E+00    2.946E+00    2.998E+00    3.050E+00    3.103E+00    3.156E+00    3.209E+00    3.262E+00
     3.316E+00    3.370E+00    3.424E+00    3.478E+00    3.532E+00    3.587E+00    3.641E+00    3.696E+00    3.751E+00    3.805E+00
     3.860E+00    3.915E+00    3.969E+00    4.024E+00    4.078E+00    4.133E+00    4.187E+00    4.241E+00    4.295E+00    4.348E+00
     4.401E+00    4.454E+00    4.507E+00    4.559E+00    4.610E+00    4.661E+00    4.712E+00    4.762E+00    4.811E+00    4.860E+00
     4.908E+00    4.955E+00    5.001E+00    5.047E+00    5.092E+00    5.135E+00    5.178E+00    5.220E+00    5.261E+00    5.301E+00
     5.339E+00    5.377E+00    5.413E+00    5.448E+00    5.482E+00    5.514E+00    5.545E+00    5.575E+00    5.603E+00    5.630E+00
     5.655E+00    5.679E+00    5.701E+00    5.722E+00    5.740E+00    5.758E+00    5.773E+00    5.786E+00    5.798E+00    5.808E+00
     5.816E+00    5.821E+00    5.825E+00    5.827E+00    5.827E+00    5.825E+00    5.821E+00    5.814E+00    5.806E+00    5.796E+00
     5.783E+00    5.768E+00    5.752E+00    5.733E+00    5.712E+00    5.689E+00    5.663E+00    5.636E+00    5.606E+00    5.574E+00
     5.540E+00    5.504E+00    5.465E+00    5.424E+00    5.381E+00    5.336E+00    5.288E+00    5.238E+00    5.186E+00    5.131E+00
     5.074E+00    5.015E+00    4.953E+00    4.889E+00    4.823E+00    4.754E+00    4.683E+00    4.609E+00    4.533E+00    4.454E+00
     4.373E+00    4.290E+00    4.204E+00    4.116E+00    4.025E+00    3.931E+00    3.835E+00    3.737E+00    3.636E+00    3.532E+00
     3.427E+00    3.319E+00    3.209E+00    3.096E+00    2.982E+00    2.866E+00    2.748E+00    2.628E+00    2.506E+00    2.382E+00
     2.257E+00    2.130E+00    2.002E+00    1.873E+00    1.741E+00    1.609E+00    1.476E+00    1.341E+00    1.205E+00    1.068E+00
     9.308E-01    7.922E-01    6.528E-01    5.127E-01    3.719E-01    2.305E-01    8.854E-02   -5.384E-02   -1.966E-01   -3.397E-01
    -4.831E-01   -6.266E-01   -7.703E-01   -9.140E-01   -1.058E+00   -1.201E+00   -1.345E+00   -1.488E+00   -1.631E+00   -1.773E+00
    -1.915E+00   -2.057E+00   -2.198E+00   -2.338E+00   -2.478E+00   -2.617E+00   -2.755E+00   -2.892E+00   -3.029E+00   -3.164E+00
    -3.299E+00   -3.432E+00   -3.565E+00   -3.696E+00   -3.826E+00   -3.955E+00   -4.083E+00   -4.209E+00   -4.334E+00   -4.457E+00
    -4.579E+00   -4.699E+00   -4.818E+00   -4.935E+00   -5.051E+00   -5.164E+00   -5.276E+00   -5.386E+00   -5.495E+00   -5.601E+00
    -5.705E+00   -5.807E+00   -5.907E+00   -6.005E+00   -6.101E+00   -6.194E+00   -6.286E+00   -6.374E+00   -6.461E+00   -6.545E+00
    -6.626E+00   -6.705E+00   -6.781E+00   -6.855E+00   -6.926E+00   -6.994E+00   -7.060E+00   -7.122E+00   -7.182E+00   -7.239E+00
    -7.293E+00   -7.344E+00   -7.393E+00   -7.439E+00   -7.482E+00   -7.523E+00   -7.561E+00   -7.596E+00   -7.629E+00   -7.660E+00
    -7.688E+00   -7.713E+00   -7.736E+00   -7.757E+00   -7.776E+00   -7.792E+00   -7.806E+00   -7.817E+00   -7.827E+00   -7.834E+00
    -7.839E+00   -7.842E+00   -7.843E+00   -7.841E+00   -7.838E+00   -7.833E+00   -7.826E+00   -7.817E+00   -7.806E+00   -7.793E+00
    -7.778E+00   -7.762E+00   -7.743E+00   -7.723E+00   -7.702E+00   -7.678E+00   -7.653E+00   -7.626E+00   -7.598E+00   -7.568E+00
    -7.537E+00   -7.504E+00   -7.470E+00   -7.435E+00   -7.397E+00   -7.359E+00   -7.319E+00   -7.279E+00   -7.236E+00   -7.193E+00
    -7.149E+00   -7.103E+00   -7.056E+00   -7.009E+00   -6.960E+00   -6.910E+00   -6.860E+00   -6.808E+00   -6.756E+00   -6.703E+00
    -6.649E+00   -6.595E+00   -6.540E+00   -6.484E+00   -6.427E+00   -6.370E+00   -6.313E+00   -6.255E+00   -6.196E+00   -6.138E+00
    -6.078E+00   -6.019E+00   -5.959E+00   -5.899E+00   -5.839E+00   -5.778E+00   -5.718E+00   -5.657E+00   -5.596E+00   -5.536E+00
    -5.475E+00   -5.414E+00   -5.354E+00   -5.293E+00   -5.233E+00   -5.173E+00   -5.113E+00   -5.054E+00   -4.995E+00   -4.936E+00
    -4.878E+00   -4.819E+00   -4.762E+00   -4.704E+00   -4.647E+00   -4.591E+00   -4.535E+00   -4.479E+00   -4.424E+00   -4.369E+00
    -4.315E+00   -4.261E+00   -4.207E+00   -4.154E+00   -4.102E+00   -4.050E+00   -3.999E+00   -3.948E+00   -3.898E+00   -3.848E+00
    -3.799E+00   -3.750E+00   -3.702E+00   -3.655E+00   -3.608E+00   -3.562E+00   -3.516E+00   -3.471E+00   -3.427E+00   -3.384E+00
    -3.341E+00   -3.298E+00   -3.257E+00   -3.216E+00   -3.176E+00   -3.137E+00   -3.098E+00   -3.061E+00   -3.023E+00   -2.987E+00
    -2.952E+00   -2.917E+00   -2.883E+00   -2.850E+00   -2.818E+00   -2.786E+00   -2.756E+00   -2.726E+00   -2.696E+00   -2.668E+00
    -2.640E+00   -2.613E+00   -2.586E+00   -2.560E+00   -2.534E+00   -2.509E+00   -2.485E+00   -2.461E+00   -2.437E+00   -2.414E+00
    -2.392E+00   -2.370E+00   -2.348E+00   -2.327E+00   -2.306E+00   -2.285E+00   -2.264E+00   -2.244E+00   -2.224E+00   -2.205E+00
    -2.185E+00   -2.166E+00   -2.147E+00   -2.128E+00   -2.110E+00   -2.091E+00   -2.072E+00   -2.054E+00   -2.035E+00   -2.017E+00
    -1.998E+00   -1.980E+00   -1.961E+00   -1.943E+00   -1.924E+00   -1.905E+00   -1.886E+00   -1.867E+00
 Asp      Conc. = 7.63E+01
