 LCModel (Version 6.3-1L) Copyright: S.W. Provencher.          Ref.: Magn. Reson. Med. 30:672-679 (1993).                
 Slice#3 Row#14 Col#8  PD_05_press_1_raw_act
 36 lines in following concentration table = NCONC+1
    Conc.  %SD /Cr+PCr  Metabolite                                         
   23.091 162%   0.976 Ala                                                 
    1.733  83% 7.3E-02 Asp                                                 
    0.000 999%   0.000 Cr                                                  
   23.670 201%   1.000 PCr                                                 
    1.044  83% 4.4E-02 GABA                                                
    1.035  83% 4.4E-02 Glc                                                 
  187.480  47%   7.921 Gln                                                 
  148.603  63%   6.278 Glu                                                 
    2.157 221% 9.1E-02 GPC                                                 
    0.000 999%   0.000 PCh                                                 
   28.834  69%   1.218 GSH                                                 
   33.510 198%   1.416 Ins                                                 
   54.502  85%   2.303 Lac                                                 
    4.559 292%   0.193 NAA                                                 
    0.000 999%   0.000 NAAG                                                
    0.343  84% 1.4E-02 Scyllo                                              
    1.703  84% 7.2E-02 Tau                                                 
    2.252  63% 9.5E-02 -CrCH2                                              
    2.157 221% 9.1E-02 GPC+PCh                                             
    4.559 292%   0.193 NAA+NAAG                                            
   23.670  53%   1.000 Cr+PCr                                              
  336.083  46%  14.199 Glu+Gln                                             
  135.228  94%   5.713 Lip13a                                              
    5.056 999%   0.214 Lip13b                                              
   37.462  59%   1.583 Lip09                                               
    0.304 999% 1.3E-02 MM09                                                
   21.022  60%   0.888 Lip20                                               
    0.000 999%   0.000 MM20                                                
    0.000 999%   0.000 MM12                                                
   12.017 339%   0.508 MM14                                                
    0.000 999%   0.000 MM17                                                
  140.284  59%   5.927 Lip13a+Lip13b                                       
  152.301  48%   6.434 MM14+Lip13a+Lip13b+MM12                             
   37.766  61%   1.596 MM09+Lip09                                          
   21.022  60%   0.888 MM20+Lip20                                          
   6 lines in following misc. output table
  FWHM = 0.084 ppm    S/N =   1                                            
  Data shift = 0.069 ppm                                                   
  Ph: 146 deg     -32.2 deg/ppm                                            
  alphaB,S = 8.4E-01,   8.8E+01                                            
   14 spline knots.   Ns = 7(1)                                            
  ( 5) 4 infls.   ( 5) 1 extrs.                                            
  498 points on ppm-axis = NY
      4.000000     3.992357     3.984714     3.977070     3.969427     3.961784     3.954141     3.946497     3.938854     3.931211
      3.923568     3.915925     3.908281     3.900638     3.892995     3.885352     3.877708     3.870065     3.862422     3.854779
      3.847136     3.839492     3.831849     3.824206     3.816563     3.808919     3.801276     3.793633     3.785990     3.778347
      3.770703     3.763060     3.755417     3.747774     3.740130     3.732487     3.724844     3.717201     3.709558     3.701914
      3.694271     3.686628     3.678985     3.671341     3.663698     3.656055     3.648412     3.640769     3.633125     3.625482
      3.617839     3.610196     3.602552     3.594909     3.587266     3.579623     3.571980     3.564336     3.556693     3.549050
      3.541407     3.533763     3.526120     3.518477     3.510834     3.503191     3.495547     3.487904     3.480261     3.472618
      3.464974     3.457331     3.449688     3.442045     3.434402     3.426758     3.419115     3.411472     3.403829     3.396185
      3.388542     3.380899     3.373256     3.365613     3.357969     3.350326     3.342683     3.335040     3.327396     3.319753
      3.312110     3.304467     3.296824     3.289180     3.281537     3.273894     3.266251     3.258607     3.250964     3.243321
      3.235678     3.228034     3.220391     3.212748     3.205105     3.197462     3.189818     3.182175     3.174532     3.166889
      3.159245     3.151602     3.143959     3.136316     3.128673     3.121029     3.113386     3.105743     3.098100     3.090456
      3.082813     3.075170     3.067527     3.059884     3.052240     3.044597     3.036954     3.029311     3.021667     3.014024
      3.006381     2.998738     2.991095     2.983451     2.975808     2.968165     2.960522     2.952878     2.945235     2.937592
      2.929949     2.922306     2.914662     2.907019     2.899376     2.891733     2.884089     2.876446     2.868803     2.861160
      2.853517     2.845873     2.838230     2.830587     2.822944     2.815300     2.807657     2.800014     2.792371     2.784728
      2.777084     2.769441     2.761798     2.754155     2.746511     2.738868     2.731225     2.723582     2.715939     2.708295
      2.700652     2.693009     2.685366     2.677722     2.670079     2.662436     2.654793     2.647150     2.639506     2.631863
      2.624220     2.616577     2.608933     2.601290     2.593647     2.586004     2.578361     2.570717     2.563074     2.555431
      2.547788     2.540144     2.532501     2.524858     2.517215     2.509572     2.501928     2.494285     2.486642     2.478999
      2.471355     2.463712     2.456069     2.448426     2.440783     2.433139     2.425496     2.417853     2.410210     2.402566
      2.394923     2.387280     2.379637     2.371994     2.364350     2.356707     2.349064     2.341421     2.333777     2.326134
      2.318491     2.310848     2.303205     2.295561     2.287918     2.280275     2.272632     2.264988     2.257345     2.249702
      2.242059     2.234416     2.226772     2.219129     2.211486     2.203843     2.196199     2.188556     2.180913     2.173270
      2.165627     2.157983     2.150340     2.142697     2.135054     2.127410     2.119767     2.112124     2.104481     2.096838
      2.089194     2.081551     2.073908     2.066265     2.058621     2.050978     2.043335     2.035692     2.028049     2.020405
      2.012762     2.005119     1.997476     1.989833     1.982190     1.974546     1.966903     1.959260     1.951617     1.943974
      1.936331     1.928688     1.921045     1.913402     1.905759     1.898115     1.890472     1.882829     1.875186     1.867543
      1.859900     1.852257     1.844614     1.836971     1.829327     1.821684     1.814041     1.806398     1.798755     1.791112
      1.783469     1.775826     1.768183     1.760540     1.752896     1.745253     1.737610     1.729967     1.722324     1.714681
      1.707038     1.699395     1.691752     1.684108     1.676465     1.668822     1.661179     1.653536     1.645893     1.638250
      1.630607     1.622964     1.615321     1.607677     1.600034     1.592391     1.584748     1.577105     1.569462     1.561819
      1.554176     1.546533     1.538890     1.531246     1.523603     1.515960     1.508317     1.500674     1.493031     1.485388
      1.477745     1.470102     1.462458     1.454815     1.447172     1.439529     1.431886     1.424243     1.416600     1.408957
      1.401314     1.393671     1.386027     1.378384     1.370741     1.363098     1.355455     1.347812     1.340169     1.332526
      1.324883     1.317240     1.309596     1.301953     1.294310     1.286667     1.279024     1.271381     1.263738     1.256095
      1.248452     1.240808     1.233165     1.225522     1.217879     1.210236     1.202593     1.194950     1.187307     1.179664
      1.172021     1.164377     1.156734     1.149091     1.141448     1.133805     1.126162     1.118519     1.110876     1.103233
      1.095590     1.087946     1.080303     1.072660     1.065017     1.057374     1.049731     1.042088     1.034445     1.026802
      1.019158     1.011515     1.003872     0.996229     0.988586     0.980943     0.973300     0.965657     0.958014     0.950371
      0.942727     0.935084     0.927441     0.919798     0.912155     0.904512     0.896869     0.889226     0.881583     0.873940
      0.866296     0.858653     0.851010     0.843367     0.835724     0.828081     0.820438     0.812795     0.805152     0.797508
      0.789865     0.782222     0.774579     0.766936     0.759293     0.751650     0.744007     0.736364     0.728721     0.721077
      0.713434     0.705791     0.698148     0.690505     0.682862     0.675219     0.667576     0.659933     0.652290     0.644646
      0.637003     0.629360     0.621717     0.614074     0.606431     0.598788     0.591145     0.583502     0.575858     0.568215
      0.560572     0.552929     0.545286     0.537643     0.530000     0.522357     0.514714     0.507071     0.499427     0.491784
      0.484141     0.476498     0.468855     0.461212     0.453569     0.445925     0.438282     0.430639     0.422996     0.415353
      0.407710     0.400067     0.392424     0.384780     0.377137     0.369494     0.361851     0.354208     0.346565     0.338922
      0.331278     0.323635     0.315992     0.308349     0.300706     0.293063     0.285420     0.277777     0.270133     0.262490
      0.254847     0.247204     0.239561     0.231918     0.224275     0.216631     0.208988     0.201345
 NY phased data points follow
   5.67524E+00  6.13287E+00  5.25349E+00  6.15769E+00  5.89818E+00  5.15855E+00  5.73927E+00  5.17158E+00  5.96657E+00  6.25164E+00
   5.46510E+00  5.22813E+00  6.36353E+00  5.95405E+00  5.84979E+00  5.17913E+00  4.82839E+00  4.68428E+00  5.18651E+00  4.89858E+00
   4.91658E+00  3.85572E+00  4.11753E+00  5.46794E+00  4.89562E+00  4.53072E+00  5.49036E+00  4.61776E+00  4.62058E+00  3.81601E+00
   4.18317E+00  4.19002E+00  4.59733E+00  4.44459E+00  4.67625E+00  3.64033E+00  4.11598E+00  3.73221E+00  4.43103E+00  3.38973E+00
   4.33030E+00  3.08389E+00  3.78934E+00  3.03743E+00  4.98784E+00  3.61915E+00  5.24139E+00  3.49360E+00  3.04697E+00  3.82968E+00
   2.20972E+00  2.53005E+00  3.17231E+00  3.42177E+00  4.24038E+00  1.98216E+00  3.87655E+00  3.15285E+00  3.06424E+00  2.58134E+00
   3.35179E+00  2.90184E+00  3.37448E+00  1.16979E+00  2.32826E+00  2.91070E+00  1.84691E+00  2.82936E+00  1.85548E+00  2.30001E+00
   2.72821E+00  2.57167E+00  3.57841E+00  1.81084E+00  2.60682E+00  6.65322E-01  2.76171E+00  1.60838E+00  2.50450E+00  1.91855E+00
   2.54973E+00  1.34648E+00  2.65310E+00  1.77294E+00  2.34400E+00  2.02393E+00  1.45837E+00  2.13213E+00  2.26101E+00  2.09263E+00
   2.94691E+00  2.02782E+00  1.76675E+00  1.23197E+00  2.03308E+00  1.61547E+00  1.92623E+00  2.48127E+00  2.05106E+00  1.20798E+00
   1.93237E+00  2.08313E+00  2.48288E+00  3.23189E+00  1.39977E+00  1.38055E+00  1.75099E+00  2.23503E+00  1.47820E+00  2.08423E+00
   7.17472E-01  1.95598E+00  3.67957E+00  2.96609E+00  1.97114E+00  2.12713E+00  3.25294E-01  5.26723E-01  2.25443E+00  3.13593E+00
   1.96578E+00  1.11270E+00  2.45795E+00  1.34649E+00  7.72470E-01  6.71103E-01  2.19236E+00  6.47067E-01  1.69372E+00  1.48185E+00
   4.36506E-01  1.96911E+00  2.26173E+00  1.63459E+00 -7.25100E-01  1.10399E+00  9.40781E-01  1.16159E+00  1.28294E+00  9.60085E-01
  -3.39193E-01 -2.29026E-01  8.67206E-01  2.48943E+00  1.14817E+00  2.57999E+00 -8.82633E-01  2.34212E-01  6.93892E-01  2.73028E-01
   1.17309E+00  1.72737E+00  1.11023E-01  1.35794E+00  9.50549E-01  1.54596E+00  2.39118E+00  1.08734E+00  9.46783E-01  2.42271E+00
   1.17379E+00  2.00239E-01 -4.76259E-01  1.65482E+00  1.35009E+00  1.50455E+00 -4.75541E-01 -2.09278E-01  6.86389E-01  8.81147E-01
   6.80567E-01  7.16380E-01 -9.11060E-02  5.53800E-01  3.20082E-01  1.13144E+00 -3.46713E-02  7.57059E-01  6.06912E-01  1.74818E-01
   1.04808E+00 -4.80170E-01 -3.78889E-01  2.30156E-01  4.95752E-01  2.20106E-01  1.75104E+00  1.93960E+00  1.44942E+00  1.66333E+00
   1.02318E+00  4.67762E-01  1.15452E+00  1.06896E+00 -1.79926E-01 -5.53884E-01  1.12773E+00 -7.77345E-01  5.97091E-02  9.34273E-01
   8.59891E-02 -8.35768E-01  1.01172E+00  6.00575E-01  1.12017E+00 -1.42757E+00  7.56425E-01  1.03132E+00  6.76717E-01  5.46125E-01
   5.25565E-01  1.16795E-01 -3.11487E-04 -7.94390E-01 -7.75781E-02  1.36876E+00  1.73519E+00  9.68774E-01  7.35894E-01  8.06412E-01
   8.53375E-01  1.79099E+00  1.00388E+00 -1.96364E-01  8.36525E-01 -8.61633E-01  8.20384E-01  9.34111E-01 -1.40501E-01  2.47925E-01
   5.69995E-01 -1.30608E-01 -9.91952E-01  7.58124E-02  8.59132E-01 -3.84726E-01 -5.10764E-02  3.25861E-01 -9.91864E-04  1.30579E+00
  -3.18854E-01  5.67442E-01  1.08894E+00  5.06520E-02  1.86315E+00 -6.23623E-01  3.03110E-01  5.63918E-01  1.67483E+00  5.82099E-01
   1.46948E+00 -3.69903E-01 -7.26791E-01 -8.91485E-01  1.99788E-01 -1.09366E+00 -1.09004E+00 -6.78557E-02 -7.72867E-02  8.16301E-01
   1.78244E-02  4.17169E-01  2.49944E-02 -4.37624E-01  7.50701E-01  1.78382E+00  1.51168E+00  6.23460E-01  2.34605E-01 -1.43417E-01
  -3.57476E-01  1.17291E+00  1.36628E-01  4.23580E-01  2.61190E-01  1.55041E+00 -6.88720E-01  1.00701E+00 -1.23369E+00 -4.29737E-01
  -1.45731E-01  4.60352E-01 -4.08557E-01  7.76426E-01 -8.75508E-01 -3.38030E-01  1.24300E+00 -3.18563E-02  1.19585E-01 -1.04435E+00
   1.48240E+00 -1.01748E-01 -6.61637E-01  9.69356E-01  1.70701E+00  3.71465E-01 -8.80948E-01  1.17154E+00 -1.01109E-01  6.18145E-01
  -1.46151E-02  1.00664E+00  2.33285E-01 -1.13334E+00 -1.73344E+00 -8.15477E-01 -1.40858E+00 -7.53382E-01 -8.70878E-02  1.01080E+00
   1.10945E-02 -1.33637E+00 -3.75791E-01 -6.43128E-01 -8.42382E-01 -3.99182E-01 -6.22943E-01 -8.56792E-01  3.58108E-01  1.45695E-01
  -1.33707E-01  4.64806E-01 -5.16818E-01 -5.48037E-01  6.48459E-01  5.88130E-01 -8.03397E-02 -6.21094E-01  2.33051E+00 -1.12735E+00
  -1.16601E+00  7.03377E-01  3.80303E-01 -4.38738E-01  3.19632E-01 -2.23740E-01  5.47060E-01  5.12611E-01 -2.13840E-01  2.44282E+00
   1.52891E-01  7.21327E-01  9.85155E-01  7.78036E-01  3.85776E-01  3.63605E-01  5.23340E-01 -7.23695E-02  7.13622E-01  3.73235E-01
   3.27724E-01  8.19382E-01  8.11934E-01  1.82345E-01  8.93202E-02 -2.90060E-02  1.20735E+00 -4.61746E-01 -9.13730E-03  4.53643E-01
   7.88580E-01  9.79222E-01  1.64868E+00  1.46586E+00  3.78165E-01  5.20004E-01 -1.81981E-01  3.18448E-01 -1.27618E+00  6.12040E-01
  -6.36809E-01 -2.03111E-01  3.96581E-01  7.13479E-01  1.62467E-01 -3.08380E-02  1.28624E-01 -7.12150E-01  3.72122E-01  1.77514E-01
   6.67994E-01  1.22451E+00 -8.79275E-01 -7.91864E-01 -1.23468E-01 -9.42393E-01 -4.61506E-01  1.09801E-01 -8.31939E-01 -3.91501E-01
  -2.07998E+00 -4.12781E-01 -1.49609E+00 -6.15516E-03  4.63998E-01  2.66563E-01 -5.76232E-01  2.62896E-01  6.36921E-01 -6.67227E-01
  -1.71479E-01  5.79384E-02  1.49313E+00  1.02833E+00  1.34716E+00 -1.42399E+00 -8.04735E-02  1.43563E+00 -7.03029E-01 -3.50824E-01
  -8.32215E-01 -3.13383E-01 -7.14066E-01 -2.11562E-01 -8.17460E-01 -8.22271E-01  9.61594E-01 -7.39906E-01 -1.96323E-02  8.85978E-01
  -7.54348E-01 -2.28380E-01 -3.23670E-01 -1.42161E-01  6.67750E-01  1.83156E+00  2.03824E-01  6.08741E-01 -6.31044E-01  1.51304E-01
   4.44764E-01  5.62189E-01  1.50394E+00 -7.00627E-01  3.41731E-01  6.39441E-01  4.59139E-01  1.40488E+00  3.09741E-01 -1.58382E+00
  -4.30901E-01  3.54921E-01  8.02478E-01 -5.12841E-01 -7.30678E-02  3.91454E-01 -6.06809E-01 -6.39544E-01  5.86555E-01  7.53287E-02
  -1.70405E+00 -1.58506E+00  3.23428E-01 -7.97773E-01  4.49193E-01 -4.98130E-01 -1.65766E+00  1.75709E-01 -1.07492E+00  1.04216E-01
   1.47915E+00  3.02580E-01 -1.24496E+00 -3.95719E-01 -7.31931E-02  3.15003E-01  8.03587E-01  1.00445E+00  4.52703E-01  7.47459E-01
   2.46559E-01 -4.82545E-01 -1.11685E+00  8.08281E-01 -8.16887E-01 -1.92937E-01 -4.54510E-02 -4.57435E-01  1.91137E-01 -1.14187E-01
  -4.89377E-02  8.69309E-01 -4.78476E-02 -1.52437E-01 -2.02928E-01  2.28953E-01  9.73936E-04 -5.54361E-01  8.41122E-01 -5.96756E-01
  -5.22447E-01 -1.10316E+00 -1.20754E+00 -1.22717E+00 -1.28379E+00 -1.63674E-01  2.18087E-01 -4.42075E-02
 NY points of the fit to the data follow
   4.52277E+00  4.48100E+00  4.47859E+00  4.50404E+00  4.53731E+00  4.56716E+00  4.58711E+00  4.59699E+00  4.60294E+00  4.60703E+00
   4.60530E+00  4.59096E+00  4.55896E+00  4.50656E+00  4.43539E+00  4.35486E+00  4.28119E+00  4.23459E+00  4.23189E+00  4.24388E+00
   4.23289E+00  4.18491E+00  4.12210E+00  4.09075E+00  4.09789E+00  4.15186E+00  4.24525E+00  4.33917E+00  4.40149E+00  4.41726E+00
   4.39580E+00  4.35720E+00  4.33566E+00  4.35352E+00  4.38836E+00  4.37846E+00  4.27443E+00  4.07578E+00  3.83298E+00  3.61201E+00
   3.45518E+00  3.40860E+00  3.46233E+00  3.55927E+00  3.64931E+00  3.69794E+00  3.69470E+00  3.64770E+00  3.58640E+00  3.53060E+00
   3.47680E+00  3.41882E+00  3.35490E+00  3.28713E+00  3.22054E+00  3.16382E+00  3.12425E+00  3.10115E+00  3.08542E+00  3.06955E+00
   3.05204E+00  3.03306E+00  3.01210E+00  2.98792E+00  2.95967E+00  2.92892E+00  2.89649E+00  2.86371E+00  2.83456E+00  2.81171E+00
   2.79419E+00  2.77961E+00  2.76441E+00  2.74635E+00  2.72459E+00  2.69946E+00  2.67194E+00  2.64253E+00  2.61202E+00  2.58123E+00
   2.54960E+00  2.51692E+00  2.48229E+00  2.44688E+00  2.41286E+00  2.38131E+00  2.35170E+00  2.32334E+00  2.29572E+00  2.26928E+00
   2.24471E+00  2.22207E+00  2.20205E+00  2.18548E+00  2.17297E+00  2.16601E+00  2.16802E+00  2.17324E+00  2.17359E+00  2.16664E+00
   2.15360E+00  2.13788E+00  2.12244E+00  2.10850E+00  2.09497E+00  2.07967E+00  2.05900E+00  2.02915E+00  1.98918E+00  1.94176E+00
   1.89362E+00  1.85379E+00  1.82746E+00  1.80685E+00  1.78689E+00  1.76755E+00  1.74911E+00  1.73287E+00  1.72201E+00  1.73103E+00
   1.78465E+00  1.86340E+00  1.93780E+00  1.99451E+00  2.03607E+00  2.07275E+00  2.11444E+00  2.15912E+00  2.18819E+00  2.18348E+00
   2.13500E+00  2.03909E+00  1.90448E+00  1.75189E+00  1.61055E+00  1.51219E+00  1.46458E+00  1.43243E+00  1.39884E+00  1.36626E+00
   1.34222E+00  1.33406E+00  1.34438E+00  1.36361E+00  1.37545E+00  1.37181E+00  1.35123E+00  1.31657E+00  1.27609E+00  1.23765E+00
   1.20607E+00  1.18173E+00  1.16037E+00  1.13994E+00  1.11971E+00  1.09990E+00  1.08120E+00  1.06429E+00  1.04934E+00  1.03520E+00
   1.02111E+00  1.00666E+00  9.91488E-01  9.75359E-01  9.58591E-01  9.42474E-01  9.27674E-01  9.13812E-01  8.99937E-01  8.85170E-01
   8.69351E-01  8.53051E-01  8.36673E-01  8.20188E-01  8.03158E-01  7.85329E-01  7.67116E-01  7.49042E-01  7.29700E-01  7.08786E-01
   6.87739E-01  6.68854E-01  6.54341E-01  6.46484E-01  6.46255E-01  6.52198E-01  6.58770E-01  6.55602E-01  6.39454E-01  6.07599E-01
   5.56351E-01  4.92996E-01  4.31388E-01  3.79329E-01  3.44615E-01  3.37856E-01  3.57154E-01  3.90112E-01  4.43055E-01  5.24933E-01
   6.26044E-01  7.30040E-01  8.08042E-01  8.01823E-01  7.15911E-01  6.00565E-01  4.75467E-01  3.46125E-01  2.19723E-01  1.23864E-01
   6.92340E-02  5.56707E-02  8.63317E-02  1.72243E-01  3.27410E-01  5.22245E-01  7.03034E-01  8.35591E-01  8.84548E-01  8.12299E-01
   6.60262E-01  4.83193E-01  3.04210E-01  1.58916E-01  8.32456E-02  9.69437E-02  1.79302E-01  3.08328E-01  4.55954E-01  5.64729E-01
   6.04626E-01  5.80956E-01  5.21660E-01  4.66453E-01  4.38508E-01  4.30201E-01  4.07488E-01  3.70899E-01  3.37102E-01  3.12451E-01
   2.91801E-01  2.75512E-01  2.57126E-01  2.16301E-01  1.36305E-01  1.68993E-02 -9.86700E-02 -1.70937E-01 -1.87806E-01 -1.47678E-01
  -6.15333E-02  3.42515E-02  9.88650E-02  1.52971E-01  2.13148E-01  2.68924E-01  3.08591E-01  3.30129E-01  3.27099E-01  2.99996E-01
   2.67640E-01  2.44939E-01  2.39554E-01  2.50638E-01  2.68734E-01  2.78333E-01  2.68505E-01  2.38010E-01  1.95603E-01  1.58630E-01
   1.33858E-01  1.16395E-01  1.05406E-01  1.00973E-01  9.86764E-02  9.68258E-02  9.82401E-02  1.01076E-01  1.02340E-01  9.93468E-02
   9.05321E-02  7.63979E-02  6.08124E-02  4.72830E-02  3.64010E-02  2.78741E-02  2.15746E-02  1.69935E-02  1.31922E-02  9.03573E-03
   4.01514E-03 -1.31575E-03 -6.64779E-03 -1.18268E-02 -1.67264E-02 -2.12768E-02 -2.54650E-02 -2.93702E-02 -3.29907E-02 -3.62212E-02
  -3.91275E-02 -4.17653E-02 -4.40730E-02 -4.60566E-02 -4.77199E-02 -4.90505E-02 -5.00295E-02 -5.06403E-02 -5.08632E-02 -5.06685E-02
  -5.00013E-02 -4.87665E-02 -4.68137E-02 -4.39983E-02 -4.01459E-02 -3.49704E-02 -2.80592E-02 -1.87179E-02 -5.56615E-03  1.48090E-02
   4.79688E-02  8.26329E-02  1.01696E-01  1.02445E-01  9.02580E-02  7.11053E-02  4.65306E-02  1.36421E-02 -1.94558E-02 -3.98505E-02
  -5.09385E-02 -6.02081E-02 -6.91996E-02 -6.97060E-02 -4.75424E-02  9.32984E-03  1.00794E-01  2.06859E-01  3.13509E-01  4.22688E-01
   5.42392E-01  6.52003E-01  7.04092E-01  6.92980E-01  6.48900E-01  5.97880E-01  5.39259E-01  4.65982E-01  3.99980E-01  3.61703E-01
   3.35232E-01  2.99460E-01  2.48874E-01  2.01719E-01  1.91709E-01  2.49121E-01  3.78726E-01  5.36110E-01  6.68733E-01  7.61625E-01
   8.00623E-01  7.74618E-01  6.86757E-01  5.63664E-01  4.55624E-01  3.80455E-01  3.21928E-01  2.72256E-01  2.28422E-01  1.88986E-01
   1.53173E-01  1.20534E-01  9.07879E-02  6.37388E-02  3.92360E-02  1.71540E-02 -2.61467E-03 -2.01703E-02 -3.56127E-02 -4.90473E-02
  -6.05794E-02 -7.03090E-02 -7.83238E-02 -8.47034E-02 -8.95200E-02 -9.28437E-02 -9.47377E-02 -9.52583E-02 -9.44543E-02 -9.23764E-02
  -8.90814E-02 -8.46396E-02 -7.91328E-02 -7.26576E-02 -6.53270E-02 -5.72789E-02 -4.86770E-02 -3.97119E-02 -3.05933E-02 -2.15479E-02
  -1.28125E-02 -4.63332E-03  2.74423E-03  9.08400E-03  1.41739E-02  1.78325E-02  1.99170E-02  2.03256E-02  1.90044E-02  1.59499E-02
   1.12123E-02  4.88996E-03 -2.87603E-03 -1.19129E-02 -2.20204E-02 -3.29811E-02 -4.45662E-02 -5.65491E-02 -6.87129E-02 -8.08611E-02
  -9.28172E-02 -1.04430E-01 -1.15573E-01 -1.26150E-01 -1.36092E-01 -1.45358E-01 -1.53927E-01 -1.61796E-01 -1.68977E-01 -1.75495E-01
  -1.81386E-01 -1.86692E-01 -1.91457E-01 -1.95725E-01 -1.99539E-01 -2.02943E-01 -2.05980E-01 -2.08690E-01 -2.11106E-01 -2.13261E-01
  -2.15180E-01 -2.16892E-01 -2.18420E-01 -2.19785E-01 -2.21003E-01 -2.22089E-01 -2.23057E-01 -2.23921E-01 -2.24692E-01 -2.25379E-01
  -2.25990E-01 -2.26531E-01 -2.27010E-01 -2.27434E-01 -2.27808E-01 -2.28136E-01 -2.28419E-01 -2.28663E-01 -2.28870E-01 -2.29045E-01
  -2.29189E-01 -2.29304E-01 -2.29392E-01 -2.29455E-01 -2.29495E-01 -2.29515E-01 -2.29515E-01 -2.29496E-01 -2.29457E-01 -2.29403E-01
  -2.29334E-01 -2.29251E-01 -2.29155E-01 -2.29045E-01 -2.28923E-01 -2.28790E-01 -2.28646E-01 -2.28492E-01 -2.28327E-01 -2.28153E-01
  -2.27969E-01 -2.27778E-01 -2.27579E-01 -2.27372E-01 -2.27157E-01 -2.26934E-01 -2.26705E-01 -2.26469E-01 -2.26226E-01 -2.25977E-01
  -2.25720E-01 -2.25457E-01 -2.25187E-01 -2.24912E-01 -2.24630E-01 -2.24340E-01 -2.24043E-01 -2.23739E-01
 NY background values follow
     4.405E+00    4.381E+00    4.356E+00    4.331E+00    4.306E+00    4.281E+00    4.257E+00    4.232E+00    4.207E+00    4.182E+00
     4.157E+00    4.132E+00    4.108E+00    4.083E+00    4.058E+00    4.033E+00    4.008E+00    3.984E+00    3.959E+00    3.934E+00
     3.909E+00    3.885E+00    3.860E+00    3.835E+00    3.811E+00    3.786E+00    3.761E+00    3.737E+00    3.712E+00    3.688E+00
     3.663E+00    3.639E+00    3.614E+00    3.590E+00    3.565E+00    3.541E+00    3.516E+00    3.492E+00    3.468E+00    3.443E+00
     3.419E+00    3.395E+00    3.371E+00    3.347E+00    3.323E+00    3.298E+00    3.274E+00    3.250E+00    3.227E+00    3.203E+00
     3.179E+00    3.155E+00    3.131E+00    3.107E+00    3.084E+00    3.060E+00    3.037E+00    3.013E+00    2.990E+00    2.966E+00
     2.943E+00    2.920E+00    2.896E+00    2.873E+00    2.850E+00    2.827E+00    2.804E+00    2.781E+00    2.758E+00    2.735E+00
     2.713E+00    2.690E+00    2.667E+00    2.645E+00    2.622E+00    2.600E+00    2.577E+00    2.555E+00    2.533E+00    2.511E+00
     2.489E+00    2.467E+00    2.445E+00    2.423E+00    2.402E+00    2.380E+00    2.358E+00    2.337E+00    2.315E+00    2.294E+00
     2.273E+00    2.252E+00    2.231E+00    2.210E+00    2.189E+00    2.168E+00    2.147E+00    2.127E+00    2.106E+00    2.086E+00
     2.066E+00    2.045E+00    2.025E+00    2.005E+00    1.985E+00    1.965E+00    1.946E+00    1.926E+00    1.906E+00    1.887E+00
     1.867E+00    1.848E+00    1.829E+00    1.810E+00    1.791E+00    1.772E+00    1.753E+00    1.734E+00    1.716E+00    1.697E+00
     1.679E+00    1.661E+00    1.642E+00    1.624E+00    1.606E+00    1.588E+00    1.571E+00    1.553E+00    1.535E+00    1.518E+00
     1.500E+00    1.483E+00    1.466E+00    1.449E+00    1.432E+00    1.415E+00    1.398E+00    1.382E+00    1.365E+00    1.349E+00
     1.332E+00    1.316E+00    1.300E+00    1.284E+00    1.268E+00    1.252E+00    1.237E+00    1.221E+00    1.206E+00    1.190E+00
     1.175E+00    1.160E+00    1.145E+00    1.130E+00    1.115E+00    1.100E+00    1.086E+00    1.071E+00    1.057E+00    1.042E+00
     1.028E+00    1.014E+00    9.998E-01    9.859E-01    9.721E-01    9.583E-01    9.447E-01    9.312E-01    9.177E-01    9.044E-01
     8.912E-01    8.780E-01    8.650E-01    8.520E-01    8.392E-01    8.265E-01    8.138E-01    8.013E-01    7.888E-01    7.765E-01
     7.642E-01    7.520E-01    7.400E-01    7.280E-01    7.161E-01    7.043E-01    6.927E-01    6.811E-01    6.696E-01    6.582E-01
     6.469E-01    6.356E-01    6.245E-01    6.135E-01    6.025E-01    5.917E-01    5.809E-01    5.702E-01    5.596E-01    5.491E-01
     5.387E-01    5.284E-01    5.181E-01    5.080E-01    4.979E-01    4.879E-01    4.780E-01    4.682E-01    4.585E-01    4.489E-01
     4.393E-01    4.298E-01    4.204E-01    4.111E-01    4.019E-01    3.927E-01    3.837E-01    3.747E-01    3.657E-01    3.569E-01
     3.482E-01    3.395E-01    3.309E-01    3.224E-01    3.139E-01    3.056E-01    2.973E-01    2.890E-01    2.809E-01    2.728E-01
     2.648E-01    2.569E-01    2.491E-01    2.413E-01    2.336E-01    2.260E-01    2.184E-01    2.109E-01    2.035E-01    1.962E-01
     1.889E-01    1.817E-01    1.746E-01    1.675E-01    1.605E-01    1.536E-01    1.467E-01    1.400E-01    1.332E-01    1.266E-01
     1.200E-01    1.135E-01    1.070E-01    1.007E-01    9.433E-02    8.808E-02    8.189E-02    7.577E-02    6.970E-02    6.371E-02
     5.777E-02    5.190E-02    4.610E-02    4.035E-02    3.467E-02    2.904E-02    2.348E-02    1.798E-02    1.255E-02    7.166E-03
     1.847E-03   -3.413E-03   -8.614E-03   -1.376E-02   -1.884E-02   -2.386E-02   -2.883E-02   -3.374E-02   -3.859E-02   -4.338E-02
    -4.812E-02   -5.280E-02   -5.742E-02   -6.199E-02   -6.650E-02   -7.095E-02   -7.535E-02   -7.969E-02   -8.398E-02   -8.821E-02
    -9.238E-02   -9.650E-02   -1.006E-01   -1.046E-01   -1.085E-01   -1.124E-01   -1.163E-01   -1.201E-01   -1.238E-01   -1.275E-01
    -1.312E-01   -1.347E-01   -1.383E-01   -1.418E-01   -1.452E-01   -1.486E-01   -1.519E-01   -1.552E-01   -1.584E-01   -1.616E-01
    -1.647E-01   -1.677E-01   -1.708E-01   -1.737E-01   -1.767E-01   -1.795E-01   -1.824E-01   -1.851E-01   -1.879E-01   -1.905E-01
    -1.932E-01   -1.957E-01   -1.983E-01   -2.008E-01   -2.032E-01   -2.056E-01   -2.079E-01   -2.102E-01   -2.125E-01   -2.147E-01
    -2.169E-01   -2.190E-01   -2.211E-01   -2.231E-01   -2.251E-01   -2.270E-01   -2.289E-01   -2.308E-01   -2.326E-01   -2.344E-01
    -2.362E-01   -2.378E-01   -2.395E-01   -2.411E-01   -2.427E-01   -2.442E-01   -2.457E-01   -2.472E-01   -2.486E-01   -2.500E-01
    -2.513E-01   -2.526E-01   -2.539E-01   -2.551E-01   -2.563E-01   -2.575E-01   -2.586E-01   -2.597E-01   -2.608E-01   -2.618E-01
    -2.628E-01   -2.637E-01   -2.646E-01   -2.655E-01   -2.664E-01   -2.672E-01   -2.680E-01   -2.687E-01   -2.694E-01   -2.701E-01
    -2.708E-01   -2.714E-01   -2.720E-01   -2.726E-01   -2.731E-01   -2.736E-01   -2.741E-01   -2.746E-01   -2.750E-01   -2.754E-01
    -2.758E-01   -2.761E-01   -2.765E-01   -2.768E-01   -2.770E-01   -2.773E-01   -2.775E-01   -2.777E-01   -2.779E-01   -2.780E-01
    -2.782E-01   -2.783E-01   -2.783E-01   -2.784E-01   -2.785E-01   -2.785E-01   -2.785E-01   -2.785E-01   -2.784E-01   -2.784E-01
    -2.783E-01   -2.782E-01   -2.781E-01   -2.780E-01   -2.778E-01   -2.777E-01   -2.775E-01   -2.773E-01   -2.771E-01   -2.769E-01
    -2.766E-01   -2.764E-01   -2.761E-01   -2.758E-01   -2.755E-01   -2.752E-01   -2.749E-01   -2.746E-01   -2.742E-01   -2.739E-01
    -2.735E-01   -2.731E-01   -2.727E-01   -2.723E-01   -2.719E-01   -2.715E-01   -2.711E-01   -2.707E-01   -2.702E-01   -2.698E-01
    -2.693E-01   -2.689E-01   -2.684E-01   -2.679E-01   -2.674E-01   -2.670E-01   -2.665E-01   -2.660E-01   -2.655E-01   -2.650E-01
    -2.645E-01   -2.640E-01   -2.635E-01   -2.630E-01   -2.624E-01   -2.619E-01   -2.614E-01   -2.609E-01   -2.604E-01   -2.599E-01
    -2.594E-01   -2.588E-01   -2.583E-01   -2.578E-01   -2.573E-01   -2.568E-01   -2.563E-01   -2.558E-01   -2.553E-01   -2.548E-01
    -2.543E-01   -2.538E-01   -2.533E-01   -2.528E-01   -2.523E-01   -2.518E-01   -2.513E-01   -2.509E-01   -2.504E-01   -2.499E-01
    -2.494E-01   -2.489E-01   -2.484E-01   -2.479E-01   -2.475E-01   -2.470E-01   -2.465E-01   -2.460E-01   -2.456E-01   -2.451E-01
    -2.446E-01   -2.441E-01   -2.437E-01   -2.432E-01   -2.427E-01   -2.423E-01   -2.418E-01   -2.413E-01   -2.408E-01   -2.404E-01
    -2.399E-01   -2.395E-01   -2.390E-01   -2.385E-01   -2.381E-01   -2.376E-01   -2.371E-01   -2.367E-01
 Ala      Conc. = 2.31E+01
