 LCModel (Version 6.3-1L) Copyright: S.W. Provencher.          Ref.: Magn. Reson. Med. 30:672-679 (1993).                
 Slice#2 Row#14 Col#3  PD_05_press_1_raw_act
 36 lines in following concentration table = NCONC+1
    Conc.  %SD /Cr+PCr  Metabolite                                         
  118.154 117%   0.000 Ala                                                 
   54.294  81%   0.000 Asp                                                 
    0.000 999%   0.000 Cr                                                  
    0.000 999%   0.000 PCr                                                 
   44.928  60%   0.000 GABA                                                
   25.537 105%   0.000 Glc                                                 
 1.26E+03  18%   0.000 Gln                                                 
  437.885  66%   0.000 Glu                                                 
    0.000 999%   0.000 GPC                                                 
    0.000 999%   0.000 PCh                                                 
    0.000 999%   0.000 GSH                                                 
  216.867  41%   0.000 Ins                                                 
    0.000 999%   0.000 Lac                                                 
  619.376  20%   0.000 NAA                                                 
  684.430  18%   0.000 NAAG                                                
    2.119 361%   0.000 Scyllo                                              
   33.313 122%   0.000 Tau                                                 
    0.000 999%   0.000 -CrCH2                                              
    0.000 999%   0.000 GPC+PCh                                             
 1.30E+03   3%   0.000 NAA+NAAG                                            
    0.000 999%   0.000 Cr+PCr                                              
 1.70E+03  20%   0.000 Glu+Gln                                             
    0.000 999%   0.000 Lip13a                                              
    0.000 999%   0.000 Lip13b                                              
    0.000 999%   0.000 Lip09                                               
    0.000 999%   0.000 MM09                                                
   14.012 184%   0.000 Lip20                                               
   25.573 126%   0.000 MM20                                                
    0.000 999%   0.000 MM12                                                
    0.000 999%   0.000 MM14                                                
   10.121 236%   0.000 MM17                                                
    0.000 999%   0.000 Lip13a+Lip13b                                       
    0.000 999%   0.000 MM14+Lip13a+Lip13b+MM12                             
    0.000 999%   0.000 MM09+Lip09                                          
   39.585 104%   0.000 MM20+Lip20                                          
   6 lines in following misc. output table
  FWHM = 0.199 ppm    S/N =   7                                            
  Data shift = 0.367 ppm                                                   
  Ph: -33 deg      54.4 deg/ppm                                            
  alphaB,S = 8.3E+00,   2.2E+02                                            
    9 spline knots.   Ns = 9(2)                                            
  (13) 7 infls.   ( 9) 1 extrs.                                            
  498 points on ppm-axis = NY
      4.000000     3.992357     3.984714     3.977070     3.969427     3.961784     3.954141     3.946497     3.938854     3.931211
      3.923568     3.915925     3.908281     3.900638     3.892995     3.885352     3.877708     3.870065     3.862422     3.854779
      3.847136     3.839492     3.831849     3.824206     3.816563     3.808919     3.801276     3.793633     3.785990     3.778347
      3.770703     3.763060     3.755417     3.747774     3.740130     3.732487     3.724844     3.717201     3.709558     3.701914
      3.694271     3.686628     3.678985     3.671341     3.663698     3.656055     3.648412     3.640769     3.633125     3.625482
      3.617839     3.610196     3.602552     3.594909     3.587266     3.579623     3.571980     3.564336     3.556693     3.549050
      3.541407     3.533763     3.526120     3.518477     3.510834     3.503191     3.495547     3.487904     3.480261     3.472618
      3.464974     3.457331     3.449688     3.442045     3.434402     3.426758     3.419115     3.411472     3.403829     3.396185
      3.388542     3.380899     3.373256     3.365613     3.357969     3.350326     3.342683     3.335040     3.327396     3.319753
      3.312110     3.304467     3.296824     3.289180     3.281537     3.273894     3.266251     3.258607     3.250964     3.243321
      3.235678     3.228034     3.220391     3.212748     3.205105     3.197462     3.189818     3.182175     3.174532     3.166889
      3.159245     3.151602     3.143959     3.136316     3.128673     3.121029     3.113386     3.105743     3.098100     3.090456
      3.082813     3.075170     3.067527     3.059884     3.052240     3.044597     3.036954     3.029311     3.021667     3.014024
      3.006381     2.998738     2.991095     2.983451     2.975808     2.968165     2.960522     2.952878     2.945235     2.937592
      2.929949     2.922306     2.914662     2.907019     2.899376     2.891733     2.884089     2.876446     2.868803     2.861160
      2.853517     2.845873     2.838230     2.830587     2.822944     2.815300     2.807657     2.800014     2.792371     2.784728
      2.777084     2.769441     2.761798     2.754155     2.746511     2.738868     2.731225     2.723582     2.715939     2.708295
      2.700652     2.693009     2.685366     2.677722     2.670079     2.662436     2.654793     2.647150     2.639506     2.631863
      2.624220     2.616577     2.608933     2.601290     2.593647     2.586004     2.578361     2.570717     2.563074     2.555431
      2.547788     2.540144     2.532501     2.524858     2.517215     2.509572     2.501928     2.494285     2.486642     2.478999
      2.471355     2.463712     2.456069     2.448426     2.440783     2.433139     2.425496     2.417853     2.410210     2.402566
      2.394923     2.387280     2.379637     2.371994     2.364350     2.356707     2.349064     2.341421     2.333777     2.326134
      2.318491     2.310848     2.303205     2.295561     2.287918     2.280275     2.272632     2.264988     2.257345     2.249702
      2.242059     2.234416     2.226772     2.219129     2.211486     2.203843     2.196199     2.188556     2.180913     2.173270
      2.165627     2.157983     2.150340     2.142697     2.135054     2.127410     2.119767     2.112124     2.104481     2.096838
      2.089194     2.081551     2.073908     2.066265     2.058621     2.050978     2.043335     2.035692     2.028049     2.020405
      2.012762     2.005119     1.997476     1.989833     1.982190     1.974546     1.966903     1.959260     1.951617     1.943974
      1.936331     1.928688     1.921045     1.913402     1.905759     1.898115     1.890472     1.882829     1.875186     1.867543
      1.859900     1.852257     1.844614     1.836971     1.829327     1.821684     1.814041     1.806398     1.798755     1.791112
      1.783469     1.775826     1.768183     1.760540     1.752896     1.745253     1.737610     1.729967     1.722324     1.714681
      1.707038     1.699395     1.691752     1.684108     1.676465     1.668822     1.661179     1.653536     1.645893     1.638250
      1.630607     1.622964     1.615321     1.607677     1.600034     1.592391     1.584748     1.577105     1.569462     1.561819
      1.554176     1.546533     1.538890     1.531246     1.523603     1.515960     1.508317     1.500674     1.493031     1.485388
      1.477745     1.470102     1.462458     1.454815     1.447172     1.439529     1.431886     1.424243     1.416600     1.408957
      1.401314     1.393671     1.386027     1.378384     1.370741     1.363098     1.355455     1.347812     1.340169     1.332526
      1.324883     1.317240     1.309596     1.301953     1.294310     1.286667     1.279024     1.271381     1.263738     1.256095
      1.248452     1.240808     1.233165     1.225522     1.217879     1.210236     1.202593     1.194950     1.187307     1.179664
      1.172021     1.164377     1.156734     1.149091     1.141448     1.133805     1.126162     1.118519     1.110876     1.103233
      1.095590     1.087946     1.080303     1.072660     1.065017     1.057374     1.049731     1.042088     1.034445     1.026802
      1.019158     1.011515     1.003872     0.996229     0.988586     0.980943     0.973300     0.965657     0.958014     0.950371
      0.942727     0.935084     0.927441     0.919798     0.912155     0.904512     0.896869     0.889226     0.881583     0.873940
      0.866296     0.858653     0.851010     0.843367     0.835724     0.828081     0.820438     0.812795     0.805152     0.797508
      0.789865     0.782222     0.774579     0.766936     0.759293     0.751650     0.744007     0.736364     0.728721     0.721077
      0.713434     0.705791     0.698148     0.690505     0.682862     0.675219     0.667576     0.659933     0.652290     0.644646
      0.637003     0.629360     0.621717     0.614074     0.606431     0.598788     0.591145     0.583502     0.575858     0.568215
      0.560572     0.552929     0.545286     0.537643     0.530000     0.522357     0.514714     0.507071     0.499427     0.491784
      0.484141     0.476498     0.468855     0.461212     0.453569     0.445925     0.438282     0.430639     0.422996     0.415353
      0.407710     0.400067     0.392424     0.384780     0.377137     0.369494     0.361851     0.354208     0.346565     0.338922
      0.331278     0.323635     0.315992     0.308349     0.300706     0.293063     0.285420     0.277777     0.270133     0.262490
      0.254847     0.247204     0.239561     0.231918     0.224275     0.216631     0.208988     0.201345
 NY phased data points follow
   2.60385E+00  3.16974E+00 -8.00898E-02  1.40455E+00  1.04175E+00  1.05067E+00  1.56204E-01  1.26271E+00  8.40572E-01  1.45193E+00
   1.14508E+00  5.14460E-01  1.27487E+00  1.61821E+00  1.95457E+00  1.92752E-01  2.22868E+00  2.26240E+00 -2.76703E-02  2.09576E+00
   6.19651E-01  1.45436E+00  1.81139E+00  1.18731E+00  5.40190E-01  2.08759E+00  1.75258E+00  3.32604E+00 -4.43868E-02  9.43163E-01
   9.77516E-01  2.57249E+00  1.62495E+00  1.60874E+00  1.38519E+00  1.98287E+00  1.23070E+00  1.07494E+00  5.62357E-01  6.77386E-01
   1.13449E+00  2.66460E+00  1.48949E+00  2.31064E+00  1.02193E+00  2.42248E+00  1.59230E+00  2.15675E+00  2.39589E+00  2.14796E+00
   6.63401E-01  5.86616E-01  9.22348E-02  1.70375E+00  8.99271E-01  1.70154E+00  1.18362E+00  1.14847E+00  1.04027E+00 -1.34099E-01
   7.97226E-01  1.75771E+00  3.44654E+00  2.54773E+00  1.75578E+00  2.12003E-01  1.55071E+00  9.69424E-01  2.52918E+00  1.81851E+00
   1.70707E+00  7.59331E-01  2.65521E-01  1.39994E+00 -6.22592E-01  1.49114E+00  2.98180E-02  4.41274E-01  1.17682E+00 -4.77361E-01
   5.24370E-01  1.04007E+00  1.14598E+00 -2.91353E-01  2.40594E+00 -6.52173E-01  9.81523E-01  6.57504E-01  3.77466E-01  1.48730E+00
   1.02979E+00  1.99316E+00  5.57549E-01  1.27249E+00  7.10945E-01  1.76589E+00  1.35956E+00  1.21695E+00  2.64267E+00  2.91253E+00
   7.86255E-01  8.71713E-01  9.71451E-01  3.07676E+00  2.29814E+00  3.73036E-01  1.20257E+00  2.44235E+00  6.27039E-01  5.35173E-01
   2.20297E+00  1.14879E+00  6.14073E-01  2.16375E+00  2.23617E+00  6.99516E-01  1.82747E+00  1.80206E+00  2.36454E+00  1.11426E+00
   1.02578E+00  1.63882E+00  4.17145E-01  2.48568E+00  2.09029E+00  2.76674E+00  1.97157E+00  2.14009E+00  1.63264E+00  1.69675E+00
   2.31374E+00  1.09415E+00  1.84085E+00  1.60358E+00  2.15702E+00  1.12410E+00  1.82099E+00  2.44295E+00  1.15724E+00  2.96296E+00
   2.19488E+00  2.01701E+00  1.51465E+00  2.19548E+00  1.20750E+00  2.51032E+00  2.81314E+00  1.66854E+00  1.40287E+00  1.08430E+00
   2.17650E+00  1.41782E+00  2.45828E+00  1.56739E+00  3.03364E-02  1.82374E+00  2.43314E+00  1.21202E+00  1.73911E+00  2.05059E+00
   8.78228E-01  2.40182E+00  1.18071E+00  1.99350E+00  2.67609E+00  1.31970E+00  2.80418E+00  1.11365E+00  2.28486E+00  7.57461E-01
   1.88818E+00  1.57784E+00  2.30552E+00  1.78545E+00 -1.20849E-01  1.68227E+00  2.18028E+00  2.03838E+00  1.86693E+00  1.96992E+00
   1.88494E+00  1.14112E+00  2.71863E+00  3.05701E+00  1.99349E+00  2.31452E+00  1.89917E+00  2.70719E+00  9.39431E-01  2.43070E+00
   2.17974E+00  1.20084E+00  4.13834E+00  2.94796E+00  2.83752E+00  4.58177E+00  2.55810E+00  3.59897E+00  2.95318E+00  2.30182E+00
   1.49524E+00  5.44263E+00  2.86177E+00  4.27546E+00  3.44583E+00  2.81656E+00  3.72329E+00  4.18617E+00  3.62262E+00  3.43071E+00
   2.50256E+00  3.32049E+00  2.95002E+00  3.32930E+00  2.40097E+00  3.07963E+00  4.42556E+00  4.22627E+00  1.92968E+00  2.88759E+00
   2.43782E+00  2.08834E+00  2.41347E+00  2.83202E+00  2.92681E+00  3.90824E+00  3.09886E+00  5.11991E+00  5.02865E+00  5.20764E+00
   5.96609E+00  5.47682E+00  6.78020E+00  6.63371E+00  6.61228E+00  5.58289E+00  5.46443E+00  6.17498E+00  6.56440E+00  5.46709E+00
   6.56541E+00  8.90100E+00  6.50800E+00  8.76490E+00  9.10120E+00  9.57801E+00  9.02303E+00  1.05455E+01  1.03153E+01  1.16562E+01
   1.03843E+01  1.10705E+01  1.33560E+01  1.39863E+01  1.32033E+01  1.45940E+01  1.48118E+01  1.59926E+01  1.63456E+01  1.73038E+01
   1.76562E+01  1.56646E+01  1.65777E+01  1.72616E+01  1.74818E+01  1.67990E+01  1.67209E+01  1.71815E+01  1.27804E+01  1.47361E+01
   1.40437E+01  1.26299E+01  1.23004E+01  1.07781E+01  1.00486E+01  1.01042E+01  9.43563E+00  9.19838E+00  8.85989E+00  7.62911E+00
   6.88199E+00  7.51205E+00  7.05837E+00  4.56592E+00  5.71563E+00  5.80509E+00  4.78034E+00  5.20030E+00  5.91022E+00  4.92173E+00
   4.40213E+00  5.51389E+00  4.10208E+00  3.93475E+00  3.31812E+00  3.73696E+00  5.51747E+00  4.87681E+00  3.62635E+00  2.91396E+00
   5.55975E+00  5.17492E+00  4.76660E+00  4.12844E+00  4.34789E+00  4.60259E+00  4.39959E+00  4.46994E+00  4.17057E+00  5.04334E+00
   3.69736E+00  4.07942E+00  3.87851E+00  5.19847E+00  2.68647E+00  5.12590E+00  2.61032E+00  4.31008E+00  5.10927E+00  5.92103E+00
   4.44897E+00  6.03351E+00  4.46537E+00  5.56651E+00  6.02582E+00  4.69453E+00  4.70123E+00  5.74337E+00  4.14140E+00  4.31474E+00
   4.88782E+00  2.99963E+00  4.78558E+00  5.45422E+00  3.16647E+00  3.26966E+00  5.64482E+00  3.59229E+00  4.34991E+00  3.26730E+00
   3.73911E+00  3.56061E+00  2.56269E+00  4.54563E+00  3.58551E+00  3.63194E+00  4.74218E+00  4.64991E+00  2.84848E+00  3.79156E+00
   4.93953E+00  4.18498E+00  4.19685E+00  2.48649E+00  4.41294E+00  4.46331E+00  3.93656E+00  5.50363E+00  2.91695E+00  3.48391E+00
   2.62354E+00  4.71174E+00  3.57200E+00  3.07758E+00  3.71642E+00  2.29690E+00  2.79796E+00  3.13798E+00  4.64705E+00  3.64688E+00
   3.12992E+00  3.07536E+00  2.27113E+00  3.09442E+00  2.22156E+00  2.85031E+00  2.86656E+00  3.40295E+00  2.94463E+00  2.99719E+00
   2.72600E+00  4.86927E+00  3.53673E+00  2.38837E+00  4.02559E+00  3.40676E+00  3.07949E+00  2.99061E+00  1.97407E+00  4.35020E+00
   3.41835E+00  2.94564E+00  2.44382E+00  2.60202E+00  3.05486E+00  2.24793E+00  2.89506E+00  4.20351E+00  2.42410E+00  3.40928E+00
   2.56102E+00  2.55143E+00  3.13843E+00  2.20479E+00  3.07376E+00  2.45315E+00  1.33144E+00  8.65023E-01  2.51559E+00  2.16893E+00
   3.35020E+00  2.21484E+00  2.85025E+00  2.02098E+00  2.58532E+00  2.54021E+00  1.82424E+00  3.07696E+00  1.76166E+00  3.19698E+00
   2.13054E+00  2.94457E+00  1.39060E+00  1.25440E+00  2.23062E+00  3.11356E+00  4.02950E+00  2.42072E+00  2.59398E+00  3.28523E+00
   1.20918E+00  1.89400E+00  2.16134E+00  2.49507E+00  1.67042E+00  2.47964E+00  4.03561E+00  3.12055E+00  3.02122E+00  3.31828E+00
   1.97584E+00  1.92880E+00  3.66849E+00  3.27104E+00  1.93183E+00  1.83634E+00  2.06603E+00  3.36569E+00  2.25487E+00  1.50405E+00
   2.33147E+00  1.62171E+00  4.78343E+00  1.71323E+00  1.89368E+00  2.08064E+00  2.41930E+00  2.69589E+00  2.75718E+00  2.14706E+00
   1.87146E+00  2.93497E+00  1.79552E+00  2.38027E+00  3.38299E+00  8.87431E-01  2.23633E+00  1.69112E+00  1.86360E+00  2.25596E+00
   3.53235E+00  2.46324E+00  2.96936E+00  2.53605E+00  2.79353E+00  2.92663E+00  2.31363E+00  2.51728E+00  3.26197E+00  2.42750E+00
   2.40194E+00  3.74554E+00  2.76853E+00  2.61315E+00  1.79100E+00  2.71328E+00  2.04546E+00  9.99248E-01  2.36996E+00  1.39859E+00
   2.46052E+00  3.72329E+00  3.21021E+00  2.56147E+00  3.53335E+00  1.95562E+00  1.68001E+00  2.41175E+00
 NY points of the fit to the data follow
   1.38737E+00  1.38029E+00  1.37131E+00  1.38543E+00  1.38275E+00  1.40832E+00  1.40554E+00  1.37868E+00  1.29385E+00  1.28655E+00
   1.21498E+00  1.28932E+00  1.27583E+00  1.48346E+00  1.52222E+00  1.65604E+00  1.64989E+00  1.70856E+00  1.66748E+00  1.67749E+00
   1.69266E+00  1.72165E+00  1.73359E+00  1.76711E+00  1.75945E+00  1.77741E+00  1.75036E+00  1.77726E+00  1.76574E+00  1.81646E+00
   1.83879E+00  1.87059E+00  1.91649E+00  1.87924E+00  1.91437E+00  1.77767E+00  1.79057E+00  1.60621E+00  1.62877E+00  1.48069E+00
   1.53945E+00  1.46500E+00  1.56523E+00  1.53364E+00  1.65543E+00  1.59904E+00  1.69242E+00  1.52550E+00  1.44098E+00  1.26886E+00
   1.15016E+00  1.12107E+00  1.05797E+00  1.26822E+00  1.26604E+00  1.40379E+00  1.33023E+00  1.36594E+00  1.25979E+00  1.22480E+00
   1.18732E+00  1.18954E+00  1.15250E+00  1.15032E+00  1.11432E+00  1.11100E+00  1.09164E+00  1.11134E+00  1.12441E+00  1.17213E+00
   1.18787E+00  1.21207E+00  1.21021E+00  1.22045E+00  1.21201E+00  1.20791E+00  1.19729E+00  1.18272E+00  1.17887E+00  1.15730E+00
   1.16683E+00  1.15414E+00  1.17093E+00  1.15638E+00  1.16949E+00  1.13997E+00  1.15416E+00  1.11646E+00  1.13850E+00  1.10230E+00
   1.13327E+00  1.10647E+00  1.14411E+00  1.13268E+00  1.18165E+00  1.17411E+00  1.22692E+00  1.22520E+00  1.27548E+00  1.27202E+00
   1.31654E+00  1.31492E+00  1.35440E+00  1.36527E+00  1.40443E+00  1.42522E+00  1.46210E+00  1.48808E+00  1.51690E+00  1.53445E+00
   1.55389E+00  1.56963E+00  1.59016E+00  1.60929E+00  1.62844E+00  1.64812E+00  1.66599E+00  1.68625E+00  1.70962E+00  1.72353E+00
   1.75039E+00  1.75979E+00  1.78430E+00  1.78920E+00  1.81070E+00  1.81239E+00  1.83516E+00  1.84121E+00  1.86525E+00  1.87032E+00
   1.89306E+00  1.89449E+00  1.91503E+00  1.91279E+00  1.92932E+00  1.91622E+00  1.92570E+00  1.91963E+00  1.93146E+00  1.93805E+00
   1.95356E+00  1.95180E+00  1.94952E+00  1.93405E+00  1.91820E+00  1.90260E+00  1.88414E+00  1.88177E+00  1.85459E+00  1.84883E+00
   1.80779E+00  1.79117E+00  1.75093E+00  1.75184E+00  1.70441E+00  1.71362E+00  1.64388E+00  1.64630E+00  1.57235E+00  1.56840E+00
   1.51403E+00  1.50289E+00  1.45132E+00  1.42170E+00  1.36580E+00  1.37084E+00  1.33895E+00  1.36939E+00  1.35242E+00  1.38772E+00
   1.39224E+00  1.45089E+00  1.47920E+00  1.55804E+00  1.59015E+00  1.63808E+00  1.64541E+00  1.69948E+00  1.68869E+00  1.78777E+00
   1.79695E+00  1.93340E+00  1.95030E+00  2.16936E+00  2.21788E+00  2.51060E+00  2.56993E+00  2.93654E+00  2.91121E+00  3.22219E+00
   3.05323E+00  3.21130E+00  2.86368E+00  3.16177E+00  2.78754E+00  3.18643E+00  2.77959E+00  3.30844E+00  2.87577E+00  3.46660E+00
   3.03947E+00  3.64053E+00  3.17342E+00  3.71944E+00  3.17876E+00  3.71920E+00  3.14288E+00  3.64049E+00  3.02089E+00  3.48224E+00
   2.88786E+00  3.41271E+00  2.92598E+00  3.54244E+00  3.20673E+00  3.81421E+00  3.54976E+00  3.97898E+00  3.57345E+00  3.89107E+00
   3.48483E+00  3.77049E+00  3.50057E+00  3.90398E+00  3.78022E+00  4.24313E+00  4.29880E+00  4.76898E+00  4.82951E+00  5.10466E+00
   5.00475E+00  4.93942E+00  4.59544E+00  4.57973E+00  4.33108E+00  4.41722E+00  4.37848E+00  5.05307E+00  5.26530E+00  5.92986E+00
   6.21754E+00  6.76245E+00  7.30800E+00  8.02946E+00  8.44426E+00  9.14023E+00  9.47463E+00  1.01510E+01  1.04818E+01  1.11555E+01
   1.14888E+01  1.22445E+01  1.26380E+01  1.34567E+01  1.38956E+01  1.46793E+01  1.51302E+01  1.57456E+01  1.59927E+01  1.64360E+01
   1.65372E+01  1.69216E+01  1.68239E+01  1.73067E+01  1.68596E+01  1.71465E+01  1.64115E+01  1.63801E+01  1.54415E+01  1.52008E+01
   1.41143E+01  1.35799E+01  1.23026E+01  1.15912E+01  1.01995E+01  9.57856E+00  8.21895E+00  8.05735E+00  7.01743E+00  6.55127E+00
   5.74346E+00  5.15220E+00  4.89666E+00  4.82410E+00  4.70336E+00  4.70096E+00  4.60836E+00  4.62370E+00  4.55037E+00  4.56295E+00
   4.49478E+00  4.49872E+00  4.43659E+00  4.44247E+00  4.40018E+00  4.41394E+00  4.39415E+00  4.40992E+00  4.39106E+00  4.39482E+00
   4.37895E+00  4.37065E+00  4.35931E+00  4.34330E+00  4.34155E+00  4.33249E+00  4.33855E+00  4.33741E+00  4.36271E+00  4.38966E+00
   4.39360E+00  4.40389E+00  4.38163E+00  4.37922E+00  4.34338E+00  4.32725E+00  4.26828E+00  4.27497E+00  4.23959E+00  4.25838E+00
   4.23248E+00  4.24735E+00  4.23062E+00  4.24507E+00  4.23377E+00  4.24561E+00  4.23500E+00  4.24183E+00  4.22918E+00  4.21881E+00
   4.19556E+00  4.15903E+00  4.13526E+00  4.07995E+00  4.07357E+00  4.02094E+00  4.04110E+00  3.99430E+00  4.04247E+00  3.99093E+00
   4.05164E+00  3.98421E+00  4.03366E+00  3.94510E+00  3.98948E+00  3.89364E+00  3.95118E+00  3.88075E+00  3.96730E+00  3.96256E+00
   4.04422E+00  4.02732E+00  4.08381E+00  4.04720E+00  4.05485E+00  3.99693E+00  3.94556E+00  3.90794E+00  3.87747E+00  3.85126E+00
   3.82790E+00  3.80655E+00  3.78670E+00  3.76800E+00  3.75021E+00  3.73314E+00  3.71665E+00  3.70064E+00  3.68502E+00  3.66974E+00
   3.65474E+00  3.63997E+00  3.62540E+00  3.61099E+00  3.59672E+00  3.58258E+00  3.56853E+00  3.55457E+00  3.54067E+00  3.52683E+00
   3.51304E+00  3.49929E+00  3.48557E+00  3.47187E+00  3.45818E+00  3.44450E+00  3.43083E+00  3.41715E+00  3.40347E+00  3.38978E+00
   3.37608E+00  3.36236E+00  3.34862E+00  3.33486E+00  3.32108E+00  3.30727E+00  3.29344E+00  3.27958E+00  3.26568E+00  3.25176E+00
   3.23779E+00  3.22380E+00  3.20976E+00  3.19570E+00  3.18159E+00  3.16744E+00  3.15325E+00  3.13901E+00  3.12474E+00  3.11043E+00
   3.09607E+00  3.08166E+00  3.06721E+00  3.05272E+00  3.03817E+00  3.02359E+00  3.00895E+00  2.99427E+00  2.97953E+00  2.96474E+00
   2.94991E+00  2.93501E+00  2.92007E+00  2.90506E+00  2.89001E+00  2.87489E+00  2.85972E+00  2.84448E+00  2.82919E+00  2.81383E+00
   2.79842E+00  2.78294E+00  2.76740E+00  2.75179E+00  2.73611E+00  2.72037E+00  2.70456E+00  2.68868E+00  2.67274E+00  2.65672E+00
   2.64063E+00  2.62447E+00  2.60824E+00  2.59193E+00  2.57555E+00  2.55909E+00  2.54255E+00  2.52593E+00  2.50923E+00  2.49246E+00
   2.47560E+00  2.45865E+00  2.44162E+00  2.42451E+00  2.40731E+00  2.39002E+00  2.37264E+00  2.35516E+00  2.33759E+00  2.31993E+00
   2.30217E+00  2.28431E+00  2.26634E+00  2.24827E+00  2.23010E+00  2.21181E+00  2.19342E+00  2.17490E+00  2.15627E+00  2.13752E+00
   2.11864E+00  2.09963E+00  2.08049E+00  2.06120E+00  2.04178E+00  2.02220E+00  2.00247E+00  1.98257E+00  1.96250E+00  1.94225E+00
   1.92181E+00  1.90117E+00  1.88032E+00  1.85924E+00  1.83792E+00  1.81634E+00  1.79448E+00  1.77232E+00  1.74984E+00  1.72699E+00
   1.70375E+00  1.68007E+00  1.65590E+00  1.63118E+00  1.60583E+00  1.57976E+00  1.55283E+00  1.52490E+00
 NY background values follow
     3.242E-01    3.325E-01    3.409E-01    3.494E-01    3.579E-01    3.665E-01    3.752E-01    3.840E-01    3.928E-01    4.018E-01
     4.108E-01    4.198E-01    4.290E-01    4.383E-01    4.476E-01    4.570E-01    4.664E-01    4.760E-01    4.856E-01    4.953E-01
     5.051E-01    5.149E-01    5.248E-01    5.348E-01    5.448E-01    5.550E-01    5.652E-01    5.754E-01    5.858E-01    5.962E-01
     6.067E-01    6.172E-01    6.278E-01    6.385E-01    6.493E-01    6.601E-01    6.710E-01    6.819E-01    6.929E-01    7.040E-01
     7.151E-01    7.263E-01    7.376E-01    7.489E-01    7.603E-01    7.717E-01    7.832E-01    7.948E-01    8.064E-01    8.181E-01
     8.298E-01    8.416E-01    8.534E-01    8.653E-01    8.773E-01    8.893E-01    9.013E-01    9.135E-01    9.256E-01    9.378E-01
     9.501E-01    9.624E-01    9.748E-01    9.872E-01    9.996E-01    1.012E+00    1.025E+00    1.037E+00    1.050E+00    1.063E+00
     1.075E+00    1.088E+00    1.101E+00    1.114E+00    1.127E+00    1.140E+00    1.153E+00    1.166E+00    1.179E+00    1.192E+00
     1.205E+00    1.218E+00    1.231E+00    1.244E+00    1.258E+00    1.271E+00    1.284E+00    1.298E+00    1.311E+00    1.324E+00
     1.338E+00    1.351E+00    1.365E+00    1.378E+00    1.392E+00    1.405E+00    1.419E+00    1.432E+00    1.446E+00    1.460E+00
     1.473E+00    1.487E+00    1.501E+00    1.514E+00    1.528E+00    1.542E+00    1.555E+00    1.569E+00    1.583E+00    1.597E+00
     1.610E+00    1.624E+00    1.638E+00    1.652E+00    1.666E+00    1.679E+00    1.693E+00    1.707E+00    1.721E+00    1.735E+00
     1.748E+00    1.762E+00    1.776E+00    1.790E+00    1.804E+00    1.817E+00    1.831E+00    1.845E+00    1.859E+00    1.872E+00
     1.886E+00    1.900E+00    1.914E+00    1.927E+00    1.941E+00    1.955E+00    1.968E+00    1.982E+00    1.996E+00    2.009E+00
     2.023E+00    2.036E+00    2.050E+00    2.063E+00    2.077E+00    2.090E+00    2.104E+00    2.117E+00    2.130E+00    2.144E+00
     2.157E+00    2.170E+00    2.183E+00    2.197E+00    2.210E+00    2.223E+00    2.236E+00    2.249E+00    2.262E+00    2.275E+00
     2.288E+00    2.301E+00    2.314E+00    2.327E+00    2.339E+00    2.352E+00    2.365E+00    2.377E+00    2.390E+00    2.402E+00
     2.415E+00    2.427E+00    2.440E+00    2.452E+00    2.464E+00    2.476E+00    2.488E+00    2.501E+00    2.513E+00    2.524E+00
     2.536E+00    2.548E+00    2.560E+00    2.572E+00    2.583E+00    2.595E+00    2.606E+00    2.618E+00    2.629E+00    2.640E+00
     2.651E+00    2.662E+00    2.674E+00    2.684E+00    2.695E+00    2.706E+00    2.717E+00    2.728E+00    2.738E+00    2.749E+00
     2.759E+00    2.769E+00    2.779E+00    2.790E+00    2.800E+00    2.810E+00    2.819E+00    2.829E+00    2.839E+00    2.848E+00
     2.858E+00    2.867E+00    2.877E+00    2.886E+00    2.895E+00    2.904E+00    2.913E+00    2.922E+00    2.930E+00    2.939E+00
     2.947E+00    2.956E+00    2.964E+00    2.972E+00    2.980E+00    2.988E+00    2.996E+00    3.004E+00    3.011E+00    3.019E+00
     3.026E+00    3.033E+00    3.041E+00    3.048E+00    3.055E+00    3.061E+00    3.068E+00    3.075E+00    3.081E+00    3.087E+00
     3.094E+00    3.100E+00    3.106E+00    3.111E+00    3.117E+00    3.123E+00    3.128E+00    3.134E+00    3.139E+00    3.144E+00
     3.149E+00    3.154E+00    3.158E+00    3.163E+00    3.167E+00    3.172E+00    3.176E+00    3.180E+00    3.184E+00    3.187E+00
     3.191E+00    3.195E+00    3.198E+00    3.201E+00    3.204E+00    3.207E+00    3.210E+00    3.213E+00    3.216E+00    3.218E+00
     3.221E+00    3.223E+00    3.225E+00    3.227E+00    3.229E+00    3.231E+00    3.232E+00    3.234E+00    3.235E+00    3.236E+00
     3.237E+00    3.238E+00    3.239E+00    3.240E+00    3.240E+00    3.241E+00    3.241E+00    3.241E+00    3.241E+00    3.241E+00
     3.241E+00    3.241E+00    3.241E+00    3.240E+00    3.239E+00    3.239E+00    3.238E+00    3.237E+00    3.236E+00    3.234E+00
     3.233E+00    3.231E+00    3.230E+00    3.228E+00    3.226E+00    3.224E+00    3.222E+00    3.220E+00    3.217E+00    3.215E+00
     3.212E+00    3.210E+00    3.207E+00    3.204E+00    3.201E+00    3.198E+00    3.194E+00    3.191E+00    3.187E+00    3.184E+00
     3.180E+00    3.176E+00    3.172E+00    3.168E+00    3.164E+00    3.160E+00    3.155E+00    3.151E+00    3.146E+00    3.141E+00
     3.136E+00    3.131E+00    3.126E+00    3.121E+00    3.116E+00    3.110E+00    3.105E+00    3.099E+00    3.094E+00    3.088E+00
     3.082E+00    3.076E+00    3.070E+00    3.064E+00    3.057E+00    3.051E+00    3.044E+00    3.038E+00    3.031E+00    3.024E+00
     3.017E+00    3.010E+00    3.003E+00    2.996E+00    2.989E+00    2.981E+00    2.974E+00    2.966E+00    2.959E+00    2.951E+00
     2.943E+00    2.935E+00    2.927E+00    2.919E+00    2.911E+00    2.903E+00    2.894E+00    2.886E+00    2.877E+00    2.869E+00
     2.860E+00    2.851E+00    2.842E+00    2.834E+00    2.825E+00    2.815E+00    2.806E+00    2.797E+00    2.788E+00    2.778E+00
     2.769E+00    2.759E+00    2.750E+00    2.740E+00    2.730E+00    2.720E+00    2.711E+00    2.701E+00    2.691E+00    2.680E+00
     2.670E+00    2.660E+00    2.650E+00    2.639E+00    2.629E+00    2.618E+00    2.608E+00    2.597E+00    2.586E+00    2.576E+00
     2.565E+00    2.554E+00    2.543E+00    2.532E+00    2.521E+00    2.509E+00    2.498E+00    2.487E+00    2.476E+00    2.464E+00
     2.453E+00    2.441E+00    2.430E+00    2.418E+00    2.406E+00    2.394E+00    2.383E+00    2.371E+00    2.359E+00    2.347E+00
     2.335E+00    2.322E+00    2.310E+00    2.298E+00    2.286E+00    2.273E+00    2.261E+00    2.248E+00    2.236E+00    2.223E+00
     2.211E+00    2.198E+00    2.185E+00    2.172E+00    2.159E+00    2.146E+00    2.133E+00    2.120E+00    2.107E+00    2.094E+00
     2.080E+00    2.067E+00    2.054E+00    2.040E+00    2.026E+00    2.013E+00    1.999E+00    1.985E+00    1.972E+00    1.958E+00
     1.944E+00    1.930E+00    1.916E+00    1.901E+00    1.887E+00    1.873E+00    1.859E+00    1.844E+00    1.830E+00    1.815E+00
     1.801E+00    1.786E+00    1.771E+00    1.756E+00    1.742E+00    1.727E+00    1.712E+00    1.697E+00    1.682E+00    1.666E+00
     1.651E+00    1.636E+00    1.620E+00    1.605E+00    1.590E+00    1.574E+00    1.558E+00    1.543E+00    1.527E+00    1.511E+00
     1.495E+00    1.479E+00    1.463E+00    1.447E+00    1.431E+00    1.415E+00    1.399E+00    1.382E+00    1.366E+00    1.350E+00
     1.333E+00    1.317E+00    1.300E+00    1.283E+00    1.266E+00    1.250E+00    1.233E+00    1.216E+00
 Ala      Conc. = 1.18E+02
