 LCModel (Version 6.3-1L) Copyright: S.W. Provencher.          Ref.: Magn. Reson. Med. 30:672-679 (1993).                
 Slice#2 Row#4 Col#3  PD_05_press_1_raw_act
 36 lines in following concentration table = NCONC+1
    Conc.  %SD /Cr+PCr  Metabolite                                         
   11.709 428% 7.5E-02 Ala                                                 
   33.021  90%   0.210 Asp                                                 
   32.594 238%   0.207 Cr                                                  
  124.504  62%   0.793 PCr                                                 
   14.193 127% 9.0E-02 GABA                                                
    3.778 476% 2.4E-02 Glc                                                 
    0.000 999%   0.000 Gln                                                 
  228.200  52%   1.453 Glu                                                 
   31.877  27%   0.203 GPC                                                 
    0.000 999%   0.000 PCh                                                 
   53.628  60%   0.341 GSH                                                 
   35.501 325%   0.226 Ins                                                 
    0.000 999%   0.000 Lac                                                 
  284.268  15%   1.809 NAA                                                 
   33.954 132%   0.216 NAAG                                                
    5.587 100% 3.6E-02 Scyllo                                              
    0.000 999%   0.000 Tau                                                 
    0.000 999%   0.000 -CrCH2                                              
   31.877  27%   0.203 GPC+PCh                                             
  318.221  11%   2.026 NAA+NAAG                                            
  157.099  15%   1.000 Cr+PCr                                              
  228.200  52%   1.453 Glu+Gln                                             
    0.000 999%   0.000 Lip13a                                              
    0.000 999%   0.000 Lip13b                                              
 6.17E-04 999% 3.9E-06 Lip09                                               
  473.185  17%   3.012 MM09                                                
 5.95E-04 999% 3.8E-06 Lip20                                               
 1.02E+03  16%   6.519 MM20                                                
   46.636 142%   0.297 MM12                                                
    0.000 999%   0.000 MM14                                                
  249.856  37%   1.590 MM17                                                
    0.000 999%   0.000 Lip13a+Lip13b                                       
   46.636 142%   0.297 MM14+Lip13a+Lip13b+MM12                             
  473.186  17%   3.012 MM09+Lip09                                          
 1.02E+03  16%   6.519 MM20+Lip20                                          
   6 lines in following misc. output table
  FWHM = 0.061 ppm    S/N =   4                                            
  Data shift = 0.038 ppm                                                   
  Ph:  42 deg      15.2 deg/ppm                                            
  alphaB,S = 9.7E-01,   8.1E+01                                            
   14 spline knots.   Ns = 8(1)                                            
   2 inflections.     1 extrema                                            
  498 points on ppm-axis = NY
      4.000000     3.992357     3.984714     3.977070     3.969427     3.961784     3.954141     3.946497     3.938854     3.931211
      3.923568     3.915925     3.908281     3.900638     3.892995     3.885352     3.877708     3.870065     3.862422     3.854779
      3.847136     3.839492     3.831849     3.824206     3.816563     3.808919     3.801276     3.793633     3.785990     3.778347
      3.770703     3.763060     3.755417     3.747774     3.740130     3.732487     3.724844     3.717201     3.709558     3.701914
      3.694271     3.686628     3.678985     3.671341     3.663698     3.656055     3.648412     3.640769     3.633125     3.625482
      3.617839     3.610196     3.602552     3.594909     3.587266     3.579623     3.571980     3.564336     3.556693     3.549050
      3.541407     3.533763     3.526120     3.518477     3.510834     3.503191     3.495547     3.487904     3.480261     3.472618
      3.464974     3.457331     3.449688     3.442045     3.434402     3.426758     3.419115     3.411472     3.403829     3.396185
      3.388542     3.380899     3.373256     3.365613     3.357969     3.350326     3.342683     3.335040     3.327396     3.319753
      3.312110     3.304467     3.296824     3.289180     3.281537     3.273894     3.266251     3.258607     3.250964     3.243321
      3.235678     3.228034     3.220391     3.212748     3.205105     3.197462     3.189818     3.182175     3.174532     3.166889
      3.159245     3.151602     3.143959     3.136316     3.128673     3.121029     3.113386     3.105743     3.098100     3.090456
      3.082813     3.075170     3.067527     3.059884     3.052240     3.044597     3.036954     3.029311     3.021667     3.014024
      3.006381     2.998738     2.991095     2.983451     2.975808     2.968165     2.960522     2.952878     2.945235     2.937592
      2.929949     2.922306     2.914662     2.907019     2.899376     2.891733     2.884089     2.876446     2.868803     2.861160
      2.853517     2.845873     2.838230     2.830587     2.822944     2.815300     2.807657     2.800014     2.792371     2.784728
      2.777084     2.769441     2.761798     2.754155     2.746511     2.738868     2.731225     2.723582     2.715939     2.708295
      2.700652     2.693009     2.685366     2.677722     2.670079     2.662436     2.654793     2.647150     2.639506     2.631863
      2.624220     2.616577     2.608933     2.601290     2.593647     2.586004     2.578361     2.570717     2.563074     2.555431
      2.547788     2.540144     2.532501     2.524858     2.517215     2.509572     2.501928     2.494285     2.486642     2.478999
      2.471355     2.463712     2.456069     2.448426     2.440783     2.433139     2.425496     2.417853     2.410210     2.402566
      2.394923     2.387280     2.379637     2.371994     2.364350     2.356707     2.349064     2.341421     2.333777     2.326134
      2.318491     2.310848     2.303205     2.295561     2.287918     2.280275     2.272632     2.264988     2.257345     2.249702
      2.242059     2.234416     2.226772     2.219129     2.211486     2.203843     2.196199     2.188556     2.180913     2.173270
      2.165627     2.157983     2.150340     2.142697     2.135054     2.127410     2.119767     2.112124     2.104481     2.096838
      2.089194     2.081551     2.073908     2.066265     2.058621     2.050978     2.043335     2.035692     2.028049     2.020405
      2.012762     2.005119     1.997476     1.989833     1.982190     1.974546     1.966903     1.959260     1.951617     1.943974
      1.936331     1.928688     1.921045     1.913402     1.905759     1.898115     1.890472     1.882829     1.875186     1.867543
      1.859900     1.852257     1.844614     1.836971     1.829327     1.821684     1.814041     1.806398     1.798755     1.791112
      1.783469     1.775826     1.768183     1.760540     1.752896     1.745253     1.737610     1.729967     1.722324     1.714681
      1.707038     1.699395     1.691752     1.684108     1.676465     1.668822     1.661179     1.653536     1.645893     1.638250
      1.630607     1.622964     1.615321     1.607677     1.600034     1.592391     1.584748     1.577105     1.569462     1.561819
      1.554176     1.546533     1.538890     1.531246     1.523603     1.515960     1.508317     1.500674     1.493031     1.485388
      1.477745     1.470102     1.462458     1.454815     1.447172     1.439529     1.431886     1.424243     1.416600     1.408957
      1.401314     1.393671     1.386027     1.378384     1.370741     1.363098     1.355455     1.347812     1.340169     1.332526
      1.324883     1.317240     1.309596     1.301953     1.294310     1.286667     1.279024     1.271381     1.263738     1.256095
      1.248452     1.240808     1.233165     1.225522     1.217879     1.210236     1.202593     1.194950     1.187307     1.179664
      1.172021     1.164377     1.156734     1.149091     1.141448     1.133805     1.126162     1.118519     1.110876     1.103233
      1.095590     1.087946     1.080303     1.072660     1.065017     1.057374     1.049731     1.042088     1.034445     1.026802
      1.019158     1.011515     1.003872     0.996229     0.988586     0.980943     0.973300     0.965657     0.958014     0.950371
      0.942727     0.935084     0.927441     0.919798     0.912155     0.904512     0.896869     0.889226     0.881583     0.873940
      0.866296     0.858653     0.851010     0.843367     0.835724     0.828081     0.820438     0.812795     0.805152     0.797508
      0.789865     0.782222     0.774579     0.766936     0.759293     0.751650     0.744007     0.736364     0.728721     0.721077
      0.713434     0.705791     0.698148     0.690505     0.682862     0.675219     0.667576     0.659933     0.652290     0.644646
      0.637003     0.629360     0.621717     0.614074     0.606431     0.598788     0.591145     0.583502     0.575858     0.568215
      0.560572     0.552929     0.545286     0.537643     0.530000     0.522357     0.514714     0.507071     0.499427     0.491784
      0.484141     0.476498     0.468855     0.461212     0.453569     0.445925     0.438282     0.430639     0.422996     0.415353
      0.407710     0.400067     0.392424     0.384780     0.377137     0.369494     0.361851     0.354208     0.346565     0.338922
      0.331278     0.323635     0.315992     0.308349     0.300706     0.293063     0.285420     0.277777     0.270133     0.262490
      0.254847     0.247204     0.239561     0.231918     0.224275     0.216631     0.208988     0.201345
 NY phased data points follow
   4.98712E+01  5.05095E+01  4.95848E+01  4.81288E+01  4.71687E+01  4.82355E+01  4.79385E+01  4.85546E+01  4.59883E+01  4.76380E+01
   4.69600E+01  4.75594E+01  4.56451E+01  4.53080E+01  4.46332E+01  4.28588E+01  4.09033E+01  4.21581E+01  4.27783E+01  4.10164E+01
   4.09540E+01  4.04199E+01  3.90000E+01  3.72266E+01  4.03116E+01  3.65664E+01  3.81234E+01  3.76494E+01  3.49752E+01  3.74634E+01
   3.57729E+01  3.70689E+01  3.68407E+01  3.58768E+01  3.33201E+01  3.71109E+01  3.28422E+01  3.39733E+01  3.32306E+01  3.20368E+01
   3.28122E+01  3.15663E+01  3.19408E+01  3.29615E+01  3.18246E+01  3.20976E+01  3.35194E+01  2.99806E+01  3.19737E+01  2.95761E+01
   2.92203E+01  2.65532E+01  2.82772E+01  2.81179E+01  2.68565E+01  2.64401E+01  2.63875E+01  2.61999E+01  2.68875E+01  2.64765E+01
   2.57886E+01  2.49965E+01  2.18850E+01  2.37980E+01  2.09998E+01  2.11132E+01  2.26803E+01  2.21279E+01  2.10321E+01  2.09251E+01
   2.02118E+01  2.12351E+01  1.97158E+01  2.19009E+01  1.70208E+01  1.72808E+01  1.74389E+01  1.76552E+01  1.82914E+01  1.79317E+01
   2.04817E+01  1.68911E+01  1.74401E+01  1.53262E+01  1.84443E+01  1.87728E+01  1.94799E+01  1.76497E+01  1.55490E+01  1.83075E+01
   1.72538E+01  1.67135E+01  1.72057E+01  1.71666E+01  1.41120E+01  1.36354E+01  1.25219E+01  1.43321E+01  1.80532E+01  1.58794E+01
   1.57878E+01  1.49126E+01  1.93875E+01  1.87058E+01  1.59187E+01  1.35811E+01  1.76766E+01  1.22716E+01  1.42329E+01  1.48068E+01
   1.12126E+01  1.33976E+01  1.37732E+01  1.38441E+01  1.48259E+01  1.37599E+01  1.44045E+01  1.15944E+01  1.38107E+01  1.04065E+01
   9.58589E+00  1.10327E+01  1.19264E+01  1.38673E+01  1.19522E+01  1.84880E+01  1.57865E+01  1.72431E+01  1.39061E+01  1.65108E+01
   1.40044E+01  1.39681E+01  1.38190E+01  1.00839E+01  1.01368E+01  1.25689E+01  1.29706E+01  1.12628E+01  1.03836E+01  1.20074E+01
   1.20160E+01  9.93811E+00  9.76327E+00  1.46269E+01  8.80519E+00  1.06882E+01  1.24807E+01  8.26345E+00  1.04932E+01  8.98542E+00
   9.14454E+00  1.08717E+01  8.21346E+00  8.86995E+00  8.62342E+00  7.51941E+00  1.06347E+01  8.47761E+00  8.08616E+00  6.53381E+00
   6.44828E+00  6.39598E+00  5.37601E+00  6.14898E+00  6.50771E+00  5.00658E+00  5.29350E+00  7.35256E+00  5.11204E+00  7.50835E+00
   5.12072E+00  4.93564E+00  7.40590E+00  6.47409E+00  5.09320E+00  5.67162E+00  7.26252E+00  5.51436E+00  5.44097E+00  4.17622E+00
   4.73680E+00  5.15680E+00  5.33002E+00  2.68819E+00  6.66755E+00  4.94860E+00  5.76690E+00  6.13426E+00  8.54318E+00  6.52560E+00
   5.69857E+00  7.09927E+00  6.61342E+00  7.76792E+00  6.52535E+00  8.19695E+00  6.18794E+00  6.06272E+00  5.69461E+00  4.95022E+00
   6.21290E+00  5.19068E+00  7.93314E+00  9.09564E+00  6.15254E+00  5.58043E+00  6.97916E+00  6.99657E+00  6.18664E+00  7.17758E+00
   7.74078E+00  6.38350E+00  7.31308E+00  6.48015E+00  5.97056E+00  7.13714E+00  7.35178E+00  7.57198E+00  6.24662E+00  8.31592E+00
   4.04435E+00  2.74381E+00  6.89330E+00  7.18312E+00  5.19575E+00  4.82881E+00  5.40621E+00  6.86822E+00  7.18098E+00  6.47162E+00
   6.69007E+00  6.25724E+00  4.70580E+00  6.30513E+00  5.58856E+00  5.56246E+00  4.68699E+00  6.58459E+00  3.95817E+00  3.20953E+00
   3.07172E+00  5.81632E+00  6.84661E+00  6.84826E+00  6.31371E+00  6.96626E+00  5.30088E+00  4.87981E+00  7.94984E+00  4.33880E+00
   4.36828E+00  5.21328E+00  6.84804E+00  5.12510E+00  6.56585E+00  7.31487E+00  9.90586E+00  9.24271E+00  1.36425E+01  1.16410E+01
   1.30452E+01  1.36297E+01  1.20392E+01  1.13186E+01  8.44383E+00  5.08968E+00  8.27677E+00  4.04556E+00  3.17284E+00  2.53124E+00
   3.83721E+00  3.93115E+00 -4.64839E-02  2.10203E+00  4.51251E-01  1.46471E+00 -1.24565E+00  8.81053E-01 -1.67363E-01  4.50118E-01
  -3.62576E-01 -2.28260E-01 -8.94709E-01 -8.90452E-01 -1.02212E+00 -4.32360E-01 -9.94122E-01 -4.39711E+00 -1.44878E+00 -1.56638E+00
  -6.38425E-01 -7.86368E-01 -2.36021E+00 -2.21222E+00 -7.73057E-01 -4.63792E+00  3.24908E-01 -9.63440E-01 -1.34707E+00 -3.37691E+00
  -2.82391E+00 -4.68807E+00 -3.75506E+00 -5.48506E+00 -3.94515E+00 -2.23648E+00 -5.01079E+00 -3.91191E+00 -2.77343E+00 -2.14587E-01
  -1.48429E+00 -3.24437E+00 -6.02557E+00 -4.90851E+00 -3.13777E+00 -4.51236E+00 -6.34375E+00 -4.67601E+00 -4.98586E+00 -3.37042E+00
  -3.66894E+00 -5.70894E+00 -5.84007E+00 -7.19725E+00 -7.07636E+00 -5.82853E+00 -8.84268E+00 -7.04756E+00 -8.21744E+00 -6.07988E+00
  -9.34234E+00 -7.07440E+00 -5.83955E+00 -7.38652E+00 -8.26725E+00 -6.90400E+00 -1.00421E+01 -7.01503E+00 -5.89548E+00 -6.76348E+00
  -5.39585E+00 -6.78177E+00 -9.49923E+00 -1.05374E+01 -7.23696E+00 -9.36854E+00 -9.02022E+00 -8.66550E+00 -1.08735E+01 -8.93399E+00
  -6.44831E+00 -9.65691E+00 -1.32164E+01 -1.10546E+01 -1.13843E+01 -1.05298E+01 -1.23976E+01 -7.43740E+00 -8.08244E+00 -1.05420E+01
  -1.24489E+01 -1.19239E+01 -9.45568E+00 -8.62362E+00 -7.58505E+00 -9.87815E+00 -1.12408E+01 -1.10814E+01 -7.72504E+00 -1.05759E+01
  -8.64749E+00 -8.07739E+00 -9.77683E+00 -6.46970E+00 -1.03730E+01 -1.06341E+01 -9.75801E+00 -8.61028E+00 -9.55528E+00 -9.99950E+00
  -8.77654E+00 -6.82560E+00 -7.36244E+00 -9.44612E+00 -9.74161E+00 -8.21567E+00 -1.00517E+01 -6.54830E+00 -6.67856E+00 -8.74655E+00
  -9.24378E+00 -5.67484E+00 -7.45759E+00 -7.54460E+00 -5.85766E+00 -7.07530E+00 -6.77444E+00 -6.77332E+00 -5.45143E+00 -5.60123E+00
  -7.28871E+00 -5.55184E+00 -7.53564E+00 -7.44045E+00 -4.58515E+00 -7.60490E+00 -7.09534E+00 -7.73531E+00 -4.73516E+00 -7.05122E+00
  -8.48447E+00 -5.72183E+00 -4.28113E+00 -6.81818E+00 -5.97537E+00 -5.76975E+00 -6.06741E+00 -5.25055E+00 -7.22677E+00 -7.85584E+00
  -8.85609E+00 -9.08744E+00 -8.57235E+00 -5.39761E+00 -8.10335E+00 -6.61554E+00 -6.51963E+00 -7.62491E+00 -9.03185E+00 -6.07741E+00
  -7.95262E+00 -9.36673E+00 -7.54349E+00 -1.06343E+01 -8.84078E+00 -8.36353E+00 -5.41132E+00 -7.86425E+00 -7.53769E+00 -6.71472E+00
  -6.77516E+00 -8.23197E+00 -9.35246E+00 -5.14074E+00 -7.06035E+00 -9.38599E+00 -8.00804E+00 -8.97241E+00 -6.78901E+00 -7.20640E+00
  -6.58772E+00 -7.57061E+00 -8.83408E+00 -6.03109E+00 -7.15553E+00 -7.93434E+00 -7.49813E+00 -7.11315E+00 -8.06391E+00 -7.58496E+00
  -8.57719E+00 -9.11071E+00 -7.27901E+00 -8.83017E+00 -8.30782E+00 -7.45645E+00 -1.02163E+01 -8.27167E+00 -8.79076E+00 -7.49299E+00
  -7.45634E+00 -8.25970E+00 -7.41484E+00 -9.85795E+00 -8.89440E+00 -9.11574E+00 -9.18116E+00 -7.80479E+00 -7.69745E+00 -6.29443E+00
  -9.00458E+00 -1.12834E+01 -6.49185E+00 -6.01799E+00 -8.03040E+00 -8.56045E+00 -6.71511E+00 -7.60148E+00 -6.12235E+00 -7.33359E+00
  -9.18591E+00 -7.88705E+00 -8.87751E+00 -6.69168E+00 -1.07738E+01 -7.13079E+00 -8.28895E+00 -6.45897E+00
 NY points of the fit to the data follow
   4.79117E+01  4.75197E+01  4.72040E+01  4.70378E+01  4.70373E+01  4.71687E+01  4.73635E+01  4.75241E+01  4.75516E+01  4.73789E+01
   4.69818E+01  4.63781E+01  4.56152E+01  4.47642E+01  4.39003E+01  4.30710E+01  4.23088E+01  4.16286E+01  4.10273E+01  4.05168E+01
   4.00738E+01  3.96592E+01  3.92437E+01  3.88345E+01  3.84664E+01  3.81556E+01  3.79028E+01  3.77061E+01  3.75464E+01  3.73805E+01
   3.71605E+01  3.68504E+01  3.64283E+01  3.58979E+01  3.52937E+01  3.46659E+01  3.40562E+01  3.34932E+01  3.29879E+01  3.25445E+01
   3.21665E+01  3.18336E+01  3.15230E+01  3.12219E+01  3.09195E+01  3.06047E+01  3.02669E+01  2.99046E+01  2.95195E+01  2.91156E+01
   2.87035E+01  2.82899E+01  2.78817E+01  2.74856E+01  2.71048E+01  2.67406E+01  2.63924E+01  2.60561E+01  2.57255E+01  2.53948E+01
   2.50607E+01  2.47221E+01  2.43811E+01  2.40408E+01  2.37048E+01  2.33772E+01  2.30602E+01  2.27537E+01  2.24554E+01  2.21635E+01
   2.18756E+01  2.15896E+01  2.13038E+01  2.10177E+01  2.07315E+01  2.04459E+01  2.01621E+01  1.98812E+01  1.96035E+01  1.93359E+01
   1.90892E+01  1.88653E+01  1.86571E+01  1.84537E+01  1.82450E+01  1.80224E+01  1.77818E+01  1.75242E+01  1.72554E+01  1.69834E+01
   1.67170E+01  1.64633E+01  1.62236E+01  1.59956E+01  1.57737E+01  1.55748E+01  1.54943E+01  1.56030E+01  1.58825E+01  1.62579E+01
   1.66381E+01  1.69248E+01  1.70350E+01  1.69267E+01  1.66054E+01  1.61172E+01  1.55309E+01  1.49300E+01  1.43798E+01  1.39024E+01
   1.35059E+01  1.31891E+01  1.29489E+01  1.27868E+01  1.26579E+01  1.25388E+01  1.24252E+01  1.23156E+01  1.22070E+01  1.21125E+01
   1.21662E+01  1.25111E+01  1.31560E+01  1.39921E+01  1.48694E+01  1.56236E+01  1.61084E+01  1.62428E+01  1.60160E+01  1.54795E+01
   1.47228E+01  1.38663E+01  1.30235E+01  1.22510E+01  1.15807E+01  1.10379E+01  1.06324E+01  1.03857E+01  1.02425E+01  1.01465E+01
   1.00734E+01  1.00050E+01  9.92800E+00  9.83533E+00  9.72610E+00  9.59914E+00  9.45818E+00  9.30913E+00  9.15503E+00  9.00077E+00
   8.85237E+00  8.71387E+00  8.58932E+00  8.47827E+00  8.37381E+00  8.26394E+00  8.14214E+00  8.00926E+00  7.87572E+00  7.75496E+00
   7.65372E+00  7.57276E+00  7.50869E+00  7.45349E+00  7.39721E+00  7.33226E+00  7.25583E+00  7.17034E+00  7.07987E+00  6.98405E+00
   6.87652E+00  6.75670E+00  6.63609E+00  6.52921E+00  6.43948E+00  6.36403E+00  6.29734E+00  6.23847E+00  6.18970E+00  6.14985E+00
   6.11120E+00  6.06570E+00  6.01881E+00  5.98549E+00  5.97979E+00  6.01135E+00  6.07996E+00  6.17604E+00  6.28733E+00  6.39415E+00
   6.47937E+00  6.52381E+00  6.51669E+00  6.46588E+00  6.38824E+00  6.29739E+00  6.20539E+00  6.12946E+00  6.08674E+00  6.08749E+00
   6.12415E+00  6.17970E+00  6.23424E+00  6.26132E+00  6.24078E+00  6.16516E+00  6.03409E+00  5.85988E+00  5.67130E+00  5.53332E+00
   5.50088E+00  5.58173E+00  5.74416E+00  5.93963E+00  6.10975E+00  6.17869E+00  6.08394E+00  5.81377E+00  5.42439E+00  5.00404E+00
   4.64021E+00  4.40655E+00  4.33617E+00  4.42119E+00  4.62310E+00  4.87827E+00  5.12940E+00  5.32372E+00  5.44119E+00  5.49765E+00
   5.52275E+00  5.54652E+00  5.58543E+00  5.63941E+00  5.69813E+00  5.74218E+00  5.74179E+00  5.68549E+00  5.58741E+00  5.48149E+00
   5.40276E+00  5.37665E+00  5.41747E+00  5.52031E+00  5.65477E+00  5.78102E+00  5.87003E+00  5.90725E+00  5.89336E+00  5.86535E+00
   5.87195E+00  5.92615E+00  5.99559E+00  6.14334E+00  6.63615E+00  7.61859E+00  8.98711E+00  1.05044E+01  1.19085E+01  1.29240E+01
   1.33404E+01  1.30763E+01  1.21772E+01  1.07935E+01  9.13880E+00  7.46238E+00  5.94545E+00  4.64044E+00  3.56829E+00  2.72807E+00
   2.12799E+00  1.75576E+00  1.47703E+00  1.23410E+00  1.00811E+00  7.86556E-01  5.62293E-01  3.35256E-01  1.07101E-01 -1.18546E-01
  -3.37650E-01 -5.46698E-01 -7.43928E-01 -9.28189E-01 -1.09927E+00 -1.25851E+00 -1.40713E+00 -1.54576E+00 -1.67474E+00 -1.79421E+00
  -1.90437E+00 -2.00566E+00 -2.09862E+00 -2.18425E+00 -2.26366E+00 -2.33811E+00 -2.40866E+00 -2.47643E+00 -2.54279E+00 -2.60926E+00
  -2.67754E+00 -2.74959E+00 -2.82726E+00 -2.91237E+00 -3.00665E+00 -3.11136E+00 -3.22729E+00 -3.35476E+00 -3.49364E+00 -3.64343E+00
  -3.80315E+00 -3.97150E+00 -4.14699E+00 -4.32792E+00 -4.51250E+00 -4.69890E+00 -4.88532E+00 -5.07000E+00 -5.25123E+00 -5.42704E+00
  -5.59308E+00 -5.74667E+00 -5.89145E+00 -6.03417E+00 -6.18061E+00 -6.33465E+00 -6.49822E+00 -6.67164E+00 -6.85093E+00 -7.02503E+00
  -7.18207E+00 -7.31440E+00 -7.41971E+00 -7.50132E+00 -7.56621E+00 -7.62234E+00 -7.67736E+00 -7.73637E+00 -7.80370E+00 -7.88086E+00
  -7.96440E+00 -8.05046E+00 -8.13659E+00 -8.22085E+00 -8.30215E+00 -8.37876E+00 -8.44930E+00 -8.51506E+00 -8.57686E+00 -8.63510E+00
  -8.68998E+00 -8.74165E+00 -8.79025E+00 -8.83588E+00 -8.87864E+00 -8.91864E+00 -8.95599E+00 -8.99081E+00 -9.02321E+00 -9.05330E+00
  -9.08117E+00 -9.10690E+00 -9.13056E+00 -9.15223E+00 -9.17196E+00 -9.18978E+00 -9.20568E+00 -9.21956E+00 -9.23132E+00 -9.24077E+00
  -9.24766E+00 -9.25168E+00 -9.25248E+00 -9.24963E+00 -9.24264E+00 -9.23098E+00 -9.21403E+00 -9.19114E+00 -9.16159E+00 -9.12462E+00
  -9.07944E+00 -9.02521E+00 -8.96110E+00 -8.88630E+00 -8.80005E+00 -8.70173E+00 -8.59081E+00 -8.46702E+00 -8.33035E+00 -8.18111E+00
  -8.02005E+00 -7.84832E+00 -7.66759E+00 -7.48000E+00 -7.28819E+00 -7.09526E+00 -6.90465E+00 -6.72011E+00 -6.54548E+00 -6.38463E+00
  -6.24121E+00 -6.11856E+00 -6.01948E+00 -5.94614E+00 -5.89993E+00 -5.88145E+00 -5.89041E+00 -5.92574E+00 -5.98556E+00 -6.06735E+00
  -6.16805E+00 -6.28425E+00 -6.41235E+00 -6.54870E+00 -6.68979E+00 -6.83233E+00 -6.97338E+00 -7.11041E+00 -7.24136E+00 -7.36462E+00
  -7.47904E+00 -7.58387E+00 -7.67878E+00 -7.76370E+00 -7.83886E+00 -7.90467E+00 -7.96169E+00 -8.01055E+00 -8.05196E+00 -8.08662E+00
  -8.11525E+00 -8.13851E+00 -8.15703E+00 -8.17140E+00 -8.18214E+00 -8.18972E+00 -8.19458E+00 -8.19707E+00 -8.19753E+00 -8.19625E+00
  -8.19347E+00 -8.18943E+00 -8.18431E+00 -8.17829E+00 -8.17152E+00 -8.16413E+00 -8.15625E+00 -8.14797E+00 -8.13939E+00 -8.13061E+00
  -8.12169E+00 -8.11271E+00 -8.10373E+00 -8.09481E+00 -8.08596E+00 -8.07722E+00 -8.06858E+00 -8.06007E+00 -8.05169E+00 -8.04344E+00
  -8.03535E+00 -8.02739E+00 -8.01959E+00 -8.01193E+00 -8.00442E+00 -7.99704E+00 -7.98981E+00 -7.98270E+00 -7.97573E+00 -7.96887E+00
  -7.96212E+00 -7.95548E+00 -7.94893E+00 -7.94246E+00 -7.93608E+00 -7.92975E+00 -7.92348E+00 -7.91726E+00 -7.91107E+00 -7.90489E+00
  -7.89873E+00 -7.89257E+00 -7.88638E+00 -7.88018E+00 -7.87393E+00 -7.86762E+00 -7.86125E+00 -7.85480E+00 -7.84826E+00 -7.84161E+00
  -7.83483E+00 -7.82793E+00 -7.82087E+00 -7.81366E+00 -7.80626E+00 -7.79868E+00 -7.79089E+00 -7.78289E+00
 NY background values follow
     4.773E+01    4.732E+01    4.691E+01    4.651E+01    4.610E+01    4.570E+01    4.529E+01    4.488E+01    4.448E+01    4.407E+01
     4.367E+01    4.326E+01    4.286E+01    4.245E+01    4.205E+01    4.164E+01    4.124E+01    4.084E+01    4.044E+01    4.004E+01
     3.964E+01    3.924E+01    3.884E+01    3.844E+01    3.804E+01    3.765E+01    3.725E+01    3.686E+01    3.647E+01    3.608E+01
     3.569E+01    3.530E+01    3.491E+01    3.453E+01    3.414E+01    3.376E+01    3.338E+01    3.300E+01    3.263E+01    3.225E+01
     3.188E+01    3.151E+01    3.114E+01    3.077E+01    3.040E+01    3.004E+01    2.968E+01    2.932E+01    2.896E+01    2.861E+01
     2.826E+01    2.791E+01    2.756E+01    2.721E+01    2.687E+01    2.653E+01    2.619E+01    2.586E+01    2.553E+01    2.520E+01
     2.487E+01    2.455E+01    2.423E+01    2.391E+01    2.359E+01    2.328E+01    2.297E+01    2.266E+01    2.236E+01    2.206E+01
     2.176E+01    2.147E+01    2.118E+01    2.089E+01    2.061E+01    2.033E+01    2.005E+01    1.977E+01    1.950E+01    1.924E+01
     1.897E+01    1.871E+01    1.845E+01    1.820E+01    1.795E+01    1.771E+01    1.747E+01    1.723E+01    1.699E+01    1.676E+01
     1.654E+01    1.631E+01    1.610E+01    1.588E+01    1.567E+01    1.546E+01    1.526E+01    1.506E+01    1.486E+01    1.467E+01
     1.448E+01    1.430E+01    1.412E+01    1.394E+01    1.376E+01    1.359E+01    1.342E+01    1.326E+01    1.309E+01    1.293E+01
     1.278E+01    1.262E+01    1.247E+01    1.233E+01    1.218E+01    1.204E+01    1.190E+01    1.176E+01    1.163E+01    1.150E+01
     1.137E+01    1.124E+01    1.111E+01    1.099E+01    1.087E+01    1.075E+01    1.064E+01    1.053E+01    1.041E+01    1.030E+01
     1.020E+01    1.009E+01    9.987E+00    9.885E+00    9.785E+00    9.687E+00    9.590E+00    9.494E+00    9.401E+00    9.308E+00
     9.218E+00    9.128E+00    9.041E+00    8.955E+00    8.870E+00    8.786E+00    8.704E+00    8.624E+00    8.544E+00    8.466E+00
     8.390E+00    8.314E+00    8.240E+00    8.167E+00    8.095E+00    8.025E+00    7.956E+00    7.887E+00    7.820E+00    7.754E+00
     7.689E+00    7.625E+00    7.562E+00    7.500E+00    7.440E+00    7.380E+00    7.321E+00    7.262E+00    7.205E+00    7.149E+00
     7.093E+00    7.038E+00    6.985E+00    6.931E+00    6.879E+00    6.827E+00    6.776E+00    6.726E+00    6.676E+00    6.627E+00
     6.579E+00    6.531E+00    6.484E+00    6.437E+00    6.391E+00    6.345E+00    6.299E+00    6.254E+00    6.209E+00    6.164E+00
     6.119E+00    6.074E+00    6.030E+00    5.985E+00    5.940E+00    5.895E+00    5.850E+00    5.804E+00    5.759E+00    5.713E+00
     5.666E+00    5.619E+00    5.572E+00    5.524E+00    5.475E+00    5.426E+00    5.376E+00    5.325E+00    5.273E+00    5.221E+00
     5.167E+00    5.112E+00    5.057E+00    5.000E+00    4.942E+00    4.883E+00    4.823E+00    4.761E+00    4.698E+00    4.633E+00
     4.567E+00    4.500E+00    4.431E+00    4.360E+00    4.288E+00    4.213E+00    4.137E+00    4.059E+00    3.980E+00    3.898E+00
     3.815E+00    3.730E+00    3.644E+00    3.555E+00    3.465E+00    3.374E+00    3.281E+00    3.187E+00    3.091E+00    2.993E+00
     2.894E+00    2.794E+00    2.693E+00    2.590E+00    2.486E+00    2.381E+00    2.274E+00    2.167E+00    2.058E+00    1.948E+00
     1.837E+00    1.726E+00    1.613E+00    1.499E+00    1.384E+00    1.269E+00    1.152E+00    1.035E+00    9.172E-01    7.985E-01
     6.791E-01    5.590E-01    4.384E-01    3.171E-01    1.952E-01    7.287E-02   -4.998E-02   -1.733E-01   -2.970E-01   -4.211E-01
    -5.456E-01   -6.704E-01   -7.954E-01   -9.207E-01   -1.046E+00   -1.172E+00   -1.298E+00   -1.424E+00   -1.550E+00   -1.676E+00
    -1.802E+00   -1.929E+00   -2.055E+00   -2.181E+00   -2.307E+00   -2.434E+00   -2.560E+00   -2.685E+00   -2.811E+00   -2.936E+00
    -3.062E+00   -3.187E+00   -3.311E+00   -3.436E+00   -3.560E+00   -3.683E+00   -3.806E+00   -3.929E+00   -4.052E+00   -4.173E+00
    -4.295E+00   -4.416E+00   -4.536E+00   -4.655E+00   -4.774E+00   -4.893E+00   -5.010E+00   -5.127E+00   -5.243E+00   -5.359E+00
    -5.473E+00   -5.587E+00   -5.700E+00   -5.812E+00   -5.923E+00   -6.033E+00   -6.143E+00   -6.251E+00   -6.358E+00   -6.464E+00
    -6.569E+00   -6.673E+00   -6.776E+00   -6.877E+00   -6.978E+00   -7.077E+00   -7.175E+00   -7.271E+00   -7.367E+00   -7.461E+00
    -7.553E+00   -7.644E+00   -7.734E+00   -7.823E+00   -7.909E+00   -7.995E+00   -8.078E+00   -8.160E+00   -8.241E+00   -8.320E+00
    -8.397E+00   -8.473E+00   -8.547E+00   -8.619E+00   -8.689E+00   -8.758E+00   -8.824E+00   -8.889E+00   -8.952E+00   -9.013E+00
    -9.072E+00   -9.129E+00   -9.184E+00   -9.237E+00   -9.288E+00   -9.337E+00   -9.384E+00   -9.428E+00   -9.471E+00   -9.511E+00
    -9.549E+00   -9.585E+00   -9.618E+00   -9.649E+00   -9.678E+00   -9.705E+00   -9.729E+00   -9.752E+00   -9.772E+00   -9.790E+00
    -9.807E+00   -9.821E+00   -9.834E+00   -9.845E+00   -9.854E+00   -9.861E+00   -9.866E+00   -9.870E+00   -9.873E+00   -9.874E+00
    -9.873E+00   -9.871E+00   -9.867E+00   -9.862E+00   -9.856E+00   -9.849E+00   -9.840E+00   -9.830E+00   -9.819E+00   -9.807E+00
    -9.793E+00   -9.779E+00   -9.764E+00   -9.748E+00   -9.731E+00   -9.714E+00   -9.695E+00   -9.676E+00   -9.656E+00   -9.636E+00
    -9.614E+00   -9.593E+00   -9.571E+00   -9.548E+00   -9.525E+00   -9.502E+00   -9.478E+00   -9.455E+00   -9.430E+00   -9.406E+00
    -9.382E+00   -9.357E+00   -9.332E+00   -9.307E+00   -9.282E+00   -9.257E+00   -9.232E+00   -9.206E+00   -9.181E+00   -9.155E+00
    -9.130E+00   -9.105E+00   -9.079E+00   -9.054E+00   -9.028E+00   -9.003E+00   -8.978E+00   -8.952E+00   -8.927E+00   -8.902E+00
    -8.878E+00   -8.853E+00   -8.829E+00   -8.804E+00   -8.780E+00   -8.757E+00   -8.733E+00   -8.710E+00   -8.687E+00   -8.664E+00
    -8.642E+00   -8.620E+00   -8.598E+00   -8.576E+00   -8.555E+00   -8.535E+00   -8.515E+00   -8.495E+00   -8.476E+00   -8.457E+00
    -8.439E+00   -8.421E+00   -8.403E+00   -8.387E+00   -8.370E+00   -8.355E+00   -8.339E+00   -8.324E+00   -8.310E+00   -8.296E+00
    -8.282E+00   -8.269E+00   -8.256E+00   -8.244E+00   -8.232E+00   -8.220E+00   -8.209E+00   -8.198E+00   -8.187E+00   -8.176E+00
    -8.166E+00   -8.156E+00   -8.146E+00   -8.136E+00   -8.127E+00   -8.117E+00   -8.108E+00   -8.099E+00   -8.090E+00   -8.081E+00
    -8.073E+00   -8.064E+00   -8.055E+00   -8.047E+00   -8.038E+00   -8.030E+00   -8.021E+00   -8.013E+00   -8.004E+00   -7.995E+00
    -7.987E+00   -7.978E+00   -7.969E+00   -7.960E+00   -7.951E+00   -7.941E+00   -7.932E+00   -7.922E+00
 Ala      Conc. = 1.17E+01
