 LCModel (Version 6.3-1L) Copyright: S.W. Provencher.          Ref.: Magn. Reson. Med. 30:672-679 (1993).                
 Slice#3 Row#11 Col#1  PD_05_press_1_raw_act
 36 lines in following concentration table = NCONC+1
    Conc.  %SD /Cr+PCr  Metabolite                                         
  297.132  69%  43.590 Ala                                                 
   17.113 103%   2.511 Asp                                                 
    6.817 456%   1.000 Cr                                                  
    0.000 999%   0.000 PCr                                                 
    9.222 116%   1.353 GABA                                                
   11.987  90%   1.759 Glc                                                 
  725.290  38% 106.402 Gln                                                 
 4.33E+03   9% 635.740 Glu                                                 
    0.000 999%   0.000 GPC                                                 
   36.905  34%   5.414 PCh                                                 
    0.000 999%   0.000 GSH                                                 
  682.272  22% 100.091 Ins                                                 
    0.000 999%   0.000 Lac                                                 
  155.079  21%  22.750 NAA                                                 
    0.000 999%   0.000 NAAG                                                
    5.616  63%   0.824 Scyllo                                              
   28.143  63%   4.129 Tau                                                 
    4.959 276%   0.727 -CrCH2                                              
   36.905  34%   5.414 GPC+PCh                                             
  155.079  21%  22.750 NAA+NAAG                                            
    6.817 456%   1.000 Cr+PCr                                              
 5.06E+03  11% 742.141 Glu+Gln                                             
    0.000 999%   0.000 Lip13a                                              
    0.000 999%   0.000 Lip13b                                              
    0.000 999%   0.000 Lip09                                               
   59.049  66%   8.663 MM09                                                
    0.000 999%   0.000 Lip20                                               
    0.000 999%   0.000 MM20                                                
   17.285 182%   2.536 MM12                                                
  217.603  37%  31.923 MM14                                                
  370.750  16%  54.390+MM17                                                
    0.000 999%   0.000 Lip13a+Lip13b                                       
  234.888  39%  34.459 MM14+Lip13a+Lip13b+MM12                             
   59.049  66%   8.663 MM09+Lip09                                          
    0.000 999%   0.000 MM20+Lip20                                          
   6 lines in following misc. output table
  FWHM = 0.183 ppm    S/N =   2                                            
  Data shift =-0.015 ppm                                                   
  Ph:-106 deg      23.7 deg/ppm                                            
  alphaB,S = 1.1E+00,   9.6E+01                                            
    8 spline knots.   Ns = 9(2)                                            
  (15)13 infls.   (13) 3 extrs.                                            
  498 points on ppm-axis = NY
      4.000000     3.992357     3.984714     3.977070     3.969427     3.961784     3.954141     3.946497     3.938854     3.931211
      3.923568     3.915925     3.908281     3.900638     3.892995     3.885352     3.877708     3.870065     3.862422     3.854779
      3.847136     3.839492     3.831849     3.824206     3.816563     3.808919     3.801276     3.793633     3.785990     3.778347
      3.770703     3.763060     3.755417     3.747774     3.740130     3.732487     3.724844     3.717201     3.709558     3.701914
      3.694271     3.686628     3.678985     3.671341     3.663698     3.656055     3.648412     3.640769     3.633125     3.625482
      3.617839     3.610196     3.602552     3.594909     3.587266     3.579623     3.571980     3.564336     3.556693     3.549050
      3.541407     3.533763     3.526120     3.518477     3.510834     3.503191     3.495547     3.487904     3.480261     3.472618
      3.464974     3.457331     3.449688     3.442045     3.434402     3.426758     3.419115     3.411472     3.403829     3.396185
      3.388542     3.380899     3.373256     3.365613     3.357969     3.350326     3.342683     3.335040     3.327396     3.319753
      3.312110     3.304467     3.296824     3.289180     3.281537     3.273894     3.266251     3.258607     3.250964     3.243321
      3.235678     3.228034     3.220391     3.212748     3.205105     3.197462     3.189818     3.182175     3.174532     3.166889
      3.159245     3.151602     3.143959     3.136316     3.128673     3.121029     3.113386     3.105743     3.098100     3.090456
      3.082813     3.075170     3.067527     3.059884     3.052240     3.044597     3.036954     3.029311     3.021667     3.014024
      3.006381     2.998738     2.991095     2.983451     2.975808     2.968165     2.960522     2.952878     2.945235     2.937592
      2.929949     2.922306     2.914662     2.907019     2.899376     2.891733     2.884089     2.876446     2.868803     2.861160
      2.853517     2.845873     2.838230     2.830587     2.822944     2.815300     2.807657     2.800014     2.792371     2.784728
      2.777084     2.769441     2.761798     2.754155     2.746511     2.738868     2.731225     2.723582     2.715939     2.708295
      2.700652     2.693009     2.685366     2.677722     2.670079     2.662436     2.654793     2.647150     2.639506     2.631863
      2.624220     2.616577     2.608933     2.601290     2.593647     2.586004     2.578361     2.570717     2.563074     2.555431
      2.547788     2.540144     2.532501     2.524858     2.517215     2.509572     2.501928     2.494285     2.486642     2.478999
      2.471355     2.463712     2.456069     2.448426     2.440783     2.433139     2.425496     2.417853     2.410210     2.402566
      2.394923     2.387280     2.379637     2.371994     2.364350     2.356707     2.349064     2.341421     2.333777     2.326134
      2.318491     2.310848     2.303205     2.295561     2.287918     2.280275     2.272632     2.264988     2.257345     2.249702
      2.242059     2.234416     2.226772     2.219129     2.211486     2.203843     2.196199     2.188556     2.180913     2.173270
      2.165627     2.157983     2.150340     2.142697     2.135054     2.127410     2.119767     2.112124     2.104481     2.096838
      2.089194     2.081551     2.073908     2.066265     2.058621     2.050978     2.043335     2.035692     2.028049     2.020405
      2.012762     2.005119     1.997476     1.989833     1.982190     1.974546     1.966903     1.959260     1.951617     1.943974
      1.936331     1.928688     1.921045     1.913402     1.905759     1.898115     1.890472     1.882829     1.875186     1.867543
      1.859900     1.852257     1.844614     1.836971     1.829327     1.821684     1.814041     1.806398     1.798755     1.791112
      1.783469     1.775826     1.768183     1.760540     1.752896     1.745253     1.737610     1.729967     1.722324     1.714681
      1.707038     1.699395     1.691752     1.684108     1.676465     1.668822     1.661179     1.653536     1.645893     1.638250
      1.630607     1.622964     1.615321     1.607677     1.600034     1.592391     1.584748     1.577105     1.569462     1.561819
      1.554176     1.546533     1.538890     1.531246     1.523603     1.515960     1.508317     1.500674     1.493031     1.485388
      1.477745     1.470102     1.462458     1.454815     1.447172     1.439529     1.431886     1.424243     1.416600     1.408957
      1.401314     1.393671     1.386027     1.378384     1.370741     1.363098     1.355455     1.347812     1.340169     1.332526
      1.324883     1.317240     1.309596     1.301953     1.294310     1.286667     1.279024     1.271381     1.263738     1.256095
      1.248452     1.240808     1.233165     1.225522     1.217879     1.210236     1.202593     1.194950     1.187307     1.179664
      1.172021     1.164377     1.156734     1.149091     1.141448     1.133805     1.126162     1.118519     1.110876     1.103233
      1.095590     1.087946     1.080303     1.072660     1.065017     1.057374     1.049731     1.042088     1.034445     1.026802
      1.019158     1.011515     1.003872     0.996229     0.988586     0.980943     0.973300     0.965657     0.958014     0.950371
      0.942727     0.935084     0.927441     0.919798     0.912155     0.904512     0.896869     0.889226     0.881583     0.873940
      0.866296     0.858653     0.851010     0.843367     0.835724     0.828081     0.820438     0.812795     0.805152     0.797508
      0.789865     0.782222     0.774579     0.766936     0.759293     0.751650     0.744007     0.736364     0.728721     0.721077
      0.713434     0.705791     0.698148     0.690505     0.682862     0.675219     0.667576     0.659933     0.652290     0.644646
      0.637003     0.629360     0.621717     0.614074     0.606431     0.598788     0.591145     0.583502     0.575858     0.568215
      0.560572     0.552929     0.545286     0.537643     0.530000     0.522357     0.514714     0.507071     0.499427     0.491784
      0.484141     0.476498     0.468855     0.461212     0.453569     0.445925     0.438282     0.430639     0.422996     0.415353
      0.407710     0.400067     0.392424     0.384780     0.377137     0.369494     0.361851     0.354208     0.346565     0.338922
      0.331278     0.323635     0.315992     0.308349     0.300706     0.293063     0.285420     0.277777     0.270133     0.262490
      0.254847     0.247204     0.239561     0.231918     0.224275     0.216631     0.208988     0.201345
 NY phased data points follow
  -2.68502E+01 -2.84986E+01 -2.51950E+01 -2.81710E+01 -2.57746E+01 -2.62479E+01 -2.43341E+01 -2.53108E+01 -2.43374E+01 -2.44045E+01
  -2.41898E+01 -2.49587E+01 -2.24199E+01 -2.15472E+01 -2.26622E+01 -2.05695E+01 -2.15681E+01 -2.05526E+01 -1.91873E+01 -1.97485E+01
  -1.92109E+01 -1.89850E+01 -1.84783E+01 -1.81265E+01 -1.88824E+01 -1.74744E+01 -1.82352E+01 -1.75093E+01 -1.56630E+01 -1.65999E+01
  -1.59800E+01 -1.59817E+01 -1.47342E+01 -1.49674E+01 -1.38878E+01 -1.42580E+01 -1.23149E+01 -1.42861E+01 -1.41326E+01 -1.37471E+01
  -1.30106E+01 -1.22406E+01 -1.25402E+01 -1.16960E+01 -1.20293E+01 -1.14347E+01 -1.09714E+01 -1.22079E+01 -1.12594E+01 -1.11626E+01
  -1.05311E+01 -9.96035E+00 -1.00540E+01 -1.07156E+01 -1.00636E+01 -9.37561E+00 -8.28761E+00 -9.92669E+00 -1.04213E+01 -8.79690E+00
  -9.83430E+00 -8.47832E+00 -7.40315E+00 -8.42038E+00 -8.09756E+00 -6.93511E+00 -7.91248E+00 -6.87140E+00 -6.94346E+00 -7.47080E+00
  -5.51521E+00 -7.12686E+00 -6.89757E+00 -6.23080E+00 -6.82231E+00 -6.68603E+00 -5.67809E+00 -5.90824E+00 -4.89050E+00 -5.86281E+00
  -5.25532E+00 -5.67388E+00 -3.37168E+00 -6.47686E+00 -4.31059E+00 -4.26954E+00 -4.40601E+00 -5.83329E+00 -4.92696E+00 -6.45848E+00
  -5.48462E+00 -4.02902E+00 -3.16449E+00 -5.55358E+00 -3.68950E+00 -3.36920E+00 -3.97804E+00 -4.59429E+00 -3.42077E+00 -4.50237E+00
  -3.58998E+00 -3.01587E+00 -2.52507E+00 -3.50466E+00 -4.11350E+00 -3.05382E+00 -3.28956E+00 -2.59979E+00 -1.69949E+00 -1.65895E+00
  -2.98794E+00 -2.08490E+00 -1.24723E+00 -6.18975E-01 -3.06932E+00 -2.16918E+00 -2.26319E+00 -2.67090E+00 -2.00978E+00 -2.35173E+00
  -1.45820E+00 -1.82351E+00 -2.13948E+00 -2.45920E+00 -2.48745E+00 -1.70721E+00 -1.19523E+00 -1.29122E+00 -2.68364E+00 -1.63232E+00
  -1.25704E+00 -1.64617E+00 -1.93769E+00 -2.98472E+00 -2.45305E+00 -2.22527E+00 -3.18403E+00 -1.69885E+00 -1.77576E+00 -2.65777E+00
  -2.52617E+00 -3.03504E+00 -2.25000E+00 -3.32965E+00 -1.51099E+00 -2.28840E+00 -3.56743E+00 -2.09378E+00 -2.81964E+00 -2.69730E+00
  -2.32854E+00 -1.78919E+00 -2.11828E+00 -1.96336E+00 -1.88138E+00 -9.44547E-01 -1.30639E+00 -2.63102E+00 -8.86967E-01 -8.91712E-01
  -3.57652E-01  2.71002E-01 -3.42565E-02  3.94080E-01 -5.27044E-01 -8.98437E-01 -8.41839E-01 -1.00152E+00  1.94327E-02 -3.50821E-01
   1.10867E-01 -1.93127E-01  1.26197E+00  1.13981E+00  3.04010E-01  6.74658E-01 -3.17934E-01  7.85258E-01  3.31013E-01  9.58895E-01
  -4.45526E-02  1.37401E+00  9.67543E-01  6.27139E-01  8.48274E-01  2.06579E-01  1.55302E+00 -8.87655E-01  1.55869E-01 -4.08775E-01
   1.71670E-01  2.06240E-01 -5.57375E-02 -1.34756E+00  6.84793E-01  9.16208E-01  1.29052E-01 -6.99519E-01  3.35379E-01 -1.55852E+00
   5.87121E-01 -1.24167E+00 -6.63324E-01 -1.00005E+00 -1.11834E+00 -1.05696E+00 -2.55326E+00 -3.08265E-01 -1.56531E-01 -1.17873E+00
  -7.56399E-01 -1.22179E+00 -1.58678E+00 -2.56287E+00 -1.82198E+00 -1.31920E+00 -7.31670E-01  2.22767E-01  1.34465E+00 -2.56588E-01
   2.32608E+00  1.03980E+00  1.37605E+00  1.87831E-01  1.76859E+00  1.23604E+00  2.28043E+00  1.87572E+00  2.39094E+00  3.66271E+00
   3.39857E+00  2.24351E+00  3.64312E+00  4.77462E+00  5.63915E+00  3.93169E+00  5.42004E+00  5.15917E+00  4.56179E+00  4.74114E+00
   6.98285E+00  5.47892E+00  5.76783E+00  7.42947E+00  7.14244E+00  6.51895E+00  7.28510E+00  6.41813E+00  8.78829E+00  9.10360E+00
   7.53356E+00  8.57189E+00  7.81963E+00  8.98012E+00  9.27895E+00  1.01216E+01  7.74804E+00  8.58634E+00  9.21374E+00  9.31414E+00
   8.86894E+00  8.75405E+00  1.02729E+01  9.99535E+00  1.05651E+01  1.00750E+01  9.31240E+00  1.15737E+01  1.01325E+01  1.04748E+01
   9.30289E+00  9.76926E+00  8.96424E+00  9.34276E+00  1.00769E+01  1.08880E+01  9.36714E+00  1.04829E+01  1.04271E+01  1.07635E+01
   1.04799E+01  9.57963E+00  1.13069E+01  9.25286E+00  1.02510E+01  1.01767E+01  1.08140E+01  9.66716E+00  9.02499E+00  1.03748E+01
   1.05283E+01  1.25477E+01  1.04885E+01  1.01416E+01  1.12902E+01  1.11583E+01  9.58680E+00  1.03630E+01  1.04801E+01  1.08065E+01
   1.00700E+01  1.00229E+01  1.00842E+01  1.01982E+01  9.12910E+00  9.69839E+00  9.25784E+00  7.56640E+00  1.11319E+01  9.17429E+00
   8.82957E+00  9.74671E+00  8.20820E+00  9.83843E+00  9.97993E+00  9.58814E+00  1.00390E+01  9.46108E+00  9.39116E+00  8.65732E+00
   9.22865E+00  8.89491E+00  9.28096E+00  9.23241E+00  8.60924E+00  8.22155E+00  8.45356E+00  7.58486E+00  8.27057E+00  8.10588E+00
   8.84334E+00  8.99439E+00  9.21002E+00  8.89017E+00  9.01316E+00  8.16045E+00  8.71424E+00  7.34540E+00  7.96418E+00  7.13628E+00
   7.78650E+00  7.31604E+00  7.71491E+00  7.85999E+00  6.97895E+00  7.33005E+00  7.46394E+00  7.45785E+00  7.49202E+00  8.18292E+00
   6.86765E+00  8.02921E+00  7.15511E+00  7.13249E+00  7.87725E+00  7.92908E+00  6.60431E+00  7.73544E+00  8.16100E+00  7.40628E+00
   7.53256E+00  7.62538E+00  7.40606E+00  7.05664E+00  8.59597E+00  6.52994E+00  6.13857E+00  6.80243E+00  7.55820E+00  8.22931E+00
   7.55850E+00  6.19634E+00  6.35689E+00  6.49385E+00  6.58389E+00  5.39223E+00  6.21303E+00  7.14727E+00  7.65235E+00  7.16252E+00
   7.18849E+00  6.55849E+00  7.07939E+00  5.55114E+00  6.61838E+00  7.61949E+00  5.81705E+00  8.02533E+00  6.49125E+00  6.40882E+00
   6.27782E+00  8.03665E+00  5.90447E+00  5.45038E+00  6.15978E+00  5.24074E+00  5.88419E+00  6.60657E+00  5.84942E+00  6.18477E+00
   6.87740E+00  6.56350E+00  6.12155E+00  6.65425E+00  6.13309E+00  6.34603E+00  5.93541E+00  5.03957E+00  5.31902E+00  5.96602E+00
   6.11689E+00  5.94045E+00  5.25246E+00  5.56522E+00  5.67747E+00  5.01921E+00  6.18671E+00  5.24336E+00  5.23872E+00  5.50826E+00
   5.31067E+00  5.14236E+00  5.23452E+00  4.66212E+00  5.07226E+00  4.88068E+00  4.06609E+00  4.07787E+00  4.90399E+00  4.37696E+00
   5.11512E+00  4.55434E+00  4.35029E+00  4.53098E+00  5.16641E+00  5.31279E+00  5.06269E+00  3.62401E+00  7.21248E+00  6.04643E+00
   5.39181E+00  4.32650E+00  3.83440E+00  4.88253E+00  4.76596E+00  5.61034E+00  3.21491E+00  5.47833E+00  4.35026E+00  3.72417E+00
   4.81619E+00  2.57821E+00  4.33466E+00  3.87045E+00  3.94969E+00  3.71893E+00  3.38627E+00  3.96461E+00  4.66217E+00  4.79539E+00
   3.30328E+00  3.52669E+00  4.27819E+00  3.72280E+00  3.00385E+00  4.39932E+00  3.52526E+00  3.35535E+00  3.25183E+00  3.69969E+00
   3.17478E+00  3.26010E+00  3.74481E+00  2.86777E+00  3.71131E+00  3.08365E+00  2.43058E+00  3.30982E+00  2.08583E+00  4.16136E+00
   2.27893E+00  3.95705E+00  3.69079E+00  2.83728E+00  2.69887E+00  3.76717E+00  2.43953E+00  3.59253E+00  2.69332E+00  2.75371E+00
   2.31107E+00  3.97309E+00  3.25647E+00  2.07932E+00  1.44856E+00  2.59284E+00  2.51000E+00  1.89521E+00
 NY points of the fit to the data follow
  -2.65877E+01 -2.63423E+01 -2.60653E+01 -2.57998E+01 -2.54891E+01 -2.52082E+01 -2.47994E+01 -2.43231E+01 -2.38045E+01 -2.38386E+01
  -2.35383E+01 -2.36262E+01 -2.32079E+01 -2.31511E+01 -2.22418E+01 -2.19743E+01 -2.09782E+01 -2.10443E+01 -2.01202E+01 -2.05034E+01
  -1.96259E+01 -1.98224E+01 -1.87001E+01 -1.89826E+01 -1.78178E+01 -1.79600E+01 -1.67511E+01 -1.69930E+01 -1.58839E+01 -1.64164E+01
  -1.54417E+01 -1.59055E+01 -1.49088E+01 -1.51107E+01 -1.39440E+01 -1.40326E+01 -1.29890E+01 -1.33880E+01 -1.26682E+01 -1.28756E+01
  -1.21750E+01 -1.21962E+01 -1.14919E+01 -1.16641E+01 -1.12797E+01 -1.16045E+01 -1.13251E+01 -1.12269E+01 -1.07361E+01 -1.05739E+01
  -1.01357E+01 -1.02207E+01 -1.00872E+01 -1.02502E+01 -9.98223E+00 -9.85826E+00 -9.47136E+00 -9.35999E+00 -9.02654E+00 -9.10551E+00
  -8.93344E+00 -8.93915E+00 -8.66189E+00 -8.60926E+00 -8.29401E+00 -8.25640E+00 -7.98406E+00 -7.97552E+00 -7.73627E+00 -7.71412E+00
  -7.43748E+00 -7.42325E+00 -7.16554E+00 -7.16633E+00 -6.91094E+00 -6.92031E+00 -6.67512E+00 -6.69182E+00 -6.43667E+00 -6.46586E+00
  -6.27180E+00 -6.29884E+00 -6.10840E+00 -6.08755E+00 -5.87271E+00 -5.69732E+00 -5.41149E+00 -5.32344E+00 -5.06803E+00 -5.01543E+00
  -4.76626E+00 -4.68799E+00 -4.41238E+00 -4.37636E+00 -4.07506E+00 -4.04281E+00 -3.71311E+00 -3.71753E+00 -3.40062E+00 -3.44369E+00
  -3.16292E+00 -3.24125E+00 -3.00075E+00 -3.04521E+00 -2.80980E+00 -2.83473E+00 -2.61051E+00 -2.67038E+00 -2.47256E+00 -2.53693E+00
  -2.36857E+00 -2.44717E+00 -2.29980E+00 -2.37913E+00 -2.26149E+00 -2.36769E+00 -2.28430E+00 -2.34460E+00 -2.25618E+00 -2.27569E+00
  -2.20328E+00 -2.22471E+00 -2.18365E+00 -2.21731E+00 -2.19559E+00 -2.15158E+00 -2.11223E+00 -2.06178E+00 -2.02324E+00 -1.97470E+00
  -1.94122E+00 -1.89961E+00 -1.86912E+00 -1.83168E+00 -1.80446E+00 -1.77110E+00 -1.74615E+00 -1.71738E+00 -1.69499E+00 -1.67275E+00
  -1.65147E+00 -1.63168E+00 -1.61473E+00 -1.60265E+00 -1.58872E+00 -1.57545E+00 -1.55926E+00 -1.54406E+00 -1.53032E+00 -1.51732E+00
  -1.50550E+00 -1.49104E+00 -1.47981E+00 -1.46578E+00 -1.45717E+00 -1.44366E+00 -1.43548E+00 -1.42131E+00 -1.41937E+00 -1.40662E+00
  -1.39641E+00 -1.38781E+00 -1.37863E+00 -1.37726E+00 -1.36477E+00 -1.35372E+00 -1.33136E+00 -1.31753E+00 -1.29665E+00 -1.28482E+00
  -1.24903E+00 -1.22233E+00 -1.18132E+00 -1.14612E+00 -1.10030E+00 -1.05964E+00 -1.02368E+00 -9.98954E-01 -9.44898E-01 -9.47293E-01
  -8.56228E-01 -8.52873E-01 -7.28894E-01 -6.96838E-01 -4.43551E-01 -3.60107E-01 -4.48509E-02  4.32240E-02  2.99259E-01  2.58105E-01
   5.11852E-01  1.54487E-01  3.40359E-01 -8.33268E-02  5.03200E-01  3.33425E-01  1.33214E+00  1.57694E+00  2.17962E+00  1.82283E+00
   2.27530E+00  1.73910E+00  1.89045E+00  9.90918E-01  9.73472E-01  6.29338E-01  1.02179E+00  7.78135E-01  9.12773E-01  3.31036E-01
   2.06119E-01 -4.44494E-01 -4.50899E-01 -1.08544E+00 -5.61248E-01 -5.26060E-01  3.35807E-01  6.76732E-01  1.38834E+00  1.41988E+00
   2.03954E+00  1.73053E+00  2.02117E+00  1.72863E+00  1.92880E+00  1.89254E+00  2.35880E+00  2.22551E+00  2.75598E+00  2.99266E+00
   3.45636E+00  3.56260E+00  3.75320E+00  3.96931E+00  4.26868E+00  4.40039E+00  4.70781E+00  5.08323E+00  5.20481E+00  5.45316E+00
   5.72898E+00  6.08829E+00  6.36850E+00  6.44417E+00  6.42987E+00  6.66655E+00  6.74384E+00  7.06932E+00  7.34616E+00  7.63031E+00
   7.77431E+00  8.02436E+00  8.14069E+00  8.38657E+00  8.64503E+00  8.86285E+00  8.97442E+00  9.00855E+00  9.04607E+00  8.98045E+00
   9.25312E+00  9.23983E+00  9.58852E+00  9.50384E+00  9.61757E+00  9.49972E+00  9.61883E+00  9.49912E+00  9.64677E+00  9.62547E+00
   9.65277E+00  9.46966E+00  9.31203E+00  9.16409E+00  9.16354E+00  9.14652E+00  9.25284E+00  9.32156E+00  9.35121E+00  9.35596E+00
   9.37064E+00  9.44237E+00  9.62528E+00  9.74974E+00  9.92812E+00  1.00656E+01  1.01693E+01  1.02946E+01  1.03870E+01  1.04840E+01
   1.05347E+01  1.05852E+01  1.05695E+01  1.05487E+01  1.05044E+01  1.04563E+01  1.03811E+01  1.02992E+01  1.01981E+01  1.00952E+01
   9.97884E+00  9.85573E+00  9.73736E+00  9.62536E+00  9.52722E+00  9.44496E+00  9.38550E+00  9.35463E+00  9.36368E+00  9.40500E+00
   9.28727E+00  9.19460E+00  9.12441E+00  9.04986E+00  9.00293E+00  8.92235E+00  8.84230E+00  8.84824E+00  8.95739E+00  8.86872E+00
   8.95374E+00  8.78934E+00  8.91074E+00  8.74784E+00  8.97991E+00  8.76744E+00  9.06298E+00  8.88384E+00  9.17928E+00  8.92437E+00
   9.15186E+00  8.77373E+00  8.98513E+00  8.57443E+00  8.73914E+00  8.38713E+00  8.57071E+00  8.26765E+00  8.46774E+00  8.12379E+00
   8.33707E+00  8.06506E+00  8.24658E+00  8.00394E+00  8.13759E+00  7.90418E+00  8.01264E+00  7.76664E+00  7.85951E+00  7.72628E+00
   7.74251E+00  7.62234E+00  7.61978E+00  7.49927E+00  7.46317E+00  7.32553E+00  7.25387E+00  7.21998E+00  7.19565E+00  7.17474E+00
   7.15550E+00  7.13681E+00  7.11839E+00  7.09973E+00  7.08086E+00  7.06150E+00  7.04182E+00  7.02165E+00  7.00121E+00  6.98040E+00
   6.95948E+00  6.93834E+00  6.91730E+00  6.89624E+00  6.87547E+00  6.85488E+00  6.83474E+00  6.81494E+00  6.79573E+00  6.77698E+00
   6.75889E+00  6.74131E+00  6.72441E+00  6.70796E+00  6.69211E+00  6.67655E+00  6.66135E+00  6.64612E+00  6.63085E+00  6.61505E+00
   6.59861E+00  6.58095E+00  6.56188E+00  6.54078E+00  6.51741E+00  6.49115E+00  6.46181E+00  6.42886E+00  6.39225E+00  6.35159E+00
   6.30705E+00  6.25848E+00  6.20630E+00  6.15061E+00  6.09209E+00  6.03106E+00  5.96837E+00  5.90447E+00  5.84028E+00  5.77625E+00
   5.71324E+00  5.65159E+00  5.59200E+00  5.53464E+00  5.47998E+00  5.42796E+00  5.37884E+00  5.33238E+00  5.28866E+00  5.24729E+00
   5.20825E+00  5.17106E+00  5.13568E+00  5.10161E+00  5.06881E+00  5.03682E+00  5.00562E+00  4.97482E+00  4.94445E+00  4.91416E+00
   4.88405E+00  4.85381E+00  4.82358E+00  4.79308E+00  4.76250E+00  4.73157E+00  4.70051E+00  4.66907E+00  4.63746E+00  4.60545E+00
   4.57328E+00  4.54071E+00  4.50797E+00  4.47484E+00  4.44155E+00  4.40787E+00  4.37405E+00  4.33985E+00  4.30552E+00  4.27082E+00
   4.23598E+00  4.20079E+00  4.16549E+00  4.12983E+00  4.09407E+00  4.05797E+00  4.02178E+00  3.98526E+00  3.94866E+00  3.91174E+00
   3.87475E+00  3.83745E+00  3.80010E+00  3.76245E+00  3.72475E+00  3.68678E+00  3.64878E+00  3.61051E+00  3.57223E+00  3.53370E+00
   3.49518E+00  3.45644E+00  3.41772E+00  3.37880E+00  3.33993E+00  3.30090E+00  3.26196E+00  3.22288E+00  3.18391E+00  3.14487E+00
   3.10599E+00  3.06708E+00  3.02839E+00  2.98974E+00  2.95139E+00  2.91316E+00  2.87533E+00  2.83775E+00  2.80070E+00  2.76404E+00
   2.72810E+00  2.69278E+00  2.65845E+00  2.62506E+00  2.59307E+00  2.56253E+00  2.53406E+00  2.50793E+00
 NY background values follow
    -2.787E+01   -2.759E+01   -2.732E+01   -2.704E+01   -2.676E+01   -2.648E+01   -2.620E+01   -2.592E+01   -2.564E+01   -2.535E+01
    -2.507E+01   -2.479E+01   -2.451E+01   -2.422E+01   -2.394E+01   -2.365E+01   -2.337E+01   -2.308E+01   -2.280E+01   -2.251E+01
    -2.223E+01   -2.194E+01   -2.166E+01   -2.138E+01   -2.109E+01   -2.081E+01   -2.052E+01   -2.024E+01   -1.996E+01   -1.967E+01
    -1.939E+01   -1.911E+01   -1.883E+01   -1.855E+01   -1.827E+01   -1.799E+01   -1.771E+01   -1.743E+01   -1.715E+01   -1.688E+01
    -1.660E+01   -1.633E+01   -1.606E+01   -1.578E+01   -1.551E+01   -1.524E+01   -1.498E+01   -1.471E+01   -1.444E+01   -1.418E+01
    -1.392E+01   -1.366E+01   -1.340E+01   -1.314E+01   -1.288E+01   -1.263E+01   -1.238E+01   -1.212E+01   -1.188E+01   -1.163E+01
    -1.138E+01   -1.114E+01   -1.090E+01   -1.066E+01   -1.042E+01   -1.019E+01   -9.955E+00   -9.725E+00   -9.497E+00   -9.272E+00
    -9.049E+00   -8.828E+00   -8.610E+00   -8.395E+00   -8.182E+00   -7.972E+00   -7.764E+00   -7.560E+00   -7.358E+00   -7.159E+00
    -6.963E+00   -6.770E+00   -6.579E+00   -6.392E+00   -6.208E+00   -6.027E+00   -5.850E+00   -5.675E+00   -5.504E+00   -5.336E+00
    -5.171E+00   -5.010E+00   -4.852E+00   -4.698E+00   -4.547E+00   -4.400E+00   -4.256E+00   -4.116E+00   -3.979E+00   -3.847E+00
    -3.718E+00   -3.593E+00   -3.471E+00   -3.354E+00   -3.239E+00   -3.129E+00   -3.021E+00   -2.918E+00   -2.817E+00   -2.720E+00
    -2.626E+00   -2.535E+00   -2.447E+00   -2.362E+00   -2.281E+00   -2.202E+00   -2.126E+00   -2.053E+00   -1.982E+00   -1.914E+00
    -1.849E+00   -1.786E+00   -1.726E+00   -1.669E+00   -1.613E+00   -1.560E+00   -1.509E+00   -1.461E+00   -1.414E+00   -1.370E+00
    -1.327E+00   -1.287E+00   -1.248E+00   -1.211E+00   -1.176E+00   -1.142E+00   -1.111E+00   -1.080E+00   -1.052E+00   -1.024E+00
    -9.982E-01   -9.735E-01   -9.501E-01   -9.279E-01   -9.068E-01   -8.867E-01   -8.677E-01   -8.496E-01   -8.324E-01   -8.160E-01
    -8.003E-01   -7.854E-01   -7.710E-01   -7.573E-01   -7.441E-01   -7.313E-01   -7.189E-01   -7.069E-01   -6.951E-01   -6.836E-01
    -6.721E-01   -6.608E-01   -6.496E-01   -6.383E-01   -6.269E-01   -6.153E-01   -6.036E-01   -5.916E-01   -5.793E-01   -5.667E-01
    -5.535E-01   -5.400E-01   -5.258E-01   -5.111E-01   -4.957E-01   -4.796E-01   -4.627E-01   -4.450E-01   -4.264E-01   -4.069E-01
    -3.863E-01   -3.648E-01   -3.421E-01   -3.183E-01   -2.933E-01   -2.670E-01   -2.395E-01   -2.105E-01   -1.802E-01   -1.483E-01
    -1.150E-01   -8.011E-02   -4.359E-02   -5.410E-03    3.449E-02    7.615E-02    1.196E-01    1.650E-01    2.122E-01    2.614E-01
     3.126E-01    3.657E-01    4.207E-01    4.775E-01    5.361E-01    5.965E-01    6.586E-01    7.223E-01    7.876E-01    8.545E-01
     9.229E-01    9.928E-01    1.064E+00    1.137E+00    1.211E+00    1.286E+00    1.362E+00    1.440E+00    1.519E+00    1.599E+00
     1.680E+00    1.762E+00    1.845E+00    1.928E+00    2.013E+00    2.099E+00    2.185E+00    2.272E+00    2.360E+00    2.448E+00
     2.537E+00    2.626E+00    2.716E+00    2.807E+00    2.898E+00    2.989E+00    3.081E+00    3.173E+00    3.265E+00    3.357E+00
     3.450E+00    3.543E+00    3.635E+00    3.728E+00    3.821E+00    3.914E+00    4.007E+00    4.099E+00    4.192E+00    4.284E+00
     4.376E+00    4.468E+00    4.559E+00    4.650E+00    4.741E+00    4.831E+00    4.921E+00    5.011E+00    5.099E+00    5.188E+00
     5.275E+00    5.362E+00    5.449E+00    5.534E+00    5.619E+00    5.703E+00    5.786E+00    5.869E+00    5.950E+00    6.031E+00
     6.110E+00    6.189E+00    6.267E+00    6.343E+00    6.419E+00    6.493E+00    6.566E+00    6.638E+00    6.709E+00    6.779E+00
     6.847E+00    6.914E+00    6.980E+00    7.044E+00    7.107E+00    7.169E+00    7.229E+00    7.288E+00    7.345E+00    7.401E+00
     7.455E+00    7.508E+00    7.559E+00    7.609E+00    7.657E+00    7.703E+00    7.747E+00    7.790E+00    7.831E+00    7.871E+00
     7.909E+00    7.945E+00    7.979E+00    8.012E+00    8.043E+00    8.072E+00    8.100E+00    8.127E+00    8.151E+00    8.175E+00
     8.197E+00    8.217E+00    8.236E+00    8.254E+00    8.270E+00    8.284E+00    8.298E+00    8.310E+00    8.321E+00    8.330E+00
     8.339E+00    8.346E+00    8.352E+00    8.356E+00    8.360E+00    8.362E+00    8.364E+00    8.364E+00    8.363E+00    8.361E+00
     8.358E+00    8.354E+00    8.349E+00    8.343E+00    8.336E+00    8.328E+00    8.319E+00    8.309E+00    8.299E+00    8.287E+00
     8.275E+00    8.262E+00    8.248E+00    8.233E+00    8.218E+00    8.201E+00    8.185E+00    8.167E+00    8.149E+00    8.130E+00
     8.110E+00    8.090E+00    8.069E+00    8.047E+00    8.025E+00    8.003E+00    7.980E+00    7.956E+00    7.932E+00    7.907E+00
     7.882E+00    7.856E+00    7.830E+00    7.803E+00    7.776E+00    7.749E+00    7.721E+00    7.693E+00    7.664E+00    7.635E+00
     7.606E+00    7.577E+00    7.547E+00    7.517E+00    7.486E+00    7.455E+00    7.424E+00    7.393E+00    7.362E+00    7.330E+00
     7.298E+00    7.266E+00    7.234E+00    7.201E+00    7.169E+00    7.136E+00    7.103E+00    7.070E+00    7.037E+00    7.003E+00
     6.970E+00    6.936E+00    6.903E+00    6.869E+00    6.835E+00    6.802E+00    6.768E+00    6.734E+00    6.700E+00    6.666E+00
     6.632E+00    6.598E+00    6.564E+00    6.529E+00    6.495E+00    6.461E+00    6.426E+00    6.392E+00    6.357E+00    6.323E+00
     6.288E+00    6.253E+00    6.218E+00    6.183E+00    6.148E+00    6.113E+00    6.078E+00    6.042E+00    6.007E+00    5.971E+00
     5.936E+00    5.900E+00    5.864E+00    5.827E+00    5.791E+00    5.755E+00    5.718E+00    5.681E+00    5.645E+00    5.608E+00
     5.570E+00    5.533E+00    5.495E+00    5.458E+00    5.420E+00    5.382E+00    5.344E+00    5.305E+00    5.267E+00    5.228E+00
     5.189E+00    5.150E+00    5.111E+00    5.072E+00    5.032E+00    4.992E+00    4.952E+00    4.912E+00    4.871E+00    4.831E+00
     4.790E+00    4.749E+00    4.708E+00    4.666E+00    4.625E+00    4.583E+00    4.541E+00    4.498E+00    4.456E+00    4.413E+00
     4.370E+00    4.327E+00    4.284E+00    4.240E+00    4.196E+00    4.152E+00    4.108E+00    4.064E+00    4.019E+00    3.974E+00
     3.929E+00    3.883E+00    3.838E+00    3.792E+00    3.746E+00    3.700E+00    3.653E+00    3.607E+00    3.560E+00    3.513E+00
     3.465E+00    3.418E+00    3.370E+00    3.322E+00    3.274E+00    3.225E+00    3.176E+00    3.127E+00    3.078E+00    3.029E+00
     2.979E+00    2.930E+00    2.880E+00    2.829E+00    2.779E+00    2.728E+00    2.677E+00    2.626E+00
 Ala      Conc. = 2.97E+02
