 LCModel (Version 6.3-1L) Copyright: S.W. Provencher.          Ref.: Magn. Reson. Med. 30:672-679 (1993).                
 Slice#2 Row#9 Col#4  PD_05_press_1_raw_act
 36 lines in following concentration table = NCONC+1
    Conc.  %SD /Cr+PCr  Metabolite                                         
  108.157  71% 9.7E-02 Ala                                                 
    0.000 999%   0.000 Asp                                                 
  504.967  30%   0.455 Cr                                                  
  605.842  26%   0.545 PCr                                                 
   10.652 999% 9.6E-03 GABA                                                
    0.000 999%   0.000 Glc                                                 
  629.865  26%   0.567 Gln                                                 
 1.43E+03  14%   1.291 Glu                                                 
  387.582   4%   0.349 GPC                                                 
    0.000 999%   0.000 PCh                                                 
  342.216  14%   0.308 GSH                                                 
  571.000  30%   0.514 Ins                                                 
   32.298 275% 2.9E-02 Lac                                                 
 2.03E+03   6%   1.826 NAA                                                 
  233.057  52%   0.210 NAAG                                                
   52.789  35% 4.8E-02 Scyllo                                              
    0.000 999%   0.000 Tau                                                 
    0.000 999%   0.000 -CrCH2                                              
  387.582   4%   0.349 GPC+PCh                                             
 2.26E+03   3%   2.036 NAA+NAAG                                            
 1.11E+03   3%   1.000 Cr+PCr                                              
 2.06E+03  14%   1.858 Glu+Gln                                             
  306.853 107%   0.276 Lip13a                                              
   68.024 147% 6.1E-02 Lip13b                                              
    0.000 999%   0.000 Lip09                                               
 1.22E+03  13%   1.094 MM09                                                
   81.074 118% 7.3E-02 Lip20                                               
 3.10E+03   9%   2.792 MM20                                                
  414.964  29%   0.374 MM12                                                
 1.34E+03  20%   1.210 MM14                                                
 1.15E+03  19%   1.034 MM17                                                
  374.877  71%   0.337 Lip13a+Lip13b                                       
 2.13E+03  15%   1.921 MM14+Lip13a+Lip13b+MM12                             
 1.22E+03  13%   1.094 MM09+Lip09                                          
 3.18E+03   9%   2.865 MM20+Lip20                                          
   6 lines in following misc. output table
  FWHM = 0.054 ppm    S/N =  18                                            
  Data shift = 0.000 ppm                                                   
  Ph: -21 deg      -8.6 deg/ppm                                            
  alphaB,S = 7.9E-01,   1.9E+02                                            
   14 spline knots.   Ns = 8(1)                                            
  (12) 3 infls.   ( 7) 1 extrs.                                            
  498 points on ppm-axis = NY
      4.000000     3.992357     3.984714     3.977070     3.969427     3.961784     3.954141     3.946497     3.938854     3.931211
      3.923568     3.915925     3.908281     3.900638     3.892995     3.885352     3.877708     3.870065     3.862422     3.854779
      3.847136     3.839492     3.831849     3.824206     3.816563     3.808919     3.801276     3.793633     3.785990     3.778347
      3.770703     3.763060     3.755417     3.747774     3.740130     3.732487     3.724844     3.717201     3.709558     3.701914
      3.694271     3.686628     3.678985     3.671341     3.663698     3.656055     3.648412     3.640769     3.633125     3.625482
      3.617839     3.610196     3.602552     3.594909     3.587266     3.579623     3.571980     3.564336     3.556693     3.549050
      3.541407     3.533763     3.526120     3.518477     3.510834     3.503191     3.495547     3.487904     3.480261     3.472618
      3.464974     3.457331     3.449688     3.442045     3.434402     3.426758     3.419115     3.411472     3.403829     3.396185
      3.388542     3.380899     3.373256     3.365613     3.357969     3.350326     3.342683     3.335040     3.327396     3.319753
      3.312110     3.304467     3.296824     3.289180     3.281537     3.273894     3.266251     3.258607     3.250964     3.243321
      3.235678     3.228034     3.220391     3.212748     3.205105     3.197462     3.189818     3.182175     3.174532     3.166889
      3.159245     3.151602     3.143959     3.136316     3.128673     3.121029     3.113386     3.105743     3.098100     3.090456
      3.082813     3.075170     3.067527     3.059884     3.052240     3.044597     3.036954     3.029311     3.021667     3.014024
      3.006381     2.998738     2.991095     2.983451     2.975808     2.968165     2.960522     2.952878     2.945235     2.937592
      2.929949     2.922306     2.914662     2.907019     2.899376     2.891733     2.884089     2.876446     2.868803     2.861160
      2.853517     2.845873     2.838230     2.830587     2.822944     2.815300     2.807657     2.800014     2.792371     2.784728
      2.777084     2.769441     2.761798     2.754155     2.746511     2.738868     2.731225     2.723582     2.715939     2.708295
      2.700652     2.693009     2.685366     2.677722     2.670079     2.662436     2.654793     2.647150     2.639506     2.631863
      2.624220     2.616577     2.608933     2.601290     2.593647     2.586004     2.578361     2.570717     2.563074     2.555431
      2.547788     2.540144     2.532501     2.524858     2.517215     2.509572     2.501928     2.494285     2.486642     2.478999
      2.471355     2.463712     2.456069     2.448426     2.440783     2.433139     2.425496     2.417853     2.410210     2.402566
      2.394923     2.387280     2.379637     2.371994     2.364350     2.356707     2.349064     2.341421     2.333777     2.326134
      2.318491     2.310848     2.303205     2.295561     2.287918     2.280275     2.272632     2.264988     2.257345     2.249702
      2.242059     2.234416     2.226772     2.219129     2.211486     2.203843     2.196199     2.188556     2.180913     2.173270
      2.165627     2.157983     2.150340     2.142697     2.135054     2.127410     2.119767     2.112124     2.104481     2.096838
      2.089194     2.081551     2.073908     2.066265     2.058621     2.050978     2.043335     2.035692     2.028049     2.020405
      2.012762     2.005119     1.997476     1.989833     1.982190     1.974546     1.966903     1.959260     1.951617     1.943974
      1.936331     1.928688     1.921045     1.913402     1.905759     1.898115     1.890472     1.882829     1.875186     1.867543
      1.859900     1.852257     1.844614     1.836971     1.829327     1.821684     1.814041     1.806398     1.798755     1.791112
      1.783469     1.775826     1.768183     1.760540     1.752896     1.745253     1.737610     1.729967     1.722324     1.714681
      1.707038     1.699395     1.691752     1.684108     1.676465     1.668822     1.661179     1.653536     1.645893     1.638250
      1.630607     1.622964     1.615321     1.607677     1.600034     1.592391     1.584748     1.577105     1.569462     1.561819
      1.554176     1.546533     1.538890     1.531246     1.523603     1.515960     1.508317     1.500674     1.493031     1.485388
      1.477745     1.470102     1.462458     1.454815     1.447172     1.439529     1.431886     1.424243     1.416600     1.408957
      1.401314     1.393671     1.386027     1.378384     1.370741     1.363098     1.355455     1.347812     1.340169     1.332526
      1.324883     1.317240     1.309596     1.301953     1.294310     1.286667     1.279024     1.271381     1.263738     1.256095
      1.248452     1.240808     1.233165     1.225522     1.217879     1.210236     1.202593     1.194950     1.187307     1.179664
      1.172021     1.164377     1.156734     1.149091     1.141448     1.133805     1.126162     1.118519     1.110876     1.103233
      1.095590     1.087946     1.080303     1.072660     1.065017     1.057374     1.049731     1.042088     1.034445     1.026802
      1.019158     1.011515     1.003872     0.996229     0.988586     0.980943     0.973300     0.965657     0.958014     0.950371
      0.942727     0.935084     0.927441     0.919798     0.912155     0.904512     0.896869     0.889226     0.881583     0.873940
      0.866296     0.858653     0.851010     0.843367     0.835724     0.828081     0.820438     0.812795     0.805152     0.797508
      0.789865     0.782222     0.774579     0.766936     0.759293     0.751650     0.744007     0.736364     0.728721     0.721077
      0.713434     0.705791     0.698148     0.690505     0.682862     0.675219     0.667576     0.659933     0.652290     0.644646
      0.637003     0.629360     0.621717     0.614074     0.606431     0.598788     0.591145     0.583502     0.575858     0.568215
      0.560572     0.552929     0.545286     0.537643     0.530000     0.522357     0.514714     0.507071     0.499427     0.491784
      0.484141     0.476498     0.468855     0.461212     0.453569     0.445925     0.438282     0.430639     0.422996     0.415353
      0.407710     0.400067     0.392424     0.384780     0.377137     0.369494     0.361851     0.354208     0.346565     0.338922
      0.331278     0.323635     0.315992     0.308349     0.300706     0.293063     0.285420     0.277777     0.270133     0.262490
      0.254847     0.247204     0.239561     0.231918     0.224275     0.216631     0.208988     0.201345
 NY phased data points follow
   1.71592E+01  1.70783E+01  1.91587E+01  1.92037E+01  2.18044E+01  2.37910E+01  2.79108E+01  3.09460E+01  3.24209E+01  3.67506E+01
   3.90193E+01  3.92597E+01  3.67500E+01  3.52979E+01  3.24383E+01  2.72435E+01  2.51758E+01  2.15883E+01  1.84809E+01  1.95674E+01
   2.10875E+01  1.92872E+01  1.72487E+01  1.95110E+01  1.93694E+01  2.00819E+01  1.87073E+01  2.09437E+01  2.07102E+01  2.15719E+01
   2.16203E+01  1.97300E+01  1.85004E+01  1.82946E+01  1.77477E+01  2.01799E+01  1.64288E+01  1.64550E+01  1.59522E+01  1.53830E+01
   1.53861E+01  1.64247E+01  1.42885E+01  1.54290E+01  1.68828E+01  1.88296E+01  1.72330E+01  1.96813E+01  2.04860E+01  1.92309E+01
   1.78253E+01  1.63092E+01  1.42377E+01  1.66300E+01  1.21494E+01  1.25550E+01  1.22895E+01  1.08283E+01  1.27660E+01  1.08381E+01
   1.28067E+01  1.20654E+01  6.83623E+00  4.96082E+00  6.78705E+00  6.80283E+00  8.66877E+00  4.54557E+00  9.50948E+00  5.34618E+00
   7.91423E+00  8.40388E+00  6.87697E+00  6.91338E+00  7.40652E+00  7.44519E+00  8.48833E+00  4.24031E+00  6.05626E+00  4.24000E+00
   3.83545E+00  4.26959E+00  6.35992E+00  6.30354E+00  8.37791E+00  6.72559E+00  7.15179E+00  8.51624E+00  6.50313E+00  8.58249E+00
   1.00610E+01  5.50891E+00  8.30774E+00  7.68855E+00  8.79633E+00  1.20066E+01  1.08550E+01  9.10619E+00  1.58522E+01  1.66375E+01
   2.15297E+01  2.99400E+01  3.52947E+01  3.80971E+01  3.73033E+01  3.21481E+01  2.68335E+01  2.38564E+01  2.07864E+01  1.53613E+01
   1.13428E+01  1.08884E+01  9.38370E+00  6.49302E+00  1.07038E+01  6.77065E+00  8.25457E+00  1.02407E+01  8.84211E+00  1.08756E+01
   1.17269E+01  1.30099E+01  1.47230E+01  1.71261E+01  2.51846E+01  2.83243E+01  3.46668E+01  3.80942E+01  3.77892E+01  3.36393E+01
   2.92616E+01  2.42027E+01  2.07816E+01  1.68584E+01  1.10182E+01  7.52000E+00  6.38628E+00  6.20391E+00  2.95411E+00  4.26403E+00
   4.33190E+00  3.61408E+00  2.91833E+00  3.82127E+00  3.21716E+00  3.96853E+00  3.14075E+00  2.82254E+00  1.06516E+00  4.59293E+00
   4.02673E+00  2.26854E+00  9.39326E-01  2.29585E+00  3.07809E+00  3.69345E+00  3.00350E+00  7.16814E-01  4.39901E+00  2.03563E+00
   3.44237E+00 -1.02078E+00 -1.12841E+00  1.07459E+00 -2.44135E+00  5.54610E-01  1.28427E+00 -6.21833E-01 -1.19351E+00 -3.96432E+00
  -3.91769E+00 -5.20884E+00 -6.59417E+00 -5.30741E+00 -9.01596E+00 -9.68337E+00 -7.63623E+00 -7.86498E+00 -7.18874E+00 -7.56709E+00
  -4.36054E+00 -5.47661E+00 -6.84155E+00 -6.17903E+00 -7.32675E+00 -5.94706E+00 -3.81185E+00 -3.25205E+00 -3.96193E+00 -1.00663E+00
   1.40126E+00  2.68125E+00  2.90341E+00  3.78434E+00  1.29843E+00  3.34012E-01  2.36917E+00  2.49182E+00 -2.62724E+00  1.04964E+00
   1.00965E+00 -1.02205E+00 -3.84730E-02  3.73319E+00  3.11493E+00  1.93711E+00  1.24544E-01 -2.69576E-01  9.37588E-01  5.13602E-01
  -1.22215E+00  5.56640E-01  9.66125E-02  3.75891E+00  6.24175E+00  7.56105E+00  1.27789E+01  9.29613E+00  1.06976E+01  4.86271E+00
   3.72641E+00  9.20063E-01 -1.76809E+00 -9.80831E-02  2.18376E-01  4.06328E+00  3.90223E+00  5.09657E+00  6.94064E+00  9.62957E+00
   6.00011E+00  6.75910E+00  6.88626E+00  5.90599E+00  8.09046E+00  6.64610E+00  6.13338E+00  9.04615E+00  6.37222E+00  9.29957E+00
   9.39090E+00  6.47932E+00  5.66331E+00  8.59690E+00  8.47554E+00  1.23706E+01  9.99615E+00  1.33308E+01  1.32729E+01  1.83710E+01
   1.73172E+01  1.85405E+01  2.16238E+01  2.58079E+01  3.29342E+01  3.62924E+01  4.44973E+01  5.50534E+01  6.14285E+01  6.94531E+01
   7.50417E+01  7.47433E+01  7.02274E+01  5.45737E+01  4.14314E+01  3.28555E+01  2.51713E+01  1.75148E+01  1.46744E+01  1.08931E+01
   8.01190E+00  6.94902E+00  7.76700E+00  9.77492E+00  1.02221E+01  6.90514E+00  6.48132E+00  5.21750E+00  5.37851E+00  8.06097E+00
   6.23546E+00  6.69287E+00  4.74248E+00  5.70059E+00  4.38090E+00  4.24159E+00  2.63059E+00  4.49562E+00  3.98031E+00  5.68571E+00
   5.01715E+00  6.67559E+00  5.07275E+00  5.98486E+00  6.71380E+00  4.95447E+00  6.40557E+00  6.66602E+00  5.56532E+00  2.88517E+00
   1.00445E+01  6.72753E+00  6.58600E+00  9.59936E+00  5.80136E+00  9.69496E+00  6.03584E+00  8.55027E+00  1.07280E+01  6.19309E+00
   8.74395E+00  1.01544E+01  8.94909E+00  6.74822E+00  9.37643E+00  8.62702E+00  8.93240E+00  8.53741E+00  6.96371E+00  8.45684E+00
   1.10884E+01  1.00321E+01  8.09553E+00  4.45137E+00  8.81522E+00  5.80021E+00  7.61030E+00  1.09928E+01  7.75937E+00  8.23496E+00
   8.74078E+00  7.28917E+00  8.06027E+00  5.97180E+00  7.30275E+00  7.37492E+00  5.94994E+00  6.40209E+00  8.33053E+00  8.25144E+00
   8.41932E+00  9.08257E+00  8.45974E+00  9.16074E+00  6.75482E+00  7.98753E+00  9.15423E+00  3.99785E+00  8.23986E+00  6.50396E+00
   6.62840E+00  6.37476E+00  4.94861E+00  8.00792E+00  7.34833E+00  6.28123E+00  9.76980E+00  5.97145E+00  6.81564E+00  4.66687E+00
   6.71631E+00  5.57121E+00  6.49621E+00  3.99879E+00  3.82855E+00  2.12038E+00  4.81639E+00  6.70052E+00  5.43375E+00  5.15589E+00
   4.17850E+00  5.73427E+00  4.69334E+00  6.33394E+00  6.15943E+00  4.18761E+00  7.07788E+00  2.73076E+00  5.99045E+00  3.07805E+00
   5.71708E+00  5.40070E+00  4.75120E+00  4.54278E+00  5.17700E+00  7.14144E+00  3.83542E+00  4.24784E+00  5.11123E+00  5.71468E+00
   8.01134E+00  5.57390E+00  5.95988E+00  5.63549E+00  4.56099E+00  3.97482E+00  9.51813E+00  7.49256E+00  1.11178E+01  5.80195E+00
   7.14509E+00  7.06223E+00  8.13978E+00  7.81836E+00  7.66558E+00  9.92197E+00  6.57829E+00  6.34333E+00  7.13845E+00  9.24373E+00
   8.30964E+00  8.14435E+00  5.96133E+00  6.15790E+00  5.66816E+00  7.72733E+00  4.99232E+00  3.39302E+00  4.28591E+00  2.28760E+00
   4.11925E+00  1.78353E+00  2.82087E+00  3.17130E+00  7.26973E-01  3.04658E+00  2.28371E+00  2.96109E+00  9.08942E-01  1.38354E+00
   2.34853E+00  2.01095E+00  3.44160E-02  3.26330E+00  1.13619E+00  3.70085E-01  8.46375E-01  1.12603E+00  3.52303E+00  3.16076E-01
   1.15279E+00  2.29346E+00  4.55554E-01  8.44502E-01  2.64558E+00 -1.40068E+00  1.14191E+00  1.78931E+00  1.32137E+00  2.64454E+00
   3.36862E+00  4.72681E-03  2.18278E+00  2.23717E+00  1.89748E+00 -1.25766E+00  3.81979E-01  3.57727E-01  1.98081E+00  1.98691E+00
   1.08126E+00  2.02356E+00  2.03590E+00 -2.50274E+00  2.37691E+00  1.45206E-01 -5.24950E-01  3.74223E-01  5.85566E-01  1.84531E+00
   1.90420E+00  7.73364E-01  3.00486E+00  2.95029E+00  4.61165E-01  4.57763E-01  2.45608E+00  1.24986E+00  1.82125E+00  6.21955E-01
   1.75414E+00  1.27532E+00  3.99948E+00  2.82574E+00  1.07411E+00  1.39455E+00  9.42716E-01  1.87156E+00  5.34022E-01  1.64540E+00
   4.49830E-02  3.92650E+00  4.48473E+00  4.52054E-01  2.33289E+00 -7.76276E-01  1.16368E+00  8.37486E-01
 NY points of the fit to the data follow
   1.74803E+01  1.78195E+01  1.86246E+01  1.98850E+01  2.16124E+01  2.37874E+01  2.65262E+01  2.97986E+01  3.32644E+01  3.62737E+01
   3.80808E+01  3.82069E+01  3.66799E+01  3.39876E+01  3.07947E+01  2.76537E+01  2.48976E+01  2.25882E+01  2.06820E+01  1.92881E+01
   1.82787E+01  1.77294E+01  1.75792E+01  1.75079E+01  1.75041E+01  1.76990E+01  1.82190E+01  1.90576E+01  2.00348E+01  2.09659E+01
   2.16684E+01  2.19326E+01  2.16945E+01  2.10212E+01  2.00075E+01  1.87464E+01  1.73242E+01  1.59351E+01  1.48428E+01  1.43204E+01
   1.43292E+01  1.45970E+01  1.50108E+01  1.55195E+01  1.60813E+01  1.66284E+01  1.70350E+01  1.71843E+01  1.69700E+01  1.63342E+01
   1.54000E+01  1.44078E+01  1.35202E+01  1.28016E+01  1.22398E+01  1.18024E+01  1.15072E+01  1.13683E+01  1.13290E+01  1.12979E+01
   1.11975E+01  1.09728E+01  1.06086E+01  1.01647E+01  9.73972E+00  9.39534E+00  9.16012E+00  9.02840E+00  8.97625E+00  8.97910E+00
   8.99845E+00  8.99695E+00  8.94511E+00  8.82100E+00  8.62882E+00  8.39463E+00  8.15330E+00  7.93444E+00  7.76836E+00  7.70975E+00
   7.67474E+00  7.62195E+00  7.61126E+00  7.68537E+00  7.83062E+00  7.98497E+00  8.06871E+00  7.99723E+00  7.73912E+00  7.33110E+00
   6.88091E+00  6.51142E+00  6.28156E+00  6.21600E+00  6.58257E+00  8.11251E+00  1.02839E+01  1.24599E+01  1.50231E+01  1.86575E+01
   2.35453E+01  2.90884E+01  3.41351E+01  3.72904E+01  3.74506E+01  3.44782E+01  2.94286E+01  2.38771E+01  1.88929E+01  1.47624E+01
   1.14292E+01  8.77217E+00  6.80268E+00  5.81524E+00  5.47185E+00  5.32680E+00  5.28405E+00  5.36756E+00  5.90898E+00  7.68076E+00
   1.00627E+01  1.24471E+01  1.52840E+01  1.92297E+01  2.43837E+01  3.00947E+01  3.51456E+01  3.81375E+01  3.80835E+01  3.49737E+01
   2.99162E+01  2.44472E+01  1.94786E+01  1.51933E+01  1.15061E+01  8.39093E+00  6.05092E+00  4.92788E+00  4.65317E+00  4.71580E+00
   4.88448E+00  5.00221E+00  4.98711E+00  4.84206E+00  4.58774E+00  4.26093E+00  3.90173E+00  3.53196E+00  3.17492E+00  2.84732E+00
   2.54579E+00  2.28804E+00  2.04086E+00  1.75431E+00  1.49169E+00  1.29808E+00  1.15908E+00  1.02510E+00  7.75093E-01  4.09011E-01
   3.50456E-02 -2.29859E-01 -3.32614E-01 -3.05538E-01 -2.71867E-01 -3.82999E-01 -7.06457E-01 -1.20419E+00 -1.78248E+00 -2.27569E+00
  -2.61656E+00 -2.92220E+00 -3.27445E+00 -3.70574E+00 -4.09300E+00 -4.30212E+00 -4.33538E+00 -4.24234E+00 -4.11109E+00 -4.05808E+00
  -4.04470E+00 -3.98118E+00 -3.81210E+00 -3.52423E+00 -3.13237E+00 -2.66101E+00 -2.07900E+00 -1.29648E+00 -3.18076E-01  6.85005E-01
   1.45396E+00  1.82524E+00  1.81969E+00  1.56637E+00  1.20617E+00  9.13680E-01  8.55620E-01  1.04090E+00  1.49115E+00  2.18641E+00
   2.98539E+00  3.71110E+00  4.20396E+00  4.39445E+00  4.13009E+00  3.25849E+00  1.91880E+00  4.21002E-01 -8.56017E-01 -1.58708E+00
  -1.75720E+00 -1.25627E+00 -4.53617E-02  1.72621E+00  3.68896E+00  5.33091E+00  6.31284E+00  6.42357E+00  5.47338E+00  3.59407E+00
   1.32099E+00 -6.73860E-01 -1.93719E+00 -2.25780E+00 -1.52161E+00  1.08117E-01  2.17030E+00  4.10929E+00  5.55829E+00  6.55414E+00
   7.15828E+00  7.48609E+00  7.71101E+00  7.91702E+00  8.15248E+00  8.47567E+00  8.87151E+00  9.27547E+00  9.53369E+00  9.49282E+00
   9.18849E+00  8.81532E+00  8.59568E+00  8.69141E+00  9.18183E+00  1.00234E+01  1.10714E+01  1.21964E+01  1.33958E+01  1.45302E+01
   1.56114E+01  1.72661E+01  2.12978E+01  2.69414E+01  3.24624E+01  3.82391E+01  4.53019E+01  5.38398E+01  6.28128E+01  7.04940E+01
   7.47363E+01  7.36210E+01  6.67866E+01  5.61202E+01  4.46378E+01  3.44579E+01  2.61779E+01  1.95595E+01  1.42550E+01  1.01849E+01
   7.98534E+00  7.12116E+00  6.64368E+00  6.33003E+00  6.11264E+00  5.94275E+00  5.75345E+00  5.52835E+00  5.28316E+00  5.04013E+00
   4.81774E+00  4.62858E+00  4.47831E+00  4.37137E+00  4.31333E+00  4.29760E+00  4.31103E+00  4.34860E+00  4.41448E+00  4.51446E+00
   4.65088E+00  4.81983E+00  5.02010E+00  5.24868E+00  5.49735E+00  5.75752E+00  6.02500E+00  6.29665E+00  6.56940E+00  6.84025E+00
   7.10581E+00  7.36136E+00  7.60153E+00  7.81903E+00  8.00732E+00  8.16194E+00  8.28026E+00  8.36162E+00  8.40699E+00  8.41840E+00
   8.40026E+00  8.35789E+00  8.29692E+00  8.22371E+00  8.14528E+00  8.06894E+00  8.00239E+00  7.95424E+00  7.93652E+00  7.96915E+00
   8.03442E+00  8.08198E+00  8.13161E+00  8.20737E+00  8.29262E+00  8.33500E+00  8.27490E+00  8.09749E+00  7.84952E+00  7.54802E+00
   7.24841E+00  7.04481E+00  7.00518E+00  7.13705E+00  7.40816E+00  7.76401E+00  8.12535E+00  8.41191E+00  8.56048E+00  8.55535E+00
   8.44082E+00  8.26157E+00  8.05652E+00  7.84731E+00  7.63414E+00  7.41852E+00  7.21923E+00  7.03684E+00  6.86611E+00  6.70950E+00
   6.58925E+00  6.53001E+00  6.53711E+00  6.59380E+00  6.67303E+00  6.74270E+00  6.77033E+00  6.73470E+00  6.62695E+00  6.45867E+00
   6.25627E+00  6.04013E+00  5.82351E+00  5.61437E+00  5.41777E+00  5.24340E+00  5.09187E+00  4.95713E+00  4.83520E+00  4.72348E+00
   4.62046E+00  4.52562E+00  4.43930E+00  4.36243E+00  4.29644E+00  4.24309E+00  4.20438E+00  4.18239E+00  4.17908E+00  4.19624E+00
   4.23549E+00  4.29828E+00  4.38585E+00  4.49907E+00  4.63841E+00  4.80381E+00  4.99478E+00  5.21027E+00  5.44862E+00  5.70741E+00
   5.98343E+00  6.27269E+00  6.57050E+00  6.87150E+00  7.16972E+00  7.45867E+00  7.73150E+00  7.98132E+00  8.20146E+00  8.38568E+00
   8.52841E+00  8.62495E+00  8.67173E+00  8.66653E+00  8.60860E+00  8.49864E+00  8.33872E+00  8.13220E+00  7.88361E+00  7.59846E+00
   7.28301E+00  6.94388E+00  6.58783E+00  6.22149E+00  5.85116E+00  5.48271E+00  5.12131E+00  4.77134E+00  4.43629E+00  4.11887E+00
   3.82101E+00  3.54395E+00  3.28827E+00  3.05394E+00  2.84047E+00  2.64703E+00  2.47257E+00  2.31590E+00  2.17568E+00  2.05051E+00
   1.93899E+00  1.83979E+00  1.75170E+00  1.67358E+00  1.60437E+00  1.54304E+00  1.48870E+00  1.44059E+00  1.39806E+00  1.36052E+00
   1.32740E+00  1.29819E+00  1.27248E+00  1.24992E+00  1.23025E+00  1.21316E+00  1.19837E+00  1.18564E+00  1.17479E+00  1.16569E+00
   1.15821E+00  1.15219E+00  1.14746E+00  1.14393E+00  1.14152E+00  1.14018E+00  1.13983E+00  1.14037E+00  1.14170E+00  1.14377E+00
   1.14657E+00  1.15006E+00  1.15420E+00  1.15889E+00  1.16410E+00  1.16981E+00  1.17603E+00  1.18272E+00  1.18984E+00  1.19733E+00
   1.20517E+00  1.21338E+00  1.22195E+00  1.23087E+00  1.24008E+00  1.24954E+00  1.25927E+00  1.26929E+00  1.27958E+00  1.29012E+00
   1.30086E+00  1.31180E+00  1.32294E+00  1.33432E+00  1.34593E+00  1.35771E+00  1.36965E+00  1.38177E+00  1.39408E+00  1.40661E+00
   1.41933E+00  1.43222E+00  1.44526E+00  1.45850E+00  1.47197E+00  1.48569E+00  1.49962E+00  1.51377E+00
 NY background values follow
     1.608E+01    1.596E+01    1.583E+01    1.571E+01    1.558E+01    1.546E+01    1.533E+01    1.521E+01    1.508E+01    1.496E+01
     1.483E+01    1.471E+01    1.458E+01    1.446E+01    1.433E+01    1.421E+01    1.408E+01    1.396E+01    1.383E+01    1.371E+01
     1.358E+01    1.346E+01    1.333E+01    1.321E+01    1.308E+01    1.296E+01    1.283E+01    1.271E+01    1.258E+01    1.246E+01
     1.234E+01    1.221E+01    1.209E+01    1.196E+01    1.184E+01    1.172E+01    1.160E+01    1.147E+01    1.135E+01    1.123E+01
     1.110E+01    1.098E+01    1.086E+01    1.074E+01    1.062E+01    1.050E+01    1.038E+01    1.026E+01    1.014E+01    1.002E+01
     9.897E+00    9.778E+00    9.659E+00    9.540E+00    9.422E+00    9.304E+00    9.187E+00    9.069E+00    8.953E+00    8.836E+00
     8.720E+00    8.605E+00    8.490E+00    8.375E+00    8.261E+00    8.147E+00    8.034E+00    7.921E+00    7.808E+00    7.696E+00
     7.585E+00    7.474E+00    7.363E+00    7.253E+00    7.144E+00    7.035E+00    6.927E+00    6.819E+00    6.712E+00    6.605E+00
     6.499E+00    6.393E+00    6.289E+00    6.184E+00    6.081E+00    5.977E+00    5.875E+00    5.773E+00    5.672E+00    5.572E+00
     5.472E+00    5.373E+00    5.274E+00    5.177E+00    5.080E+00    4.983E+00    4.887E+00    4.792E+00    4.698E+00    4.604E+00
     4.512E+00    4.419E+00    4.328E+00    4.237E+00    4.147E+00    4.057E+00    3.968E+00    3.880E+00    3.793E+00    3.706E+00
     3.620E+00    3.534E+00    3.450E+00    3.366E+00    3.283E+00    3.200E+00    3.118E+00    3.037E+00    2.956E+00    2.877E+00
     2.797E+00    2.719E+00    2.641E+00    2.564E+00    2.488E+00    2.412E+00    2.337E+00    2.263E+00    2.190E+00    2.117E+00
     2.045E+00    1.973E+00    1.903E+00    1.833E+00    1.763E+00    1.695E+00    1.627E+00    1.560E+00    1.493E+00    1.427E+00
     1.362E+00    1.298E+00    1.235E+00    1.172E+00    1.110E+00    1.049E+00    9.888E-01    9.294E-01    8.708E-01    8.131E-01
     7.562E-01    7.002E-01    6.451E-01    5.910E-01    5.377E-01    4.853E-01    4.339E-01    3.835E-01    3.340E-01    2.855E-01
     2.379E-01    1.914E-01    1.459E-01    1.014E-01    5.791E-02    1.549E-02   -2.587E-02   -6.616E-02   -1.054E-01   -1.435E-01
    -1.805E-01   -2.164E-01   -2.511E-01   -2.847E-01   -3.172E-01   -3.485E-01   -3.786E-01   -4.075E-01   -4.352E-01   -4.617E-01
    -4.870E-01   -5.110E-01   -5.338E-01   -5.554E-01   -5.758E-01   -5.950E-01   -6.131E-01   -6.300E-01   -6.458E-01   -6.605E-01
    -6.742E-01   -6.868E-01   -6.984E-01   -7.090E-01   -7.186E-01   -7.273E-01   -7.350E-01   -7.418E-01   -7.477E-01   -7.528E-01
    -7.570E-01   -7.604E-01   -7.630E-01   -7.648E-01   -7.659E-01   -7.662E-01   -7.658E-01   -7.647E-01   -7.630E-01   -7.606E-01
    -7.575E-01   -7.539E-01   -7.497E-01   -7.449E-01   -7.397E-01   -7.338E-01   -7.275E-01   -7.208E-01   -7.135E-01   -7.059E-01
    -6.978E-01   -6.894E-01   -6.806E-01   -6.715E-01   -6.620E-01   -6.523E-01   -6.423E-01   -6.320E-01   -6.215E-01   -6.107E-01
    -5.998E-01   -5.886E-01   -5.772E-01   -5.656E-01   -5.538E-01   -5.418E-01   -5.297E-01   -5.173E-01   -5.048E-01   -4.922E-01
    -4.794E-01   -4.665E-01   -4.534E-01   -4.403E-01   -4.270E-01   -4.136E-01   -4.001E-01   -3.865E-01   -3.728E-01   -3.591E-01
    -3.453E-01   -3.315E-01   -3.175E-01   -3.036E-01   -2.896E-01   -2.756E-01   -2.616E-01   -2.476E-01   -2.336E-01   -2.195E-01
    -2.056E-01   -1.916E-01   -1.776E-01   -1.637E-01   -1.499E-01   -1.361E-01   -1.224E-01   -1.087E-01   -9.512E-02   -8.163E-02
    -6.824E-02   -5.495E-02   -4.178E-02   -2.872E-02   -1.578E-02   -2.958E-03    9.747E-03    2.233E-02    3.479E-02    4.713E-02
     5.935E-02    7.144E-02    8.340E-02    9.523E-02    1.069E-01    1.185E-01    1.300E-01    1.413E-01    1.524E-01    1.635E-01
     1.744E-01    1.851E-01    1.958E-01    2.062E-01    2.166E-01    2.268E-01    2.368E-01    2.467E-01    2.565E-01    2.661E-01
     2.756E-01    2.849E-01    2.940E-01    3.030E-01    3.119E-01    3.205E-01    3.291E-01    3.375E-01    3.457E-01    3.537E-01
     3.616E-01    3.693E-01    3.769E-01    3.843E-01    3.915E-01    3.985E-01    4.054E-01    4.121E-01    4.187E-01    4.251E-01
     4.313E-01    4.373E-01    4.432E-01    4.490E-01    4.545E-01    4.600E-01    4.653E-01    4.704E-01    4.754E-01    4.803E-01
     4.850E-01    4.896E-01    4.941E-01    4.984E-01    5.027E-01    5.068E-01    5.108E-01    5.146E-01    5.184E-01    5.221E-01
     5.256E-01    5.291E-01    5.324E-01    5.357E-01    5.388E-01    5.419E-01    5.449E-01    5.478E-01    5.506E-01    5.534E-01
     5.560E-01    5.586E-01    5.612E-01    5.636E-01    5.660E-01    5.684E-01    5.707E-01    5.729E-01    5.751E-01    5.772E-01
     5.793E-01    5.813E-01    5.833E-01    5.853E-01    5.872E-01    5.891E-01    5.910E-01    5.929E-01    5.948E-01    5.966E-01
     5.985E-01    6.004E-01    6.022E-01    6.041E-01    6.061E-01    6.080E-01    6.100E-01    6.120E-01    6.140E-01    6.161E-01
     6.183E-01    6.205E-01    6.228E-01    6.251E-01    6.275E-01    6.300E-01    6.326E-01    6.352E-01    6.380E-01    6.409E-01
     6.438E-01    6.469E-01    6.500E-01    6.533E-01    6.568E-01    6.603E-01    6.640E-01    6.678E-01    6.718E-01    6.759E-01
     6.802E-01    6.846E-01    6.892E-01    6.939E-01    6.989E-01    7.040E-01    7.093E-01    7.148E-01    7.205E-01    7.263E-01
     7.324E-01    7.387E-01    7.451E-01    7.517E-01    7.585E-01    7.655E-01    7.726E-01    7.800E-01    7.875E-01    7.951E-01
     8.030E-01    8.110E-01    8.192E-01    8.275E-01    8.360E-01    8.446E-01    8.534E-01    8.624E-01    8.715E-01    8.808E-01
     8.902E-01    8.998E-01    9.095E-01    9.194E-01    9.294E-01    9.395E-01    9.498E-01    9.602E-01    9.707E-01    9.814E-01
     9.922E-01    1.003E+00    1.014E+00    1.025E+00    1.037E+00    1.048E+00    1.060E+00    1.071E+00    1.083E+00    1.095E+00
     1.107E+00    1.119E+00    1.131E+00    1.143E+00    1.156E+00    1.168E+00    1.181E+00    1.194E+00    1.206E+00    1.219E+00
     1.232E+00    1.245E+00    1.258E+00    1.271E+00    1.285E+00    1.298E+00    1.311E+00    1.325E+00    1.338E+00    1.352E+00
     1.365E+00    1.379E+00    1.393E+00    1.406E+00    1.420E+00    1.434E+00    1.448E+00    1.461E+00    1.475E+00    1.489E+00
     1.503E+00    1.517E+00    1.531E+00    1.545E+00    1.559E+00    1.573E+00    1.587E+00    1.601E+00    1.615E+00    1.629E+00
     1.642E+00    1.656E+00    1.670E+00    1.684E+00    1.698E+00    1.712E+00    1.726E+00    1.739E+00
 Ala      Conc. = 1.08E+02
