 LCModel (Version 6.3-1L) Copyright: S.W. Provencher.          Ref.: Magn. Reson. Med. 30:672-679 (1993).                
 Slice#3 Row#4 Col#1  PD_05_press_1_raw_act
 36 lines in following concentration table = NCONC+1
    Conc.  %SD /Cr+PCr  Metabolite                                         
   49.981  53%   0.826 Ala                                                 
    7.645 112%   0.126 Asp                                                 
    0.000 999%   0.000 Cr                                                  
   60.514  20%   1.000 PCr                                                 
    5.086 101% 8.4E-02 GABA                                                
    3.808 135% 6.3E-02 Glc                                                 
   73.662  72%   1.217 Gln                                                 
   82.045  72%   1.356 Glu                                                 
    3.852 122% 6.4E-02 GPC                                                 
    0.000 999%   0.000 PCh                                                 
    0.000 999%   0.000 GSH                                                 
  111.368  52%   1.840 Ins                                                 
    0.000 999%   0.000 Lac                                                 
   53.630  31%   0.886 NAA                                                 
   23.354  71%   0.386 NAAG                                                
    0.944 179% 1.6E-02 Scyllo                                              
    2.306 369% 3.8E-02 Tau                                                 
    0.000 999%   0.000 -CrCH2                                              
    3.852 122% 6.4E-02 GPC+PCh                                             
   76.984  20%   1.272 NAA+NAAG                                            
   60.514  20%   1.000 Cr+PCr                                              
  155.708  52%   2.573 Glu+Gln                                             
  443.556  24%   7.330 Lip13a                                              
   79.041  55%   1.306 Lip13b                                              
    0.000 999%   0.000 Lip09                                               
    0.000 999%   0.000 MM09                                                
   77.207  56%   1.276 Lip20                                               
 9.84E-03 999% 1.6E-04 MM20                                                
 1.01E-03 999% 1.7E-05 MM12                                                
 2.28E-02 999% 3.8E-04 MM14                                                
 2.29E-02 999% 3.8E-04 MM17                                                
  522.598  15%   8.636 Lip13a+Lip13b                                       
  522.622  15%   8.636 MM14+Lip13a+Lip13b+MM12                             
    0.000 999%   0.000 MM09+Lip09                                          
   77.217  56%   1.276 MM20+Lip20                                          
   6 lines in following misc. output table
  FWHM = 0.054 ppm    S/N =   1                                            
  Data shift =-0.023 ppm                                                   
  Ph: 172 deg       2.8 deg/ppm                                            
  alphaB,S = 1.2E+00,   4.8E+01                                            
   14 spline knots.   Ns = 5(1)                                            
  ( 7) 2 infls.   ( 7) 1 extrs.                                            
  498 points on ppm-axis = NY
      4.000000     3.992357     3.984714     3.977070     3.969427     3.961784     3.954141     3.946497     3.938854     3.931211
      3.923568     3.915925     3.908281     3.900638     3.892995     3.885352     3.877708     3.870065     3.862422     3.854779
      3.847136     3.839492     3.831849     3.824206     3.816563     3.808919     3.801276     3.793633     3.785990     3.778347
      3.770703     3.763060     3.755417     3.747774     3.740130     3.732487     3.724844     3.717201     3.709558     3.701914
      3.694271     3.686628     3.678985     3.671341     3.663698     3.656055     3.648412     3.640769     3.633125     3.625482
      3.617839     3.610196     3.602552     3.594909     3.587266     3.579623     3.571980     3.564336     3.556693     3.549050
      3.541407     3.533763     3.526120     3.518477     3.510834     3.503191     3.495547     3.487904     3.480261     3.472618
      3.464974     3.457331     3.449688     3.442045     3.434402     3.426758     3.419115     3.411472     3.403829     3.396185
      3.388542     3.380899     3.373256     3.365613     3.357969     3.350326     3.342683     3.335040     3.327396     3.319753
      3.312110     3.304467     3.296824     3.289180     3.281537     3.273894     3.266251     3.258607     3.250964     3.243321
      3.235678     3.228034     3.220391     3.212748     3.205105     3.197462     3.189818     3.182175     3.174532     3.166889
      3.159245     3.151602     3.143959     3.136316     3.128673     3.121029     3.113386     3.105743     3.098100     3.090456
      3.082813     3.075170     3.067527     3.059884     3.052240     3.044597     3.036954     3.029311     3.021667     3.014024
      3.006381     2.998738     2.991095     2.983451     2.975808     2.968165     2.960522     2.952878     2.945235     2.937592
      2.929949     2.922306     2.914662     2.907019     2.899376     2.891733     2.884089     2.876446     2.868803     2.861160
      2.853517     2.845873     2.838230     2.830587     2.822944     2.815300     2.807657     2.800014     2.792371     2.784728
      2.777084     2.769441     2.761798     2.754155     2.746511     2.738868     2.731225     2.723582     2.715939     2.708295
      2.700652     2.693009     2.685366     2.677722     2.670079     2.662436     2.654793     2.647150     2.639506     2.631863
      2.624220     2.616577     2.608933     2.601290     2.593647     2.586004     2.578361     2.570717     2.563074     2.555431
      2.547788     2.540144     2.532501     2.524858     2.517215     2.509572     2.501928     2.494285     2.486642     2.478999
      2.471355     2.463712     2.456069     2.448426     2.440783     2.433139     2.425496     2.417853     2.410210     2.402566
      2.394923     2.387280     2.379637     2.371994     2.364350     2.356707     2.349064     2.341421     2.333777     2.326134
      2.318491     2.310848     2.303205     2.295561     2.287918     2.280275     2.272632     2.264988     2.257345     2.249702
      2.242059     2.234416     2.226772     2.219129     2.211486     2.203843     2.196199     2.188556     2.180913     2.173270
      2.165627     2.157983     2.150340     2.142697     2.135054     2.127410     2.119767     2.112124     2.104481     2.096838
      2.089194     2.081551     2.073908     2.066265     2.058621     2.050978     2.043335     2.035692     2.028049     2.020405
      2.012762     2.005119     1.997476     1.989833     1.982190     1.974546     1.966903     1.959260     1.951617     1.943974
      1.936331     1.928688     1.921045     1.913402     1.905759     1.898115     1.890472     1.882829     1.875186     1.867543
      1.859900     1.852257     1.844614     1.836971     1.829327     1.821684     1.814041     1.806398     1.798755     1.791112
      1.783469     1.775826     1.768183     1.760540     1.752896     1.745253     1.737610     1.729967     1.722324     1.714681
      1.707038     1.699395     1.691752     1.684108     1.676465     1.668822     1.661179     1.653536     1.645893     1.638250
      1.630607     1.622964     1.615321     1.607677     1.600034     1.592391     1.584748     1.577105     1.569462     1.561819
      1.554176     1.546533     1.538890     1.531246     1.523603     1.515960     1.508317     1.500674     1.493031     1.485388
      1.477745     1.470102     1.462458     1.454815     1.447172     1.439529     1.431886     1.424243     1.416600     1.408957
      1.401314     1.393671     1.386027     1.378384     1.370741     1.363098     1.355455     1.347812     1.340169     1.332526
      1.324883     1.317240     1.309596     1.301953     1.294310     1.286667     1.279024     1.271381     1.263738     1.256095
      1.248452     1.240808     1.233165     1.225522     1.217879     1.210236     1.202593     1.194950     1.187307     1.179664
      1.172021     1.164377     1.156734     1.149091     1.141448     1.133805     1.126162     1.118519     1.110876     1.103233
      1.095590     1.087946     1.080303     1.072660     1.065017     1.057374     1.049731     1.042088     1.034445     1.026802
      1.019158     1.011515     1.003872     0.996229     0.988586     0.980943     0.973300     0.965657     0.958014     0.950371
      0.942727     0.935084     0.927441     0.919798     0.912155     0.904512     0.896869     0.889226     0.881583     0.873940
      0.866296     0.858653     0.851010     0.843367     0.835724     0.828081     0.820438     0.812795     0.805152     0.797508
      0.789865     0.782222     0.774579     0.766936     0.759293     0.751650     0.744007     0.736364     0.728721     0.721077
      0.713434     0.705791     0.698148     0.690505     0.682862     0.675219     0.667576     0.659933     0.652290     0.644646
      0.637003     0.629360     0.621717     0.614074     0.606431     0.598788     0.591145     0.583502     0.575858     0.568215
      0.560572     0.552929     0.545286     0.537643     0.530000     0.522357     0.514714     0.507071     0.499427     0.491784
      0.484141     0.476498     0.468855     0.461212     0.453569     0.445925     0.438282     0.430639     0.422996     0.415353
      0.407710     0.400067     0.392424     0.384780     0.377137     0.369494     0.361851     0.354208     0.346565     0.338922
      0.331278     0.323635     0.315992     0.308349     0.300706     0.293063     0.285420     0.277777     0.270133     0.262490
      0.254847     0.247204     0.239561     0.231918     0.224275     0.216631     0.208988     0.201345
 NY phased data points follow
   1.74619E+01  1.70006E+01  1.70379E+01  1.70027E+01  1.71297E+01  1.89103E+01  1.69474E+01  1.83523E+01  1.74603E+01  1.70943E+01
   1.76590E+01  1.63480E+01  1.55202E+01  1.66596E+01  1.62856E+01  1.45951E+01  1.63134E+01  1.67743E+01  1.40523E+01  1.43918E+01
   1.52327E+01  1.46984E+01  1.43014E+01  1.49408E+01  1.29833E+01  1.41576E+01  1.38717E+01  1.48296E+01  1.28769E+01  1.40760E+01
   1.36448E+01  1.30677E+01  1.30280E+01  1.41030E+01  1.50640E+01  1.27725E+01  1.39574E+01  1.36910E+01  1.31569E+01  1.40478E+01
   1.45698E+01  1.41559E+01  1.28558E+01  1.39910E+01  1.18663E+01  1.20327E+01  1.25154E+01  1.28716E+01  1.38038E+01  1.38969E+01
   1.20699E+01  1.36348E+01  1.01881E+01  1.31689E+01  1.23864E+01  1.10789E+01  1.06820E+01  1.10073E+01  1.14262E+01  1.30845E+01
   1.12330E+01  1.11843E+01  1.04734E+01  1.08521E+01  1.17956E+01  1.09708E+01  9.48476E+00  1.14371E+01  8.99079E+00  1.05891E+01
   1.15002E+01  9.60608E+00  9.67560E+00  7.94642E+00  9.83010E+00  1.11534E+01  8.20267E+00  9.67317E+00  1.05224E+01  8.46106E+00
   8.94575E+00  9.24705E+00  9.37953E+00  9.30439E+00  9.55900E+00  8.57424E+00  8.33843E+00  9.67716E+00  7.32101E+00  9.44358E+00
   9.03707E+00  9.29320E+00  9.49255E+00  8.32345E+00  9.65069E+00  9.30624E+00  6.69728E+00  7.85708E+00  7.28127E+00  6.42085E+00
   8.24684E+00  8.74117E+00  9.73734E+00  8.67361E+00  7.82976E+00  8.79936E+00  7.34281E+00  7.89190E+00  8.36236E+00  7.94979E+00
   8.43321E+00  6.88026E+00  8.48526E+00  8.02515E+00  6.62993E+00  8.11306E+00  6.67566E+00  8.47945E+00  5.95744E+00  7.26714E+00
   7.74485E+00  6.44737E+00  6.93537E+00  8.24115E+00  6.36662E+00  7.34905E+00  8.69821E+00  9.25730E+00  8.26303E+00  8.04624E+00
   8.47913E+00  8.41075E+00  6.27918E+00  6.06966E+00  7.69204E+00  5.33597E+00  7.84377E+00  6.35000E+00  6.33242E+00  5.55605E+00
   6.69896E+00  6.15674E+00  6.44883E+00  4.78029E+00  6.35950E+00  6.84868E+00  4.05281E+00  5.89392E+00  6.26799E+00  5.21270E+00
   6.61117E+00  5.11919E+00  6.42417E+00  6.15113E+00  6.11960E+00  7.17294E+00  5.33556E+00  6.66281E+00  6.40882E+00  4.99298E+00
   4.55466E+00  5.55546E+00  6.48535E+00  4.36887E+00  6.25025E+00  6.78081E+00  4.77062E+00  6.90824E+00  4.73285E+00  4.04846E+00
   4.59182E+00  5.83401E+00  4.50772E+00  4.57222E+00  5.73639E+00  4.73397E+00  4.99633E+00  5.64879E+00  5.79684E+00  5.01458E+00
   5.60336E+00  4.72619E+00  6.22064E+00  5.28372E+00  4.79966E+00  5.16111E+00  3.15842E+00  5.56675E+00  4.46570E+00  4.10370E+00
   3.94476E+00  5.28151E+00  5.08827E+00  3.76870E+00  3.08621E+00  5.19041E+00  4.13260E+00  4.49358E+00  5.26892E+00  4.69940E+00
   3.04792E+00  5.76174E+00  4.82997E+00  6.02462E+00  4.62517E+00  4.25280E+00  3.83875E+00  5.20311E+00  4.61788E+00  3.04805E+00
   4.22363E+00  4.16293E+00  4.97625E+00  3.26334E+00  4.90668E+00  5.17424E+00  4.59133E+00  4.62601E+00  2.58158E+00  4.37073E+00
   2.78995E+00  3.65917E+00  4.75079E+00  4.56906E+00  5.31454E+00  5.17847E+00  3.23682E+00  3.84924E+00  4.93252E+00  3.08202E+00
   3.46694E+00  4.93631E+00  4.56999E+00  5.62735E+00  5.89617E+00  4.07956E+00  2.69888E+00  3.20994E+00  4.47228E+00  4.11685E+00
   5.95366E+00  6.30806E+00  4.47789E+00  4.63247E+00  5.19786E+00  4.53175E+00  4.65707E+00  4.66754E+00  5.16495E+00  3.92407E+00
   5.14067E+00  4.71665E+00  4.04546E+00  3.96343E+00  6.20565E+00  5.55728E+00  6.91600E+00  4.74079E+00  6.73352E+00  5.46920E+00
   6.54465E+00  8.03306E+00  6.97202E+00  4.75624E+00  5.06034E+00  4.32654E+00  5.98985E+00  5.97659E+00  6.53328E+00  4.13438E+00
   4.60463E+00  2.81103E+00  3.79516E+00  5.60676E+00  5.07739E+00  4.18662E+00  4.33296E+00  4.46859E+00  3.39805E+00  5.81751E+00
   5.07970E+00  5.82871E+00  5.23604E+00  5.00412E+00  4.26222E+00  4.64210E+00  5.40339E+00  5.01144E+00  4.01845E+00  3.77921E+00
   5.66263E+00  3.79045E+00  4.39778E+00  4.20668E+00  5.81890E+00  4.66214E+00  4.83603E+00  4.23450E+00  3.73819E+00  3.33748E+00
   3.53187E+00  5.66618E+00  5.51751E+00  4.61748E+00  2.31042E+00  5.04947E+00  3.89119E+00  4.52933E+00  3.38068E+00  4.81517E+00
   3.57417E+00  3.00911E+00  3.85754E+00  2.51026E+00  5.94524E+00  4.01885E+00  4.51242E+00  3.40292E+00  4.66016E+00  4.03693E+00
   4.27685E+00  5.13876E+00  5.72803E+00  4.97406E+00  4.79300E+00  5.23585E+00  4.37902E+00  5.65630E+00  4.84814E+00  3.54335E+00
   4.43935E+00  2.88863E+00  5.18687E+00  3.92708E+00  3.40962E+00  3.46550E+00  3.68593E+00  5.67374E+00  3.83740E+00  3.57197E+00
   6.55239E+00  4.00153E+00  4.12131E+00  4.28285E+00  5.35872E+00  6.09279E+00  6.62691E+00  4.86835E+00  5.40824E+00  5.71185E+00
   6.32349E+00  5.39700E+00  7.03766E+00  7.51742E+00  6.95826E+00  7.92461E+00  6.83236E+00  5.38228E+00  5.95348E+00  5.89666E+00
   5.97838E+00  5.24733E+00  4.76690E+00  6.23600E+00  4.25093E+00  6.06152E+00  5.09814E+00  3.47930E+00  5.61960E+00  3.76712E+00
   4.62345E+00  7.83894E+00  5.57977E+00  3.50149E+00  4.32681E+00  5.83057E+00  5.99828E+00  5.35574E+00  3.97499E+00  5.53072E+00
   4.54154E+00  4.28164E+00  3.06290E+00  4.46169E+00  3.60889E+00  2.30719E+00  3.39921E+00  2.81028E+00  3.88129E+00  5.04637E+00
   2.39128E+00  1.72893E+00  4.19363E+00  4.13655E+00  3.02750E+00  3.21249E+00  1.48009E+00  4.00244E+00  2.87842E+00  2.23171E+00
   2.34381E+00  1.86832E+00  3.30574E+00  2.23802E+00  2.65838E+00  2.74299E+00  2.24185E+00  2.88535E+00  2.50934E+00  3.16453E+00
   2.55113E+00  3.04294E+00  2.02713E+00  3.54203E+00  3.26842E+00  3.28608E+00  2.29587E+00  3.70436E+00  2.62501E+00  1.96457E+00
   3.31235E+00  4.04129E+00  2.19139E+00  4.17885E+00  2.69271E+00  3.17294E+00  3.43850E+00  5.22995E+00  3.58856E+00  2.51399E+00
   3.04161E+00  4.03280E+00  3.36560E+00  3.09348E+00  2.31995E+00  4.70766E+00  2.84832E+00  4.27747E+00  4.58428E+00  4.92668E+00
   2.81274E+00  4.03180E+00  3.68634E+00  2.61511E+00  3.61526E+00  4.04810E+00  2.61968E+00  2.97636E+00  4.19079E+00  3.91281E+00
   2.56180E+00  2.52640E+00  2.76782E+00  3.36199E+00  3.52230E+00  3.06239E+00  1.69405E+00  3.09218E+00  4.50166E+00  4.07528E+00
   2.98533E+00  1.02233E+00  2.74328E+00  2.41449E+00  2.28706E+00  3.72790E+00  4.00263E+00  3.50711E+00  3.25309E+00  3.25742E+00
   3.03974E+00  2.88720E+00  1.95987E+00  2.65832E+00  2.76272E+00  3.90408E+00  2.74644E+00  2.19724E+00  1.03146E+00  2.70475E+00
   3.14924E+00  4.27015E+00  3.31936E+00  1.63564E+00  3.37201E+00  2.04632E+00  3.53913E+00  3.69543E+00  2.28745E+00  1.62739E+00
   2.97601E+00  3.97151E+00  4.13200E+00  4.03274E+00  2.22696E+00  2.29292E+00  2.73934E+00  2.61861E+00
 NY points of the fit to the data follow
   1.60393E+01  1.59064E+01  1.57947E+01  1.57437E+01  1.58191E+01  1.59876E+01  1.61857E+01  1.63794E+01  1.65232E+01  1.65551E+01
   1.64366E+01  1.61869E+01  1.58606E+01  1.54980E+01  1.51282E+01  1.48141E+01  1.46316E+01  1.45295E+01  1.44562E+01  1.44094E+01
   1.43928E+01  1.43883E+01  1.43584E+01  1.42844E+01  1.41613E+01  1.39838E+01  1.37703E+01  1.35786E+01  1.34585E+01  1.34283E+01
   1.34700E+01  1.35569E+01  1.36563E+01  1.37097E+01  1.36716E+01  1.35475E+01  1.33638E+01  1.31526E+01  1.29491E+01  1.27893E+01
   1.26807E+01  1.26206E+01  1.26148E+01  1.26774E+01  1.27853E+01  1.28979E+01  1.29904E+01  1.30302E+01  1.29746E+01  1.28116E+01
   1.25669E+01  1.22857E+01  1.20052E+01  1.17539E+01  1.15792E+01  1.15134E+01  1.15228E+01  1.15584E+01  1.15894E+01  1.15996E+01
   1.15743E+01  1.15026E+01  1.13889E+01  1.12504E+01  1.11049E+01  1.09660E+01  1.08527E+01  1.07841E+01  1.07527E+01  1.07420E+01
   1.07319E+01  1.07102E+01  1.06685E+01  1.06024E+01  1.05169E+01  1.04209E+01  1.03207E+01  1.02192E+01  1.01191E+01  1.00302E+01
   9.95073E+00  9.87627E+00  9.79604E+00  9.70049E+00  9.58580E+00  9.45585E+00  9.31807E+00  9.18324E+00  9.06633E+00  8.98177E+00
   8.93286E+00  8.91505E+00  8.92059E+00  8.93298E+00  8.92883E+00  8.89381E+00  8.82702E+00  8.74491E+00  8.67889E+00  8.63497E+00
   8.60718E+00  8.59502E+00  8.58702E+00  8.56667E+00  8.51977E+00  8.44081E+00  8.33977E+00  8.22653E+00  8.10928E+00  8.00463E+00
   7.93298E+00  7.87924E+00  7.82815E+00  7.77857E+00  7.72840E+00  7.67694E+00  7.62445E+00  7.57252E+00  7.52268E+00  7.47865E+00
   7.45178E+00  7.49879E+00  7.72352E+00  8.06882E+00  8.45109E+00  8.82145E+00  9.10648E+00  9.21069E+00  9.08411E+00  8.76540E+00
   8.33800E+00  7.86390E+00  7.39051E+00  7.01885E+00  6.84438E+00  6.76476E+00  6.70773E+00  6.65963E+00  6.61662E+00  6.57688E+00
   6.53899E+00  6.50236E+00  6.46682E+00  6.43268E+00  6.39917E+00  6.36534E+00  6.33109E+00  6.29620E+00  6.26051E+00  6.22267E+00
   6.18247E+00  6.14191E+00  6.10248E+00  6.06586E+00  6.03261E+00  6.00003E+00  5.96412E+00  5.92370E+00  5.87986E+00  5.83401E+00
   5.78999E+00  5.74882E+00  5.71139E+00  5.67873E+00  5.64798E+00  5.61552E+00  5.58084E+00  5.54308E+00  5.50090E+00  5.45705E+00
   5.41412E+00  5.37133E+00  5.33005E+00  5.29117E+00  5.25408E+00  5.21950E+00  5.18645E+00  5.15436E+00  5.12512E+00  5.10059E+00
   5.08047E+00  5.06396E+00  5.04840E+00  5.03288E+00  5.02119E+00  5.01591E+00  5.01554E+00  5.01900E+00  5.02041E+00  5.01174E+00
   4.99199E+00  4.96172E+00  4.92078E+00  4.86941E+00  4.81074E+00  4.75731E+00  4.72509E+00  4.72536E+00  4.76139E+00  4.82881E+00
   4.92017E+00  5.01640E+00  5.08906E+00  5.11549E+00  5.07213E+00  4.93289E+00  4.71625E+00  4.47533E+00  4.25442E+00  4.10142E+00
   4.06379E+00  4.16704E+00  4.37392E+00  4.62218E+00  4.85399E+00  5.02493E+00  5.07600E+00  4.96539E+00  4.74784E+00  4.51389E+00
   4.30660E+00  4.15886E+00  4.11421E+00  4.18562E+00  4.32315E+00  4.47917E+00  4.61841E+00  4.72109E+00  4.77045E+00  4.75616E+00
   4.69872E+00  4.62323E+00  4.54762E+00  4.48569E+00  4.44616E+00  4.43115E+00  4.45218E+00  4.50287E+00  4.54909E+00  4.58024E+00
   4.59111E+00  4.57137E+00  4.51720E+00  4.43435E+00  4.34638E+00  4.27207E+00  4.22179E+00  4.20694E+00  4.23805E+00  4.30126E+00
   4.38956E+00  4.55060E+00  4.76418E+00  4.97782E+00  5.18280E+00  5.43786E+00  5.76786E+00  6.07635E+00  6.32845E+00  6.52458E+00
   6.61441E+00  6.52954E+00  6.27713E+00  5.94604E+00  5.57120E+00  5.15954E+00  4.76010E+00  4.48593E+00  4.37293E+00  4.31761E+00
   4.28531E+00  4.26998E+00  4.26281E+00  4.26024E+00  4.25931E+00  4.25486E+00  4.24399E+00  4.22664E+00  4.20467E+00  4.18108E+00
   4.15963E+00  4.14338E+00  4.13244E+00  4.12514E+00  4.11940E+00  4.11399E+00  4.10807E+00  4.10139E+00  4.09417E+00  4.08708E+00
   4.08099E+00  4.07613E+00  4.07210E+00  4.06861E+00  4.06468E+00  4.05990E+00  4.05452E+00  4.04860E+00  4.04238E+00  4.03699E+00
   4.03298E+00  4.03018E+00  4.02836E+00  4.02732E+00  4.02688E+00  4.02678E+00  4.02664E+00  4.02664E+00  4.02704E+00  4.02801E+00
   4.02972E+00  4.03233E+00  4.03596E+00  4.04084E+00  4.04724E+00  4.05552E+00  4.06624E+00  4.08015E+00  4.09846E+00  4.12320E+00
   4.15826E+00  4.21276E+00  4.30686E+00  4.42486E+00  4.50828E+00  4.53612E+00  4.49675E+00  4.37355E+00  4.16497E+00  3.89850E+00
   3.64517E+00  3.49669E+00  3.47179E+00  3.57636E+00  3.82387E+00  4.15794E+00  4.47335E+00  4.72269E+00  4.89324E+00  4.99424E+00
   5.03311E+00  5.01543E+00  4.98736E+00  5.01254E+00  5.08129E+00  5.18050E+00  5.30609E+00  5.45587E+00  5.62665E+00  5.81278E+00
   6.00550E+00  6.19307E+00  6.36171E+00  6.49730E+00  6.58752E+00  6.62387E+00  6.60312E+00  6.52788E+00  6.40599E+00  6.24899E+00
   6.07007E+00  5.88200E+00  5.69545E+00  5.51805E+00  5.35420E+00  5.20545E+00  5.07129E+00  4.95002E+00  4.83949E+00  4.73766E+00
   4.64286E+00  4.55392E+00  4.47011E+00  4.39102E+00  4.31647E+00  4.24637E+00  4.18068E+00  4.11935E+00  4.06227E+00  4.00929E+00
   3.96025E+00  3.91491E+00  3.87303E+00  3.83437E+00  3.79867E+00  3.76567E+00  3.73513E+00  3.70681E+00  3.68050E+00  3.65600E+00
   3.63313E+00  3.61172E+00  3.59162E+00  3.57270E+00  3.55484E+00  3.53794E+00  3.52190E+00  3.50664E+00  3.49209E+00  3.47818E+00
   3.46486E+00  3.45208E+00  3.43978E+00  3.42795E+00  3.41652E+00  3.40549E+00  3.39481E+00  3.38447E+00  3.37444E+00  3.36470E+00
   3.35522E+00  3.34600E+00  3.33701E+00  3.32824E+00  3.31967E+00  3.31130E+00  3.30310E+00  3.29508E+00  3.28721E+00  3.27950E+00
   3.27192E+00  3.26448E+00  3.25716E+00  3.24997E+00  3.24289E+00  3.23591E+00  3.22903E+00  3.22225E+00  3.21555E+00  3.20895E+00
   3.20242E+00  3.19597E+00  3.18959E+00  3.18328E+00  3.17703E+00  3.17084E+00  3.16471E+00  3.15864E+00  3.15261E+00  3.14664E+00
   3.14071E+00  3.13482E+00  3.12897E+00  3.12316E+00  3.11738E+00  3.11163E+00  3.10592E+00  3.10023E+00  3.09456E+00  3.08892E+00
   3.08330E+00  3.07770E+00  3.07212E+00  3.06655E+00  3.06099E+00  3.05545E+00  3.04992E+00  3.04441E+00  3.03890E+00  3.03341E+00
   3.02793E+00  3.02246E+00  3.01700E+00  3.01156E+00  3.00612E+00  3.00070E+00  2.99528E+00  2.98987E+00  2.98448E+00  2.97909E+00
   2.97371E+00  2.96834E+00  2.96297E+00  2.95762E+00  2.95228E+00  2.94694E+00  2.94162E+00  2.93630E+00  2.93098E+00  2.92568E+00
   2.92039E+00  2.91510E+00  2.90982E+00  2.90455E+00  2.89929E+00  2.89403E+00  2.88879E+00  2.88355E+00  2.87832E+00  2.87309E+00
   2.86788E+00  2.86268E+00  2.85748E+00  2.85229E+00  2.84711E+00  2.84194E+00  2.83677E+00  2.83162E+00
 NY background values follow
     1.573E+01    1.565E+01    1.557E+01    1.550E+01    1.542E+01    1.534E+01    1.526E+01    1.518E+01    1.510E+01    1.502E+01
     1.495E+01    1.487E+01    1.479E+01    1.471E+01    1.463E+01    1.455E+01    1.448E+01    1.440E+01    1.432E+01    1.424E+01
     1.416E+01    1.408E+01    1.401E+01    1.393E+01    1.385E+01    1.377E+01    1.369E+01    1.362E+01    1.354E+01    1.346E+01
     1.338E+01    1.331E+01    1.323E+01    1.315E+01    1.308E+01    1.300E+01    1.292E+01    1.285E+01    1.277E+01    1.269E+01
     1.262E+01    1.254E+01    1.247E+01    1.239E+01    1.231E+01    1.224E+01    1.216E+01    1.209E+01    1.201E+01    1.194E+01
     1.186E+01    1.179E+01    1.172E+01    1.164E+01    1.157E+01    1.149E+01    1.142E+01    1.135E+01    1.127E+01    1.120E+01
     1.113E+01    1.106E+01    1.099E+01    1.091E+01    1.084E+01    1.077E+01    1.070E+01    1.063E+01    1.056E+01    1.049E+01
     1.042E+01    1.035E+01    1.028E+01    1.021E+01    1.014E+01    1.008E+01    1.001E+01    9.940E+00    9.873E+00    9.806E+00
     9.739E+00    9.673E+00    9.607E+00    9.542E+00    9.476E+00    9.412E+00    9.347E+00    9.283E+00    9.219E+00    9.156E+00
     9.093E+00    9.031E+00    8.969E+00    8.907E+00    8.846E+00    8.785E+00    8.724E+00    8.664E+00    8.605E+00    8.545E+00
     8.486E+00    8.428E+00    8.370E+00    8.312E+00    8.255E+00    8.198E+00    8.142E+00    8.086E+00    8.031E+00    7.975E+00
     7.921E+00    7.866E+00    7.813E+00    7.759E+00    7.706E+00    7.654E+00    7.601E+00    7.550E+00    7.498E+00    7.447E+00
     7.397E+00    7.347E+00    7.297E+00    7.248E+00    7.200E+00    7.151E+00    7.103E+00    7.056E+00    7.009E+00    6.963E+00
     6.917E+00    6.871E+00    6.826E+00    6.781E+00    6.737E+00    6.693E+00    6.649E+00    6.606E+00    6.564E+00    6.522E+00
     6.480E+00    6.439E+00    6.398E+00    6.358E+00    6.318E+00    6.279E+00    6.240E+00    6.201E+00    6.163E+00    6.125E+00
     6.088E+00    6.051E+00    6.014E+00    5.978E+00    5.943E+00    5.908E+00    5.873E+00    5.839E+00    5.805E+00    5.771E+00
     5.738E+00    5.705E+00    5.673E+00    5.641E+00    5.610E+00    5.579E+00    5.548E+00    5.518E+00    5.488E+00    5.458E+00
     5.429E+00    5.401E+00    5.372E+00    5.345E+00    5.317E+00    5.290E+00    5.263E+00    5.237E+00    5.211E+00    5.185E+00
     5.160E+00    5.136E+00    5.111E+00    5.087E+00    5.063E+00    5.040E+00    5.017E+00    4.995E+00    4.972E+00    4.951E+00
     4.929E+00    4.908E+00    4.887E+00    4.867E+00    4.847E+00    4.827E+00    4.807E+00    4.788E+00    4.769E+00    4.751E+00
     4.733E+00    4.715E+00    4.697E+00    4.680E+00    4.663E+00    4.647E+00    4.630E+00    4.615E+00    4.599E+00    4.583E+00
     4.568E+00    4.553E+00    4.539E+00    4.525E+00    4.511E+00    4.497E+00    4.484E+00    4.470E+00    4.457E+00    4.445E+00
     4.432E+00    4.420E+00    4.408E+00    4.397E+00    4.385E+00    4.374E+00    4.363E+00    4.352E+00    4.342E+00    4.332E+00
     4.322E+00    4.312E+00    4.302E+00    4.293E+00    4.284E+00    4.275E+00    4.266E+00    4.257E+00    4.249E+00    4.241E+00
     4.233E+00    4.225E+00    4.217E+00    4.209E+00    4.202E+00    4.195E+00    4.187E+00    4.180E+00    4.173E+00    4.167E+00
     4.160E+00    4.154E+00    4.147E+00    4.141E+00    4.135E+00    4.129E+00    4.123E+00    4.117E+00    4.111E+00    4.105E+00
     4.100E+00    4.094E+00    4.089E+00    4.083E+00    4.078E+00    4.073E+00    4.067E+00    4.062E+00    4.057E+00    4.052E+00
     4.047E+00    4.042E+00    4.037E+00    4.032E+00    4.027E+00    4.022E+00    4.017E+00    4.012E+00    4.007E+00    4.002E+00
     3.997E+00    3.992E+00    3.987E+00    3.982E+00    3.977E+00    3.972E+00    3.968E+00    3.963E+00    3.958E+00    3.953E+00
     3.948E+00    3.943E+00    3.938E+00    3.933E+00    3.928E+00    3.924E+00    3.919E+00    3.914E+00    3.909E+00    3.904E+00
     3.899E+00    3.894E+00    3.889E+00    3.884E+00    3.879E+00    3.874E+00    3.868E+00    3.863E+00    3.858E+00    3.853E+00
     3.848E+00    3.842E+00    3.837E+00    3.832E+00    3.826E+00    3.821E+00    3.816E+00    3.810E+00    3.805E+00    3.799E+00
     3.794E+00    3.788E+00    3.782E+00    3.777E+00    3.771E+00    3.765E+00    3.759E+00    3.754E+00    3.748E+00    3.742E+00
     3.736E+00    3.730E+00    3.724E+00    3.718E+00    3.712E+00    3.706E+00    3.700E+00    3.694E+00    3.688E+00    3.682E+00
     3.675E+00    3.669E+00    3.663E+00    3.657E+00    3.651E+00    3.644E+00    3.638E+00    3.632E+00    3.625E+00    3.619E+00
     3.613E+00    3.606E+00    3.600E+00    3.593E+00    3.587E+00    3.581E+00    3.574E+00    3.568E+00    3.561E+00    3.555E+00
     3.548E+00    3.542E+00    3.535E+00    3.529E+00    3.522E+00    3.516E+00    3.509E+00    3.502E+00    3.496E+00    3.489E+00
     3.483E+00    3.476E+00    3.470E+00    3.463E+00    3.457E+00    3.450E+00    3.444E+00    3.437E+00    3.431E+00    3.424E+00
     3.418E+00    3.411E+00    3.405E+00    3.398E+00    3.392E+00    3.386E+00    3.379E+00    3.373E+00    3.366E+00    3.360E+00
     3.354E+00    3.348E+00    3.341E+00    3.335E+00    3.329E+00    3.323E+00    3.317E+00    3.311E+00    3.305E+00    3.298E+00
     3.293E+00    3.287E+00    3.281E+00    3.275E+00    3.269E+00    3.263E+00    3.257E+00    3.252E+00    3.246E+00    3.240E+00
     3.235E+00    3.229E+00    3.224E+00    3.218E+00    3.213E+00    3.207E+00    3.202E+00    3.197E+00    3.191E+00    3.186E+00
     3.181E+00    3.176E+00    3.171E+00    3.165E+00    3.160E+00    3.155E+00    3.150E+00    3.145E+00    3.140E+00    3.135E+00
     3.130E+00    3.125E+00    3.120E+00    3.115E+00    3.110E+00    3.105E+00    3.101E+00    3.096E+00    3.091E+00    3.086E+00
     3.081E+00    3.076E+00    3.071E+00    3.067E+00    3.062E+00    3.057E+00    3.052E+00    3.047E+00    3.043E+00    3.038E+00
     3.033E+00    3.028E+00    3.023E+00    3.018E+00    3.014E+00    3.009E+00    3.004E+00    2.999E+00    2.994E+00    2.989E+00
     2.984E+00    2.980E+00    2.975E+00    2.970E+00    2.965E+00    2.960E+00    2.955E+00    2.950E+00    2.945E+00    2.940E+00
     2.936E+00    2.931E+00    2.926E+00    2.921E+00    2.916E+00    2.911E+00    2.906E+00    2.901E+00    2.896E+00    2.891E+00
     2.887E+00    2.882E+00    2.877E+00    2.872E+00    2.867E+00    2.862E+00    2.857E+00    2.852E+00    2.847E+00    2.842E+00
     2.838E+00    2.833E+00    2.828E+00    2.823E+00    2.818E+00    2.813E+00    2.808E+00    2.804E+00
 Ala      Conc. = 5.00E+01
