 LCModel (Version 6.3-1L) Copyright: S.W. Provencher.          Ref.: Magn. Reson. Med. 30:672-679 (1993).                
 Slice#2 Row#9 Col#14  PD_05_press_1_raw_act
 36 lines in following concentration table = NCONC+1
    Conc.  %SD /Cr+PCr  Metabolite                                         
  930.732  34%   0.000 Ala                                                 
    3.459  63%   0.000 Asp                                                 
    0.000 999%   0.000 Cr                                                  
    0.000 999%   0.000 PCr                                                 
    2.068  63%   0.000 GABA                                                
    2.066  63%   0.000 Glc                                                 
    0.000 999%   0.000 Gln                                                 
  458.889  48%   0.000 Glu                                                 
    0.000 999%   0.000 GPC                                                 
   15.012  44%   0.000 PCh                                                 
    0.000 999%   0.000 GSH                                                 
    0.000 999%   0.000 Ins                                                 
    0.000 999%   0.000 Lac                                                 
    2.949 999%   0.000 NAA                                                 
   20.997 289%   0.000 NAAG                                                
    0.695  63%   0.000 Scyllo                                              
    3.446  63%   0.000 Tau                                                 
 9.69E-02 999%   0.000 -CrCH2                                              
   15.012  44%   0.000 GPC+PCh                                             
   23.947 144%   0.000 NAA+NAAG                                            
    0.000 999%   0.000 Cr+PCr                                              
  458.889  48%   0.000 Glu+Gln                                             
 2.33E+03  21%   0.000 Lip13a                                              
    0.000 999%   0.000 Lip13b                                              
  985.950  18%   0.000 Lip09                                               
  766.268  19%   0.000 MM09                                                
  336.661  42%   0.000 Lip20                                               
  228.258  71%   0.000 MM20                                                
  638.969  26%   0.000 MM12                                                
 1.31E+03  21%   0.000 MM14                                                
 1.23E+03  19%   0.000 MM17                                                
 2.33E+03  21%   0.000 Lip13a+Lip13b                                       
 4.28E+03  10%   0.000 MM14+Lip13a+Lip13b+MM12                             
 1.75E+03  11%   0.000 MM09+Lip09                                          
  564.919  27%   0.000 MM20+Lip20                                          
   6 lines in following misc. output table
  FWHM = 0.153 ppm    S/N =   7                                            
  Data shift = 0.237 ppm                                                   
  Ph:   9 deg      -6.8 deg/ppm                                            
  alphaB,S = 8.5E+01,   1.6E+02                                            
    8 spline knots.   Ns = 9(2)                                            
  (12) 7 infls.   ( 8) 2 extrs.                                            
  498 points on ppm-axis = NY
      4.000000     3.992357     3.984714     3.977070     3.969427     3.961784     3.954141     3.946497     3.938854     3.931211
      3.923568     3.915925     3.908281     3.900638     3.892995     3.885352     3.877708     3.870065     3.862422     3.854779
      3.847136     3.839492     3.831849     3.824206     3.816563     3.808919     3.801276     3.793633     3.785990     3.778347
      3.770703     3.763060     3.755417     3.747774     3.740130     3.732487     3.724844     3.717201     3.709558     3.701914
      3.694271     3.686628     3.678985     3.671341     3.663698     3.656055     3.648412     3.640769     3.633125     3.625482
      3.617839     3.610196     3.602552     3.594909     3.587266     3.579623     3.571980     3.564336     3.556693     3.549050
      3.541407     3.533763     3.526120     3.518477     3.510834     3.503191     3.495547     3.487904     3.480261     3.472618
      3.464974     3.457331     3.449688     3.442045     3.434402     3.426758     3.419115     3.411472     3.403829     3.396185
      3.388542     3.380899     3.373256     3.365613     3.357969     3.350326     3.342683     3.335040     3.327396     3.319753
      3.312110     3.304467     3.296824     3.289180     3.281537     3.273894     3.266251     3.258607     3.250964     3.243321
      3.235678     3.228034     3.220391     3.212748     3.205105     3.197462     3.189818     3.182175     3.174532     3.166889
      3.159245     3.151602     3.143959     3.136316     3.128673     3.121029     3.113386     3.105743     3.098100     3.090456
      3.082813     3.075170     3.067527     3.059884     3.052240     3.044597     3.036954     3.029311     3.021667     3.014024
      3.006381     2.998738     2.991095     2.983451     2.975808     2.968165     2.960522     2.952878     2.945235     2.937592
      2.929949     2.922306     2.914662     2.907019     2.899376     2.891733     2.884089     2.876446     2.868803     2.861160
      2.853517     2.845873     2.838230     2.830587     2.822944     2.815300     2.807657     2.800014     2.792371     2.784728
      2.777084     2.769441     2.761798     2.754155     2.746511     2.738868     2.731225     2.723582     2.715939     2.708295
      2.700652     2.693009     2.685366     2.677722     2.670079     2.662436     2.654793     2.647150     2.639506     2.631863
      2.624220     2.616577     2.608933     2.601290     2.593647     2.586004     2.578361     2.570717     2.563074     2.555431
      2.547788     2.540144     2.532501     2.524858     2.517215     2.509572     2.501928     2.494285     2.486642     2.478999
      2.471355     2.463712     2.456069     2.448426     2.440783     2.433139     2.425496     2.417853     2.410210     2.402566
      2.394923     2.387280     2.379637     2.371994     2.364350     2.356707     2.349064     2.341421     2.333777     2.326134
      2.318491     2.310848     2.303205     2.295561     2.287918     2.280275     2.272632     2.264988     2.257345     2.249702
      2.242059     2.234416     2.226772     2.219129     2.211486     2.203843     2.196199     2.188556     2.180913     2.173270
      2.165627     2.157983     2.150340     2.142697     2.135054     2.127410     2.119767     2.112124     2.104481     2.096838
      2.089194     2.081551     2.073908     2.066265     2.058621     2.050978     2.043335     2.035692     2.028049     2.020405
      2.012762     2.005119     1.997476     1.989833     1.982190     1.974546     1.966903     1.959260     1.951617     1.943974
      1.936331     1.928688     1.921045     1.913402     1.905759     1.898115     1.890472     1.882829     1.875186     1.867543
      1.859900     1.852257     1.844614     1.836971     1.829327     1.821684     1.814041     1.806398     1.798755     1.791112
      1.783469     1.775826     1.768183     1.760540     1.752896     1.745253     1.737610     1.729967     1.722324     1.714681
      1.707038     1.699395     1.691752     1.684108     1.676465     1.668822     1.661179     1.653536     1.645893     1.638250
      1.630607     1.622964     1.615321     1.607677     1.600034     1.592391     1.584748     1.577105     1.569462     1.561819
      1.554176     1.546533     1.538890     1.531246     1.523603     1.515960     1.508317     1.500674     1.493031     1.485388
      1.477745     1.470102     1.462458     1.454815     1.447172     1.439529     1.431886     1.424243     1.416600     1.408957
      1.401314     1.393671     1.386027     1.378384     1.370741     1.363098     1.355455     1.347812     1.340169     1.332526
      1.324883     1.317240     1.309596     1.301953     1.294310     1.286667     1.279024     1.271381     1.263738     1.256095
      1.248452     1.240808     1.233165     1.225522     1.217879     1.210236     1.202593     1.194950     1.187307     1.179664
      1.172021     1.164377     1.156734     1.149091     1.141448     1.133805     1.126162     1.118519     1.110876     1.103233
      1.095590     1.087946     1.080303     1.072660     1.065017     1.057374     1.049731     1.042088     1.034445     1.026802
      1.019158     1.011515     1.003872     0.996229     0.988586     0.980943     0.973300     0.965657     0.958014     0.950371
      0.942727     0.935084     0.927441     0.919798     0.912155     0.904512     0.896869     0.889226     0.881583     0.873940
      0.866296     0.858653     0.851010     0.843367     0.835724     0.828081     0.820438     0.812795     0.805152     0.797508
      0.789865     0.782222     0.774579     0.766936     0.759293     0.751650     0.744007     0.736364     0.728721     0.721077
      0.713434     0.705791     0.698148     0.690505     0.682862     0.675219     0.667576     0.659933     0.652290     0.644646
      0.637003     0.629360     0.621717     0.614074     0.606431     0.598788     0.591145     0.583502     0.575858     0.568215
      0.560572     0.552929     0.545286     0.537643     0.530000     0.522357     0.514714     0.507071     0.499427     0.491784
      0.484141     0.476498     0.468855     0.461212     0.453569     0.445925     0.438282     0.430639     0.422996     0.415353
      0.407710     0.400067     0.392424     0.384780     0.377137     0.369494     0.361851     0.354208     0.346565     0.338922
      0.331278     0.323635     0.315992     0.308349     0.300706     0.293063     0.285420     0.277777     0.270133     0.262490
      0.254847     0.247204     0.239561     0.231918     0.224275     0.216631     0.208988     0.201345
 NY phased data points follow
   5.82798E-01  3.51280E-01  1.61776E+00  1.42840E+00  4.57500E-02  1.29558E+00  1.58929E+00  1.17574E-01  9.04381E-01 -2.09951E-01
   9.61889E-01 -1.20709E+00 -3.62238E-01  1.28673E+00  1.04719E+00  1.19577E+00  5.16553E-01  9.41432E-04  5.07449E-01  9.13363E-01
   2.78361E+00 -4.36359E-01  8.92781E-01 -9.12060E-01 -1.33143E+00  2.36935E-01  7.49111E-01  3.33948E-01  1.32729E-02  6.07645E-01
   5.37263E-02 -6.67813E-01  4.53629E-01  2.75094E-01  5.41861E-02  3.28355E-01  9.34114E-01  1.36742E+00  1.13420E+00  1.09130E+00
   1.89906E+00  2.00823E+00  6.79408E-01  1.23814E-02  1.22028E+00  3.41428E-02  9.26034E-01  1.26043E+00 -1.43498E-01 -5.76647E-01
  -3.66749E-02 -8.49159E-02  4.65679E-02  7.58367E-01  8.15508E-01  3.96082E-01  2.39533E-01  6.21179E-02  3.72507E-01  1.64755E+00
   1.05025E+00  8.31366E-01 -6.33803E-01  4.64168E-01  9.61745E-01 -4.68448E-03  5.44457E-01  9.90648E-01 -2.98529E-01 -2.81485E-01
  -5.94916E-01  1.63277E-01  1.06442E+00 -2.65496E-01  6.67776E-01 -3.98178E-01  3.95928E-01  3.43636E-01  1.54711E+00  2.60053E-01
   1.59045E-01  1.92593E+00  1.97423E-01 -5.60100E-01 -1.12094E+00  7.09387E-01  7.88397E-01  2.18753E-01  1.52493E-01  1.16877E+00
   8.53798E-01  2.59114E-01  1.59856E+00  2.46104E-02  3.04791E-01  9.79902E-01 -1.57188E-01  3.29390E-01  8.37692E-01  1.55345E+00
   2.34833E+00  2.34092E+00  1.20582E+00 -2.20492E-02  8.82436E-01  1.32354E+00  1.21759E+00  4.95068E-01  1.31244E-01  1.54323E+00
   1.21739E+00  2.32789E-01  1.12814E+00  1.46118E+00  1.66555E+00  9.76687E-01  6.18784E-01  1.27719E+00  1.63204E+00  2.11029E-02
   4.04818E-01  1.17597E+00  4.62759E-01  1.49827E-01  8.25249E-01  6.52772E-01  6.69125E-01  1.20574E-01  1.80812E+00  9.06457E-01
   3.12765E-01  3.00338E-01  1.68165E+00  1.21712E-01  1.76893E+00  1.10987E+00  1.38905E+00  6.07184E-01  7.06860E-01  7.61680E-01
   1.30719E+00  3.69954E-01  5.52611E-01  6.39881E-01  2.98520E-01  7.44161E-01  8.68395E-01  5.16570E-01  1.63105E+00 -2.32260E-01
   5.78944E-01  4.98346E-01  1.01970E+00 -3.22072E-01  2.51955E-01 -6.59467E-01  7.20745E-01  1.77696E+00  1.14736E+00  1.68019E+00
   2.62179E-01  8.40041E-01  1.04821E+00  1.23075E+00  1.27509E-01  1.77969E+00 -1.03479E+00  1.28233E+00  8.86855E-01  2.70403E-01
   1.70879E+00  7.57243E-01  2.46619E-01  1.27859E-01  4.81385E-01  6.77802E-01  1.16154E+00  4.83932E-01  1.04975E+00  1.61321E-02
   5.56282E-02  1.21226E+00  1.76910E+00  1.83122E-01  1.43059E+00  1.25270E+00  6.78780E-01  6.15634E-01  4.90664E-01  8.12393E-01
   1.15352E+00  1.85420E-01  1.58008E+00  1.66030E+00  9.72238E-01  1.20939E+00  8.82440E-01  2.98697E-01  1.81422E+00  2.10122E-01
   3.82786E-01  1.52255E+00  8.39657E-01  5.85155E-01  1.22741E+00  1.22115E+00  1.25386E+00  1.05651E+00  4.39692E-01  1.25632E+00
  -4.81907E-01  1.84245E-01  6.74858E-01  1.04901E+00  5.69907E-01  1.36830E+00  2.25892E+00 -2.06689E-01  1.38999E+00 -2.24132E-01
   7.54149E-01 -4.78099E-01  6.04735E-03  3.92193E-01  7.89241E-01 -1.29905E+00 -4.92377E-01  5.74786E-01  1.90822E-01 -4.34567E-02
  -9.97866E-02  6.81122E-01  1.06426E+00  9.53114E-01  9.65011E-01  8.44101E-01  1.35315E+00  1.19365E+00 -2.05704E-01  9.49171E-01
   1.54236E+00  8.05056E-01  1.40377E+00  6.34191E-01  1.65746E+00  1.42274E+00  2.45860E+00  2.10632E+00  1.78391E+00  1.23918E+00
   1.83264E+00  1.42548E+00  2.72781E+00  1.70079E+00  1.57842E+00  2.34203E+00  5.68045E-01  2.13781E+00  3.28818E+00  2.48235E+00
   3.46756E+00  2.08972E+00  1.67231E+00  2.40266E+00  1.94143E+00  2.06485E+00  7.26669E-01  1.43470E+00  2.97936E+00  2.47281E+00
   2.56766E+00  1.76213E+00  2.31409E+00  1.04758E+00  2.55730E+00  1.96895E+00  1.42646E+00  3.02404E+00  2.56784E+00  2.07162E+00
   2.17300E+00  2.92578E+00  1.96760E+00  1.13360E+00  2.18374E+00  2.95315E+00  2.86179E+00  3.40551E+00  2.47251E+00  3.59884E+00
   3.09742E+00  5.04733E+00  3.09977E+00  4.47232E+00  4.03518E+00  4.72937E+00  6.30153E+00  5.98003E+00  6.99745E+00  3.65135E+00
   7.09916E+00  6.67250E+00  7.26326E+00  7.57402E+00  6.63449E+00  7.16403E+00  7.06792E+00  8.73421E+00  7.66473E+00  6.99836E+00
   7.65008E+00  7.59143E+00  8.14390E+00  8.50171E+00  8.67862E+00  9.49622E+00  1.01234E+01  1.13762E+01  1.11637E+01  1.11476E+01
   9.82648E+00  1.17509E+01  1.09743E+01  1.11751E+01  1.15679E+01  1.20841E+01  1.18508E+01  1.10642E+01  1.06291E+01  1.13769E+01
   1.26695E+01  1.23491E+01  1.03526E+01  1.22815E+01  1.08063E+01  1.15528E+01  1.21330E+01  1.22473E+01  1.11721E+01  1.00454E+01
   1.14223E+01  1.10445E+01  1.20536E+01  1.18682E+01  1.08033E+01  1.11581E+01  1.26009E+01  1.26601E+01  1.13523E+01  1.23717E+01
   1.27842E+01  1.28232E+01  1.10032E+01  1.15009E+01  1.21999E+01  1.24613E+01  1.30589E+01  1.26754E+01  1.24412E+01  1.25557E+01
   1.20542E+01  1.12721E+01  1.24973E+01  1.32787E+01  1.30908E+01  1.34668E+01  1.39959E+01  1.34465E+01  1.29332E+01  1.26131E+01
   1.23522E+01  1.32266E+01  1.39815E+01  1.38894E+01  1.25360E+01  1.34617E+01  1.31967E+01  1.29937E+01  1.15188E+01  1.28392E+01
   1.10241E+01  1.20416E+01  1.27217E+01  1.19130E+01  1.18543E+01  1.18934E+01  1.20249E+01  1.26267E+01  1.15975E+01  1.12753E+01
   1.10446E+01  9.62346E+00  1.08115E+01  9.17007E+00  9.84125E+00  8.78039E+00  9.73787E+00  9.31507E+00  9.29404E+00  8.96338E+00
   8.36816E+00  9.83868E+00  8.54048E+00  7.58735E+00  7.42034E+00  9.72078E+00  9.24876E+00  8.82268E+00  7.47884E+00  8.01708E+00
   7.24925E+00  6.49199E+00  7.80771E+00  7.99583E+00  5.67282E+00  7.00381E+00  5.47624E+00  6.20513E+00  4.88717E+00  6.99299E+00
   4.30420E+00  5.80193E+00  4.77359E+00  6.11733E+00  5.18879E+00  4.58917E+00  4.25700E+00  4.69636E+00  3.98135E+00  5.50902E+00
   4.95064E+00  4.47852E+00  2.79545E+00  4.39926E+00  3.98306E+00  3.67540E+00  2.33296E+00  3.83599E+00  3.17450E+00  2.81359E+00
   2.83928E+00  1.75937E+00  2.81112E+00  3.18104E+00  1.92516E+00  1.39503E+00  1.37780E+00  1.94929E+00  1.38103E+00  1.88759E+00
   1.86935E+00  1.29296E+00  8.11629E-01  1.44169E+00  1.83969E+00  3.30483E-01  1.28417E+00  1.99425E+00  1.21197E+00  2.05272E+00
  -4.64216E-03  2.84093E-01  5.73900E-01  4.04311E-01  3.65694E-01 -1.02011E+00 -4.92253E-01 -1.02752E-01  6.11679E-01 -2.01160E-01
   1.19475E-01 -1.00435E+00  1.81523E-01  7.92146E-01  1.41037E-01 -1.76981E+00  5.20995E-02 -5.77794E-01 -1.08855E-01  1.13990E-01
   2.94535E-02 -9.65617E-01 -1.58489E+00 -1.04265E+00 -4.35750E-01 -1.31281E+00 -2.15034E-01 -4.63901E-01 -5.70596E-01 -2.99750E-01
   1.95963E-02 -1.91451E+00 -1.74374E+00 -1.66601E+00 -7.26049E-01 -1.55781E+00 -9.63643E-01 -7.28232E-01
 NY points of the fit to the data follow
   2.47853E-01  2.61047E-01  2.66773E-01  2.78010E-01  2.66345E-01  2.69900E-01  2.38831E-01  2.39757E-01  2.00137E-01  2.16922E-01
   1.91048E-01  2.52686E-01  2.50497E-01  3.47777E-01  3.55440E-01  4.57144E-01  4.42622E-01  5.10228E-01  4.64449E-01  4.99159E-01
   4.59627E-01  4.61428E-01  4.55302E-01  4.38545E-01  4.89457E-01  4.32687E-01  5.30798E-01  4.19292E-01  5.76093E-01  4.08867E-01
   6.19432E-01  3.98889E-01  6.63964E-01  4.01577E-01  7.06292E-01  4.19167E-01  7.38483E-01  4.26005E-01  7.47691E-01  4.38477E-01
   7.48304E-01  4.55697E-01  7.41953E-01  4.93716E-01  7.67057E-01  5.65960E-01  7.91032E-01  6.38768E-01  8.09454E-01  6.77715E-01
   7.78512E-01  6.65631E-01  7.14018E-01  6.31294E-01  6.47430E-01  6.03037E-01  6.23353E-01  6.11094E-01  6.23098E-01  6.24397E-01
   6.26065E-01  6.29641E-01  6.26318E-01  6.24689E-01  6.19373E-01  6.16163E-01  6.10449E-01  6.06228E-01  6.00402E-01  5.95285E-01
   5.89678E-01  5.83708E-01  5.78332E-01  5.71947E-01  5.66665E-01  5.60276E-01  5.54682E-01  5.48215E-01  5.41660E-01  5.34667E-01
   5.26625E-01  5.18578E-01  5.07999E-01  4.97787E-01  4.83387E-01  4.71028E-01  4.53695E-01  4.40711E-01  4.26663E-01  4.18447E-01
   4.25201E-01  4.21571E-01  4.59999E-01  4.56293E-01  5.29263E-01  5.18336E-01  6.20462E-01  6.00286E-01  7.28741E-01  6.94101E-01
   8.37094E-01  7.90030E-01  9.43718E-01  8.82413E-01  1.03376E+00  9.59598E-01  1.09880E+00  1.01676E+00  1.13937E+00  1.05231E+00
   1.15105E+00  1.06230E+00  1.13354E+00  1.05051E+00  1.09903E+00  1.02096E+00  1.04178E+00  9.75052E-01  9.76800E-01  9.23348E-01
   9.11247E-01  8.73458E-01  8.56542E-01  8.33986E-01  8.19549E-01  8.12379E-01  8.09020E-01  8.07907E-01  8.08434E-01  8.10245E-01
   8.12996E-01  8.16579E-01  8.20766E-01  8.25537E-01  8.30740E-01  8.36461E-01  8.42445E-01  8.48986E-01  8.55655E-01  8.62917E-01
   8.70241E-01  8.78081E-01  8.86102E-01  8.94485E-01  9.03352E-01  9.12381E-01  9.21947E-01  9.31488E-01  9.41360E-01  9.51012E-01
   9.60742E-01  9.69981E-01  9.78820E-01  9.86971E-01  9.94191E-01  1.00050E+00  1.00539E+00  1.00926E+00  1.01129E+00  1.01208E+00
   1.01094E+00  1.00833E+00  1.00372E+00  9.97546E-01  9.89103E-01  9.79213E-01  9.67183E-01  9.53779E-01  9.38380E-01  9.21619E-01
   9.03484E-01  8.83873E-01  8.63968E-01  8.42278E-01  8.21342E-01  7.98357E-01  7.77296E-01  7.53732E-01  7.33404E-01  7.10063E-01
   6.90548E-01  6.67958E-01  6.49609E-01  6.28359E-01  6.11255E-01  5.91963E-01  5.76674E-01  5.60360E-01  5.48208E-01  5.35915E-01
   5.29118E-01  5.21177E-01  5.21129E-01  5.14525E-01  5.17443E-01  5.08603E-01  5.03887E-01  4.90940E-01  4.76726E-01  4.64527E-01
   4.57859E-01  4.53870E-01  4.87500E-01  4.89976E-01  5.71710E-01  5.61249E-01  6.76384E-01  6.27261E-01  7.41664E-01  6.37954E-01
   7.46744E-01  5.95234E-01  6.94121E-01  5.20666E-01  6.22578E-01  4.46085E-01  5.39026E-01  3.69610E-01  4.56320E-01  3.12450E-01
   3.86738E-01  2.74388E-01  3.42452E-01  2.77019E-01  3.36629E-01  3.19515E-01  3.68823E-01  3.86073E-01  4.15921E-01  4.59157E-01
   4.84050E-01  5.45627E-01  5.69834E-01  6.43013E-01  6.97264E-01  7.77203E-01  8.57685E-01  9.23916E-01  1.03350E+00  1.07258E+00
   1.18618E+00  1.19491E+00  1.31342E+00  1.30704E+00  1.42089E+00  1.41302E+00  1.53531E+00  1.54978E+00  1.67125E+00  1.70949E+00
   1.82439E+00  1.88055E+00  1.97606E+00  2.04119E+00  2.11057E+00  2.18111E+00  2.21131E+00  2.27776E+00  2.27096E+00  2.32990E+00
   2.28628E+00  2.33139E+00  2.25937E+00  2.28905E+00  2.19965E+00  2.21327E+00  2.12023E+00  2.12226E+00  2.02736E+00  2.01725E+00
   1.93235E+00  1.91700E+00  1.84384E+00  1.82847E+00  1.77898E+00  1.77497E+00  1.75459E+00  1.77172E+00  1.78836E+00  1.83172E+00
   1.88356E+00  1.96087E+00  2.05672E+00  2.17557E+00  2.31871E+00  2.48066E+00  2.67095E+00  2.87505E+00  3.10797E+00  3.35235E+00
   3.62068E+00  3.89647E+00  4.18931E+00  4.48370E+00  4.78553E+00  5.08216E+00  5.37597E+00  5.65598E+00  5.92281E+00  6.16885E+00
   6.39441E+00  6.59551E+00  6.77322E+00  6.92768E+00  7.06220E+00  7.18055E+00  7.28915E+00  7.39662E+00  7.51716E+00  7.66920E+00
   7.84784E+00  8.12352E+00  8.38665E+00  8.85975E+00  9.12128E+00  9.72331E+00  9.86303E+00  1.04938E+01  1.04139E+01  1.10015E+01
   1.06973E+01  1.13133E+01  1.08620E+01  1.14899E+01  1.10157E+01  1.16701E+01  1.11951E+01  1.17554E+01  1.13005E+01  1.17666E+01
   1.14024E+01  1.17364E+01  1.14308E+01  1.16426E+01  1.14652E+01  1.15438E+01  1.14989E+01  1.14756E+01  1.15033E+01  1.13726E+01
   1.15412E+01  1.13857E+01  1.16450E+01  1.14653E+01  1.17799E+01  1.16637E+01  1.20261E+01  1.19171E+01  1.22188E+01  1.21515E+01
   1.23276E+01  1.22205E+01  1.23037E+01  1.22228E+01  1.22685E+01  1.22492E+01  1.22990E+01  1.23970E+01  1.25182E+01  1.26487E+01
   1.27791E+01  1.29024E+01  1.30125E+01  1.31049E+01  1.31760E+01  1.32233E+01  1.32453E+01  1.32417E+01  1.32134E+01  1.31620E+01
   1.30903E+01  1.30016E+01  1.28998E+01  1.27892E+01  1.26738E+01  1.25577E+01  1.24443E+01  1.23362E+01  1.22353E+01  1.21424E+01
   1.20572E+01  1.19785E+01  1.19041E+01  1.18313E+01  1.17566E+01  1.16767E+01  1.15879E+01  1.14872E+01  1.13718E+01  1.12401E+01
   1.10908E+01  1.09241E+01  1.07407E+01  1.05424E+01  1.03317E+01  1.01115E+01  9.88535E+00  9.65669E+00  9.42904E+00  9.20561E+00
   8.98922E+00  8.78213E+00  8.58598E+00  8.40174E+00  8.22970E+00  8.06952E+00  7.92028E+00  7.78059E+00  7.64869E+00  7.52257E+00
   7.40004E+00  7.27893E+00  7.15710E+00  7.03261E+00  6.90371E+00  6.76899E+00  6.62732E+00  6.47794E+00  6.32046E+00  6.15479E+00
   5.98120E+00  5.80021E+00  5.61260E+00  5.41933E+00  5.22152E+00  5.02037E+00  4.81715E+00  4.61311E+00  4.40947E+00  4.20739E+00
   4.00794E+00  3.81207E+00  3.62061E+00  3.43426E+00  3.25358E+00  3.07901E+00  2.91086E+00  2.74934E+00  2.59454E+00  2.44648E+00
   2.30510E+00  2.17027E+00  2.04182E+00  1.91953E+00  1.80317E+00  1.69246E+00  1.58714E+00  1.48693E+00  1.39154E+00  1.30070E+00
   1.21414E+00  1.13160E+00  1.05283E+00  9.77592E-01  9.05659E-01  8.36826E-01  7.70887E-01  7.07664E-01  6.46976E-01  5.88671E-01
   5.32591E-01  4.78603E-01  4.26571E-01  3.76382E-01  3.27919E-01  2.81086E-01  2.35779E-01  1.91918E-01  1.49412E-01  1.08192E-01
   6.81828E-02  2.93231E-02 -8.45394E-03 -4.51995E-02 -8.09716E-02 -1.15814E-01 -1.49777E-01 -1.82899E-01 -2.15223E-01 -2.46784E-01
  -2.77618E-01 -3.07754E-01 -3.37225E-01 -3.66056E-01 -3.94275E-01 -4.21904E-01 -4.48967E-01 -4.75480E-01 -5.01467E-01 -5.26940E-01
  -5.51920E-01 -5.76413E-01 -6.00438E-01 -6.23997E-01 -6.47105E-01 -6.69761E-01 -6.91972E-01 -7.13731E-01
 NY background values follow
     2.226E+00    2.236E+00    2.245E+00    2.254E+00    2.263E+00    2.272E+00    2.280E+00    2.289E+00    2.298E+00    2.306E+00
     2.315E+00    2.323E+00    2.332E+00    2.340E+00    2.348E+00    2.356E+00    2.364E+00    2.372E+00    2.380E+00    2.388E+00
     2.396E+00    2.403E+00    2.411E+00    2.418E+00    2.426E+00    2.433E+00    2.440E+00    2.447E+00    2.455E+00    2.462E+00
     2.469E+00    2.475E+00    2.482E+00    2.489E+00    2.495E+00    2.502E+00    2.509E+00    2.515E+00    2.521E+00    2.527E+00
     2.534E+00    2.540E+00    2.546E+00    2.552E+00    2.557E+00    2.563E+00    2.569E+00    2.575E+00    2.580E+00    2.586E+00
     2.591E+00    2.596E+00    2.601E+00    2.607E+00    2.612E+00    2.617E+00    2.622E+00    2.626E+00    2.631E+00    2.636E+00
     2.640E+00    2.645E+00    2.649E+00    2.654E+00    2.658E+00    2.662E+00    2.667E+00    2.671E+00    2.675E+00    2.679E+00
     2.682E+00    2.686E+00    2.690E+00    2.693E+00    2.697E+00    2.701E+00    2.704E+00    2.707E+00    2.710E+00    2.714E+00
     2.717E+00    2.720E+00    2.723E+00    2.726E+00    2.728E+00    2.731E+00    2.734E+00    2.736E+00    2.739E+00    2.741E+00
     2.744E+00    2.746E+00    2.748E+00    2.750E+00    2.752E+00    2.754E+00    2.756E+00    2.758E+00    2.760E+00    2.761E+00
     2.763E+00    2.764E+00    2.766E+00    2.767E+00    2.769E+00    2.770E+00    2.771E+00    2.772E+00    2.773E+00    2.774E+00
     2.775E+00    2.776E+00    2.777E+00    2.777E+00    2.778E+00    2.778E+00    2.779E+00    2.779E+00    2.780E+00    2.780E+00
     2.780E+00    2.780E+00    2.780E+00    2.780E+00    2.780E+00    2.780E+00    2.779E+00    2.779E+00    2.779E+00    2.778E+00
     2.778E+00    2.777E+00    2.776E+00    2.776E+00    2.775E+00    2.774E+00    2.773E+00    2.772E+00    2.771E+00    2.770E+00
     2.769E+00    2.767E+00    2.766E+00    2.764E+00    2.763E+00    2.761E+00    2.760E+00    2.758E+00    2.756E+00    2.754E+00
     2.753E+00    2.751E+00    2.749E+00    2.746E+00    2.744E+00    2.742E+00    2.740E+00    2.737E+00    2.735E+00    2.732E+00
     2.730E+00    2.727E+00    2.725E+00    2.722E+00    2.719E+00    2.716E+00    2.713E+00    2.710E+00    2.707E+00    2.704E+00
     2.701E+00    2.697E+00    2.694E+00    2.691E+00    2.687E+00    2.684E+00    2.680E+00    2.676E+00    2.673E+00    2.669E+00
     2.665E+00    2.661E+00    2.657E+00    2.653E+00    2.649E+00    2.645E+00    2.641E+00    2.636E+00    2.632E+00    2.628E+00
     2.623E+00    2.619E+00    2.614E+00    2.610E+00    2.605E+00    2.600E+00    2.595E+00    2.590E+00    2.585E+00    2.580E+00
     2.575E+00    2.570E+00    2.565E+00    2.560E+00    2.555E+00    2.549E+00    2.544E+00    2.538E+00    2.533E+00    2.527E+00
     2.522E+00    2.516E+00    2.510E+00    2.505E+00    2.499E+00    2.493E+00    2.487E+00    2.481E+00    2.475E+00    2.469E+00
     2.462E+00    2.456E+00    2.450E+00    2.444E+00    2.437E+00    2.431E+00    2.424E+00    2.418E+00    2.411E+00    2.404E+00
     2.398E+00    2.391E+00    2.384E+00    2.377E+00    2.370E+00    2.363E+00    2.356E+00    2.349E+00    2.342E+00    2.335E+00
     2.328E+00    2.320E+00    2.313E+00    2.306E+00    2.298E+00    2.291E+00    2.283E+00    2.276E+00    2.268E+00    2.260E+00
     2.253E+00    2.245E+00    2.237E+00    2.229E+00    2.221E+00    2.213E+00    2.205E+00    2.197E+00    2.189E+00    2.181E+00
     2.173E+00    2.165E+00    2.156E+00    2.148E+00    2.140E+00    2.131E+00    2.123E+00    2.114E+00    2.106E+00    2.097E+00
     2.088E+00    2.080E+00    2.071E+00    2.062E+00    2.053E+00    2.044E+00    2.036E+00    2.027E+00    2.018E+00    2.009E+00
     1.999E+00    1.990E+00    1.981E+00    1.972E+00    1.963E+00    1.954E+00    1.944E+00    1.935E+00    1.925E+00    1.916E+00
     1.907E+00    1.897E+00    1.887E+00    1.878E+00    1.868E+00    1.859E+00    1.849E+00    1.839E+00    1.829E+00    1.820E+00
     1.810E+00    1.800E+00    1.790E+00    1.780E+00    1.770E+00    1.760E+00    1.750E+00    1.740E+00    1.730E+00    1.719E+00
     1.709E+00    1.699E+00    1.689E+00    1.678E+00    1.668E+00    1.658E+00    1.647E+00    1.637E+00    1.626E+00    1.616E+00
     1.605E+00    1.595E+00    1.584E+00    1.574E+00    1.563E+00    1.552E+00    1.542E+00    1.531E+00    1.520E+00    1.509E+00
     1.498E+00    1.488E+00    1.477E+00    1.466E+00    1.455E+00    1.444E+00    1.433E+00    1.422E+00    1.411E+00    1.400E+00
     1.389E+00    1.377E+00    1.366E+00    1.355E+00    1.344E+00    1.333E+00    1.321E+00    1.310E+00    1.299E+00    1.287E+00
     1.276E+00    1.265E+00    1.253E+00    1.242E+00    1.230E+00    1.219E+00    1.208E+00    1.196E+00    1.184E+00    1.173E+00
     1.161E+00    1.150E+00    1.138E+00    1.126E+00    1.115E+00    1.103E+00    1.091E+00    1.080E+00    1.068E+00    1.056E+00
     1.044E+00    1.033E+00    1.021E+00    1.009E+00    9.972E-01    9.853E-01    9.735E-01    9.616E-01    9.497E-01    9.377E-01
     9.258E-01    9.138E-01    9.019E-01    8.899E-01    8.779E-01    8.659E-01    8.538E-01    8.418E-01    8.297E-01    8.177E-01
     8.056E-01    7.935E-01    7.814E-01    7.693E-01    7.571E-01    7.450E-01    7.328E-01    7.207E-01    7.085E-01    6.963E-01
     6.841E-01    6.719E-01    6.597E-01    6.475E-01    6.353E-01    6.230E-01    6.108E-01    5.985E-01    5.862E-01    5.740E-01
     5.617E-01    5.494E-01    5.371E-01    5.248E-01    5.125E-01    5.002E-01    4.879E-01    4.756E-01    4.632E-01    4.509E-01
     4.386E-01    4.262E-01    4.139E-01    4.015E-01    3.892E-01    3.768E-01    3.645E-01    3.521E-01    3.397E-01    3.274E-01
     3.150E-01    3.026E-01    2.903E-01    2.779E-01    2.655E-01    2.532E-01    2.408E-01    2.284E-01    2.160E-01    2.037E-01
     1.913E-01    1.789E-01    1.666E-01    1.542E-01    1.419E-01    1.295E-01    1.171E-01    1.048E-01    9.245E-02    8.010E-02
     6.776E-02    5.543E-02    4.310E-02    3.077E-02    1.845E-02    6.130E-03   -6.181E-03   -1.849E-02   -3.078E-02   -4.308E-02
    -5.536E-02   -6.764E-02   -7.991E-02   -9.218E-02   -1.044E-01   -1.167E-01   -1.289E-01   -1.412E-01   -1.534E-01   -1.656E-01
    -1.778E-01   -1.900E-01   -2.022E-01   -2.143E-01   -2.265E-01   -2.387E-01   -2.508E-01   -2.629E-01   -2.750E-01   -2.871E-01
    -2.992E-01   -3.113E-01   -3.234E-01   -3.354E-01   -3.475E-01   -3.595E-01   -3.715E-01   -3.835E-01   -3.955E-01   -4.075E-01
    -4.194E-01   -4.314E-01   -4.433E-01   -4.552E-01   -4.671E-01   -4.790E-01   -4.908E-01   -5.027E-01
 Ala      Conc. = 9.31E+02
