 LCModel (Version 6.3-1L) Copyright: S.W. Provencher.          Ref.: Magn. Reson. Med. 30:672-679 (1993).                
 Slice#1 Row#9 Col#10  PD_05_press_1_raw_act
 36 lines in following concentration table = NCONC+1
    Conc.  %SD /Cr+PCr  Metabolite                                         
   75.084  88%   0.112 Ala                                                 
    0.000 999%   0.000 Asp                                                 
  127.557 116%   0.190 Cr                                                  
  542.677  28%   0.810 PCr                                                 
   68.440 141%   0.102 GABA                                                
   46.697 212% 7.0E-02 Glc                                                 
  610.717  23%   0.911 Gln                                                 
  948.129  17%   1.415 Glu                                                 
  318.674   5%   0.475 GPC                                                 
    0.000 999%   0.000 PCh                                                 
  214.152  22%   0.320 GSH                                                 
  840.227  19%   1.254 Ins                                                 
    0.000 999%   0.000 Lac                                                 
 1.44E+03   5%   2.151 NAA                                                 
  410.212  16%   0.612 NAAG                                                
   90.283  20%   0.135 Scyllo                                              
  143.094  91%   0.213 Tau                                                 
  339.435  21%   0.506 -CrCH2                                              
  318.674   5%   0.475 GPC+PCh                                             
 1.85E+03   3%   2.763 NAA+NAAG                                            
  670.234   6%   1.000 Cr+PCr                                              
 1.56E+03  14%   2.326 Glu+Gln                                             
  882.877  45%   1.317 Lip13a                                              
   10.443 999% 1.6E-02 Lip13b                                              
  158.670  87%   0.237 Lip09                                               
  840.667  20%   1.254 MM09                                                
  146.026  64%   0.218 Lip20                                               
 1.55E+03  17%   2.319 MM20                                                
  267.117  42%   0.399 MM12                                                
  797.962  28%   1.191 MM14                                                
  596.578  26%   0.890 MM17                                                
  893.320  34%   1.333 Lip13a+Lip13b                                       
 1.96E+03  13%   2.922 MM14+Lip13a+Lip13b+MM12                             
  999.337  12%   1.491 MM09+Lip09                                          
 1.70E+03  15%   2.537 MM20+Lip20                                          
   6 lines in following misc. output table
  FWHM = 0.046 ppm    S/N =  13                                            
  Data shift = 0.008 ppm                                                   
  Ph: -43 deg     -13.4 deg/ppm                                            
  alphaB,S = 1.3E+00,   1.3E+02                                            
   14 spline knots.   Ns = 6(1)                                            
  ( 4) 2 infls.   ( 1) 1 extrs.                                            
  498 points on ppm-axis = NY
      4.000000     3.992357     3.984714     3.977070     3.969427     3.961784     3.954141     3.946497     3.938854     3.931211
      3.923568     3.915925     3.908281     3.900638     3.892995     3.885352     3.877708     3.870065     3.862422     3.854779
      3.847136     3.839492     3.831849     3.824206     3.816563     3.808919     3.801276     3.793633     3.785990     3.778347
      3.770703     3.763060     3.755417     3.747774     3.740130     3.732487     3.724844     3.717201     3.709558     3.701914
      3.694271     3.686628     3.678985     3.671341     3.663698     3.656055     3.648412     3.640769     3.633125     3.625482
      3.617839     3.610196     3.602552     3.594909     3.587266     3.579623     3.571980     3.564336     3.556693     3.549050
      3.541407     3.533763     3.526120     3.518477     3.510834     3.503191     3.495547     3.487904     3.480261     3.472618
      3.464974     3.457331     3.449688     3.442045     3.434402     3.426758     3.419115     3.411472     3.403829     3.396185
      3.388542     3.380899     3.373256     3.365613     3.357969     3.350326     3.342683     3.335040     3.327396     3.319753
      3.312110     3.304467     3.296824     3.289180     3.281537     3.273894     3.266251     3.258607     3.250964     3.243321
      3.235678     3.228034     3.220391     3.212748     3.205105     3.197462     3.189818     3.182175     3.174532     3.166889
      3.159245     3.151602     3.143959     3.136316     3.128673     3.121029     3.113386     3.105743     3.098100     3.090456
      3.082813     3.075170     3.067527     3.059884     3.052240     3.044597     3.036954     3.029311     3.021667     3.014024
      3.006381     2.998738     2.991095     2.983451     2.975808     2.968165     2.960522     2.952878     2.945235     2.937592
      2.929949     2.922306     2.914662     2.907019     2.899376     2.891733     2.884089     2.876446     2.868803     2.861160
      2.853517     2.845873     2.838230     2.830587     2.822944     2.815300     2.807657     2.800014     2.792371     2.784728
      2.777084     2.769441     2.761798     2.754155     2.746511     2.738868     2.731225     2.723582     2.715939     2.708295
      2.700652     2.693009     2.685366     2.677722     2.670079     2.662436     2.654793     2.647150     2.639506     2.631863
      2.624220     2.616577     2.608933     2.601290     2.593647     2.586004     2.578361     2.570717     2.563074     2.555431
      2.547788     2.540144     2.532501     2.524858     2.517215     2.509572     2.501928     2.494285     2.486642     2.478999
      2.471355     2.463712     2.456069     2.448426     2.440783     2.433139     2.425496     2.417853     2.410210     2.402566
      2.394923     2.387280     2.379637     2.371994     2.364350     2.356707     2.349064     2.341421     2.333777     2.326134
      2.318491     2.310848     2.303205     2.295561     2.287918     2.280275     2.272632     2.264988     2.257345     2.249702
      2.242059     2.234416     2.226772     2.219129     2.211486     2.203843     2.196199     2.188556     2.180913     2.173270
      2.165627     2.157983     2.150340     2.142697     2.135054     2.127410     2.119767     2.112124     2.104481     2.096838
      2.089194     2.081551     2.073908     2.066265     2.058621     2.050978     2.043335     2.035692     2.028049     2.020405
      2.012762     2.005119     1.997476     1.989833     1.982190     1.974546     1.966903     1.959260     1.951617     1.943974
      1.936331     1.928688     1.921045     1.913402     1.905759     1.898115     1.890472     1.882829     1.875186     1.867543
      1.859900     1.852257     1.844614     1.836971     1.829327     1.821684     1.814041     1.806398     1.798755     1.791112
      1.783469     1.775826     1.768183     1.760540     1.752896     1.745253     1.737610     1.729967     1.722324     1.714681
      1.707038     1.699395     1.691752     1.684108     1.676465     1.668822     1.661179     1.653536     1.645893     1.638250
      1.630607     1.622964     1.615321     1.607677     1.600034     1.592391     1.584748     1.577105     1.569462     1.561819
      1.554176     1.546533     1.538890     1.531246     1.523603     1.515960     1.508317     1.500674     1.493031     1.485388
      1.477745     1.470102     1.462458     1.454815     1.447172     1.439529     1.431886     1.424243     1.416600     1.408957
      1.401314     1.393671     1.386027     1.378384     1.370741     1.363098     1.355455     1.347812     1.340169     1.332526
      1.324883     1.317240     1.309596     1.301953     1.294310     1.286667     1.279024     1.271381     1.263738     1.256095
      1.248452     1.240808     1.233165     1.225522     1.217879     1.210236     1.202593     1.194950     1.187307     1.179664
      1.172021     1.164377     1.156734     1.149091     1.141448     1.133805     1.126162     1.118519     1.110876     1.103233
      1.095590     1.087946     1.080303     1.072660     1.065017     1.057374     1.049731     1.042088     1.034445     1.026802
      1.019158     1.011515     1.003872     0.996229     0.988586     0.980943     0.973300     0.965657     0.958014     0.950371
      0.942727     0.935084     0.927441     0.919798     0.912155     0.904512     0.896869     0.889226     0.881583     0.873940
      0.866296     0.858653     0.851010     0.843367     0.835724     0.828081     0.820438     0.812795     0.805152     0.797508
      0.789865     0.782222     0.774579     0.766936     0.759293     0.751650     0.744007     0.736364     0.728721     0.721077
      0.713434     0.705791     0.698148     0.690505     0.682862     0.675219     0.667576     0.659933     0.652290     0.644646
      0.637003     0.629360     0.621717     0.614074     0.606431     0.598788     0.591145     0.583502     0.575858     0.568215
      0.560572     0.552929     0.545286     0.537643     0.530000     0.522357     0.514714     0.507071     0.499427     0.491784
      0.484141     0.476498     0.468855     0.461212     0.453569     0.445925     0.438282     0.430639     0.422996     0.415353
      0.407710     0.400067     0.392424     0.384780     0.377137     0.369494     0.361851     0.354208     0.346565     0.338922
      0.331278     0.323635     0.315992     0.308349     0.300706     0.293063     0.285420     0.277777     0.270133     0.262490
      0.254847     0.247204     0.239561     0.231918     0.224275     0.216631     0.208988     0.201345
 NY phased data points follow
   3.50159E+00  1.26967E+00  1.10910E+00 -3.06823E+00  5.39309E-02  1.66336E+00  6.56921E+00  4.32281E+00  6.11955E+00  9.36867E+00
   9.74419E+00  1.03030E+01  9.15401E+00  7.28760E+00  6.96099E+00  3.25904E+00  3.77972E+00  1.40120E+00  1.68551E+00  4.84763E-03
  -8.74504E-01  9.52532E-01  4.27281E-01  4.58031E+00  1.83483E+00  2.90339E+00  1.60327E+00  4.36117E+00  6.46672E+00  3.88664E+00
   2.41401E+00  5.64941E+00  6.48665E+00  2.27077E+00  3.61021E+00  7.58623E+00  3.38896E+00  3.31931E+00  4.04705E+00  5.71858E+00
   2.68640E+00  2.89661E+00  4.64175E+00  8.56000E+00  3.91768E+00  9.06755E+00  5.90247E+00  1.22589E+01  1.00086E+01  6.75855E+00
   1.28224E+00  5.27268E+00  4.66761E+00  6.67197E+00  1.63987E+00  4.00617E+00  4.41193E+00  1.98801E+00  3.76158E+00  4.18789E+00
   7.95793E-01  2.82585E+00  1.91501E-01  1.54111E+00  7.70694E-01 -3.39313E-01 -3.10932E+00 -2.69082E-01 -1.31989E+00  1.35086E+00
   2.87381E-01 -3.97205E-01  1.49663E+00  2.91540E+00  6.81636E-01 -2.22999E-01 -7.11111E-01  6.75842E-01  9.90676E-01 -1.03420E+00
   3.95466E+00  2.39736E+00  3.77750E+00  5.66368E+00  2.00853E+00  2.67913E+00  6.25945E-01  2.76792E+00  5.13181E+00  5.02772E+00
   6.87554E+00  1.50515E+00  4.81519E+00  5.00095E+00  2.69769E+00  6.12751E+00  1.34918E+00  6.41725E+00  4.84220E+00  1.33481E+01
   2.08750E+01  2.61323E+01  3.21464E+01  3.11922E+01  2.86935E+01  2.36614E+01  1.65757E+01  1.24349E+01  6.48544E+00  2.73498E+00
   4.73260E+00  7.49953E-02  2.10240E+00  6.81953E-01  4.69889E+00  1.38729E+00  3.04001E+00  6.60400E-01  1.91854E+00  3.39422E+00
  -7.23856E-01  1.44277E+00  4.06205E+00  4.75407E+00  1.18093E+01  1.86723E+01  2.17381E+01  2.83788E+01  2.63427E+01  1.94752E+01
   1.59474E+01  1.01022E+01  6.93151E+00  4.69693E+00  2.78419E+00  9.30886E-02  7.35051E-01 -2.32071E+00 -2.55953E+00 -4.11049E-01
   4.37920E+00  3.15253E+00  1.65900E+00  4.78933E-01  3.31997E+00 -4.28001E-01  3.04323E+00 -2.96907E+00  3.21434E+00  2.85769E+00
   1.07985E+00  3.71292E-01  2.13576E+00  1.46941E+00 -1.43390E+00 -1.11741E+00  1.07471E+00  6.59381E+00  1.15773E-01 -2.33865E+00
  -1.24666E+00 -1.71179E+00 -2.91851E+00 -3.57566E+00 -2.79195E-01 -4.91798E-01 -6.96846E-01 -4.16148E+00 -5.35081E+00 -5.94960E+00
  -8.66758E+00 -8.77497E+00 -6.53260E+00 -1.00084E+01 -1.15095E+01 -9.41860E+00 -1.01775E+01 -9.91947E+00 -7.03453E+00 -7.14565E+00
  -4.07007E+00 -8.02837E+00 -7.15040E+00 -6.74200E+00 -5.22481E+00 -4.29362E+00 -5.46056E+00 -4.46062E+00 -6.11263E+00 -2.25097E+00
  -2.63213E+00 -1.97693E+00 -8.84291E-01  6.19926E-02 -4.90155E+00 -7.73839E+00 -6.51729E+00 -7.17632E+00 -6.24477E+00 -5.79577E+00
  -6.78455E+00 -7.64336E-02  3.17637E+00  1.57251E+00  3.97532E+00  2.45412E+00  5.63796E-01 -3.10493E+00 -3.57559E+00 -5.31212E+00
  -3.24014E+00 -3.00978E+00 -8.72346E-01  2.82242E+00  3.74351E+00  9.19179E+00  8.10259E+00  1.12958E+01  3.37937E+00  1.36018E+00
  -3.89074E-01 -2.78377E+00 -3.43104E+00  1.40702E-02 -1.17670E+00  4.77953E-01  4.05826E+00  2.72409E+00  5.02964E-01  6.00654E+00
   3.34202E+00  4.48597E+00  5.47051E+00  3.91288E+00  5.88700E+00  5.96507E+00  6.76435E+00  2.66837E+00  5.63625E+00  7.05389E+00
   5.30950E+00 -2.29554E+00  1.60664E+00 -9.26199E-01 -1.01218E+00  1.87084E+00  2.98900E+00  8.78493E+00  4.31864E+00  8.43116E+00
   5.14017E+00  8.06561E+00  8.97353E+00  1.85251E+01  2.68034E+01  3.07548E+01  3.38184E+01  3.67751E+01  4.45162E+01  5.76143E+01
   7.04954E+01  6.94395E+01  5.36477E+01  3.58726E+01  2.01500E+01  1.24805E+01  1.62283E+01  1.07793E+01  8.62614E+00  4.84722E+00
   1.92127E+00  1.71142E+00  1.26072E-01  5.81813E+00 -7.08587E-01  2.54167E+00 -2.19611E-01  7.86220E-01  1.87603E+00  3.74327E+00
   3.46949E+00  1.97775E+00  5.20095E+00  2.61720E+00  2.77005E-02  1.27151E+00  1.30573E+00  1.81174E+00  6.26656E+00  5.39892E+00
   3.55927E+00  3.58330E+00  6.31156E+00  3.34811E+00  4.32915E+00  2.82665E+00  8.33847E-02  2.19729E+00  1.81236E+00  3.55393E+00
   3.99399E+00  4.64197E+00  3.20296E+00  4.94515E-01  2.09259E+00  2.32376E+00  2.55114E+00  3.84049E+00  4.99318E+00  3.39946E+00
   3.54361E+00  2.93059E+00  3.20007E+00  3.17109E+00  3.53408E+00  3.15449E+00  2.48354E+00  2.24412E+00  3.32141E+00  3.32288E+00
   4.40744E+00  4.23026E+00  6.81473E+00  4.37904E+00  4.91424E+00  3.11157E+00  6.19152E+00  4.91907E+00  2.12946E+00  1.37557E+00
   2.97782E+00  3.02125E+00  6.23031E+00  5.86941E+00  4.83537E+00  1.35454E+00  6.91308E+00  5.24979E+00  4.69200E+00  5.04371E+00
   5.19710E+00  4.47890E+00  2.50572E+00  3.28130E+00  3.79158E+00  7.38714E+00  8.42642E+00  5.10242E+00  6.27086E+00  6.06921E+00
   6.06784E+00  8.76870E+00  7.90018E+00  7.19804E+00  9.53064E+00  7.18857E+00  7.58838E+00  7.19719E+00  4.03094E+00  3.15638E+00
   1.88690E+00  3.66251E+00  6.61913E+00  5.62392E+00  2.07029E+00  7.05298E+00  7.78611E+00  8.16582E+00  3.04796E+00  6.10711E+00
   4.64967E+00  6.51852E+00  3.62658E+00  6.38564E+00  4.44211E+00  1.27567E+00  3.65679E+00  3.73535E+00  3.87475E+00  2.89009E+00
   2.37728E+00 -4.75221E-01  2.05855E+00  1.31566E+00  2.59405E+00  6.46770E-01 -2.32191E+00  2.07195E+00 -1.39363E-01 -6.85707E-01
   1.89669E+00  1.33966E+00  1.58877E+00  5.07354E+00  2.04408E+00  6.17159E+00  4.40211E+00  8.00739E+00  8.96906E+00  7.01855E+00
   7.73095E+00  7.06241E+00  6.24695E+00  7.56875E+00  9.23960E+00  9.45838E+00  9.37205E+00  6.43273E+00  6.10827E+00  1.00529E+01
   1.02698E+01  8.32285E+00  8.86791E+00  7.16756E+00  7.83686E+00  7.66023E+00  4.09515E+00  3.40155E+00  4.42266E+00  5.87653E+00
   2.92789E+00  2.68668E+00  2.02956E+00  4.08149E+00  2.90213E+00  3.91120E+00  2.85694E-01  3.35693E+00  3.41447E+00  4.76681E+00
   2.80598E+00  2.93102E+00  5.62687E-01  2.73325E+00  1.53887E+00  3.70760E-01  2.56769E+00  2.01380E+00  8.42515E-01 -1.58602E+00
  -6.72371E-01  9.78158E-02  3.70023E+00  2.43509E+00  5.84107E+00 -9.60410E-02  3.93885E+00 -4.23654E-01  2.60396E-01  3.43641E-01
   2.55902E+00  1.12648E+00  2.10062E+00  3.56153E+00  3.44226E+00  4.34658E+00  1.89037E+00  2.30347E+00  2.33639E+00 -3.82072E-01
   3.18121E+00 -3.24781E-01 -1.51151E+00  3.13159E+00  3.78081E+00  1.45885E+00  2.80302E+00  1.01813E+00  1.39239E-01  2.68212E-01
   3.38275E+00 -1.80219E+00  7.59859E-01  4.71099E+00  1.30338E+00  3.34076E-01  1.38908E+00 -1.20870E+00  1.72032E+00  4.46772E+00
   7.59960E-01  2.87849E+00  2.21892E+00 -9.47231E-02  3.45696E+00  2.48832E+00  4.11344E-01  1.35606E+00 -5.21580E-02  1.75040E+00
   1.15249E+00  1.16128E+00  2.03520E+00 -7.36333E-01  2.71375E+00 -7.68431E-01  2.69365E-01  2.85868E-01
 NY points of the fit to the data follow
   1.13350E+00  9.75644E-01  9.35947E-01  1.02796E+00  1.55265E+00  2.39136E+00  3.58547E+00  5.22985E+00  7.26882E+00  9.26842E+00
   1.04957E+01  1.04260E+01  9.15599E+00  7.35774E+00  5.79297E+00  4.75051E+00  3.96047E+00  3.21678E+00  2.74734E+00  2.49188E+00
   2.39185E+00  2.33625E+00  2.21979E+00  2.05671E+00  1.98600E+00  2.00032E+00  2.29889E+00  3.09168E+00  4.38138E+00  5.92040E+00
   7.24330E+00  7.98068E+00  8.01123E+00  7.40022E+00  6.26113E+00  4.78227E+00  3.18029E+00  1.85297E+00  1.11046E+00  8.63265E-01
   1.13452E+00  1.89005E+00  2.96735E+00  4.23406E+00  5.64696E+00  7.14576E+00  8.38561E+00  8.80062E+00  8.04976E+00  6.35996E+00
   4.39780E+00  2.80570E+00  1.77475E+00  1.18729E+00  9.30607E-01  1.02419E+00  1.43464E+00  2.00644E+00  2.59148E+00  3.00713E+00
   3.06972E+00  2.70859E+00  2.02949E+00  1.32217E+00  8.33182E-01  6.51251E-01  7.36928E-01  9.85375E-01  1.28550E+00  1.60414E+00
   1.93092E+00  2.20088E+00  2.36483E+00  2.39679E+00  2.29821E+00  2.08892E+00  1.77865E+00  1.40571E+00  1.01538E+00  7.31057E-01
   6.86093E-01  9.74275E-01  1.48033E+00  2.11529E+00  2.91868E+00  3.77562E+00  4.38315E+00  4.39499E+00  3.71158E+00  2.63483E+00
   1.66501E+00  1.08149E+00  8.21813E-01  6.48209E-01  4.62190E-01  5.24784E-01  1.28177E+00  3.50682E+00  7.13182E+00  1.23046E+01
   1.91960E+01  2.67116E+01  3.23589E+01  3.35872E+01  2.97596E+01  2.27501E+01  1.55769E+01  1.02994E+01  6.88931E+00  4.18409E+00
   1.90927E+00  8.11339E-01  4.34713E-01  2.53895E-01  1.35500E-01  4.05888E-02 -3.32497E-02 -9.83356E-02 -1.39479E-01 -1.03871E-01
   1.79047E-01  1.36011E+00  3.77766E+00  7.27057E+00  1.20806E+01  1.79083E+01  2.32886E+01  2.61192E+01  2.50625E+01  2.07089E+01
   1.51861E+01  1.05058E+01  7.26671E+00  4.72397E+00  2.20775E+00  3.52025E-01 -4.05791E-01 -5.33049E-01 -2.50612E-01  2.13041E-01
   6.34066E-01  8.91914E-01  9.35582E-01  7.90749E-01  5.68264E-01  3.45361E-01  1.43459E-01 -3.21174E-02 -2.19180E-01 -4.09700E-01
  -5.98513E-01 -7.92550E-01 -9.63513E-01 -1.06390E+00 -1.06461E+00 -1.01014E+00 -9.71796E-01 -1.03277E+00 -1.29768E+00 -1.73099E+00
  -2.18551E+00 -2.45807E+00 -2.39451E+00 -2.07785E+00 -1.81021E+00 -1.87344E+00 -2.31248E+00 -2.89838E+00 -3.35226E+00 -3.60006E+00
  -3.73252E+00 -3.90665E+00 -4.18365E+00 -4.54507E+00 -4.92697E+00 -5.20740E+00 -5.21330E+00 -4.91553E+00 -4.55309E+00 -4.39559E+00
  -4.48835E+00 -4.64648E+00 -4.60293E+00 -4.27146E+00 -3.87224E+00 -3.53816E+00 -3.05543E+00 -2.22040E+00 -1.04469E+00  1.32269E-01
   8.51182E-01  9.32473E-01  4.42175E-01 -3.30711E-01 -1.06171E+00 -1.57776E+00 -1.76180E+00 -1.52242E+00 -8.60599E-01  1.53606E-01
   1.36940E+00  2.55603E+00  3.44078E+00  3.78942E+00  3.31816E+00  2.00764E+00  5.59780E-03 -2.40774E+00 -4.65379E+00 -6.03326E+00
  -6.13613E+00 -4.94917E+00 -2.88445E+00 -3.61492E-01  2.21497E+00  4.34713E+00  5.40700E+00  4.90961E+00  2.93201E+00  3.07751E-01
  -2.12170E+00 -3.90175E+00 -4.68310E+00 -4.23189E+00 -2.64201E+00 -4.39482E-01  1.48934E+00  2.66286E+00  3.09838E+00  3.08107E+00
   2.84619E+00  2.58698E+00  2.49490E+00  2.67360E+00  3.05987E+00  3.54022E+00  4.04527E+00  4.47750E+00  4.70158E+00  4.54247E+00
   3.93517E+00  3.08629E+00  2.39640E+00  2.17785E+00  2.47609E+00  3.16093E+00  3.92394E+00  4.52933E+00  5.05252E+00  5.91801E+00
   7.52724E+00  9.74117E+00  1.27393E+01  1.66187E+01  2.17371E+01  2.82680E+01  3.45032E+01  4.12524E+01  4.99507E+01  5.94660E+01
   6.55269E+01  6.36609E+01  5.33722E+01  3.91956E+01  2.68718E+01  1.87841E+01  1.35989E+01  8.91314E+00  5.14722E+00  3.80376E+00
   3.30091E+00  3.02057E+00  2.89161E+00  2.87219E+00  2.85473E+00  2.76831E+00  2.60278E+00  2.38730E+00  2.16515E+00  1.98330E+00
   1.85208E+00  1.76329E+00  1.72543E+00  1.73874E+00  1.77341E+00  1.80861E+00  1.84479E+00  1.89245E+00  1.96270E+00  2.05993E+00
   2.19162E+00  2.35904E+00  2.53478E+00  2.69203E+00  2.82312E+00  2.92986E+00  3.01965E+00  3.09909E+00  3.17013E+00  3.23931E+00
   3.31149E+00  3.37954E+00  3.43141E+00  3.45942E+00  3.46292E+00  3.44549E+00  3.40850E+00  3.35357E+00  3.28776E+00  3.21627E+00
   3.14298E+00  3.07188E+00  3.00717E+00  2.95318E+00  2.91380E+00  2.89245E+00  2.89180E+00  2.91472E+00  2.96449E+00  3.04635E+00
   3.17106E+00  3.35659E+00  3.57896E+00  3.80869E+00  4.02784E+00  4.17639E+00  4.16982E+00  3.96394E+00  3.60989E+00  3.26982E+00
   3.10018E+00  3.14257E+00  3.37943E+00  3.77696E+00  4.30207E+00  4.88506E+00  5.36625E+00  5.63000E+00  5.70358E+00  5.68920E+00
   5.67718E+00  5.68343E+00  5.67735E+00  5.67625E+00  5.71281E+00  5.77332E+00  5.84806E+00  5.93245E+00  6.02261E+00  6.11471E+00
   6.20443E+00  6.28754E+00  6.35948E+00  6.41574E+00  6.45163E+00  6.46309E+00  6.44689E+00  6.40140E+00  6.32606E+00  6.22158E+00
   6.08933E+00  5.93177E+00  5.75201E+00  5.55390E+00  5.34128E+00  5.11795E+00  4.88731E+00  4.65293E+00  4.41822E+00  4.18666E+00
   3.96118E+00  3.74446E+00  3.53864E+00  3.34596E+00  3.16839E+00  3.00781E+00  2.86551E+00  2.74262E+00  2.63999E+00  2.55879E+00
   2.50007E+00  2.46500E+00  2.45446E+00  2.46952E+00  2.51129E+00  2.58137E+00  2.68124E+00  2.81241E+00  2.97592E+00  3.17280E+00
   3.40364E+00  3.66878E+00  3.96754E+00  4.29827E+00  4.65790E+00  5.04235E+00  5.44619E+00  5.86283E+00  6.28405E+00  6.70055E+00
   7.10200E+00  7.47791E+00  7.81769E+00  8.11139E+00  8.34965E+00  8.52464E+00  8.63029E+00  8.66311E+00  8.62188E+00  8.50797E+00
   8.32482E+00  8.07820E+00  7.77571E+00  7.42665E+00  7.04110E+00  6.62957E+00  6.20222E+00  5.76888E+00  5.33849E+00  4.91907E+00
   4.51704E+00  4.13743E+00  3.78362E+00  3.45797E+00  3.16156E+00  2.89468E+00  2.65647E+00  2.44552E+00  2.25983E+00  2.09742E+00
   1.95611E+00  1.83382E+00  1.72822E+00  1.63723E+00  1.55882E+00  1.49148E+00  1.43372E+00  1.38433E+00  1.34197E+00  1.30564E+00
   1.27443E+00  1.24783E+00  1.22523E+00  1.20616E+00  1.18997E+00  1.17633E+00  1.16489E+00  1.15560E+00  1.14816E+00  1.14238E+00
   1.13789E+00  1.13463E+00  1.13249E+00  1.13154E+00  1.13156E+00  1.13246E+00  1.13399E+00  1.13622E+00  1.13912E+00  1.14276E+00
   1.14694E+00  1.15161E+00  1.15661E+00  1.16208E+00  1.16801E+00  1.17444E+00  1.18116E+00  1.18816E+00  1.19535E+00  1.20291E+00
   1.21079E+00  1.21901E+00  1.22737E+00  1.23591E+00  1.24459E+00  1.25360E+00  1.26283E+00  1.27230E+00  1.28180E+00  1.29144E+00
   1.30121E+00  1.31126E+00  1.32147E+00  1.33182E+00  1.34216E+00  1.35264E+00  1.36326E+00  1.37414E+00  1.38510E+00  1.39615E+00
   1.40719E+00  1.41839E+00  1.42975E+00  1.44133E+00  1.45295E+00  1.46465E+00  1.47637E+00  1.48831E+00
 NY background values follow
    -7.691E-01   -7.732E-01   -7.774E-01   -7.815E-01   -7.856E-01   -7.898E-01   -7.939E-01   -7.980E-01   -8.022E-01   -8.063E-01
    -8.104E-01   -8.146E-01   -8.187E-01   -8.228E-01   -8.270E-01   -8.311E-01   -8.352E-01   -8.394E-01   -8.435E-01   -8.477E-01
    -8.518E-01   -8.560E-01   -8.602E-01   -8.644E-01   -8.685E-01   -8.727E-01   -8.770E-01   -8.812E-01   -8.854E-01   -8.896E-01
    -8.939E-01   -8.982E-01   -9.024E-01   -9.067E-01   -9.110E-01   -9.153E-01   -9.197E-01   -9.240E-01   -9.284E-01   -9.328E-01
    -9.372E-01   -9.416E-01   -9.461E-01   -9.505E-01   -9.550E-01   -9.595E-01   -9.640E-01   -9.686E-01   -9.732E-01   -9.778E-01
    -9.824E-01   -9.870E-01   -9.917E-01   -9.964E-01   -1.001E+00   -1.006E+00   -1.011E+00   -1.015E+00   -1.020E+00   -1.025E+00
    -1.030E+00   -1.035E+00   -1.040E+00   -1.045E+00   -1.050E+00   -1.054E+00   -1.059E+00   -1.065E+00   -1.070E+00   -1.075E+00
    -1.080E+00   -1.085E+00   -1.090E+00   -1.095E+00   -1.100E+00   -1.106E+00   -1.111E+00   -1.116E+00   -1.122E+00   -1.127E+00
    -1.132E+00   -1.138E+00   -1.143E+00   -1.149E+00   -1.154E+00   -1.160E+00   -1.165E+00   -1.171E+00   -1.177E+00   -1.182E+00
    -1.188E+00   -1.194E+00   -1.199E+00   -1.205E+00   -1.211E+00   -1.217E+00   -1.223E+00   -1.228E+00   -1.234E+00   -1.240E+00
    -1.246E+00   -1.252E+00   -1.258E+00   -1.264E+00   -1.270E+00   -1.276E+00   -1.282E+00   -1.288E+00   -1.294E+00   -1.300E+00
    -1.306E+00   -1.313E+00   -1.319E+00   -1.325E+00   -1.331E+00   -1.337E+00   -1.343E+00   -1.349E+00   -1.355E+00   -1.361E+00
    -1.368E+00   -1.374E+00   -1.380E+00   -1.386E+00   -1.392E+00   -1.398E+00   -1.404E+00   -1.410E+00   -1.416E+00   -1.423E+00
    -1.429E+00   -1.435E+00   -1.441E+00   -1.447E+00   -1.453E+00   -1.459E+00   -1.465E+00   -1.471E+00   -1.476E+00   -1.482E+00
    -1.488E+00   -1.494E+00   -1.500E+00   -1.506E+00   -1.511E+00   -1.517E+00   -1.523E+00   -1.528E+00   -1.534E+00   -1.539E+00
    -1.544E+00   -1.550E+00   -1.555E+00   -1.560E+00   -1.565E+00   -1.570E+00   -1.575E+00   -1.580E+00   -1.585E+00   -1.590E+00
    -1.594E+00   -1.599E+00   -1.603E+00   -1.607E+00   -1.612E+00   -1.616E+00   -1.620E+00   -1.624E+00   -1.627E+00   -1.631E+00
    -1.634E+00   -1.638E+00   -1.641E+00   -1.644E+00   -1.647E+00   -1.650E+00   -1.653E+00   -1.655E+00   -1.658E+00   -1.660E+00
    -1.662E+00   -1.664E+00   -1.666E+00   -1.667E+00   -1.669E+00   -1.670E+00   -1.671E+00   -1.672E+00   -1.673E+00   -1.674E+00
    -1.674E+00   -1.675E+00   -1.675E+00   -1.675E+00   -1.675E+00   -1.675E+00   -1.675E+00   -1.674E+00   -1.673E+00   -1.673E+00
    -1.672E+00   -1.671E+00   -1.670E+00   -1.669E+00   -1.667E+00   -1.666E+00   -1.664E+00   -1.663E+00   -1.661E+00   -1.659E+00
    -1.657E+00   -1.654E+00   -1.652E+00   -1.650E+00   -1.647E+00   -1.645E+00   -1.642E+00   -1.639E+00   -1.636E+00   -1.633E+00
    -1.630E+00   -1.627E+00   -1.623E+00   -1.620E+00   -1.617E+00   -1.613E+00   -1.609E+00   -1.605E+00   -1.602E+00   -1.598E+00
    -1.594E+00   -1.589E+00   -1.585E+00   -1.581E+00   -1.577E+00   -1.572E+00   -1.568E+00   -1.563E+00   -1.558E+00   -1.553E+00
    -1.549E+00   -1.544E+00   -1.538E+00   -1.533E+00   -1.528E+00   -1.523E+00   -1.518E+00   -1.512E+00   -1.507E+00   -1.501E+00
    -1.495E+00   -1.489E+00   -1.484E+00   -1.478E+00   -1.472E+00   -1.466E+00   -1.460E+00   -1.453E+00   -1.447E+00   -1.441E+00
    -1.434E+00   -1.428E+00   -1.421E+00   -1.414E+00   -1.408E+00   -1.401E+00   -1.394E+00   -1.387E+00   -1.380E+00   -1.373E+00
    -1.366E+00   -1.359E+00   -1.351E+00   -1.344E+00   -1.337E+00   -1.329E+00   -1.322E+00   -1.314E+00   -1.306E+00   -1.298E+00
    -1.291E+00   -1.283E+00   -1.275E+00   -1.267E+00   -1.259E+00   -1.251E+00   -1.242E+00   -1.234E+00   -1.226E+00   -1.217E+00
    -1.209E+00   -1.201E+00   -1.192E+00   -1.183E+00   -1.175E+00   -1.166E+00   -1.157E+00   -1.148E+00   -1.140E+00   -1.131E+00
    -1.122E+00   -1.113E+00   -1.104E+00   -1.094E+00   -1.085E+00   -1.076E+00   -1.067E+00   -1.057E+00   -1.048E+00   -1.039E+00
    -1.029E+00   -1.020E+00   -1.010E+00   -1.000E+00   -9.907E-01   -9.810E-01   -9.712E-01   -9.614E-01   -9.516E-01   -9.417E-01
    -9.318E-01   -9.218E-01   -9.118E-01   -9.018E-01   -8.917E-01   -8.815E-01   -8.714E-01   -8.611E-01   -8.509E-01   -8.405E-01
    -8.302E-01   -8.198E-01   -8.093E-01   -7.989E-01   -7.883E-01   -7.778E-01   -7.671E-01   -7.565E-01   -7.458E-01   -7.350E-01
    -7.242E-01   -7.134E-01   -7.025E-01   -6.916E-01   -6.806E-01   -6.696E-01   -6.586E-01   -6.475E-01   -6.363E-01   -6.251E-01
    -6.139E-01   -6.026E-01   -5.913E-01   -5.800E-01   -5.686E-01   -5.571E-01   -5.456E-01   -5.341E-01   -5.225E-01   -5.109E-01
    -4.992E-01   -4.875E-01   -4.757E-01   -4.639E-01   -4.520E-01   -4.401E-01   -4.282E-01   -4.162E-01   -4.042E-01   -3.921E-01
    -3.800E-01   -3.679E-01   -3.557E-01   -3.434E-01   -3.311E-01   -3.188E-01   -3.065E-01   -2.941E-01   -2.816E-01   -2.691E-01
    -2.566E-01   -2.440E-01   -2.314E-01   -2.187E-01   -2.060E-01   -1.933E-01   -1.805E-01   -1.677E-01   -1.549E-01   -1.420E-01
    -1.290E-01   -1.161E-01   -1.031E-01   -9.001E-02   -7.693E-02   -6.380E-02   -5.064E-02   -3.743E-02   -2.419E-02   -1.092E-02
     2.398E-03    1.575E-02    2.914E-02    4.256E-02    5.603E-02    6.952E-02    8.306E-02    9.663E-02    1.102E-01    1.239E-01
     1.376E-01    1.513E-01    1.650E-01    1.788E-01    1.926E-01    2.064E-01    2.202E-01    2.341E-01    2.480E-01    2.620E-01
     2.759E-01    2.899E-01    3.039E-01    3.179E-01    3.320E-01    3.461E-01    3.601E-01    3.742E-01    3.884E-01    4.025E-01
     4.166E-01    4.308E-01    4.450E-01    4.591E-01    4.733E-01    4.875E-01    5.018E-01    5.160E-01    5.302E-01    5.444E-01
     5.587E-01    5.729E-01    5.872E-01    6.014E-01    6.157E-01    6.299E-01    6.442E-01    6.584E-01    6.727E-01    6.869E-01
     7.011E-01    7.154E-01    7.296E-01    7.438E-01    7.580E-01    7.722E-01    7.864E-01    8.006E-01    8.148E-01    8.290E-01
     8.431E-01    8.573E-01    8.715E-01    8.856E-01    8.998E-01    9.139E-01    9.280E-01    9.422E-01    9.563E-01    9.704E-01
     9.845E-01    9.986E-01    1.013E+00    1.027E+00    1.041E+00    1.055E+00    1.069E+00    1.083E+00    1.097E+00    1.111E+00
     1.125E+00    1.139E+00    1.154E+00    1.168E+00    1.182E+00    1.196E+00    1.210E+00    1.224E+00    1.238E+00    1.252E+00
     1.266E+00    1.280E+00    1.294E+00    1.308E+00    1.322E+00    1.336E+00    1.350E+00    1.364E+00
 Ala      Conc. = 7.51E+01
