 LCModel (Version 6.3-1L) Copyright: S.W. Provencher.          Ref.: Magn. Reson. Med. 30:672-679 (1993).                
 Slice#2 Row#14 Col#11  PD_05_press_1_raw_act
 36 lines in following concentration table = NCONC+1
    Conc.  %SD /Cr+PCr  Metabolite                                         
  168.873  81%   7.364 Ala                                                 
    1.812 173% 7.9E-02 Asp                                                 
    0.000 999%   0.000 Cr                                                  
   22.933  83%   1.000 PCr                                                 
    1.106 170% 4.8E-02 GABA                                                
    1.148 164% 5.0E-02 Glc                                                 
  618.146  26%  26.954 Gln                                                 
  409.130  49%  17.840 Glu                                                 
    0.000 999%   0.000 GPC                                                 
    0.000 999%   0.000 PCh                                                 
    0.000 999%   0.000 GSH                                                 
   36.353 192%   1.585 Ins                                                 
  218.080  74%   9.509 Lac                                                 
   13.997 174%   0.610 NAA                                                 
    0.000 999%   0.000 NAAG                                                
    0.409 154% 1.8E-02 Scyllo                                              
    1.993 158% 8.7E-02 Tau                                                 
    2.387 159%   0.104 -CrCH2                                              
    0.000 999%   0.000 GPC+PCh                                             
   13.997 174%   0.610 NAA+NAAG                                            
   22.933  83%   1.000 Cr+PCr                                              
 1.03E+03  25%  44.794 Glu+Gln                                             
  125.062  80%   5.453 Lip13a                                              
    0.000 999%   0.000 Lip13b                                              
   30.866 124%   1.346 Lip09                                               
   47.511  79%   2.072 MM09                                                
   19.267 129%   0.840 Lip20                                               
   72.110  84%   3.144 MM20                                                
   15.135  96%   0.660 MM12                                                
   19.133 236%   0.834 MM14                                                
   22.298 120%   0.972 MM17                                                
  125.062  80%   5.453 Lip13a+Lip13b                                       
  159.329  63%   6.948 MM14+Lip13a+Lip13b+MM12                             
   78.378  36%   3.418 MM09+Lip09                                          
   91.377  62%   3.984 MM20+Lip20                                          
   6 lines in following misc. output table
  FWHM = 0.168 ppm    S/N =   1                                            
  Data shift =-0.061 ppm                                                   
  Ph: 101 deg     -29.5 deg/ppm                                            
  alphaB,S = 8.5E+01,   4.1E+02                                            
   12 spline knots.   Ns = 9(2)                                            
   2 inflections.     1 extrema                                            
  498 points on ppm-axis = NY
      4.000000     3.992357     3.984714     3.977070     3.969427     3.961784     3.954141     3.946497     3.938854     3.931211
      3.923568     3.915925     3.908281     3.900638     3.892995     3.885352     3.877708     3.870065     3.862422     3.854779
      3.847136     3.839492     3.831849     3.824206     3.816563     3.808919     3.801276     3.793633     3.785990     3.778347
      3.770703     3.763060     3.755417     3.747774     3.740130     3.732487     3.724844     3.717201     3.709558     3.701914
      3.694271     3.686628     3.678985     3.671341     3.663698     3.656055     3.648412     3.640769     3.633125     3.625482
      3.617839     3.610196     3.602552     3.594909     3.587266     3.579623     3.571980     3.564336     3.556693     3.549050
      3.541407     3.533763     3.526120     3.518477     3.510834     3.503191     3.495547     3.487904     3.480261     3.472618
      3.464974     3.457331     3.449688     3.442045     3.434402     3.426758     3.419115     3.411472     3.403829     3.396185
      3.388542     3.380899     3.373256     3.365613     3.357969     3.350326     3.342683     3.335040     3.327396     3.319753
      3.312110     3.304467     3.296824     3.289180     3.281537     3.273894     3.266251     3.258607     3.250964     3.243321
      3.235678     3.228034     3.220391     3.212748     3.205105     3.197462     3.189818     3.182175     3.174532     3.166889
      3.159245     3.151602     3.143959     3.136316     3.128673     3.121029     3.113386     3.105743     3.098100     3.090456
      3.082813     3.075170     3.067527     3.059884     3.052240     3.044597     3.036954     3.029311     3.021667     3.014024
      3.006381     2.998738     2.991095     2.983451     2.975808     2.968165     2.960522     2.952878     2.945235     2.937592
      2.929949     2.922306     2.914662     2.907019     2.899376     2.891733     2.884089     2.876446     2.868803     2.861160
      2.853517     2.845873     2.838230     2.830587     2.822944     2.815300     2.807657     2.800014     2.792371     2.784728
      2.777084     2.769441     2.761798     2.754155     2.746511     2.738868     2.731225     2.723582     2.715939     2.708295
      2.700652     2.693009     2.685366     2.677722     2.670079     2.662436     2.654793     2.647150     2.639506     2.631863
      2.624220     2.616577     2.608933     2.601290     2.593647     2.586004     2.578361     2.570717     2.563074     2.555431
      2.547788     2.540144     2.532501     2.524858     2.517215     2.509572     2.501928     2.494285     2.486642     2.478999
      2.471355     2.463712     2.456069     2.448426     2.440783     2.433139     2.425496     2.417853     2.410210     2.402566
      2.394923     2.387280     2.379637     2.371994     2.364350     2.356707     2.349064     2.341421     2.333777     2.326134
      2.318491     2.310848     2.303205     2.295561     2.287918     2.280275     2.272632     2.264988     2.257345     2.249702
      2.242059     2.234416     2.226772     2.219129     2.211486     2.203843     2.196199     2.188556     2.180913     2.173270
      2.165627     2.157983     2.150340     2.142697     2.135054     2.127410     2.119767     2.112124     2.104481     2.096838
      2.089194     2.081551     2.073908     2.066265     2.058621     2.050978     2.043335     2.035692     2.028049     2.020405
      2.012762     2.005119     1.997476     1.989833     1.982190     1.974546     1.966903     1.959260     1.951617     1.943974
      1.936331     1.928688     1.921045     1.913402     1.905759     1.898115     1.890472     1.882829     1.875186     1.867543
      1.859900     1.852257     1.844614     1.836971     1.829327     1.821684     1.814041     1.806398     1.798755     1.791112
      1.783469     1.775826     1.768183     1.760540     1.752896     1.745253     1.737610     1.729967     1.722324     1.714681
      1.707038     1.699395     1.691752     1.684108     1.676465     1.668822     1.661179     1.653536     1.645893     1.638250
      1.630607     1.622964     1.615321     1.607677     1.600034     1.592391     1.584748     1.577105     1.569462     1.561819
      1.554176     1.546533     1.538890     1.531246     1.523603     1.515960     1.508317     1.500674     1.493031     1.485388
      1.477745     1.470102     1.462458     1.454815     1.447172     1.439529     1.431886     1.424243     1.416600     1.408957
      1.401314     1.393671     1.386027     1.378384     1.370741     1.363098     1.355455     1.347812     1.340169     1.332526
      1.324883     1.317240     1.309596     1.301953     1.294310     1.286667     1.279024     1.271381     1.263738     1.256095
      1.248452     1.240808     1.233165     1.225522     1.217879     1.210236     1.202593     1.194950     1.187307     1.179664
      1.172021     1.164377     1.156734     1.149091     1.141448     1.133805     1.126162     1.118519     1.110876     1.103233
      1.095590     1.087946     1.080303     1.072660     1.065017     1.057374     1.049731     1.042088     1.034445     1.026802
      1.019158     1.011515     1.003872     0.996229     0.988586     0.980943     0.973300     0.965657     0.958014     0.950371
      0.942727     0.935084     0.927441     0.919798     0.912155     0.904512     0.896869     0.889226     0.881583     0.873940
      0.866296     0.858653     0.851010     0.843367     0.835724     0.828081     0.820438     0.812795     0.805152     0.797508
      0.789865     0.782222     0.774579     0.766936     0.759293     0.751650     0.744007     0.736364     0.728721     0.721077
      0.713434     0.705791     0.698148     0.690505     0.682862     0.675219     0.667576     0.659933     0.652290     0.644646
      0.637003     0.629360     0.621717     0.614074     0.606431     0.598788     0.591145     0.583502     0.575858     0.568215
      0.560572     0.552929     0.545286     0.537643     0.530000     0.522357     0.514714     0.507071     0.499427     0.491784
      0.484141     0.476498     0.468855     0.461212     0.453569     0.445925     0.438282     0.430639     0.422996     0.415353
      0.407710     0.400067     0.392424     0.384780     0.377137     0.369494     0.361851     0.354208     0.346565     0.338922
      0.331278     0.323635     0.315992     0.308349     0.300706     0.293063     0.285420     0.277777     0.270133     0.262490
      0.254847     0.247204     0.239561     0.231918     0.224275     0.216631     0.208988     0.201345
 NY phased data points follow
   1.20727E+00  1.15653E+00  1.07387E+00 -8.42417E-02  2.52868E-01  3.40817E-01  6.14926E-01 -2.47464E-01 -5.28668E-01  1.26109E+00
   3.97128E-01  9.89828E-01  8.33558E-01 -1.29326E-01 -8.07915E-01  4.85115E-01 -1.79719E-01  9.25705E-01  2.42726E-01 -1.19840E+00
   6.03800E-01  8.77461E-01  5.03883E-01  1.22870E+00  6.08128E-01  7.57677E-01 -3.89066E-01  1.58663E+00  6.00855E-01  4.07813E-01
   1.31802E+00  9.52331E-01  1.28177E+00 -2.82818E-01 -8.39733E-01  5.71517E-01  3.49573E-01  7.03486E-01  9.28815E-01 -2.12396E-01
   6.34015E-01  3.57582E-01  2.28313E-01 -1.58479E+00  3.82512E-01  4.51670E-01  1.41748E+00 -2.20190E-01  1.74302E-01 -6.48469E-01
  -9.15673E-01  9.02488E-01  7.90554E-01  8.23725E-01  9.25523E-01 -3.37359E-01  1.93816E+00  1.23873E-01  1.18420E-01 -1.08155E+00
  -1.45936E+00 -7.94591E-01 -2.20321E-01  1.14787E+00  2.89015E-01  5.96502E-01  6.45025E-01  6.41293E-01 -1.38810E-01  1.14379E+00
   5.86536E-01  1.32689E+00  4.05860E-01  3.69871E-01  7.81712E-01 -7.17649E-01 -1.45622E-01 -4.89431E-01 -4.08078E-01  1.98267E+00
  -1.81455E-01 -2.60351E-01 -1.07864E-01  1.49283E+00  4.84097E-01 -3.70874E-01 -1.05362E+00  1.18559E+00  3.89846E-01  5.90820E-01
   4.02768E-01  3.73015E-01  5.12741E-01  3.89408E-01  4.58426E-01 -8.67154E-01 -3.87961E-01  1.94297E-01 -1.04428E+00 -5.27761E-01
  -2.88459E-01 -3.99663E-01 -2.38204E-01  3.52024E-03 -9.16369E-01  8.98931E-02  4.01856E-02  4.71003E-01 -4.22057E-01  3.01358E-01
  -5.82033E-01 -4.90935E-01  1.19676E+00  1.09110E+00 -6.20132E-01  5.01428E-01 -1.11732E+00  5.36207E-01 -6.97417E-01 -5.97878E-01
   8.70356E-01  1.16467E+00 -5.88281E-01 -6.05980E-01  3.27411E-01  4.94988E-01  2.85805E-01  4.02523E-01  7.36510E-01  8.33811E-01
   1.21510E+00  2.84162E-02 -4.90665E-01 -3.69815E-01  1.37607E-02  4.89162E-01  3.30153E-01  6.89289E-02  2.33183E-01 -6.97754E-02
  -1.29770E-01  6.15268E-01 -3.92315E-01  8.17586E-01  1.33972E+00 -3.47797E-01 -5.35756E-01  4.89716E-01 -4.74568E-01  1.10851E+00
  -4.30520E-01  8.83821E-01  9.16246E-01 -3.30767E-01  1.17732E-01 -9.13752E-01  7.44974E-01  9.67877E-01 -4.04622E-01 -1.05363E+00
  -8.82557E-03 -6.46061E-01  9.45590E-01 -7.28432E-01 -2.21393E-01 -1.16483E+00 -8.22568E-01  1.42825E+00 -3.44390E-01 -1.31192E+00
   9.63250E-01 -3.16059E-01  7.37673E-01  4.02424E-01 -9.61553E-01 -1.20349E+00 -9.75322E-01 -6.48931E-01 -1.02935E+00  5.16377E-01
  -1.75699E-01  1.51082E+00 -4.71541E-01 -5.89122E-01 -1.02181E+00 -2.13641E-02  1.14970E-01  1.25671E+00 -3.76064E-01 -1.08365E+00
  -8.78333E-01 -1.37946E+00  3.52045E-01 -1.31759E+00 -1.15121E+00 -4.65577E-01 -8.50400E-01  1.98276E-02 -7.28105E-01  8.39368E-01
   3.98208E-01  1.21398E+00  1.39484E-01 -9.60883E-01 -5.55328E-02 -9.52467E-02 -6.29936E-01 -3.48217E-01 -3.06632E-01 -4.43321E-01
  -1.06021E+00  8.29928E-02  6.06375E-02  3.55263E-01  7.78561E-01 -2.96325E-01  1.47717E-01 -6.21222E-01  3.64226E-02 -9.37149E-02
   5.33685E-02  1.54892E-01 -2.77110E-01  1.62911E+00  3.72480E-01  4.21406E-01  1.07450E+00  7.87547E-01  5.15917E-01  6.58814E-01
   2.50880E-01  1.06843E+00 -8.26743E-01  4.34935E-01  1.60226E-01  7.37498E-01  1.63433E-01  5.05858E-01  8.35039E-01  1.07392E+00
   1.13018E+00  3.67189E-01 -5.01512E-01  2.75402E-01  1.15353E+00  4.58537E-01  4.86318E-01  3.80164E-02 -4.38645E-01  6.21086E-01
   1.62137E-01  8.54134E-02 -1.03201E+00 -1.00534E+00  4.77160E-01  5.82768E-01  8.45024E-01 -5.07710E-01  3.14502E-02  6.80686E-01
  -1.08259E-01  2.36805E+00  4.91282E-01 -1.01565E+00  1.98501E+00 -3.73394E-01  1.33476E+00  1.91344E+00  9.53911E-01  3.41554E-01
   7.38066E-01  1.05275E+00  1.68492E+00  1.74460E+00 -2.42804E-01  5.57067E-01  8.47940E-01  1.88992E+00  1.56738E+00  8.32303E-01
  -1.12334E-01  5.22948E-01  9.09993E-01  1.01994E+00  1.51657E+00 -2.04747E-01  6.42138E-01  6.15497E-01  2.21460E+00  3.58543E-01
   2.56000E-01 -2.50980E-01  1.08306E-01  1.76984E-01  4.49504E-01  9.47626E-02  5.20605E-01  5.81839E-01  7.78881E-01  7.85772E-01
  -5.99400E-01  6.62464E-01  6.18841E-01  1.33011E+00  2.58612E-01  9.98552E-01  1.12803E+00  2.00307E-01  1.39089E+00  7.61152E-01
   2.26470E-01  3.82995E-01  9.06952E-01  1.16917E+00  4.37614E-01  8.12224E-01 -4.78607E-01  8.15249E-01  1.25554E+00  9.51949E-01
  -1.70710E-01 -6.17084E-02  1.06441E+00  7.05361E-01  2.03822E+00  9.57752E-01  1.00461E+00  1.40710E+00  1.25123E+00  1.69772E+00
   7.99059E-01  5.40317E-01 -3.05739E-01  1.36819E+00  2.29078E+00  9.03315E-01  1.28173E+00  9.21187E-01  3.72549E-01  1.44921E+00
  -6.48968E-01  1.27469E+00 -1.12776E+00  1.30243E+00  1.16919E+00  1.51711E+00  3.57998E+00  2.02125E+00  2.13641E+00  1.27603E+00
   1.93196E+00  2.37436E-01  8.22573E-01  1.54036E+00  6.78951E-01  1.33214E+00  1.14311E+00  1.07476E+00  2.16687E+00  1.15097E+00
   1.75732E+00  1.08644E+00  7.62669E-01  1.13536E+00  1.11085E+00  7.70696E-01  1.76755E+00  1.68210E+00  3.10528E+00  1.27308E+00
   6.76152E-01  5.38833E-01  2.28247E+00 -1.79210E-01  2.54425E-01  9.85696E-01  2.34493E+00  2.06173E+00  6.50569E-01  7.80719E-01
  -8.50827E-01  1.08615E+00  4.47696E-01  2.33130E-01 -1.31888E-01  5.05496E-01  2.00875E+00  2.72714E-01 -9.05165E-01 -1.26352E+00
   1.07093E+00 -1.11987E-01  1.08591E+00 -4.70178E-01  6.62781E-02  1.14384E+00  6.43279E-01  1.53198E+00  1.73355E+00  3.82394E-01
   1.73015E+00  1.28574E+00  8.20179E-01  3.10103E-01 -7.78222E-02  8.47698E-01  7.53297E-01  1.59602E+00  1.24235E+00  9.86754E-01
   1.20944E+00  9.40950E-02  2.43050E+00  5.13402E-01  1.64936E+00  2.31450E-01 -2.26249E-01 -3.12956E-01  1.07244E+00  1.05395E+00
   1.07583E+00  1.33148E+00 -1.10560E+00 -4.02598E-01 -2.02792E-01  1.57645E+00 -1.22007E+00 -1.69043E+00  5.17630E-01  8.13007E-01
  -6.03684E-02  6.81037E-01 -2.38036E+00  1.51298E+00 -1.89810E-01  1.12062E+00  4.61898E-02  2.62036E-02  6.45380E-01  4.49915E-01
   5.68016E-01 -1.15068E-01  1.24900E+00  4.52965E-01  1.30191E+00  8.09209E-01 -5.82921E-01  2.51972E-01  2.67141E-01 -7.19707E-01
  -8.66787E-01 -5.05679E-01  1.05418E+00  2.85186E-01  6.16201E-01  8.47289E-01  7.81717E-01  5.97982E-01 -4.65457E-01 -4.06016E-01
   1.82851E+00  5.99434E-01 -8.97083E-01  9.93268E-01 -1.19252E+00 -3.42160E-01 -6.97486E-01  1.33445E-01  5.12548E-01  1.40171E-01
   9.68813E-01  5.14595E-03  1.14306E-01  1.49394E+00  8.78474E-01 -9.84642E-02  1.01819E-01 -6.63209E-01  6.66576E-01  5.25980E-01
   1.98753E-01  7.85652E-01  8.01666E-01  1.90430E+00  5.84349E-01  6.22230E-01  1.39401E-01  7.34708E-01  1.63140E-01  4.53936E-01
  -4.41837E-01  3.94005E-02 -1.28528E-01 -9.27619E-01  5.17712E-01  1.50324E+00  2.95892E-01 -3.58316E-01
 NY points of the fit to the data follow
   1.84128E-01  2.50154E-01  2.22349E-01  2.91315E-01  2.66747E-01  3.40910E-01  3.24159E-01  4.02539E-01  3.70713E-01  4.43401E-01
   3.78463E-01  4.49174E-01  3.51217E-01  4.49481E-01  3.67020E-01  4.93612E-01  4.30919E-01  5.63137E-01  5.03929E-01  6.11463E-01
   5.39885E-01  6.29251E-01  5.52346E-01  6.26583E-01  5.53733E-01  6.16539E-01  5.60487E-01  6.13110E-01  5.82183E-01  6.22090E-01
   6.14570E-01  6.34118E-01  6.36848E-01  6.27556E-01  6.37294E-01  6.04375E-01  6.26000E-01  5.77592E-01  6.15091E-01  5.55816E-01
   6.04240E-01  5.39965E-01  5.89872E-01  5.24389E-01  5.62345E-01  5.01030E-01  5.15118E-01  4.61457E-01  4.37705E-01  3.91078E-01
   3.51404E-01  3.25627E-01  2.96458E-01  2.93285E-01  2.91766E-01  2.87295E-01  2.82425E-01  2.59897E-01  2.42577E-01  2.08258E-01
   1.87658E-01  1.62522E-01  1.49083E-01  1.29788E-01  1.21893E-01  1.07179E-01  1.03546E-01  9.26247E-02  9.24549E-02  8.38117E-02
   8.51222E-02  7.53905E-02  7.54588E-02  6.40736E-02  6.33270E-02  5.11374E-02  5.03001E-02  3.81293E-02  3.79136E-02  2.60915E-02
   2.61985E-02  1.47579E-02  1.49575E-02  3.25344E-03  2.83525E-03 -9.42146E-03 -1.06304E-02 -2.25153E-02 -2.38457E-02 -3.44511E-02
  -3.52814E-02 -4.42995E-02 -4.43747E-02 -5.18696E-02 -5.10023E-02 -5.71075E-02 -5.57975E-02 -6.04368E-02 -5.86971E-02 -6.18158E-02
  -5.97362E-02 -6.13134E-02 -5.89558E-02 -5.91583E-02 -5.65722E-02 -5.57203E-02 -5.27588E-02 -5.03828E-02 -4.21984E-02 -2.95380E-02
  -2.00250E-02  2.94168E-03  1.05334E-02  4.30014E-02  4.60293E-02  8.63494E-02  8.31749E-02  1.29856E-01  1.19731E-01  1.71845E-01
   1.54098E-01  2.10803E-01  1.85095E-01  2.44914E-01  2.10722E-01  2.70830E-01  2.28240E-01  2.85359E-01  2.35982E-01  2.87537E-01
   2.33562E-01  2.77882E-01  2.21503E-01  2.57212E-01  2.00271E-01  2.25741E-01  1.70305E-01  1.84514E-01  1.33093E-01  1.36235E-01
   9.16646E-02  8.56488E-02  5.04853E-02  3.88063E-02  1.44860E-02  1.59928E-03 -1.19777E-02 -2.15436E-02 -2.62142E-02 -2.91613E-02
  -3.25372E-02 -3.48916E-02 -3.82447E-02 -4.04911E-02 -4.38945E-02 -4.61757E-02 -4.96165E-02 -5.19776E-02 -5.55692E-02 -5.80383E-02
  -6.17289E-02 -6.42479E-02 -6.79369E-02 -7.06533E-02 -7.41006E-02 -7.68302E-02 -7.95636E-02 -8.21255E-02 -8.41508E-02 -8.61464E-02
  -8.72723E-02 -8.87801E-02 -8.88550E-02 -8.98081E-02 -8.88371E-02 -9.25171E-02 -9.78832E-02 -1.04256E-01 -1.29545E-01 -1.36177E-01
  -1.82735E-01 -1.84247E-01 -2.44838E-01 -2.18350E-01 -2.76193E-01 -2.15148E-01 -2.69273E-01 -1.63800E-01 -2.26859E-01 -9.48932E-02
  -1.88311E-01 -7.31019E-02 -2.43963E-01 -1.12138E-01 -3.39112E-01 -1.65280E-01 -4.20641E-01 -1.78381E-01 -4.24304E-01 -1.34389E-01
  -3.70453E-01 -6.38006E-02 -2.99825E-01 -1.18766E-02 -2.67699E-01 -1.04276E-02 -2.59362E-01 -1.94727E-02 -2.35722E-01 -5.10602E-03
  -1.72054E-01  4.00285E-02 -8.00129E-02  9.22424E-02  4.04409E-03  1.28781E-01  6.25793E-02  1.36106E-01  8.05034E-02  1.40628E-01
   1.22318E-01  2.04021E-01  2.35811E-01  3.61565E-01  4.00177E-01  5.25509E-01  5.25690E-01  6.26991E-01  5.52349E-01  6.19918E-01
   4.69894E-01  5.26353E-01  3.24281E-01  4.35174E-01  2.46881E-01  4.07073E-01  2.46773E-01  4.28575E-01  2.88877E-01  4.40986E-01
   2.93378E-01  4.00421E-01  2.59388E-01  3.32630E-01  2.13172E-01  2.75587E-01  2.09393E-01  2.69180E-01  2.48304E-01  2.98275E-01
   3.10902E-01  3.40989E-01  3.73070E-01  3.81094E-01  4.21812E-01  4.21727E-01  4.66863E-01  4.71861E-01  5.11705E-01  5.47416E-01
   5.88228E-01  6.44215E-01  6.70072E-01  7.25337E-01  7.17656E-01  7.43823E-01  7.17767E-01  7.22674E-01  6.85397E-01  6.78762E-01
   6.44150E-01  6.32310E-01  6.04387E-01  5.95423E-01  5.73529E-01  5.66601E-01  5.46233E-01  5.37986E-01  5.15763E-01  5.05939E-01
   4.85432E-01  4.77814E-01  4.68298E-01  4.66276E-01  4.61709E-01  4.61117E-01  4.60645E-01  4.58874E-01  4.59736E-01  4.58909E-01
   4.60500E-01  4.60605E-01  4.63224E-01  4.65109E-01  4.69427E-01  4.74589E-01  4.81649E-01  4.89169E-01  4.97691E-01  5.06674E-01
   5.15941E-01  5.25847E-01  5.35668E-01  5.46693E-01  5.58422E-01  5.72349E-01  5.88897E-01  6.11388E-01  6.45985E-01  6.90758E-01
   7.10161E-01  7.65046E-01  7.52688E-01  8.11322E-01  7.57294E-01  8.11383E-01  7.12337E-01  7.98210E-01  6.73076E-01  7.98856E-01
   6.52359E-01  8.16841E-01  6.49009E-01  8.45187E-01  6.55175E-01  8.75111E-01  6.68982E-01  9.11686E-01  7.12106E-01  1.00012E+00
   8.08428E-01  1.09719E+00  9.14054E-01  1.17180E+00  9.97973E-01  1.19371E+00  1.03068E+00  1.19178E+00  1.07847E+00  1.20788E+00
   1.16079E+00  1.25556E+00  1.27821E+00  1.32863E+00  1.40913E+00  1.40380E+00  1.52223E+00  1.45845E+00  1.59312E+00  1.47849E+00
   1.59688E+00  1.43637E+00  1.54833E+00  1.36490E+00  1.47265E+00  1.28321E+00  1.38818E+00  1.22079E+00  1.32834E+00  1.17540E+00
   1.27590E+00  1.14626E+00  1.23819E+00  1.13781E+00  1.21709E+00  1.14342E+00  1.20343E+00  1.14689E+00  1.17931E+00  1.12529E+00
   1.11518E+00  1.02933E+00  9.86904E-01  8.94283E-01  8.36234E-01  7.57853E-01  7.02418E-01  6.62382E-01  6.31103E-01  6.06241E-01
   5.86444E-01  5.71156E-01  5.59820E-01  5.52302E-01  5.48291E-01  5.47800E-01  5.50606E-01  5.56769E-01  5.66075E-01  5.78556E-01
   5.93935E-01  6.12148E-01  6.32794E-01  6.55664E-01  6.80199E-01  7.06020E-01  7.32398E-01  7.58803E-01  7.84385E-01  8.08531E-01
   8.30365E-01  8.49302E-01  8.64557E-01  8.75704E-01  8.82176E-01  8.83814E-01  8.80355E-01  8.71964E-01  8.58702E-01  8.41045E-01
   8.19335E-01  7.94278E-01  7.66391E-01  7.36492E-01  7.05141E-01  6.73143E-01  6.40990E-01  6.09371E-01  5.78629E-01  5.49282E-01
   5.21492E-01  4.95596E-01  4.71588E-01  4.49651E-01  4.29646E-01  4.11645E-01  3.95425E-01  3.80996E-01  3.68095E-01  3.56707E-01
   3.46559E-01  3.37641E-01  3.29690E-01  3.22715E-01  3.16475E-01  3.11000E-01  3.06070E-01  3.01740E-01  2.97809E-01  2.94352E-01
   2.91186E-01  2.88399E-01  2.85822E-01  2.83555E-01  2.81437E-01  2.79579E-01  2.77825E-01  2.76293E-01  2.74830E-01  2.73561E-01
   2.72336E-01  2.71283E-01  2.70255E-01  2.69381E-01  2.68516E-01  2.67792E-01  2.67066E-01  2.66469E-01  2.65861E-01  2.65373E-01
   2.64866E-01  2.64472E-01  2.64054E-01  2.63742E-01  2.63401E-01  2.63161E-01  2.62888E-01  2.62712E-01  2.62500E-01  2.62381E-01
   2.62223E-01  2.62154E-01  2.62044E-01  2.62023E-01  2.61957E-01  2.61977E-01  2.61951E-01  2.62009E-01  2.62021E-01  2.62115E-01
   2.62160E-01  2.62287E-01  2.62364E-01  2.62523E-01  2.62632E-01  2.62822E-01  2.62960E-01  2.63180E-01  2.63350E-01  2.63601E-01
   2.63804E-01  2.64089E-01  2.64327E-01  2.64651E-01  2.64932E-01  2.65305E-01  2.65643E-01  2.66084E-01
 NY background values follow
    -5.650E-02   -5.590E-02   -5.531E-02   -5.471E-02   -5.412E-02   -5.353E-02   -5.293E-02   -5.234E-02   -5.174E-02   -5.115E-02
    -5.055E-02   -4.996E-02   -4.937E-02   -4.877E-02   -4.818E-02   -4.758E-02   -4.699E-02   -4.639E-02   -4.580E-02   -4.520E-02
    -4.461E-02   -4.402E-02   -4.342E-02   -4.283E-02   -4.223E-02   -4.164E-02   -4.104E-02   -4.045E-02   -3.986E-02   -3.926E-02
    -3.867E-02   -3.807E-02   -3.748E-02   -3.688E-02   -3.629E-02   -3.570E-02   -3.510E-02   -3.451E-02   -3.391E-02   -3.332E-02
    -3.272E-02   -3.213E-02   -3.153E-02   -3.094E-02   -3.035E-02   -2.975E-02   -2.916E-02   -2.856E-02   -2.797E-02   -2.737E-02
    -2.678E-02   -2.619E-02   -2.559E-02   -2.500E-02   -2.440E-02   -2.381E-02   -2.321E-02   -2.262E-02   -2.202E-02   -2.143E-02
    -2.084E-02   -2.024E-02   -1.965E-02   -1.905E-02   -1.846E-02   -1.786E-02   -1.727E-02   -1.668E-02   -1.608E-02   -1.549E-02
    -1.489E-02   -1.430E-02   -1.370E-02   -1.311E-02   -1.251E-02   -1.192E-02   -1.133E-02   -1.073E-02   -1.014E-02   -9.543E-03
    -8.949E-03   -8.354E-03   -7.760E-03   -7.166E-03   -6.571E-03   -5.977E-03   -5.383E-03   -4.788E-03   -4.194E-03   -3.599E-03
    -3.005E-03   -2.411E-03   -1.816E-03   -1.222E-03   -6.277E-04   -3.332E-05    5.610E-04    1.155E-03    1.750E-03    2.344E-03
     2.938E-03    3.533E-03    4.127E-03    4.722E-03    5.316E-03    5.910E-03    6.505E-03    7.099E-03    7.693E-03    8.288E-03
     8.882E-03    9.476E-03    1.007E-02    1.067E-02    1.126E-02    1.185E-02    1.245E-02    1.304E-02    1.364E-02    1.423E-02
     1.483E-02    1.542E-02    1.601E-02    1.661E-02    1.720E-02    1.780E-02    1.839E-02    1.899E-02    1.958E-02    2.017E-02
     2.077E-02    2.136E-02    2.196E-02    2.255E-02    2.315E-02    2.374E-02    2.434E-02    2.493E-02    2.552E-02    2.612E-02
     2.671E-02    2.731E-02    2.790E-02    2.850E-02    2.909E-02    2.968E-02    3.028E-02    3.087E-02    3.147E-02    3.206E-02
     3.266E-02    3.325E-02    3.384E-02    3.444E-02    3.503E-02    3.563E-02    3.622E-02    3.682E-02    3.741E-02    3.800E-02
     3.860E-02    3.919E-02    3.979E-02    4.038E-02    4.098E-02    4.157E-02    4.217E-02    4.276E-02    4.335E-02    4.395E-02
     4.454E-02    4.514E-02    4.573E-02    4.633E-02    4.692E-02    4.751E-02    4.811E-02    4.870E-02    4.930E-02    4.989E-02
     5.049E-02    5.108E-02    5.167E-02    5.227E-02    5.286E-02    5.346E-02    5.405E-02    5.465E-02    5.524E-02    5.584E-02
     5.643E-02    5.702E-02    5.762E-02    5.821E-02    5.881E-02    5.940E-02    6.000E-02    6.059E-02    6.118E-02    6.178E-02
     6.237E-02    6.297E-02    6.356E-02    6.416E-02    6.475E-02    6.534E-02    6.594E-02    6.653E-02    6.713E-02    6.772E-02
     6.832E-02    6.891E-02    6.950E-02    7.010E-02    7.069E-02    7.129E-02    7.188E-02    7.248E-02    7.307E-02    7.367E-02
     7.426E-02    7.485E-02    7.545E-02    7.604E-02    7.664E-02    7.723E-02    7.783E-02    7.842E-02    7.901E-02    7.961E-02
     8.020E-02    8.080E-02    8.139E-02    8.199E-02    8.258E-02    8.317E-02    8.377E-02    8.436E-02    8.496E-02    8.555E-02
     8.615E-02    8.674E-02    8.734E-02    8.793E-02    8.852E-02    8.912E-02    8.971E-02    9.031E-02    9.090E-02    9.150E-02
     9.209E-02    9.268E-02    9.328E-02    9.387E-02    9.447E-02    9.506E-02    9.566E-02    9.625E-02    9.684E-02    9.744E-02
     9.803E-02    9.863E-02    9.922E-02    9.982E-02    1.004E-01    1.010E-01    1.016E-01    1.022E-01    1.028E-01    1.034E-01
     1.040E-01    1.046E-01    1.052E-01    1.058E-01    1.064E-01    1.069E-01    1.075E-01    1.081E-01    1.087E-01    1.093E-01
     1.099E-01    1.105E-01    1.111E-01    1.117E-01    1.123E-01    1.129E-01    1.135E-01    1.141E-01    1.147E-01    1.153E-01
     1.159E-01    1.165E-01    1.171E-01    1.176E-01    1.182E-01    1.188E-01    1.194E-01    1.200E-01    1.206E-01    1.212E-01
     1.218E-01    1.224E-01    1.230E-01    1.236E-01    1.242E-01    1.248E-01    1.254E-01    1.260E-01    1.266E-01    1.272E-01
     1.277E-01    1.283E-01    1.289E-01    1.295E-01    1.301E-01    1.307E-01    1.313E-01    1.319E-01    1.325E-01    1.331E-01
     1.337E-01    1.343E-01    1.349E-01    1.355E-01    1.361E-01    1.367E-01    1.373E-01    1.379E-01    1.384E-01    1.390E-01
     1.396E-01    1.402E-01    1.408E-01    1.414E-01    1.420E-01    1.426E-01    1.432E-01    1.438E-01    1.444E-01    1.450E-01
     1.456E-01    1.462E-01    1.468E-01    1.474E-01    1.480E-01    1.485E-01    1.491E-01    1.497E-01    1.503E-01    1.509E-01
     1.515E-01    1.521E-01    1.527E-01    1.533E-01    1.539E-01    1.545E-01    1.551E-01    1.557E-01    1.563E-01    1.569E-01
     1.575E-01    1.581E-01    1.587E-01    1.592E-01    1.598E-01    1.604E-01    1.610E-01    1.616E-01    1.622E-01    1.628E-01
     1.634E-01    1.640E-01    1.646E-01    1.652E-01    1.658E-01    1.664E-01    1.670E-01    1.676E-01    1.682E-01    1.688E-01
     1.693E-01    1.699E-01    1.705E-01    1.711E-01    1.717E-01    1.723E-01    1.729E-01    1.735E-01    1.741E-01    1.747E-01
     1.753E-01    1.759E-01    1.765E-01    1.771E-01    1.777E-01    1.783E-01    1.789E-01    1.795E-01    1.800E-01    1.806E-01
     1.812E-01    1.818E-01    1.824E-01    1.830E-01    1.836E-01    1.842E-01    1.848E-01    1.854E-01    1.860E-01    1.866E-01
     1.872E-01    1.878E-01    1.884E-01    1.890E-01    1.896E-01    1.901E-01    1.907E-01    1.913E-01    1.919E-01    1.925E-01
     1.931E-01    1.937E-01    1.943E-01    1.949E-01    1.955E-01    1.961E-01    1.967E-01    1.973E-01    1.979E-01    1.985E-01
     1.991E-01    1.997E-01    2.003E-01    2.008E-01    2.014E-01    2.020E-01    2.026E-01    2.032E-01    2.038E-01    2.044E-01
     2.050E-01    2.056E-01    2.062E-01    2.068E-01    2.074E-01    2.080E-01    2.086E-01    2.092E-01    2.098E-01    2.104E-01
     2.109E-01    2.115E-01    2.121E-01    2.127E-01    2.133E-01    2.139E-01    2.145E-01    2.151E-01    2.157E-01    2.163E-01
     2.169E-01    2.175E-01    2.181E-01    2.187E-01    2.193E-01    2.199E-01    2.205E-01    2.211E-01    2.216E-01    2.222E-01
     2.228E-01    2.234E-01    2.240E-01    2.246E-01    2.252E-01    2.258E-01    2.264E-01    2.270E-01    2.276E-01    2.282E-01
     2.288E-01    2.294E-01    2.300E-01    2.306E-01    2.312E-01    2.317E-01    2.323E-01    2.329E-01    2.335E-01    2.341E-01
     2.347E-01    2.353E-01    2.359E-01    2.365E-01    2.371E-01    2.377E-01    2.383E-01    2.389E-01
 Ala      Conc. = 1.69E+02
