 LCModel (Version 6.3-1L) Copyright: S.W. Provencher.          Ref.: Magn. Reson. Med. 30:672-679 (1993).                
 Slice#3 Row#5 Col#2  PD_05_press_1_raw_act
 36 lines in following concentration table = NCONC+1
    Conc.  %SD /Cr+PCr  Metabolite                                         
   22.716 109%   0.498 Ala                                                 
    6.679  96%   0.147 Asp                                                 
    0.000 999%   0.000 Cr                                                  
   45.587  28%   1.000 PCr                                                 
    4.420  87% 9.7E-02 GABA                                                
    3.971  97% 8.7E-02 Glc                                                 
   86.634  58%   1.900 Gln                                                 
   16.309 330%   0.358 Glu                                                 
    8.007 318%   0.176 GPC                                                 
    3.665 699% 8.0E-02 PCh                                                 
    0.000 999%   0.000 GSH                                                 
   25.601 240%   0.562 Ins                                                 
    0.000 999%   0.000 Lac                                                 
   59.078  25%   1.296 NAA                                                 
    0.000 999%   0.000 NAAG                                                
    1.235 103% 2.7E-02 Scyllo                                              
    7.041  91%   0.154 Tau                                                 
    0.000 999%   0.000 -CrCH2                                              
   11.673  43%   0.256 GPC+PCh                                             
   59.078  25%   1.296 NAA+NAAG                                            
   45.587  28%   1.000 Cr+PCr                                              
  102.943  69%   2.258 Glu+Gln                                             
  244.867  38%   5.371 Lip13a                                              
    0.000 999%   0.000 Lip13b                                              
   22.184 223%   0.487 Lip09                                               
 3.02E-03 999% 6.6E-05 MM09                                                
   61.696  65%   1.353 Lip20                                               
 7.97E-02 999% 1.7E-03 MM20                                                
    0.000 999%   0.000 MM12                                                
    0.000 999%   0.000 MM14                                                
 4.76E-03 999% 1.0E-04 MM17                                                
  244.867  38%   5.371 Lip13a+Lip13b                                       
  244.867  38%   5.371 MM14+Lip13a+Lip13b+MM12                             
   22.187 223%   0.487 MM09+Lip09                                          
   61.776  66%   1.355 MM20+Lip20                                          
   6 lines in following misc. output table
  FWHM = 0.046 ppm    S/N =   1                                            
  Data shift =-0.038 ppm                                                   
  Ph: 129 deg      -8.1 deg/ppm                                            
  alphaB,S = 3.9E-01,   2.2E+01                                            
   14 spline knots.   Ns = 5(1)                                            
   2 inflections.     1 extrema                                            
  498 points on ppm-axis = NY
      4.000000     3.992357     3.984714     3.977070     3.969427     3.961784     3.954141     3.946497     3.938854     3.931211
      3.923568     3.915925     3.908281     3.900638     3.892995     3.885352     3.877708     3.870065     3.862422     3.854779
      3.847136     3.839492     3.831849     3.824206     3.816563     3.808919     3.801276     3.793633     3.785990     3.778347
      3.770703     3.763060     3.755417     3.747774     3.740130     3.732487     3.724844     3.717201     3.709558     3.701914
      3.694271     3.686628     3.678985     3.671341     3.663698     3.656055     3.648412     3.640769     3.633125     3.625482
      3.617839     3.610196     3.602552     3.594909     3.587266     3.579623     3.571980     3.564336     3.556693     3.549050
      3.541407     3.533763     3.526120     3.518477     3.510834     3.503191     3.495547     3.487904     3.480261     3.472618
      3.464974     3.457331     3.449688     3.442045     3.434402     3.426758     3.419115     3.411472     3.403829     3.396185
      3.388542     3.380899     3.373256     3.365613     3.357969     3.350326     3.342683     3.335040     3.327396     3.319753
      3.312110     3.304467     3.296824     3.289180     3.281537     3.273894     3.266251     3.258607     3.250964     3.243321
      3.235678     3.228034     3.220391     3.212748     3.205105     3.197462     3.189818     3.182175     3.174532     3.166889
      3.159245     3.151602     3.143959     3.136316     3.128673     3.121029     3.113386     3.105743     3.098100     3.090456
      3.082813     3.075170     3.067527     3.059884     3.052240     3.044597     3.036954     3.029311     3.021667     3.014024
      3.006381     2.998738     2.991095     2.983451     2.975808     2.968165     2.960522     2.952878     2.945235     2.937592
      2.929949     2.922306     2.914662     2.907019     2.899376     2.891733     2.884089     2.876446     2.868803     2.861160
      2.853517     2.845873     2.838230     2.830587     2.822944     2.815300     2.807657     2.800014     2.792371     2.784728
      2.777084     2.769441     2.761798     2.754155     2.746511     2.738868     2.731225     2.723582     2.715939     2.708295
      2.700652     2.693009     2.685366     2.677722     2.670079     2.662436     2.654793     2.647150     2.639506     2.631863
      2.624220     2.616577     2.608933     2.601290     2.593647     2.586004     2.578361     2.570717     2.563074     2.555431
      2.547788     2.540144     2.532501     2.524858     2.517215     2.509572     2.501928     2.494285     2.486642     2.478999
      2.471355     2.463712     2.456069     2.448426     2.440783     2.433139     2.425496     2.417853     2.410210     2.402566
      2.394923     2.387280     2.379637     2.371994     2.364350     2.356707     2.349064     2.341421     2.333777     2.326134
      2.318491     2.310848     2.303205     2.295561     2.287918     2.280275     2.272632     2.264988     2.257345     2.249702
      2.242059     2.234416     2.226772     2.219129     2.211486     2.203843     2.196199     2.188556     2.180913     2.173270
      2.165627     2.157983     2.150340     2.142697     2.135054     2.127410     2.119767     2.112124     2.104481     2.096838
      2.089194     2.081551     2.073908     2.066265     2.058621     2.050978     2.043335     2.035692     2.028049     2.020405
      2.012762     2.005119     1.997476     1.989833     1.982190     1.974546     1.966903     1.959260     1.951617     1.943974
      1.936331     1.928688     1.921045     1.913402     1.905759     1.898115     1.890472     1.882829     1.875186     1.867543
      1.859900     1.852257     1.844614     1.836971     1.829327     1.821684     1.814041     1.806398     1.798755     1.791112
      1.783469     1.775826     1.768183     1.760540     1.752896     1.745253     1.737610     1.729967     1.722324     1.714681
      1.707038     1.699395     1.691752     1.684108     1.676465     1.668822     1.661179     1.653536     1.645893     1.638250
      1.630607     1.622964     1.615321     1.607677     1.600034     1.592391     1.584748     1.577105     1.569462     1.561819
      1.554176     1.546533     1.538890     1.531246     1.523603     1.515960     1.508317     1.500674     1.493031     1.485388
      1.477745     1.470102     1.462458     1.454815     1.447172     1.439529     1.431886     1.424243     1.416600     1.408957
      1.401314     1.393671     1.386027     1.378384     1.370741     1.363098     1.355455     1.347812     1.340169     1.332526
      1.324883     1.317240     1.309596     1.301953     1.294310     1.286667     1.279024     1.271381     1.263738     1.256095
      1.248452     1.240808     1.233165     1.225522     1.217879     1.210236     1.202593     1.194950     1.187307     1.179664
      1.172021     1.164377     1.156734     1.149091     1.141448     1.133805     1.126162     1.118519     1.110876     1.103233
      1.095590     1.087946     1.080303     1.072660     1.065017     1.057374     1.049731     1.042088     1.034445     1.026802
      1.019158     1.011515     1.003872     0.996229     0.988586     0.980943     0.973300     0.965657     0.958014     0.950371
      0.942727     0.935084     0.927441     0.919798     0.912155     0.904512     0.896869     0.889226     0.881583     0.873940
      0.866296     0.858653     0.851010     0.843367     0.835724     0.828081     0.820438     0.812795     0.805152     0.797508
      0.789865     0.782222     0.774579     0.766936     0.759293     0.751650     0.744007     0.736364     0.728721     0.721077
      0.713434     0.705791     0.698148     0.690505     0.682862     0.675219     0.667576     0.659933     0.652290     0.644646
      0.637003     0.629360     0.621717     0.614074     0.606431     0.598788     0.591145     0.583502     0.575858     0.568215
      0.560572     0.552929     0.545286     0.537643     0.530000     0.522357     0.514714     0.507071     0.499427     0.491784
      0.484141     0.476498     0.468855     0.461212     0.453569     0.445925     0.438282     0.430639     0.422996     0.415353
      0.407710     0.400067     0.392424     0.384780     0.377137     0.369494     0.361851     0.354208     0.346565     0.338922
      0.331278     0.323635     0.315992     0.308349     0.300706     0.293063     0.285420     0.277777     0.270133     0.262490
      0.254847     0.247204     0.239561     0.231918     0.224275     0.216631     0.208988     0.201345
 NY phased data points follow
   5.69025E+01  5.62819E+01  5.46281E+01  5.44350E+01  5.41973E+01  5.48840E+01  5.36426E+01  5.16592E+01  5.19441E+01  5.34779E+01
   5.10211E+01  5.12863E+01  5.05509E+01  4.75545E+01  4.73446E+01  4.76116E+01  4.81964E+01  4.74373E+01  4.78395E+01  4.60433E+01
   4.46507E+01  4.41953E+01  4.44445E+01  4.40408E+01  4.50290E+01  4.36099E+01  4.20882E+01  4.19986E+01  4.12243E+01  4.03662E+01
   4.04247E+01  4.06251E+01  4.03733E+01  4.03326E+01  3.99945E+01  3.91450E+01  3.72987E+01  3.94647E+01  3.60267E+01  3.61303E+01
   3.72467E+01  3.74790E+01  3.79930E+01  3.49343E+01  3.27539E+01  3.49839E+01  3.60064E+01  3.43701E+01  3.58029E+01  3.37656E+01
   3.53196E+01  3.18376E+01  3.26468E+01  3.26941E+01  3.17943E+01  3.19159E+01  3.09996E+01  3.02892E+01  2.99447E+01  3.16400E+01
   3.23982E+01  2.99313E+01  3.01462E+01  3.00032E+01  2.95895E+01  2.83040E+01  2.90472E+01  2.78784E+01  2.79639E+01  2.79576E+01
   2.88122E+01  2.72723E+01  2.96567E+01  2.62560E+01  2.76442E+01  2.74725E+01  2.54957E+01  2.66942E+01  2.53191E+01  2.44966E+01
   2.49297E+01  2.46602E+01  2.56243E+01  2.45886E+01  2.21136E+01  2.38879E+01  2.32535E+01  2.29841E+01  2.30696E+01  2.45194E+01
   2.25223E+01  2.40046E+01  2.27882E+01  2.40257E+01  2.24327E+01  2.31368E+01  2.28077E+01  2.09270E+01  2.07945E+01  2.11327E+01
   2.07982E+01  2.20099E+01  2.12431E+01  2.32525E+01  2.01453E+01  2.11805E+01  1.98789E+01  2.01277E+01  1.94770E+01  1.90250E+01
   1.96196E+01  1.88357E+01  1.80118E+01  2.08329E+01  1.88151E+01  1.91338E+01  1.71024E+01  1.72711E+01  1.96039E+01  1.62290E+01
   1.57887E+01  1.77082E+01  1.77298E+01  1.51869E+01  1.86110E+01  1.61728E+01  1.78215E+01  1.68238E+01  1.76767E+01  1.63430E+01
   1.80696E+01  1.53757E+01  1.42049E+01  1.36915E+01  1.37155E+01  1.49344E+01  1.75606E+01  1.45377E+01  1.55434E+01  1.56725E+01
   1.34810E+01  1.49226E+01  1.44318E+01  1.36953E+01  1.20179E+01  1.22030E+01  1.30073E+01  1.34796E+01  1.33510E+01  1.38083E+01
   1.30056E+01  1.31184E+01  1.30127E+01  1.26451E+01  1.18782E+01  1.28022E+01  1.35451E+01  1.15546E+01  1.09902E+01  1.15749E+01
   1.28498E+01  1.11203E+01  1.27462E+01  1.27419E+01  1.25091E+01  1.15298E+01  1.24603E+01  1.25572E+01  1.15691E+01  1.03596E+01
   1.00250E+01  1.16110E+01  1.17737E+01  1.09270E+01  9.69083E+00  1.15261E+01  1.09580E+01  9.70998E+00  1.16323E+01  1.01708E+01
   1.24247E+01  1.16642E+01  1.05368E+01  1.00309E+01  1.00293E+01  9.94429E+00  8.40805E+00  1.19975E+01  9.09203E+00  9.76776E+00
   9.18831E+00  8.93792E+00  7.94720E+00  1.04595E+01  9.41181E+00  8.49779E+00  8.30981E+00  9.80018E+00  1.14636E+01  9.15553E+00
   9.23357E+00  8.57671E+00  1.07123E+01  1.01082E+01  1.07757E+01  9.73759E+00  1.04706E+01  9.26726E+00  8.09481E+00  9.80021E+00
   8.58825E+00  8.98254E+00  9.09733E+00  1.06459E+01  9.44999E+00  9.47796E+00  9.65333E+00  9.86883E+00  8.90007E+00  9.06670E+00
   1.02095E+01  1.08369E+01  9.75052E+00  1.13236E+01  1.17567E+01  9.11219E+00  1.12904E+01  1.09459E+01  1.24875E+01  1.09676E+01
   1.18311E+01  1.19504E+01  1.08632E+01  1.28381E+01  1.10797E+01  1.20673E+01  1.39907E+01  1.30979E+01  1.31387E+01  1.50982E+01
   1.33933E+01  1.41756E+01  1.34505E+01  1.37099E+01  1.26657E+01  1.18727E+01  1.32618E+01  1.49527E+01  1.44551E+01  1.45509E+01
   1.48089E+01  1.35559E+01  1.51629E+01  1.45600E+01  1.53416E+01  1.47428E+01  1.50857E+01  1.57045E+01  1.67705E+01  1.54816E+01
   1.78925E+01  1.77418E+01  1.79594E+01  1.71757E+01  1.79260E+01  1.68626E+01  1.40483E+01  1.51053E+01  1.67481E+01  1.86560E+01
   1.54055E+01  1.64668E+01  1.61781E+01  1.85087E+01  1.65454E+01  1.81414E+01  1.69953E+01  1.73530E+01  1.72840E+01  1.80915E+01
   1.78000E+01  1.87717E+01  1.73580E+01  1.83295E+01  1.69016E+01  1.64450E+01  1.67406E+01  1.93801E+01  1.76959E+01  1.76588E+01
   1.72598E+01  1.55759E+01  1.85784E+01  1.58513E+01  1.65855E+01  1.67047E+01  1.75907E+01  1.56128E+01  1.51760E+01  1.98643E+01
   1.64785E+01  1.61525E+01  1.57271E+01  1.74626E+01  1.65944E+01  1.53142E+01  1.74368E+01  1.55663E+01  1.69007E+01  1.62288E+01
   1.44329E+01  1.65117E+01  1.55605E+01  1.34475E+01  1.58366E+01  1.61440E+01  1.56265E+01  1.54936E+01  1.43828E+01  1.59386E+01
   1.43414E+01  1.42682E+01  1.45697E+01  1.41269E+01  1.82700E+01  1.51840E+01  1.43246E+01  1.53843E+01  1.55207E+01  1.40786E+01
   1.49907E+01  1.57044E+01  1.52339E+01  1.26677E+01  1.34292E+01  1.33754E+01  1.39348E+01  1.40660E+01  1.38828E+01  1.45843E+01
   1.56870E+01  1.42492E+01  1.69556E+01  1.35178E+01  1.27774E+01  1.47677E+01  1.48474E+01  1.66174E+01  1.53776E+01  1.20799E+01
   1.48515E+01  1.54372E+01  1.47815E+01  1.43130E+01  1.26911E+01  1.44585E+01  1.22319E+01  1.44317E+01  1.33917E+01  1.26147E+01
   1.32406E+01  1.27219E+01  1.20457E+01  1.22255E+01  1.41585E+01  1.23175E+01  1.30854E+01  1.24952E+01  1.25501E+01  1.10744E+01
   1.32526E+01  1.24601E+01  1.24586E+01  1.32003E+01  1.15520E+01  9.91137E+00  9.72956E+00  8.84913E+00  9.16790E+00  9.99399E+00
   1.05421E+01  1.06029E+01  1.00535E+01  1.20636E+01  1.07506E+01  1.01051E+01  8.82131E+00  9.43673E+00  1.12073E+01  1.06984E+01
   9.89711E+00  1.13318E+01  1.04797E+01  1.02086E+01  8.25582E+00  8.93191E+00  8.75716E+00  1.02898E+01  1.11467E+01  8.76654E+00
   9.25218E+00  1.04644E+01  8.62916E+00  8.58864E+00  8.56840E+00  9.72570E+00  8.30321E+00  7.89444E+00  9.24255E+00  8.36255E+00
   9.13964E+00  8.90322E+00  8.00759E+00  8.00130E+00  8.58533E+00  9.46251E+00  9.03346E+00  1.02600E+01  8.61359E+00  9.74628E+00
   1.00855E+01  9.11215E+00  9.93667E+00  9.26377E+00  8.61582E+00  8.53629E+00  1.13452E+01  7.25115E+00  9.29757E+00  9.48527E+00
   8.91234E+00  8.41899E+00  7.73085E+00  8.58621E+00  8.02421E+00  7.76506E+00  8.05110E+00  7.51479E+00  8.32376E+00  7.67990E+00
   9.57496E+00  7.59545E+00  7.91363E+00  6.93309E+00  7.46772E+00  8.50420E+00  9.27637E+00  7.75734E+00  6.59482E+00  6.32521E+00
   7.50923E+00  6.75562E+00  7.04845E+00  6.67767E+00  7.28390E+00  8.11016E+00  8.13683E+00  5.47567E+00  8.01702E+00  5.85482E+00
   7.81514E+00  6.80679E+00  6.68464E+00  7.17946E+00  5.99344E+00  8.34953E+00  7.47462E+00  7.21411E+00  6.53820E+00  6.06594E+00
   6.50643E+00  6.21115E+00  6.60992E+00  7.86446E+00  6.29260E+00  7.44984E+00  6.32598E+00  5.78949E+00  7.75172E+00  6.57546E+00
   6.82513E+00  5.19621E+00  7.83156E+00  8.10382E+00  5.76263E+00  6.44271E+00  6.71636E+00  6.54627E+00  5.27562E+00  6.35744E+00
   7.53539E+00  5.56243E+00  5.13158E+00  7.21701E+00  6.85876E+00  7.00091E+00  4.76360E+00  5.85420E+00
 NY points of the fit to the data follow
   5.44924E+01  5.40375E+01  5.35985E+01  5.31890E+01  5.28509E+01  5.25864E+01  5.23691E+01  5.21680E+01  5.19471E+01  5.16400E+01
   5.11816E+01  5.05616E+01  4.98226E+01  4.90525E+01  4.83709E+01  4.78339E+01  4.73665E+01  4.69162E+01  4.64780E+01  4.60542E+01
   4.56491E+01  4.52534E+01  4.48499E+01  4.44220E+01  4.39582E+01  4.34556E+01  4.29319E+01  4.24332E+01  4.19955E+01  4.16380E+01
   4.13586E+01  4.11188E+01  4.08432E+01  4.04830E+01  4.00377E+01  3.95283E+01  3.89967E+01  3.85054E+01  3.80944E+01  3.77409E+01
   3.74115E+01  3.70826E+01  3.67428E+01  3.63945E+01  3.60538E+01  3.57330E+01  3.54197E+01  3.50983E+01  3.47591E+01  3.43938E+01
   3.40007E+01  3.35931E+01  3.31952E+01  3.28265E+01  3.24905E+01  3.21773E+01  3.18762E+01  3.15815E+01  3.12908E+01  3.10014E+01
   3.07092E+01  3.04107E+01  3.01043E+01  2.97904E+01  2.94757E+01  2.91703E+01  2.88798E+01  2.86044E+01  2.83400E+01  2.80802E+01
   2.78220E+01  2.75665E+01  2.73135E+01  2.70609E+01  2.68068E+01  2.65495E+01  2.62859E+01  2.60178E+01  2.57504E+01  2.54858E+01
   2.52287E+01  2.49876E+01  2.47617E+01  2.45410E+01  2.43181E+01  2.40892E+01  2.38516E+01  2.36057E+01  2.33559E+01  2.31082E+01
   2.28690E+01  2.26458E+01  2.24394E+01  2.22390E+01  2.20374E+01  2.18350E+01  2.16381E+01  2.14668E+01  2.13691E+01  2.13555E+01
   2.13999E+01  2.14714E+01  2.15330E+01  2.15150E+01  2.13401E+01  2.09823E+01  2.04766E+01  1.99193E+01  1.94469E+01  1.91349E+01
   1.89158E+01  1.87199E+01  1.85319E+01  1.83487E+01  1.81696E+01  1.79930E+01  1.78184E+01  1.76464E+01  1.74776E+01  1.73137E+01
   1.71614E+01  1.70543E+01  1.70614E+01  1.71805E+01  1.73739E+01  1.75954E+01  1.77869E+01  1.78401E+01  1.76571E+01  1.72251E+01
   1.66145E+01  1.59730E+01  1.54860E+01  1.52143E+01  1.50319E+01  1.48714E+01  1.47226E+01  1.45815E+01  1.44450E+01  1.43111E+01
   1.41787E+01  1.40480E+01  1.39196E+01  1.37931E+01  1.36690E+01  1.35478E+01  1.34284E+01  1.33085E+01  1.31871E+01  1.30655E+01
   1.29459E+01  1.28300E+01  1.27183E+01  1.26093E+01  1.25017E+01  1.23944E+01  1.22848E+01  1.21716E+01  1.20558E+01  1.19399E+01
   1.18279E+01  1.17237E+01  1.16306E+01  1.15495E+01  1.14776E+01  1.14071E+01  1.13276E+01  1.12342E+01  1.11324E+01  1.10317E+01
   1.09384E+01  1.08532E+01  1.07698E+01  1.06880E+01  1.06107E+01  1.05396E+01  1.04748E+01  1.04181E+01  1.03705E+01  1.03292E+01
   1.02897E+01  1.02471E+01  1.01996E+01  1.01548E+01  1.01228E+01  1.01015E+01  1.00841E+01  1.00675E+01  1.00550E+01  1.00467E+01
   1.00379E+01  1.00180E+01  9.97997E+00  9.92526E+00  9.86821E+00  9.82419E+00  9.80853E+00  9.83542E+00  9.90681E+00  1.00150E+01
   1.01531E+01  1.03028E+01  1.04291E+01  1.05022E+01  1.04915E+01  1.03703E+01  1.01666E+01  9.94174E+00  9.74319E+00  9.61057E+00
   9.59947E+00  9.74343E+00  1.00075E+01  1.03243E+01  1.06184E+01  1.08180E+01  1.09094E+01  1.09507E+01  1.09718E+01  1.09774E+01
   1.09871E+01  1.10217E+01  1.10891E+01  1.11841E+01  1.12991E+01  1.14241E+01  1.15455E+01  1.16509E+01  1.17366E+01  1.18115E+01
   1.18805E+01  1.19353E+01  1.19809E+01  1.20311E+01  1.20969E+01  1.21916E+01  1.23390E+01  1.25460E+01  1.27912E+01  1.30439E+01
   1.32543E+01  1.33634E+01  1.33574E+01  1.32927E+01  1.32268E+01  1.32072E+01  1.32740E+01  1.34318E+01  1.36407E+01  1.38688E+01
   1.41074E+01  1.43341E+01  1.45300E+01  1.46909E+01  1.48255E+01  1.50009E+01  1.53126E+01  1.57578E+01  1.62947E+01  1.68701E+01
   1.73954E+01  1.77142E+01  1.77132E+01  1.73972E+01  1.68748E+01  1.63568E+01  1.60714E+01  1.60262E+01  1.60515E+01  1.60916E+01
   1.61384E+01  1.61886E+01  1.62411E+01  1.62953E+01  1.63491E+01  1.63995E+01  1.64442E+01  1.64820E+01  1.65129E+01  1.65380E+01
   1.65589E+01  1.65772E+01  1.65944E+01  1.66109E+01  1.66263E+01  1.66403E+01  1.66523E+01  1.66613E+01  1.66669E+01  1.66686E+01
   1.66663E+01  1.66605E+01  1.66517E+01  1.66397E+01  1.66249E+01  1.66076E+01  1.65879E+01  1.65660E+01  1.65418E+01  1.65154E+01
   1.64866E+01  1.64554E+01  1.64220E+01  1.63864E+01  1.63486E+01  1.63089E+01  1.62672E+01  1.62235E+01  1.61781E+01  1.61308E+01
   1.60820E+01  1.60316E+01  1.59799E+01  1.59269E+01  1.58729E+01  1.58180E+01  1.57627E+01  1.57073E+01  1.56523E+01  1.55987E+01
   1.55481E+01  1.55043E+01  1.54757E+01  1.54602E+01  1.54393E+01  1.53982E+01  1.53251E+01  1.52066E+01  1.50314E+01  1.48091E+01
   1.45771E+01  1.43926E+01  1.42984E+01  1.43044E+01  1.43746E+01  1.44714E+01  1.45729E+01  1.46484E+01  1.46712E+01  1.46281E+01
   1.45338E+01  1.44353E+01  1.43671E+01  1.43186E+01  1.42800E+01  1.42470E+01  1.42171E+01  1.41882E+01  1.41587E+01  1.41268E+01
   1.40911E+01  1.40502E+01  1.40028E+01  1.39478E+01  1.38843E+01  1.38118E+01  1.37298E+01  1.36384E+01  1.35379E+01  1.34287E+01
   1.33118E+01  1.31880E+01  1.30585E+01  1.29247E+01  1.27878E+01  1.26491E+01  1.25099E+01  1.23713E+01  1.22343E+01  1.20998E+01
   1.19686E+01  1.18412E+01  1.17181E+01  1.15994E+01  1.14853E+01  1.13758E+01  1.12709E+01  1.11703E+01  1.10740E+01  1.09816E+01
   1.08929E+01  1.08078E+01  1.07258E+01  1.06470E+01  1.05709E+01  1.04974E+01  1.04264E+01  1.03578E+01  1.02913E+01  1.02268E+01
   1.01644E+01  1.01037E+01  1.00449E+01  9.98774E+00  9.93215E+00  9.87802E+00  9.82523E+00  9.77367E+00  9.72319E+00  9.67364E+00
   9.62487E+00  9.57673E+00  9.52904E+00  9.48166E+00  9.43444E+00  9.38727E+00  9.34002E+00  9.29263E+00  9.24502E+00  9.19716E+00
   9.14905E+00  9.10069E+00  9.05214E+00  9.00347E+00  8.95475E+00  8.90611E+00  8.85764E+00  8.80946E+00  8.76168E+00  8.71439E+00
   8.66769E+00  8.62166E+00  8.57635E+00  8.53181E+00  8.48807E+00  8.44515E+00  8.40303E+00  8.36173E+00  8.32120E+00  8.28143E+00
   8.24237E+00  8.20399E+00  8.16625E+00  8.12911E+00  8.09252E+00  8.05643E+00  8.02081E+00  7.98561E+00  7.95080E+00  7.91633E+00
   7.88218E+00  7.84831E+00  7.81468E+00  7.78128E+00  7.74806E+00  7.71500E+00  7.68207E+00  7.64925E+00  7.61651E+00  7.58384E+00
   7.55119E+00  7.51856E+00  7.48592E+00  7.45325E+00  7.42056E+00  7.38784E+00  7.35510E+00  7.32234E+00  7.28957E+00  7.25677E+00
   7.22397E+00  7.19116E+00  7.15834E+00  7.12552E+00  7.09271E+00  7.05990E+00  7.02710E+00  6.99431E+00  6.96154E+00  6.92879E+00
   6.89607E+00  6.86337E+00  6.83071E+00  6.79809E+00  6.76550E+00  6.73296E+00  6.70047E+00  6.66804E+00  6.63567E+00  6.60335E+00
   6.57111E+00  6.53893E+00  6.50683E+00  6.47481E+00  6.44288E+00  6.41104E+00  6.37929E+00  6.34763E+00  6.31608E+00  6.28464E+00
   6.25331E+00  6.22209E+00  6.19100E+00  6.16002E+00  6.12918E+00  6.09848E+00  6.06791E+00  6.03748E+00
 NY background values follow
     5.439E+01    5.394E+01    5.349E+01    5.304E+01    5.259E+01    5.214E+01    5.169E+01    5.124E+01    5.079E+01    5.035E+01
     4.990E+01    4.945E+01    4.901E+01    4.857E+01    4.812E+01    4.768E+01    4.724E+01    4.680E+01    4.637E+01    4.593E+01
     4.550E+01    4.507E+01    4.464E+01    4.421E+01    4.379E+01    4.336E+01    4.294E+01    4.252E+01    4.211E+01    4.169E+01
     4.128E+01    4.087E+01    4.047E+01    4.007E+01    3.967E+01    3.927E+01    3.888E+01    3.849E+01    3.810E+01    3.772E+01
     3.734E+01    3.696E+01    3.659E+01    3.622E+01    3.586E+01    3.550E+01    3.514E+01    3.479E+01    3.444E+01    3.410E+01
     3.376E+01    3.342E+01    3.309E+01    3.276E+01    3.244E+01    3.212E+01    3.180E+01    3.149E+01    3.118E+01    3.087E+01
     3.057E+01    3.027E+01    2.997E+01    2.968E+01    2.939E+01    2.910E+01    2.882E+01    2.854E+01    2.826E+01    2.799E+01
     2.772E+01    2.745E+01    2.718E+01    2.692E+01    2.666E+01    2.640E+01    2.615E+01    2.590E+01    2.565E+01    2.540E+01
     2.516E+01    2.492E+01    2.468E+01    2.445E+01    2.421E+01    2.398E+01    2.375E+01    2.352E+01    2.330E+01    2.308E+01
     2.285E+01    2.264E+01    2.242E+01    2.220E+01    2.199E+01    2.178E+01    2.157E+01    2.137E+01    2.116E+01    2.096E+01
     2.076E+01    2.056E+01    2.036E+01    2.016E+01    1.997E+01    1.978E+01    1.959E+01    1.940E+01    1.921E+01    1.903E+01
     1.884E+01    1.866E+01    1.848E+01    1.831E+01    1.813E+01    1.796E+01    1.778E+01    1.761E+01    1.744E+01    1.728E+01
     1.711E+01    1.695E+01    1.678E+01    1.662E+01    1.646E+01    1.631E+01    1.615E+01    1.599E+01    1.584E+01    1.569E+01
     1.554E+01    1.539E+01    1.524E+01    1.510E+01    1.495E+01    1.481E+01    1.467E+01    1.453E+01    1.439E+01    1.426E+01
     1.412E+01    1.399E+01    1.385E+01    1.372E+01    1.360E+01    1.347E+01    1.334E+01    1.322E+01    1.310E+01    1.298E+01
     1.286E+01    1.274E+01    1.263E+01    1.252E+01    1.241E+01    1.230E+01    1.219E+01    1.209E+01    1.199E+01    1.189E+01
     1.179E+01    1.169E+01    1.160E+01    1.151E+01    1.142E+01    1.134E+01    1.125E+01    1.117E+01    1.109E+01    1.101E+01
     1.094E+01    1.087E+01    1.080E+01    1.073E+01    1.067E+01    1.061E+01    1.055E+01    1.049E+01    1.044E+01    1.039E+01
     1.034E+01    1.029E+01    1.025E+01    1.021E+01    1.018E+01    1.014E+01    1.011E+01    1.008E+01    1.006E+01    1.004E+01
     1.002E+01    9.999E+00    9.986E+00    9.975E+00    9.967E+00    9.962E+00    9.960E+00    9.961E+00    9.965E+00    9.972E+00
     9.982E+00    9.995E+00    1.001E+01    1.003E+01    1.005E+01    1.008E+01    1.010E+01    1.013E+01    1.017E+01    1.020E+01
     1.024E+01    1.029E+01    1.033E+01    1.038E+01    1.043E+01    1.049E+01    1.054E+01    1.060E+01    1.067E+01    1.074E+01
     1.081E+01    1.088E+01    1.095E+01    1.103E+01    1.112E+01    1.120E+01    1.129E+01    1.138E+01    1.148E+01    1.157E+01
     1.167E+01    1.177E+01    1.188E+01    1.199E+01    1.209E+01    1.220E+01    1.232E+01    1.243E+01    1.254E+01    1.266E+01
     1.278E+01    1.290E+01    1.301E+01    1.313E+01    1.325E+01    1.337E+01    1.349E+01    1.361E+01    1.373E+01    1.385E+01
     1.397E+01    1.408E+01    1.420E+01    1.432E+01    1.443E+01    1.454E+01    1.465E+01    1.476E+01    1.487E+01    1.498E+01
     1.508E+01    1.518E+01    1.528E+01    1.537E+01    1.547E+01    1.556E+01    1.564E+01    1.573E+01    1.581E+01    1.588E+01
     1.595E+01    1.602E+01    1.609E+01    1.615E+01    1.620E+01    1.625E+01    1.630E+01    1.635E+01    1.639E+01    1.642E+01
     1.646E+01    1.649E+01    1.651E+01    1.653E+01    1.655E+01    1.657E+01    1.658E+01    1.659E+01    1.659E+01    1.659E+01
     1.659E+01    1.659E+01    1.658E+01    1.657E+01    1.656E+01    1.654E+01    1.653E+01    1.650E+01    1.648E+01    1.645E+01
     1.642E+01    1.639E+01    1.636E+01    1.632E+01    1.628E+01    1.624E+01    1.620E+01    1.615E+01    1.611E+01    1.606E+01
     1.601E+01    1.595E+01    1.590E+01    1.584E+01    1.578E+01    1.572E+01    1.566E+01    1.560E+01    1.553E+01    1.546E+01
     1.540E+01    1.533E+01    1.526E+01    1.518E+01    1.511E+01    1.504E+01    1.496E+01    1.489E+01    1.481E+01    1.473E+01
     1.465E+01    1.457E+01    1.449E+01    1.441E+01    1.433E+01    1.424E+01    1.416E+01    1.408E+01    1.399E+01    1.391E+01
     1.382E+01    1.373E+01    1.365E+01    1.356E+01    1.348E+01    1.339E+01    1.330E+01    1.322E+01    1.313E+01    1.304E+01
     1.296E+01    1.287E+01    1.278E+01    1.270E+01    1.261E+01    1.253E+01    1.244E+01    1.236E+01    1.227E+01    1.219E+01
     1.211E+01    1.203E+01    1.195E+01    1.187E+01    1.179E+01    1.171E+01    1.163E+01    1.155E+01    1.147E+01    1.140E+01
     1.132E+01    1.125E+01    1.118E+01    1.110E+01    1.103E+01    1.096E+01    1.089E+01    1.082E+01    1.075E+01    1.068E+01
     1.061E+01    1.055E+01    1.048E+01    1.042E+01    1.035E+01    1.029E+01    1.022E+01    1.016E+01    1.010E+01    1.004E+01
     9.980E+00    9.921E+00    9.862E+00    9.805E+00    9.748E+00    9.691E+00    9.636E+00    9.581E+00    9.527E+00    9.474E+00
     9.421E+00    9.370E+00    9.319E+00    9.268E+00    9.219E+00    9.170E+00    9.122E+00    9.075E+00    9.028E+00    8.982E+00
     8.937E+00    8.893E+00    8.849E+00    8.806E+00    8.764E+00    8.722E+00    8.681E+00    8.640E+00    8.600E+00    8.561E+00
     8.522E+00    8.483E+00    8.445E+00    8.408E+00    8.370E+00    8.334E+00    8.298E+00    8.262E+00    8.226E+00    8.191E+00
     8.156E+00    8.122E+00    8.088E+00    8.054E+00    8.021E+00    7.987E+00    7.954E+00    7.921E+00    7.889E+00    7.856E+00
     7.824E+00    7.792E+00    7.760E+00    7.728E+00    7.696E+00    7.664E+00    7.633E+00    7.601E+00    7.569E+00    7.538E+00
     7.506E+00    7.474E+00    7.443E+00    7.411E+00    7.379E+00    7.347E+00    7.315E+00    7.283E+00    7.251E+00    7.219E+00
     7.186E+00    7.154E+00    7.122E+00    7.090E+00    7.057E+00    7.025E+00    6.993E+00    6.960E+00    6.928E+00    6.896E+00
     6.864E+00    6.831E+00    6.799E+00    6.767E+00    6.735E+00    6.703E+00    6.670E+00    6.638E+00    6.606E+00    6.574E+00
     6.542E+00    6.511E+00    6.479E+00    6.447E+00    6.416E+00    6.384E+00    6.353E+00    6.321E+00    6.290E+00    6.259E+00
     6.228E+00    6.197E+00    6.166E+00    6.135E+00    6.105E+00    6.074E+00    6.044E+00    6.014E+00
 Ala      Conc. = 2.27E+01
