 LCModel (Version 6.3-1L) Copyright: S.W. Provencher.          Ref.: Magn. Reson. Med. 30:672-679 (1993).                
 Slice#3 Row#3 Col#1  PD_05_press_1_raw_act
 36 lines in following concentration table = NCONC+1
    Conc.  %SD /Cr+PCr  Metabolite                                         
    0.000 999%   0.000 Ala                                                 
    5.591  41%   0.150 Asp                                                 
    0.000 999%   0.000 Cr                                                  
   37.307  33%   1.000 PCr                                                 
    3.396  41% 9.1E-02 GABA                                                
    3.320  42% 8.9E-02 Glc                                                 
    0.000 999%   0.000 Gln                                                 
   85.032  60%   2.279 Glu                                                 
    1.197 356% 3.2E-02 GPC                                                 
    0.000 999%   0.000 PCh                                                 
   15.127 101%   0.405 GSH                                                 
    7.938 621%   0.213 Ins                                                 
    0.000 999%   0.000 Lac                                                 
   32.106  50%   0.861 NAA                                                 
   38.832  43%   1.041 NAAG                                                
    1.084  43% 2.9E-02 Scyllo                                              
    5.357  43%   0.144 Tau                                                 
    0.759 828% 2.0E-02 -CrCH2                                              
    1.197 356% 3.2E-02 GPC+PCh                                             
   70.938  23%   1.901 NAA+NAAG                                            
   37.307  33%   1.000 Cr+PCr                                              
   85.032  60%   2.279 Glu+Gln                                             
    0.000 999%   0.000 Lip13a                                              
    6.665 300%   0.179 Lip13b                                              
    0.000 999%   0.000 Lip09                                               
   49.834  79%   1.336 MM09                                                
    2.231 257% 6.0E-02 Lip20                                               
   75.787  78%   2.031 MM20                                                
   14.954  79%   0.401 MM12                                                
   36.780  82%   0.986 MM14                                                
   18.742  81%   0.502 MM17                                                
    6.665 300%   0.179 Lip13a+Lip13b                                       
   58.398  81%   1.565 MM14+Lip13a+Lip13b+MM12                             
   49.834  79%   1.336 MM09+Lip09                                          
   78.017  76%   2.091 MM20+Lip20                                          
   6 lines in following misc. output table
  FWHM = 0.038 ppm    S/N =   1                                            
  Data shift =-0.015 ppm                                                   
  Ph: 135 deg       0.1 deg/ppm                                            
  alphaB,S = 5.8E-01,   1.1E+01                                            
   14 spline knots.   Ns = 5(1)                                            
  ( 7) 2 infls.   ( 9) 1 extrs.                                            
  498 points on ppm-axis = NY
      4.000000     3.992357     3.984714     3.977070     3.969427     3.961784     3.954141     3.946497     3.938854     3.931211
      3.923568     3.915925     3.908281     3.900638     3.892995     3.885352     3.877708     3.870065     3.862422     3.854779
      3.847136     3.839492     3.831849     3.824206     3.816563     3.808919     3.801276     3.793633     3.785990     3.778347
      3.770703     3.763060     3.755417     3.747774     3.740130     3.732487     3.724844     3.717201     3.709558     3.701914
      3.694271     3.686628     3.678985     3.671341     3.663698     3.656055     3.648412     3.640769     3.633125     3.625482
      3.617839     3.610196     3.602552     3.594909     3.587266     3.579623     3.571980     3.564336     3.556693     3.549050
      3.541407     3.533763     3.526120     3.518477     3.510834     3.503191     3.495547     3.487904     3.480261     3.472618
      3.464974     3.457331     3.449688     3.442045     3.434402     3.426758     3.419115     3.411472     3.403829     3.396185
      3.388542     3.380899     3.373256     3.365613     3.357969     3.350326     3.342683     3.335040     3.327396     3.319753
      3.312110     3.304467     3.296824     3.289180     3.281537     3.273894     3.266251     3.258607     3.250964     3.243321
      3.235678     3.228034     3.220391     3.212748     3.205105     3.197462     3.189818     3.182175     3.174532     3.166889
      3.159245     3.151602     3.143959     3.136316     3.128673     3.121029     3.113386     3.105743     3.098100     3.090456
      3.082813     3.075170     3.067527     3.059884     3.052240     3.044597     3.036954     3.029311     3.021667     3.014024
      3.006381     2.998738     2.991095     2.983451     2.975808     2.968165     2.960522     2.952878     2.945235     2.937592
      2.929949     2.922306     2.914662     2.907019     2.899376     2.891733     2.884089     2.876446     2.868803     2.861160
      2.853517     2.845873     2.838230     2.830587     2.822944     2.815300     2.807657     2.800014     2.792371     2.784728
      2.777084     2.769441     2.761798     2.754155     2.746511     2.738868     2.731225     2.723582     2.715939     2.708295
      2.700652     2.693009     2.685366     2.677722     2.670079     2.662436     2.654793     2.647150     2.639506     2.631863
      2.624220     2.616577     2.608933     2.601290     2.593647     2.586004     2.578361     2.570717     2.563074     2.555431
      2.547788     2.540144     2.532501     2.524858     2.517215     2.509572     2.501928     2.494285     2.486642     2.478999
      2.471355     2.463712     2.456069     2.448426     2.440783     2.433139     2.425496     2.417853     2.410210     2.402566
      2.394923     2.387280     2.379637     2.371994     2.364350     2.356707     2.349064     2.341421     2.333777     2.326134
      2.318491     2.310848     2.303205     2.295561     2.287918     2.280275     2.272632     2.264988     2.257345     2.249702
      2.242059     2.234416     2.226772     2.219129     2.211486     2.203843     2.196199     2.188556     2.180913     2.173270
      2.165627     2.157983     2.150340     2.142697     2.135054     2.127410     2.119767     2.112124     2.104481     2.096838
      2.089194     2.081551     2.073908     2.066265     2.058621     2.050978     2.043335     2.035692     2.028049     2.020405
      2.012762     2.005119     1.997476     1.989833     1.982190     1.974546     1.966903     1.959260     1.951617     1.943974
      1.936331     1.928688     1.921045     1.913402     1.905759     1.898115     1.890472     1.882829     1.875186     1.867543
      1.859900     1.852257     1.844614     1.836971     1.829327     1.821684     1.814041     1.806398     1.798755     1.791112
      1.783469     1.775826     1.768183     1.760540     1.752896     1.745253     1.737610     1.729967     1.722324     1.714681
      1.707038     1.699395     1.691752     1.684108     1.676465     1.668822     1.661179     1.653536     1.645893     1.638250
      1.630607     1.622964     1.615321     1.607677     1.600034     1.592391     1.584748     1.577105     1.569462     1.561819
      1.554176     1.546533     1.538890     1.531246     1.523603     1.515960     1.508317     1.500674     1.493031     1.485388
      1.477745     1.470102     1.462458     1.454815     1.447172     1.439529     1.431886     1.424243     1.416600     1.408957
      1.401314     1.393671     1.386027     1.378384     1.370741     1.363098     1.355455     1.347812     1.340169     1.332526
      1.324883     1.317240     1.309596     1.301953     1.294310     1.286667     1.279024     1.271381     1.263738     1.256095
      1.248452     1.240808     1.233165     1.225522     1.217879     1.210236     1.202593     1.194950     1.187307     1.179664
      1.172021     1.164377     1.156734     1.149091     1.141448     1.133805     1.126162     1.118519     1.110876     1.103233
      1.095590     1.087946     1.080303     1.072660     1.065017     1.057374     1.049731     1.042088     1.034445     1.026802
      1.019158     1.011515     1.003872     0.996229     0.988586     0.980943     0.973300     0.965657     0.958014     0.950371
      0.942727     0.935084     0.927441     0.919798     0.912155     0.904512     0.896869     0.889226     0.881583     0.873940
      0.866296     0.858653     0.851010     0.843367     0.835724     0.828081     0.820438     0.812795     0.805152     0.797508
      0.789865     0.782222     0.774579     0.766936     0.759293     0.751650     0.744007     0.736364     0.728721     0.721077
      0.713434     0.705791     0.698148     0.690505     0.682862     0.675219     0.667576     0.659933     0.652290     0.644646
      0.637003     0.629360     0.621717     0.614074     0.606431     0.598788     0.591145     0.583502     0.575858     0.568215
      0.560572     0.552929     0.545286     0.537643     0.530000     0.522357     0.514714     0.507071     0.499427     0.491784
      0.484141     0.476498     0.468855     0.461212     0.453569     0.445925     0.438282     0.430639     0.422996     0.415353
      0.407710     0.400067     0.392424     0.384780     0.377137     0.369494     0.361851     0.354208     0.346565     0.338922
      0.331278     0.323635     0.315992     0.308349     0.300706     0.293063     0.285420     0.277777     0.270133     0.262490
      0.254847     0.247204     0.239561     0.231918     0.224275     0.216631     0.208988     0.201345
 NY phased data points follow
   9.14779E+00  8.94121E+00  9.31929E+00  7.62541E+00  7.12535E+00  8.42065E+00  7.69726E+00  9.09432E+00  7.77764E+00  9.38538E+00
   8.77858E+00  8.34018E+00  6.82158E+00  8.15029E+00  8.14738E+00  6.12217E+00  8.38960E+00  7.01125E+00  7.87140E+00  5.97018E+00
   7.48226E+00  6.02494E+00  6.97378E+00  7.48688E+00  6.49731E+00  5.97242E+00  6.45168E+00  6.11998E+00  6.85296E+00  8.81900E+00
   6.77351E+00  5.71511E+00  7.22515E+00  8.04801E+00  7.50123E+00  7.03477E+00  6.05538E+00  8.17540E+00  6.07700E+00  7.21567E+00
   8.35713E+00  7.27061E+00  7.33333E+00  7.30720E+00  6.18052E+00  6.01013E+00  6.03861E+00  5.49738E+00  6.50461E+00  5.16332E+00
   5.52173E+00  7.13395E+00  5.29626E+00  4.72968E+00  6.72537E+00  5.30503E+00  5.71629E+00  5.76601E+00  4.76433E+00  5.05523E+00
   6.37389E+00  5.12813E+00  3.95525E+00  4.58420E+00  5.40180E+00  5.27050E+00  6.09780E+00  5.08296E+00  3.46634E+00  4.96665E+00
   5.56358E+00  5.49088E+00  5.22826E+00  2.32294E+00  4.48974E+00  5.70490E+00  2.73056E+00  4.37767E+00  4.88329E+00  5.02526E+00
   3.31006E+00  1.61382E+00  4.12343E+00  5.41495E+00  4.77437E+00  3.59834E+00  4.46368E+00  3.79306E+00  3.36536E+00  4.87340E+00
   4.25422E+00  5.83590E+00  4.74238E+00  3.54148E+00  4.83282E+00  3.24991E+00  3.28012E+00  4.33091E+00  2.96684E+00  3.82362E+00
   6.12152E+00  3.83471E+00  5.14079E+00  4.61897E+00  3.52254E+00  2.98392E+00  3.31310E+00  2.86077E+00  3.71406E+00  3.09790E+00
   4.79921E+00  2.41198E+00  4.71199E+00  3.20643E+00  4.46515E+00  5.18248E+00  3.00055E+00  4.25213E+00  2.34680E+00  4.55180E+00
   3.54421E+00  2.66609E+00  2.81039E+00  2.86302E+00  4.26029E+00  3.64184E+00  4.95782E+00  7.09555E+00  5.88594E+00  3.24579E+00
   3.30329E+00  4.40723E+00  3.29368E+00  2.47696E+00  2.80716E+00  1.26635E+00  3.45791E+00  4.13012E+00  4.24683E+00  2.72575E+00
   2.30153E+00  4.29680E+00  2.44593E+00  2.43887E+00  4.29034E+00  5.43907E+00  1.93138E+00  3.11601E+00  2.77895E+00  2.43090E+00
   2.76555E+00  3.37577E+00  3.01681E+00  3.27695E+00  3.53306E+00  3.60029E+00  3.73921E+00  4.20863E+00  4.08725E+00  3.30230E+00
   2.64632E+00  2.80172E+00  3.40570E+00  3.75225E+00  4.36846E+00  3.83911E+00  2.37066E+00  4.10416E+00  2.97970E+00  3.02758E+00
   2.52095E+00  2.96935E+00  3.15149E+00  1.94537E+00  3.44670E+00  2.28861E+00  2.16998E+00  3.06211E+00  4.17878E+00  2.52719E+00
   3.33521E+00  3.13851E+00  3.22808E+00  2.62036E+00  3.82746E+00  3.37773E+00  2.16337E+00  2.53187E+00  1.80330E+00  3.53123E+00
   4.05216E+00  2.62928E+00  3.22170E+00  2.19733E+00  2.37917E+00  2.19763E+00  2.95759E+00  2.70305E+00  1.92735E+00  2.24551E+00
   3.64121E+00  2.12258E+00  2.23871E+00  2.92136E+00  1.95979E+00  2.21629E+00  2.39369E+00  3.58147E+00  2.67686E+00  3.05164E+00
   1.95973E+00  2.47681E+00  2.49089E+00  2.16945E+00  3.61130E+00  2.85301E+00  2.82763E+00  3.34078E+00  3.20344E+00  2.55433E+00
   2.33040E+00  2.34043E+00  2.74589E+00  2.49148E+00  4.83533E+00  4.37431E+00  3.14747E+00  4.37505E+00  2.75437E+00  5.39683E+00
   3.03041E+00  3.65299E+00  3.66116E+00  5.25653E+00  4.31861E+00  5.29427E+00  2.05509E+00  3.07913E+00  1.74191E+00  2.93540E+00
   3.03499E+00  3.72651E+00  4.36439E+00  4.70597E+00  3.86819E+00  4.44454E+00  4.79380E+00  3.92545E+00  3.74322E+00  4.19771E+00
   5.27327E+00  4.79607E+00  3.05925E+00  3.47116E+00  4.05052E+00  5.16132E+00  5.34307E+00  3.61239E+00  8.04090E+00  3.57680E+00
   4.87886E+00  3.61890E+00  4.78688E+00  3.72793E+00  4.19744E+00  2.97803E+00  4.28828E+00  4.12743E+00  4.00591E+00  3.81270E+00
   5.17251E+00  3.00888E+00  4.09083E+00  4.35219E+00  4.44158E+00  3.63397E+00  3.72679E+00  4.18438E+00  2.44695E+00  2.78447E+00
   4.61201E+00  4.45271E+00  3.52620E+00  4.41155E+00  2.45967E+00  2.75132E+00  4.18193E+00  4.10561E+00  3.04658E+00  2.80503E+00
   3.86051E+00  3.45559E+00  3.30411E+00  1.89178E+00  3.68733E+00  3.41937E+00  3.73919E+00  4.55074E+00  2.09372E+00  2.41547E+00
   2.46489E+00  3.30114E+00  4.03635E+00  2.03393E+00  2.27381E+00  3.06733E+00  8.64720E-01  5.74719E-01  2.82911E+00  1.74459E+00
   2.60309E+00  1.66344E+00  1.14135E-01  2.11551E+00  3.39234E+00  1.86416E+00  3.60346E+00  2.02868E+00  2.19982E+00  1.73458E+00
   6.62317E-01  1.17474E+00  2.70069E+00  1.02305E+00  4.77651E-01  1.79588E+00  4.23533E-01  2.80555E+00  1.48373E+00  2.41538E+00
   2.67132E+00  2.77533E+00  2.03475E+00  2.77562E+00  1.44497E+00  1.50312E+00  2.00618E+00  3.58732E+00  2.63235E+00  1.11416E+00
   3.22995E+00  5.48761E-01  2.60459E+00  1.65696E+00  2.06483E+00  3.53202E+00  1.84862E+00  1.94691E+00  1.73022E+00  3.34439E+00
   1.78557E+00  2.59376E+00  1.40089E+00  3.36790E+00  2.45186E+00  3.80470E+00  1.46874E+00  9.72028E-01  7.74369E-01  7.28099E-01
   4.77874E+00  9.25817E-01  7.78311E-01  2.88316E+00  1.73376E+00  2.60764E+00  2.91893E+00  4.10496E-01  3.71969E+00  5.25405E-01
   2.81821E+00  2.97736E+00  2.08825E+00  2.86209E+00  8.25892E-01  1.44349E+00  3.09575E+00  2.90522E+00  1.62396E+00  1.89912E+00
   1.57632E+00  1.24142E+00  2.30711E-01  1.43777E+00  2.05537E+00  1.91417E+00  2.87197E+00 -9.09350E-01  6.56259E-01  2.49719E+00
   1.94449E+00  1.11840E+00  1.25421E+00  1.48364E+00  1.52898E+00  2.58355E+00 -5.47802E-02  2.04435E+00  2.17775E+00  1.48012E+00
   2.18724E+00  8.04520E-01  1.10138E+00  8.11876E-01  1.99873E+00  1.80677E+00  2.25571E+00  6.00645E-01  1.16918E+00  1.60796E+00
   1.64070E+00  7.07103E-01  1.89474E+00  1.90703E+00  1.06274E+00 -3.89397E-01  1.32664E+00  9.36621E-01  4.28820E-01  7.67839E-01
   6.42299E-01 -4.68624E-02 -1.26696E+00  1.43906E+00  1.25831E+00  2.68220E+00  9.20418E-01  2.51648E+00  1.44567E+00  8.46620E-01
   1.44878E+00  7.14983E-01  2.27411E+00  1.12519E+00  2.22137E-01  2.11879E+00 -4.97227E-02  1.35909E+00  2.42633E+00  7.53554E-01
   1.47466E+00  1.89478E+00  2.91146E+00  1.21262E+00  1.30177E+00  1.62133E+00  1.64396E-01  7.27040E-01  2.05914E+00  1.54290E+00
  -1.90745E-01  1.04588E+00  2.50459E+00  1.01447E+00  3.63082E+00  1.51648E+00  1.46111E-01  2.07273E-01  1.69998E+00  2.63351E+00
   1.88448E+00 -1.03853E+00  7.56994E-01  1.07733E+00  8.54431E-01  2.01415E+00  2.01756E+00  1.86819E+00  2.15993E+00  2.12776E+00
   2.34048E+00  6.74264E-01  8.80175E-01  1.37274E+00  7.27597E-01  1.76837E+00  2.96939E-01  1.21683E+00  1.93714E-02 -7.64090E-01
   8.75685E-01  1.97560E+00  1.21736E+00  1.56758E+00  1.16016E-01  4.46176E-01  6.83602E-01  2.15660E+00  3.69762E-01 -3.03695E-01
   1.50565E+00  1.24412E+00  2.08183E+00  1.73044E+00  6.23965E-01  1.74806E+00  8.81805E-01  3.71993E-02
 NY points of the fit to the data follow
   7.44192E+00  7.41086E+00  7.38499E+00  7.37071E+00  7.39750E+00  7.49966E+00  7.70250E+00  7.97694E+00  8.20112E+00  8.23685E+00
   8.03348E+00  7.70819E+00  7.41604E+00  7.21573E+00  7.08552E+00  6.99082E+00  6.92469E+00  6.87964E+00  6.84511E+00  6.82064E+00
   6.80437E+00  6.79054E+00  6.77278E+00  6.74598E+00  6.70971E+00  6.66888E+00  6.63973E+00  6.66413E+00  6.75998E+00  6.89017E+00
   6.97100E+00  6.95878E+00  6.86976E+00  6.72019E+00  6.52011E+00  6.30225E+00  6.12691E+00  6.03885E+00  6.03034E+00  6.06718E+00
   6.10407E+00  6.11105E+00  6.08913E+00  6.05554E+00  6.02509E+00  5.99953E+00  5.97309E+00  5.93803E+00  5.88802E+00  5.82694E+00
   5.76569E+00  5.71250E+00  5.66861E+00  5.63149E+00  5.59887E+00  5.56916E+00  5.54174E+00  5.51681E+00  5.49388E+00  5.47005E+00
   5.44092E+00  5.40536E+00  5.36645E+00  5.32861E+00  5.29502E+00  5.26471E+00  5.23588E+00  5.20646E+00  5.17617E+00  5.14645E+00
   5.11915E+00  5.09614E+00  5.07709E+00  5.06015E+00  5.04091E+00  5.01329E+00  4.97352E+00  4.92569E+00  4.87944E+00  4.84210E+00
   4.81513E+00  4.79755E+00  4.78697E+00  4.78129E+00  4.77512E+00  4.75917E+00  4.72508E+00  4.67454E+00  4.62189E+00  4.57933E+00
   4.54647E+00  4.51586E+00  4.48307E+00  4.45099E+00  4.42469E+00  4.40627E+00  4.39468E+00  4.38637E+00  4.38152E+00  4.38167E+00
   4.39160E+00  4.40495E+00  4.40473E+00  4.37499E+00  4.31951E+00  4.26064E+00  4.21288E+00  4.17654E+00  4.14576E+00  4.11830E+00
   4.09504E+00  4.07449E+00  4.05553E+00  4.03772E+00  4.02080E+00  4.00427E+00  3.98728E+00  3.96896E+00  3.95013E+00  3.93407E+00
   3.92681E+00  3.94425E+00  4.04036E+00  4.26590E+00  4.65715E+00  5.13613E+00  5.49783E+00  5.53475E+00  5.21695E+00  4.76134E+00
   4.38813E+00  4.15218E+00  3.99093E+00  3.84811E+00  3.72458E+00  3.62924E+00  3.57156E+00  3.55931E+00  3.58282E+00  3.62161E+00
   3.65240E+00  3.66173E+00  3.64745E+00  3.61949E+00  3.58892E+00  3.55954E+00  3.53188E+00  3.50538E+00  3.48067E+00  3.45635E+00
   3.42932E+00  3.39844E+00  3.36551E+00  3.33811E+00  3.32514E+00  3.32900E+00  3.33983E+00  3.33996E+00  3.31873E+00  3.27978E+00
   3.23985E+00  3.21510E+00  3.20887E+00  3.21000E+00  3.20523E+00  3.18814E+00  3.16211E+00  3.13473E+00  3.11466E+00  3.10944E+00
   3.11824E+00  3.12879E+00  3.12361E+00  3.09615E+00  3.05931E+00  3.03414E+00  3.03081E+00  3.03961E+00  3.04020E+00  3.02509E+00
   3.00382E+00  2.99562E+00  3.00752E+00  3.03124E+00  3.05236E+00  3.06723E+00  3.08869E+00  3.12979E+00  3.18730E+00  3.24182E+00
   3.27093E+00  3.26204E+00  3.21662E+00  3.14946E+00  3.08381E+00  3.03532E+00  3.01410E+00  3.02547E+00  3.06623E+00  3.11931E+00
   3.16194E+00  3.18976E+00  3.20821E+00  3.21799E+00  3.20324E+00  3.15267E+00  3.07160E+00  2.97713E+00  2.89400E+00  2.84689E+00
   2.86268E+00  2.96443E+00  3.14189E+00  3.36582E+00  3.55238E+00  3.61138E+00  3.48953E+00  3.21890E+00  2.89521E+00  2.58983E+00
   2.35686E+00  2.25977E+00  2.35226E+00  2.60677E+00  2.90459E+00  3.13168E+00  3.25271E+00  3.28734E+00  3.25790E+00  3.18656E+00
   3.11145E+00  3.07844E+00  3.10926E+00  3.18431E+00  3.26550E+00  3.31481E+00  3.30826E+00  3.23900E+00  3.12144E+00  2.99399E+00
   2.90091E+00  2.87858E+00  2.93797E+00  3.06243E+00  3.20317E+00  3.30573E+00  3.34135E+00  3.31515E+00  3.25293E+00  3.19013E+00
   3.18413E+00  3.31670E+00  3.62513E+00  4.10443E+00  4.62729E+00  5.01212E+00  5.12751E+00  5.04468E+00  4.99180E+00  5.01169E+00
   4.93723E+00  4.61507E+00  4.14169E+00  3.72575E+00  3.43831E+00  3.24504E+00  3.10705E+00  3.01547E+00  2.96029E+00  2.92463E+00
   2.90859E+00  2.91228E+00  2.92625E+00  2.93723E+00  2.93318E+00  2.91039E+00  2.87579E+00  2.84015E+00  2.81029E+00  2.78761E+00
   2.77226E+00  2.76465E+00  2.76192E+00  2.75903E+00  2.75187E+00  2.74039E+00  2.72634E+00  2.71139E+00  2.69749E+00  2.68750E+00
   2.68307E+00  2.68324E+00  2.68431E+00  2.68268E+00  2.67725E+00  2.66884E+00  2.65827E+00  2.64640E+00  2.63476E+00  2.62540E+00
   2.61875E+00  2.61320E+00  2.60703E+00  2.59940E+00  2.59026E+00  2.57982E+00  2.56825E+00  2.55592E+00  2.54311E+00  2.52998E+00
   2.51669E+00  2.50336E+00  2.49010E+00  2.47702E+00  2.46429E+00  2.45207E+00  2.44049E+00  2.42962E+00  2.41950E+00  2.41017E+00
   2.40161E+00  2.39379E+00  2.38668E+00  2.38020E+00  2.37429E+00  2.36882E+00  2.36369E+00  2.35874E+00  2.35385E+00  2.34888E+00
   2.34369E+00  2.33815E+00  2.33212E+00  2.32548E+00  2.31815E+00  2.31005E+00  2.30113E+00  2.29138E+00  2.28081E+00  2.26948E+00
   2.25750E+00  2.24502E+00  2.23224E+00  2.21940E+00  2.20679E+00  2.19472E+00  2.18350E+00  2.17340E+00  2.16456E+00  2.15697E+00
   2.15047E+00  2.14465E+00  2.13895E+00  2.13268E+00  2.12514E+00  2.11569E+00  2.10391E+00  2.08967E+00  2.07310E+00  2.05462E+00
   2.03482E+00  2.01437E+00  1.99394E+00  1.97406E+00  1.95513E+00  1.93733E+00  1.92073E+00  1.90524E+00  1.89074E+00  1.87708E+00
   1.86409E+00  1.85166E+00  1.83971E+00  1.82821E+00  1.81718E+00  1.80664E+00  1.79667E+00  1.78733E+00  1.77871E+00  1.77093E+00
   1.76409E+00  1.75829E+00  1.75363E+00  1.75022E+00  1.74814E+00  1.74748E+00  1.74829E+00  1.75060E+00  1.75441E+00  1.75967E+00
   1.76629E+00  1.77412E+00  1.78296E+00  1.79255E+00  1.80255E+00  1.81260E+00  1.82228E+00  1.83115E+00  1.83875E+00  1.84462E+00
   1.84835E+00  1.84955E+00  1.84793E+00  1.84326E+00  1.83541E+00  1.82436E+00  1.81017E+00  1.79305E+00  1.77324E+00  1.75110E+00
   1.72702E+00  1.70143E+00  1.67478E+00  1.64751E+00  1.62004E+00  1.59275E+00  1.56598E+00  1.53999E+00  1.51502E+00  1.49121E+00
   1.46867E+00  1.44745E+00  1.42756E+00  1.40897E+00  1.39163E+00  1.37547E+00  1.36041E+00  1.34635E+00  1.33319E+00  1.32084E+00
   1.30922E+00  1.29823E+00  1.28782E+00  1.27789E+00  1.26840E+00  1.25930E+00  1.25053E+00  1.24206E+00  1.23385E+00  1.22587E+00
   1.21809E+00  1.21049E+00  1.20307E+00  1.19578E+00  1.18863E+00  1.18160E+00  1.17467E+00  1.16784E+00  1.16110E+00  1.15444E+00
   1.14786E+00  1.14134E+00  1.13488E+00  1.12848E+00  1.12214E+00  1.11584E+00  1.10959E+00  1.10338E+00  1.09722E+00  1.09109E+00
   1.08500E+00  1.07893E+00  1.07290E+00  1.06690E+00  1.06093E+00  1.05499E+00  1.04907E+00  1.04317E+00  1.03729E+00  1.03144E+00
   1.02561E+00  1.01979E+00  1.01399E+00  1.00821E+00  1.00244E+00  9.96695E-01  9.90961E-01  9.85239E-01  9.79526E-01  9.73824E-01
   9.68133E-01  9.62455E-01  9.56786E-01  9.51124E-01  9.45467E-01  9.39818E-01  9.34177E-01  9.28543E-01  9.22915E-01  9.17288E-01
   9.11664E-01  9.06045E-01  9.00431E-01  8.94820E-01  8.89211E-01  8.83600E-01  8.77990E-01  8.72384E-01
 NY background values follow
     7.401E+00    7.366E+00    7.332E+00    7.297E+00    7.263E+00    7.228E+00    7.194E+00    7.159E+00    7.125E+00    7.090E+00
     7.056E+00    7.022E+00    6.987E+00    6.953E+00    6.918E+00    6.884E+00    6.849E+00    6.815E+00    6.781E+00    6.746E+00
     6.712E+00    6.678E+00    6.643E+00    6.609E+00    6.575E+00    6.541E+00    6.507E+00    6.473E+00    6.439E+00    6.405E+00
     6.371E+00    6.337E+00    6.303E+00    6.269E+00    6.236E+00    6.202E+00    6.168E+00    6.135E+00    6.101E+00    6.068E+00
     6.035E+00    6.001E+00    5.968E+00    5.935E+00    5.902E+00    5.869E+00    5.836E+00    5.803E+00    5.771E+00    5.738E+00
     5.706E+00    5.673E+00    5.641E+00    5.609E+00    5.577E+00    5.545E+00    5.513E+00    5.481E+00    5.449E+00    5.418E+00
     5.386E+00    5.355E+00    5.324E+00    5.293E+00    5.262E+00    5.232E+00    5.201E+00    5.171E+00    5.140E+00    5.110E+00
     5.081E+00    5.051E+00    5.021E+00    4.992E+00    4.963E+00    4.934E+00    4.905E+00    4.876E+00    4.848E+00    4.819E+00
     4.791E+00    4.764E+00    4.736E+00    4.708E+00    4.681E+00    4.654E+00    4.627E+00    4.601E+00    4.574E+00    4.548E+00
     4.522E+00    4.497E+00    4.471E+00    4.446E+00    4.421E+00    4.397E+00    4.372E+00    4.348E+00    4.324E+00    4.300E+00
     4.277E+00    4.253E+00    4.230E+00    4.208E+00    4.185E+00    4.163E+00    4.141E+00    4.119E+00    4.097E+00    4.076E+00
     4.055E+00    4.034E+00    4.013E+00    3.993E+00    3.973E+00    3.953E+00    3.933E+00    3.913E+00    3.894E+00    3.875E+00
     3.856E+00    3.838E+00    3.820E+00    3.802E+00    3.784E+00    3.766E+00    3.749E+00    3.732E+00    3.715E+00    3.698E+00
     3.682E+00    3.666E+00    3.650E+00    3.634E+00    3.619E+00    3.604E+00    3.589E+00    3.574E+00    3.559E+00    3.545E+00
     3.531E+00    3.517E+00    3.504E+00    3.490E+00    3.477E+00    3.464E+00    3.452E+00    3.439E+00    3.427E+00    3.415E+00
     3.403E+00    3.391E+00    3.380E+00    3.369E+00    3.358E+00    3.347E+00    3.336E+00    3.326E+00    3.316E+00    3.306E+00
     3.296E+00    3.286E+00    3.277E+00    3.267E+00    3.258E+00    3.249E+00    3.240E+00    3.232E+00    3.223E+00    3.215E+00
     3.207E+00    3.199E+00    3.191E+00    3.184E+00    3.176E+00    3.169E+00    3.162E+00    3.155E+00    3.148E+00    3.141E+00
     3.135E+00    3.128E+00    3.122E+00    3.116E+00    3.110E+00    3.104E+00    3.098E+00    3.093E+00    3.087E+00    3.082E+00
     3.077E+00    3.071E+00    3.066E+00    3.061E+00    3.057E+00    3.052E+00    3.047E+00    3.043E+00    3.038E+00    3.034E+00
     3.030E+00    3.025E+00    3.021E+00    3.017E+00    3.013E+00    3.009E+00    3.005E+00    3.001E+00    2.997E+00    2.994E+00
     2.990E+00    2.986E+00    2.982E+00    2.979E+00    2.975E+00    2.971E+00    2.968E+00    2.964E+00    2.961E+00    2.957E+00
     2.954E+00    2.950E+00    2.947E+00    2.943E+00    2.940E+00    2.936E+00    2.932E+00    2.929E+00    2.925E+00    2.922E+00
     2.918E+00    2.914E+00    2.910E+00    2.907E+00    2.903E+00    2.899E+00    2.895E+00    2.891E+00    2.887E+00    2.883E+00
     2.879E+00    2.875E+00    2.871E+00    2.866E+00    2.862E+00    2.858E+00    2.853E+00    2.849E+00    2.844E+00    2.839E+00
     2.834E+00    2.830E+00    2.825E+00    2.820E+00    2.815E+00    2.809E+00    2.804E+00    2.799E+00    2.793E+00    2.788E+00
     2.782E+00    2.776E+00    2.770E+00    2.764E+00    2.758E+00    2.752E+00    2.746E+00    2.739E+00    2.732E+00    2.726E+00
     2.719E+00    2.712E+00    2.705E+00    2.698E+00    2.690E+00    2.683E+00    2.675E+00    2.667E+00    2.659E+00    2.651E+00
     2.643E+00    2.635E+00    2.627E+00    2.618E+00    2.610E+00    2.601E+00    2.593E+00    2.584E+00    2.575E+00    2.566E+00
     2.557E+00    2.548E+00    2.538E+00    2.529E+00    2.520E+00    2.510E+00    2.501E+00    2.491E+00    2.481E+00    2.472E+00
     2.462E+00    2.452E+00    2.442E+00    2.432E+00    2.422E+00    2.412E+00    2.402E+00    2.392E+00    2.382E+00    2.371E+00
     2.361E+00    2.351E+00    2.340E+00    2.330E+00    2.320E+00    2.309E+00    2.299E+00    2.288E+00    2.278E+00    2.267E+00
     2.257E+00    2.246E+00    2.236E+00    2.225E+00    2.215E+00    2.204E+00    2.194E+00    2.183E+00    2.173E+00    2.162E+00
     2.151E+00    2.141E+00    2.130E+00    2.120E+00    2.109E+00    2.098E+00    2.088E+00    2.077E+00    2.067E+00    2.056E+00
     2.046E+00    2.035E+00    2.025E+00    2.014E+00    2.003E+00    1.993E+00    1.982E+00    1.972E+00    1.961E+00    1.951E+00
     1.941E+00    1.930E+00    1.920E+00    1.909E+00    1.899E+00    1.889E+00    1.878E+00    1.868E+00    1.858E+00    1.848E+00
     1.837E+00    1.827E+00    1.817E+00    1.807E+00    1.797E+00    1.787E+00    1.777E+00    1.767E+00    1.757E+00    1.747E+00
     1.737E+00    1.727E+00    1.717E+00    1.708E+00    1.698E+00    1.688E+00    1.679E+00    1.669E+00    1.659E+00    1.650E+00
     1.641E+00    1.631E+00    1.622E+00    1.612E+00    1.603E+00    1.594E+00    1.585E+00    1.576E+00    1.567E+00    1.558E+00
     1.549E+00    1.540E+00    1.531E+00    1.522E+00    1.514E+00    1.505E+00    1.497E+00    1.488E+00    1.480E+00    1.471E+00
     1.463E+00    1.455E+00    1.447E+00    1.439E+00    1.431E+00    1.423E+00    1.415E+00    1.407E+00    1.399E+00    1.392E+00
     1.384E+00    1.376E+00    1.369E+00    1.362E+00    1.354E+00    1.347E+00    1.340E+00    1.333E+00    1.326E+00    1.319E+00
     1.312E+00    1.305E+00    1.298E+00    1.291E+00    1.285E+00    1.278E+00    1.271E+00    1.265E+00    1.258E+00    1.252E+00
     1.245E+00    1.239E+00    1.233E+00    1.226E+00    1.220E+00    1.214E+00    1.208E+00    1.202E+00    1.196E+00    1.190E+00
     1.183E+00    1.177E+00    1.172E+00    1.166E+00    1.160E+00    1.154E+00    1.148E+00    1.142E+00    1.136E+00    1.130E+00
     1.125E+00    1.119E+00    1.113E+00    1.107E+00    1.102E+00    1.096E+00    1.090E+00    1.085E+00    1.079E+00    1.073E+00
     1.068E+00    1.062E+00    1.056E+00    1.051E+00    1.045E+00    1.040E+00    1.034E+00    1.028E+00    1.023E+00    1.017E+00
     1.012E+00    1.006E+00    1.001E+00    9.952E-01    9.897E-01    9.842E-01    9.787E-01    9.732E-01    9.677E-01    9.622E-01
     9.567E-01    9.512E-01    9.457E-01    9.402E-01    9.348E-01    9.293E-01    9.238E-01    9.183E-01    9.129E-01    9.074E-01
     9.019E-01    8.965E-01    8.910E-01    8.855E-01    8.800E-01    8.745E-01    8.690E-01    8.636E-01
 Asp      Conc. = 5.59E+00
