 LCModel (Version 6.3-1L) Copyright: S.W. Provencher.          Ref.: Magn. Reson. Med. 30:672-679 (1993).                
 Slice#2 Row#6 Col#11  PD_05_press_1_raw_act
 36 lines in following concentration table = NCONC+1
    Conc.  %SD /Cr+PCr  Metabolite                                         
  172.717  45%   0.172 Ala                                                 
    0.000 999%   0.000 Asp                                                 
  103.066 194%   0.103 Cr                                                  
  900.763  23%   0.897 PCr                                                 
    0.000 999%   0.000 GABA                                                
   96.853 116% 9.6E-02 Glc                                                 
  436.376  36%   0.435 Gln                                                 
 1.12E+03  16%   1.112 Glu                                                 
  315.725   5%   0.315 GPC                                                 
    0.000 999%   0.000 PCh                                                 
  182.621  30%   0.182 GSH                                                 
  822.655  22%   0.820 Ins                                                 
  152.436  55%   0.152 Lac                                                 
 1.90E+03   5%   1.896 NAA                                                 
  317.710  32%   0.316 NAAG                                                
   73.917  27% 7.4E-02 Scyllo                                              
    0.000 999%   0.000 Tau                                                 
  647.070  13%   0.645 -CrCH2                                              
  315.725   5%   0.315 GPC+PCh                                             
 2.22E+03   3%   2.212 NAA+NAAG                                            
 1.00E+03   5%   1.000 Cr+PCr                                              
 1.55E+03  16%   1.547 Glu+Gln                                             
  415.271  74%   0.414 Lip13a                                              
    0.000 999%   0.000 Lip13b                                              
    0.000 999%   0.000 Lip09                                               
 1.57E+03  11%   1.562 MM09                                                
   86.243 126% 8.6E-02 Lip20                                               
 3.46E+03   9%   3.446 MM20                                                
  559.392  24%   0.557 MM12                                                
 1.94E+03  16%   1.936 MM14                                                
 1.11E+03  20%   1.103 MM17                                                
  415.271  74%   0.414 Lip13a+Lip13b                                       
 2.92E+03  10%   2.907 MM14+Lip13a+Lip13b+MM12                             
 1.57E+03  11%   1.562 MM09+Lip09                                          
 3.55E+03   9%   3.532 MM20+Lip20                                          
   6 lines in following misc. output table
  FWHM = 0.046 ppm    S/N =  14                                            
  Data shift = 0.008 ppm                                                   
  Ph:  -2 deg      -1.7 deg/ppm                                            
  alphaB,S = 1.3E+00,   9.6E+01                                            
   14 spline knots.   Ns = 6(1)                                            
  ( 7) 4 infls.   ( 3) 1 extrs.                                            
  498 points on ppm-axis = NY
      4.000000     3.992357     3.984714     3.977070     3.969427     3.961784     3.954141     3.946497     3.938854     3.931211
      3.923568     3.915925     3.908281     3.900638     3.892995     3.885352     3.877708     3.870065     3.862422     3.854779
      3.847136     3.839492     3.831849     3.824206     3.816563     3.808919     3.801276     3.793633     3.785990     3.778347
      3.770703     3.763060     3.755417     3.747774     3.740130     3.732487     3.724844     3.717201     3.709558     3.701914
      3.694271     3.686628     3.678985     3.671341     3.663698     3.656055     3.648412     3.640769     3.633125     3.625482
      3.617839     3.610196     3.602552     3.594909     3.587266     3.579623     3.571980     3.564336     3.556693     3.549050
      3.541407     3.533763     3.526120     3.518477     3.510834     3.503191     3.495547     3.487904     3.480261     3.472618
      3.464974     3.457331     3.449688     3.442045     3.434402     3.426758     3.419115     3.411472     3.403829     3.396185
      3.388542     3.380899     3.373256     3.365613     3.357969     3.350326     3.342683     3.335040     3.327396     3.319753
      3.312110     3.304467     3.296824     3.289180     3.281537     3.273894     3.266251     3.258607     3.250964     3.243321
      3.235678     3.228034     3.220391     3.212748     3.205105     3.197462     3.189818     3.182175     3.174532     3.166889
      3.159245     3.151602     3.143959     3.136316     3.128673     3.121029     3.113386     3.105743     3.098100     3.090456
      3.082813     3.075170     3.067527     3.059884     3.052240     3.044597     3.036954     3.029311     3.021667     3.014024
      3.006381     2.998738     2.991095     2.983451     2.975808     2.968165     2.960522     2.952878     2.945235     2.937592
      2.929949     2.922306     2.914662     2.907019     2.899376     2.891733     2.884089     2.876446     2.868803     2.861160
      2.853517     2.845873     2.838230     2.830587     2.822944     2.815300     2.807657     2.800014     2.792371     2.784728
      2.777084     2.769441     2.761798     2.754155     2.746511     2.738868     2.731225     2.723582     2.715939     2.708295
      2.700652     2.693009     2.685366     2.677722     2.670079     2.662436     2.654793     2.647150     2.639506     2.631863
      2.624220     2.616577     2.608933     2.601290     2.593647     2.586004     2.578361     2.570717     2.563074     2.555431
      2.547788     2.540144     2.532501     2.524858     2.517215     2.509572     2.501928     2.494285     2.486642     2.478999
      2.471355     2.463712     2.456069     2.448426     2.440783     2.433139     2.425496     2.417853     2.410210     2.402566
      2.394923     2.387280     2.379637     2.371994     2.364350     2.356707     2.349064     2.341421     2.333777     2.326134
      2.318491     2.310848     2.303205     2.295561     2.287918     2.280275     2.272632     2.264988     2.257345     2.249702
      2.242059     2.234416     2.226772     2.219129     2.211486     2.203843     2.196199     2.188556     2.180913     2.173270
      2.165627     2.157983     2.150340     2.142697     2.135054     2.127410     2.119767     2.112124     2.104481     2.096838
      2.089194     2.081551     2.073908     2.066265     2.058621     2.050978     2.043335     2.035692     2.028049     2.020405
      2.012762     2.005119     1.997476     1.989833     1.982190     1.974546     1.966903     1.959260     1.951617     1.943974
      1.936331     1.928688     1.921045     1.913402     1.905759     1.898115     1.890472     1.882829     1.875186     1.867543
      1.859900     1.852257     1.844614     1.836971     1.829327     1.821684     1.814041     1.806398     1.798755     1.791112
      1.783469     1.775826     1.768183     1.760540     1.752896     1.745253     1.737610     1.729967     1.722324     1.714681
      1.707038     1.699395     1.691752     1.684108     1.676465     1.668822     1.661179     1.653536     1.645893     1.638250
      1.630607     1.622964     1.615321     1.607677     1.600034     1.592391     1.584748     1.577105     1.569462     1.561819
      1.554176     1.546533     1.538890     1.531246     1.523603     1.515960     1.508317     1.500674     1.493031     1.485388
      1.477745     1.470102     1.462458     1.454815     1.447172     1.439529     1.431886     1.424243     1.416600     1.408957
      1.401314     1.393671     1.386027     1.378384     1.370741     1.363098     1.355455     1.347812     1.340169     1.332526
      1.324883     1.317240     1.309596     1.301953     1.294310     1.286667     1.279024     1.271381     1.263738     1.256095
      1.248452     1.240808     1.233165     1.225522     1.217879     1.210236     1.202593     1.194950     1.187307     1.179664
      1.172021     1.164377     1.156734     1.149091     1.141448     1.133805     1.126162     1.118519     1.110876     1.103233
      1.095590     1.087946     1.080303     1.072660     1.065017     1.057374     1.049731     1.042088     1.034445     1.026802
      1.019158     1.011515     1.003872     0.996229     0.988586     0.980943     0.973300     0.965657     0.958014     0.950371
      0.942727     0.935084     0.927441     0.919798     0.912155     0.904512     0.896869     0.889226     0.881583     0.873940
      0.866296     0.858653     0.851010     0.843367     0.835724     0.828081     0.820438     0.812795     0.805152     0.797508
      0.789865     0.782222     0.774579     0.766936     0.759293     0.751650     0.744007     0.736364     0.728721     0.721077
      0.713434     0.705791     0.698148     0.690505     0.682862     0.675219     0.667576     0.659933     0.652290     0.644646
      0.637003     0.629360     0.621717     0.614074     0.606431     0.598788     0.591145     0.583502     0.575858     0.568215
      0.560572     0.552929     0.545286     0.537643     0.530000     0.522357     0.514714     0.507071     0.499427     0.491784
      0.484141     0.476498     0.468855     0.461212     0.453569     0.445925     0.438282     0.430639     0.422996     0.415353
      0.407710     0.400067     0.392424     0.384780     0.377137     0.369494     0.361851     0.354208     0.346565     0.338922
      0.331278     0.323635     0.315992     0.308349     0.300706     0.293063     0.285420     0.277777     0.270133     0.262490
      0.254847     0.247204     0.239561     0.231918     0.224275     0.216631     0.208988     0.201345
 NY phased data points follow
   7.04022E+00  4.05423E+00  3.67126E+00  6.02729E+00  7.77951E+00  8.12962E+00  8.28057E+00  1.17482E+01  1.20800E+01  1.20189E+01
   1.31245E+01  1.60677E+01  1.61760E+01  1.20232E+01  9.29835E+00  8.07273E+00  9.40028E+00  3.79118E+00  3.84480E+00  8.33650E+00
   6.17753E+00  5.64646E+00  4.91592E+00  8.06396E+00  8.80811E+00  1.08005E+01  8.61997E+00  6.97540E+00  7.74152E+00  6.90971E+00
   7.45629E+00  8.36807E+00  9.23952E+00  9.99401E+00  7.16536E+00  7.32329E+00  9.44102E+00  8.45977E+00  6.88464E+00  8.36857E+00
   9.78424E+00  8.33769E+00  7.30814E+00  1.00437E+01  1.27801E+01  8.53471E+00  1.47544E+01  1.08136E+01  1.48848E+01  1.30521E+01
   6.37846E+00  7.92763E+00  8.04376E+00  7.94050E+00  6.86410E+00  5.58247E+00  8.97233E+00  9.11456E+00  9.31255E+00  8.86906E+00
   4.81481E+00  5.70038E+00  1.56312E+00  2.43515E+00  3.26517E+00 -5.51946E-01  2.70089E+00  2.95209E+00  8.14296E-01  3.53647E+00
   3.74366E+00  2.42807E+00  6.19918E+00  6.00247E+00  1.68800E+00  3.71862E+00  4.21946E+00  5.99645E+00  1.41699E+00  4.71600E+00
   4.29908E+00  4.96373E+00  2.68216E+00  5.63955E+00  4.48224E+00  5.69528E+00  6.20191E+00  3.80419E+00  5.76694E+00  4.42416E+00
   3.23617E+00  7.85574E+00  6.15226E+00  3.49864E+00  5.73369E+00  1.19848E+01  7.48526E+00  8.47580E+00  1.13096E+01  1.38716E+01
   1.66674E+01  2.21834E+01  3.41312E+01  3.59891E+01  3.46871E+01  2.85476E+01  1.87329E+01  1.36803E+01  8.45121E+00  5.60166E+00
   2.35087E+00  2.41154E+00  4.77119E-01  7.24438E+00  7.29799E+00  5.76158E+00  8.68772E+00  5.62199E+00  9.34424E+00  7.62280E+00
   8.79295E+00  1.32379E+01  1.32096E+01  1.65864E+01  1.98393E+01  2.62605E+01  3.66379E+01  4.16089E+01  3.74850E+01  3.65448E+01
   2.92155E+01  1.87575E+01  1.30090E+01  7.98329E+00  5.65001E+00  6.96457E+00  5.88842E+00  7.93664E+00  7.75812E+00  3.74920E+00
   4.32349E+00  5.69525E+00  6.17245E+00  5.30196E+00  2.76983E+00  3.82323E+00  5.09030E+00  4.06809E+00  4.74561E+00  2.13215E+00
   5.59686E+00  3.90269E+00  2.40286E+00  5.17268E+00  4.62875E+00  5.14950E+00  5.86362E-01  2.24909E+00  1.83626E+00  3.84217E+00
  -1.24361E-01 -2.15448E+00  6.63704E-01  1.30859E+00 -2.02219E-01 -4.60799E+00  2.92036E+00 -9.45319E-02 -4.27497E+00 -5.55964E+00
  -5.59971E+00 -9.61122E+00 -9.42703E+00 -1.03248E+01 -7.33618E+00 -1.06227E+01 -1.36048E+01 -1.25950E+01 -1.04780E+01 -1.13900E+01
  -7.68986E+00 -7.11213E+00 -9.26274E+00 -5.13950E+00 -8.39341E+00 -7.24280E+00 -6.10482E+00 -7.78995E+00 -7.89464E+00 -5.71787E+00
  -1.85469E+00 -2.03464E+00 -2.93712E-01 -3.80173E-01 -1.80446E+00  2.55148E-01 -2.17042E+00 -3.67578E+00 -4.44869E+00 -7.40330E+00
  -6.26181E+00 -4.13968E+00 -2.44666E+00  1.27499E+00  2.08143E+00  2.76355E+00  8.60589E-01  6.04792E-01  1.76889E+00 -2.09820E+00
  -2.53659E+00 -7.68100E-01  4.99389E+00  4.85580E+00  7.99466E+00  1.10705E+01  1.51962E+01  1.44133E+01  1.04498E+01  7.56269E+00
   4.01300E+00  2.19250E+00 -4.31763E+00 -3.25091E+00  1.06723E+00  4.56341E+00  4.41816E+00  7.58014E+00  1.09330E+01  8.34193E+00
   5.16300E+00  4.36699E+00  8.02746E+00  7.85109E+00  5.75335E+00  6.42049E+00  7.30285E+00  8.30393E+00  6.35838E+00  6.98206E+00
   6.46139E+00  4.49546E+00  4.03442E+00  5.32411E+00  8.02091E+00  7.09422E+00  1.15971E+01  1.19714E+01  1.42221E+01  1.62273E+01
   1.49691E+01  1.76285E+01  2.16260E+01  2.83067E+01  2.92501E+01  3.63438E+01  4.48269E+01  5.45615E+01  6.12395E+01  7.24499E+01
   8.37179E+01  8.55733E+01  7.44674E+01  5.81954E+01  4.31074E+01  2.59338E+01  1.36107E+01  1.02500E+01  7.42400E+00  7.77381E+00
   6.89044E+00  7.42501E+00  6.94020E+00  7.90189E+00  3.89927E+00  4.69841E+00  3.99861E+00  5.27343E+00  2.90899E+00  3.29058E+00
   2.51349E+00  5.28625E+00  2.14637E+00 -1.12954E+00  3.94187E+00  3.80595E+00  1.68818E-01  1.58465E+00  3.47978E+00  2.61020E+00
   4.13068E+00  2.09342E+00  3.10914E+00  4.62524E+00  3.86364E+00  3.11231E+00  5.12549E+00  6.00004E+00  7.44263E+00  6.81372E+00
   6.02196E+00  4.57547E+00  8.71347E+00  3.71777E+00  6.60379E+00  8.20450E+00  7.25479E+00  5.29128E+00  8.34982E+00  5.23111E+00
   9.32155E+00  6.37321E+00  6.40606E+00  5.46629E+00  5.39707E+00  8.39627E+00  3.27450E+00  5.65712E+00  6.82023E+00  5.36256E+00
   4.87359E+00  5.33175E+00  1.11812E+01  7.37513E+00  5.01056E+00  8.39567E+00  7.02740E+00  5.64433E+00  5.48927E+00  5.64016E+00
   1.18639E+01  6.67734E+00  8.15349E+00  9.71960E+00  8.60045E+00  7.59598E+00  1.08055E+01  1.32640E+01  1.52313E+01  1.32059E+01
   1.31672E+01  1.30906E+01  1.32662E+01  9.72910E+00  8.97634E+00  1.04691E+01  6.87301E+00  4.89462E+00  7.19380E-01  5.61332E+00
   4.70479E+00  5.26292E+00  4.34514E+00  7.52927E+00  7.40804E+00  7.70472E+00  7.67642E+00  7.78169E+00  5.14625E+00  6.76744E+00
   2.90706E+00  8.73839E-01 -1.76212E+00  2.67317E+00  1.52628E+00  2.92166E+00  5.19520E+00  5.38624E+00  8.17690E+00  7.43472E+00
   9.12157E+00  6.32900E+00  7.00173E+00  4.73296E+00  5.89426E+00  5.50943E+00  4.26579E+00  3.92733E+00  3.51561E+00  1.48178E+00
   2.26601E+00  1.06467E+00  2.78219E+00  9.76904E-01  3.89375E+00  2.13930E+00  1.53659E+00  3.48684E+00  4.55319E+00  3.31930E+00
   2.93639E+00  4.08368E+00  6.38211E+00  7.20329E+00  7.33969E+00  6.19696E+00  8.03318E+00  1.12078E+01  8.62276E+00  1.00703E+01
   1.12723E+01  9.44382E+00  6.90281E+00  9.02784E+00  6.87421E+00  6.37281E+00  7.43750E+00  8.28063E+00  6.74630E+00  7.44153E+00
   6.56511E+00  5.75526E+00  4.30507E+00  3.67674E+00  5.23773E+00  2.96089E+00  3.59901E+00  2.44970E+00 -1.10117E-03  2.95477E+00
   2.22751E+00  1.67530E+00 -2.98085E-01  1.62484E-01  9.10984E-01 -8.22930E-01 -1.24164E-01  2.62299E+00  1.52058E+00  1.26984E+00
  -2.35561E+00 -1.02639E+00 -2.51793E+00 -7.39703E-01 -1.56257E+00  1.51660E-01 -6.24572E-01 -3.00825E+00  4.86896E-01  6.92515E-01
  -1.53334E+00  1.30453E-01  2.08052E+00 -2.20690E+00 -9.07910E-01  6.52983E-01 -5.65282E-02  2.49467E+00 -5.39846E-01 -5.22502E-01
  -2.42315E+00 -2.12629E+00 -2.04026E+00  1.32341E+00 -6.75167E-01 -5.76737E+00  7.12174E-01 -2.27598E+00 -1.64643E+00 -1.71113E+00
  -2.19713E+00 -1.39480E-01  3.01452E-01  1.96343E-01 -2.15238E+00  8.62750E-02 -2.49292E+00 -2.83499E+00 -3.12924E-01  2.29823E+00
  -1.58601E+00  4.66883E-01 -1.61817E-01 -5.87464E-01 -4.62707E-01 -5.53912E-01 -6.73751E-01  1.28866E+00 -2.90792E-01 -1.70657E+00
   1.86137E+00  1.05630E+00 -1.65715E+00 -1.37296E+00 -1.46510E+00 -2.54158E+00  3.40323E-01 -2.45460E+00 -1.87007E+00  3.81803E+00
  -9.23067E-01 -2.53257E+00 -1.41565E+00  5.46369E-01 -2.18884E+00 -1.09225E+00 -1.91124E+00  2.21567E-02
 NY points of the fit to the data follow
   6.05742E+00  5.87211E+00  5.87085E+00  6.24305E+00  7.09642E+00  8.15077E+00  9.35440E+00  1.07066E+01  1.22678E+01  1.38297E+01
   1.48957E+01  1.50302E+01  1.41538E+01  1.25722E+01  1.07907E+01  9.24469E+00  8.17521E+00  7.53984E+00  7.18148E+00  7.02245E+00
   6.96448E+00  6.97459E+00  6.92720E+00  6.81320E+00  6.84269E+00  6.86430E+00  6.82414E+00  6.89889E+00  7.37954E+00  8.40065E+00
   9.68178E+00  1.08907E+01  1.17477E+01  1.19769E+01  1.14509E+01  1.02429E+01  8.66545E+00  7.10488E+00  5.77956E+00  4.94725E+00
   4.91540E+00  5.71567E+00  6.94866E+00  8.19013E+00  9.38395E+00  1.06031E+01  1.17096E+01  1.22948E+01  1.20065E+01  1.08458E+01
   9.13408E+00  7.29850E+00  5.78869E+00  4.93965E+00  4.72799E+00  4.92105E+00  5.27508E+00  5.67631E+00  6.08888E+00  6.41257E+00
   6.50383E+00  6.27215E+00  5.71604E+00  4.97526E+00  4.24920E+00  3.78842E+00  3.70750E+00  3.91730E+00  4.27881E+00  4.67288E+00
   5.02861E+00  5.27912E+00  5.36674E+00  5.29025E+00  5.10288E+00  4.86538E+00  4.62474E+00  4.41313E+00  4.24794E+00  4.13062E+00
   4.13873E+00  4.34775E+00  4.54411E+00  4.73656E+00  5.05044E+00  5.48919E+00  5.83014E+00  5.76748E+00  5.21294E+00  4.36498E+00
   3.54827E+00  2.95660E+00  2.67478E+00  2.67619E+00  2.83018E+00  3.09707E+00  4.22939E+00  7.06708E+00  1.04111E+01  1.41577E+01
   1.91521E+01  2.55955E+01  3.18871E+01  3.52349E+01  3.39401E+01  2.85759E+01  2.11490E+01  1.38333E+01  8.25008E+00  5.05376E+00
   3.74614E+00  3.31104E+00  3.16463E+00  3.11844E+00  3.11004E+00  3.12205E+00  3.15598E+00  3.22337E+00  3.35796E+00  3.67608E+00
   4.78949E+00  7.91080E+00  1.20312E+01  1.64116E+01  2.17215E+01  2.84617E+01  3.54946E+01  4.00732E+01  3.99481E+01  3.51039E+01
   2.74352E+01  1.93360E+01  1.26917E+01  8.42341E+00  6.21688E+00  5.03237E+00  4.22330E+00  3.65768E+00  3.38031E+00  3.39687E+00
   3.61215E+00  3.85285E+00  3.95930E+00  3.86804E+00  3.60462E+00  3.24732E+00  2.88253E+00  2.56243E+00  2.28687E+00  2.03905E+00
   1.81433E+00  1.60372E+00  1.40594E+00  1.23317E+00  1.07486E+00  8.67148E-01  6.64128E-01  5.07852E-01  3.34411E-01  8.47072E-02
  -3.37314E-01 -8.08475E-01 -1.04486E+00 -9.38216E-01 -6.58944E-01 -4.97218E-01 -6.66680E-01 -1.18362E+00 -1.88785E+00 -2.58039E+00
  -3.15093E+00 -3.52745E+00 -3.68165E+00 -3.82170E+00 -4.09952E+00 -4.50396E+00 -4.76843E+00 -4.64889E+00 -4.23248E+00 -3.84388E+00
  -3.71080E+00 -3.83702E+00 -3.94450E+00 -3.81113E+00 -3.47442E+00 -3.02327E+00 -2.46285E+00 -1.72452E+00 -7.65059E-01  3.50136E-01
   1.39319E+00  2.12567E+00  2.29088E+00  1.94074E+00  1.34909E+00  8.04940E-01  4.51624E-01  3.47836E-01  6.07095E-01  1.19619E+00
   2.00220E+00  2.89090E+00  3.68139E+00  4.18546E+00  4.09264E+00  3.36378E+00  2.03293E+00  1.46253E-01 -1.86939E+00 -3.39944E+00
  -3.87483E+00 -3.15286E+00 -1.65555E+00  4.32512E-01  2.93729E+00  5.36613E+00  6.86443E+00  6.73684E+00  5.10980E+00  2.61376E+00
  -2.05139E-01 -2.74717E+00 -4.29575E+00 -4.28803E+00 -2.69135E+00 -1.08804E-01  2.66546E+00  5.02751E+00  6.58760E+00  7.18525E+00
   7.00735E+00  6.58048E+00  6.30533E+00  6.31697E+00  6.64123E+00  7.23519E+00  7.96745E+00  8.62435E+00  9.07537E+00  9.27274E+00
   9.19586E+00  8.86572E+00  8.52302E+00  8.53760E+00  9.11891E+00  1.01576E+01  1.13765E+01  1.25522E+01  1.35467E+01  1.44854E+01
   1.57895E+01  1.72840E+01  1.90551E+01  2.18852E+01  2.82535E+01  3.78827E+01  4.67787E+01  5.47486E+01  6.37354E+01  7.40869E+01
   8.21974E+01  8.30491E+01  7.48569E+01  6.00473E+01  4.28949E+01  2.74755E+01  1.65520E+01  1.06934E+01  8.20062E+00  7.00906E+00
   6.23184E+00  5.65343E+00  5.22255E+00  4.91290E+00  4.67603E+00  4.43020E+00  4.12865E+00  3.78179E+00  3.41975E+00  3.07235E+00
   2.77634E+00  2.56153E+00  2.43208E+00  2.36616E+00  2.33749E+00  2.33379E+00  2.35618E+00  2.40406E+00  2.48376E+00  2.61118E+00
   2.80159E+00  3.05821E+00  3.36848E+00  3.70994E+00  4.06571E+00  4.42168E+00  4.76664E+00  5.09511E+00  5.40790E+00  5.70704E+00
   5.98994E+00  6.24828E+00  6.47087E+00  6.64642E+00  6.76570E+00  6.82357E+00  6.82092E+00  6.76383E+00  6.66082E+00  6.52203E+00
   6.35894E+00  6.18345E+00  6.00766E+00  5.84382E+00  5.70441E+00  5.60160E+00  5.54692E+00  5.55119E+00  5.62552E+00  5.78411E+00
   6.05409E+00  6.48206E+00  6.97364E+00  7.40432E+00  7.82352E+00  8.23618E+00  8.51327E+00  8.45317E+00  7.97422E+00  7.32289E+00
   6.87840E+00  6.75060E+00  6.98124E+00  7.61915E+00  8.64967E+00  9.88706E+00  1.10195E+01  1.17882E+01  1.20967E+01  1.20135E+01
   1.17251E+01  1.13712E+01  1.09570E+01  1.05632E+01  1.01945E+01  9.74220E+00  9.02165E+00  7.92591E+00  6.65731E+00  5.53829E+00
   4.70491E+00  4.25290E+00  4.26305E+00  4.72434E+00  5.43882E+00  6.09648E+00  6.47176E+00  6.49740E+00  6.23223E+00  5.80191E+00
   5.35026E+00  4.98359E+00  4.71943E+00  4.51699E+00  4.34433E+00  4.18684E+00  4.03769E+00  3.89343E+00  3.75262E+00  3.61524E+00
   3.48245E+00  3.35621E+00  3.23897E+00  3.13349E+00  3.04280E+00  2.97013E+00  2.91889E+00  2.89239E+00  2.89375E+00  2.92574E+00
   2.99089E+00  3.09142E+00  3.22916E+00  3.40532E+00  3.62037E+00  3.87395E+00  4.16494E+00  4.49126E+00  4.84983E+00  5.23628E+00
   5.64502E+00  6.06925E+00  6.50117E+00  6.93200E+00  7.35218E+00  7.75153E+00  8.11963E+00  8.44630E+00  8.72204E+00  8.93836E+00
   9.08809E+00  9.16574E+00  9.16779E+00  9.09296E+00  8.94225E+00  8.71882E+00  8.42778E+00  8.07595E+00  7.67159E+00  7.22408E+00
   6.74340E+00  6.23970E+00  5.72282E+00  5.20204E+00  4.68582E+00  4.18162E+00  3.69568E+00  3.23295E+00  2.79702E+00  2.39035E+00
   2.01433E+00  1.66949E+00  1.35550E+00  1.07137E+00  8.15563E-01  5.86311E-01  3.81658E-01  1.99581E-01  3.79738E-02 -1.05247E-01
  -2.32081E-01 -3.44313E-01 -4.43562E-01 -5.31284E-01 -6.08867E-01 -6.77555E-01 -7.38445E-01 -7.92415E-01 -8.40238E-01 -8.82598E-01
  -9.20169E-01 -9.53519E-01 -9.83126E-01 -1.00933E+00 -1.03248E+00 -1.05286E+00 -1.07084E+00 -1.08666E+00 -1.10052E+00 -1.11254E+00
  -1.12288E+00 -1.13172E+00 -1.13923E+00 -1.14553E+00 -1.15069E+00 -1.15474E+00 -1.15780E+00 -1.15996E+00 -1.16135E+00 -1.16200E+00
  -1.16192E+00 -1.16113E+00 -1.15972E+00 -1.15776E+00 -1.15531E+00 -1.15235E+00 -1.14890E+00 -1.14496E+00 -1.14062E+00 -1.13593E+00
  -1.13091E+00 -1.12551E+00 -1.11976E+00 -1.11366E+00 -1.10730E+00 -1.10068E+00 -1.09381E+00 -1.08665E+00 -1.07921E+00 -1.07153E+00
  -1.06367E+00 -1.05561E+00 -1.04734E+00 -1.03881E+00 -1.03007E+00 -1.02114E+00 -1.01206E+00 -1.00279E+00 -9.93324E-01 -9.83611E-01
  -9.73709E-01 -9.63630E-01 -9.53399E-01 -9.42947E-01 -9.32257E-01 -9.21296E-01 -9.10120E-01 -8.98712E-01
 NY background values follow
     4.683E+00    4.654E+00    4.625E+00    4.596E+00    4.567E+00    4.538E+00    4.509E+00    4.480E+00    4.451E+00    4.422E+00
     4.392E+00    4.363E+00    4.334E+00    4.305E+00    4.276E+00    4.247E+00    4.218E+00    4.189E+00    4.160E+00    4.131E+00
     4.102E+00    4.072E+00    4.043E+00    4.014E+00    3.985E+00    3.956E+00    3.926E+00    3.897E+00    3.868E+00    3.839E+00
     3.809E+00    3.780E+00    3.751E+00    3.721E+00    3.692E+00    3.663E+00    3.633E+00    3.604E+00    3.574E+00    3.545E+00
     3.515E+00    3.486E+00    3.456E+00    3.427E+00    3.397E+00    3.367E+00    3.338E+00    3.308E+00    3.278E+00    3.248E+00
     3.219E+00    3.189E+00    3.159E+00    3.129E+00    3.099E+00    3.069E+00    3.039E+00    3.009E+00    2.979E+00    2.949E+00
     2.919E+00    2.889E+00    2.858E+00    2.828E+00    2.798E+00    2.768E+00    2.737E+00    2.707E+00    2.677E+00    2.646E+00
     2.616E+00    2.585E+00    2.555E+00    2.524E+00    2.493E+00    2.463E+00    2.432E+00    2.401E+00    2.371E+00    2.340E+00
     2.309E+00    2.278E+00    2.247E+00    2.216E+00    2.185E+00    2.154E+00    2.123E+00    2.092E+00    2.061E+00    2.030E+00
     1.999E+00    1.967E+00    1.936E+00    1.905E+00    1.873E+00    1.842E+00    1.811E+00    1.779E+00    1.748E+00    1.716E+00
     1.684E+00    1.653E+00    1.621E+00    1.590E+00    1.558E+00    1.526E+00    1.495E+00    1.463E+00    1.431E+00    1.399E+00
     1.368E+00    1.336E+00    1.304E+00    1.272E+00    1.240E+00    1.208E+00    1.177E+00    1.145E+00    1.113E+00    1.081E+00
     1.049E+00    1.017E+00    9.854E-01    9.536E-01    9.217E-01    8.899E-01    8.580E-01    8.262E-01    7.943E-01    7.625E-01
     7.307E-01    6.989E-01    6.671E-01    6.353E-01    6.036E-01    5.718E-01    5.401E-01    5.084E-01    4.768E-01    4.451E-01
     4.135E-01    3.820E-01    3.505E-01    3.191E-01    2.877E-01    2.565E-01    2.253E-01    1.942E-01    1.631E-01    1.322E-01
     1.014E-01    7.075E-02    4.019E-02    9.752E-03   -2.055E-02   -5.070E-02   -8.071E-02   -1.106E-01   -1.403E-01   -1.698E-01
    -1.991E-01   -2.283E-01   -2.573E-01   -2.860E-01   -3.146E-01   -3.430E-01   -3.711E-01   -3.991E-01   -4.268E-01   -4.543E-01
    -4.815E-01   -5.085E-01   -5.352E-01   -5.617E-01   -5.879E-01   -6.138E-01   -6.394E-01   -6.648E-01   -6.898E-01   -7.146E-01
    -7.390E-01   -7.632E-01   -7.870E-01   -8.105E-01   -8.337E-01   -8.566E-01   -8.791E-01   -9.014E-01   -9.234E-01   -9.450E-01
    -9.664E-01   -9.875E-01   -1.008E+00   -1.029E+00   -1.049E+00   -1.069E+00   -1.089E+00   -1.108E+00   -1.127E+00   -1.146E+00
    -1.165E+00   -1.183E+00   -1.201E+00   -1.219E+00   -1.236E+00   -1.254E+00   -1.271E+00   -1.288E+00   -1.304E+00   -1.320E+00
    -1.337E+00   -1.352E+00   -1.368E+00   -1.383E+00   -1.399E+00   -1.414E+00   -1.428E+00   -1.443E+00   -1.457E+00   -1.471E+00
    -1.485E+00   -1.499E+00   -1.512E+00   -1.526E+00   -1.539E+00   -1.552E+00   -1.565E+00   -1.577E+00   -1.589E+00   -1.602E+00
    -1.614E+00   -1.625E+00   -1.637E+00   -1.649E+00   -1.660E+00   -1.671E+00   -1.682E+00   -1.693E+00   -1.703E+00   -1.713E+00
    -1.724E+00   -1.734E+00   -1.744E+00   -1.753E+00   -1.763E+00   -1.772E+00   -1.781E+00   -1.790E+00   -1.799E+00   -1.808E+00
    -1.816E+00   -1.825E+00   -1.833E+00   -1.841E+00   -1.849E+00   -1.856E+00   -1.864E+00   -1.871E+00   -1.878E+00   -1.885E+00
    -1.892E+00   -1.899E+00   -1.906E+00   -1.912E+00   -1.918E+00   -1.924E+00   -1.930E+00   -1.936E+00   -1.942E+00   -1.947E+00
    -1.953E+00   -1.958E+00   -1.963E+00   -1.968E+00   -1.972E+00   -1.977E+00   -1.981E+00   -1.986E+00   -1.990E+00   -1.994E+00
    -1.998E+00   -2.001E+00   -2.005E+00   -2.008E+00   -2.012E+00   -2.015E+00   -2.018E+00   -2.021E+00   -2.024E+00   -2.026E+00
    -2.029E+00   -2.031E+00   -2.033E+00   -2.035E+00   -2.037E+00   -2.039E+00   -2.041E+00   -2.043E+00   -2.044E+00   -2.045E+00
    -2.047E+00   -2.048E+00   -2.049E+00   -2.050E+00   -2.050E+00   -2.051E+00   -2.051E+00   -2.052E+00   -2.052E+00   -2.052E+00
    -2.052E+00   -2.052E+00   -2.052E+00   -2.052E+00   -2.052E+00   -2.051E+00   -2.050E+00   -2.050E+00   -2.049E+00   -2.048E+00
    -2.047E+00   -2.046E+00   -2.045E+00   -2.043E+00   -2.042E+00   -2.040E+00   -2.039E+00   -2.037E+00   -2.035E+00   -2.033E+00
    -2.031E+00   -2.029E+00   -2.027E+00   -2.025E+00   -2.022E+00   -2.020E+00   -2.017E+00   -2.014E+00   -2.012E+00   -2.009E+00
    -2.006E+00   -2.003E+00   -1.999E+00   -1.996E+00   -1.993E+00   -1.989E+00   -1.986E+00   -1.982E+00   -1.979E+00   -1.975E+00
    -1.971E+00   -1.967E+00   -1.963E+00   -1.959E+00   -1.954E+00   -1.950E+00   -1.946E+00   -1.941E+00   -1.936E+00   -1.932E+00
    -1.927E+00   -1.922E+00   -1.917E+00   -1.912E+00   -1.907E+00   -1.902E+00   -1.897E+00   -1.891E+00   -1.886E+00   -1.880E+00
    -1.875E+00   -1.869E+00   -1.863E+00   -1.858E+00   -1.852E+00   -1.846E+00   -1.840E+00   -1.833E+00   -1.827E+00   -1.821E+00
    -1.814E+00   -1.808E+00   -1.801E+00   -1.795E+00   -1.788E+00   -1.781E+00   -1.774E+00   -1.767E+00   -1.760E+00   -1.753E+00
    -1.746E+00   -1.738E+00   -1.731E+00   -1.723E+00   -1.716E+00   -1.708E+00   -1.700E+00   -1.693E+00   -1.685E+00   -1.677E+00
    -1.669E+00   -1.660E+00   -1.652E+00   -1.644E+00   -1.635E+00   -1.627E+00   -1.618E+00   -1.610E+00   -1.601E+00   -1.592E+00
    -1.583E+00   -1.574E+00   -1.565E+00   -1.556E+00   -1.547E+00   -1.538E+00   -1.528E+00   -1.519E+00   -1.509E+00   -1.500E+00
    -1.490E+00   -1.480E+00   -1.471E+00   -1.461E+00   -1.451E+00   -1.441E+00   -1.431E+00   -1.421E+00   -1.411E+00   -1.401E+00
    -1.390E+00   -1.380E+00   -1.370E+00   -1.360E+00   -1.349E+00   -1.339E+00   -1.328E+00   -1.318E+00   -1.307E+00   -1.296E+00
    -1.286E+00   -1.275E+00   -1.264E+00   -1.254E+00   -1.243E+00   -1.232E+00   -1.221E+00   -1.210E+00   -1.199E+00   -1.188E+00
    -1.177E+00   -1.166E+00   -1.155E+00   -1.144E+00   -1.133E+00   -1.122E+00   -1.111E+00   -1.100E+00   -1.089E+00   -1.078E+00
    -1.067E+00   -1.055E+00   -1.044E+00   -1.033E+00   -1.022E+00   -1.011E+00   -9.994E-01   -9.882E-01   -9.769E-01   -9.657E-01
    -9.544E-01   -9.431E-01   -9.318E-01   -9.205E-01   -9.092E-01   -8.979E-01   -8.866E-01   -8.752E-01   -8.639E-01   -8.526E-01
    -8.412E-01   -8.299E-01   -8.186E-01   -8.072E-01   -7.959E-01   -7.845E-01   -7.732E-01   -7.618E-01   -7.505E-01   -7.392E-01
    -7.278E-01   -7.165E-01   -7.052E-01   -6.939E-01   -6.825E-01   -6.712E-01   -6.599E-01   -6.486E-01
 Ala      Conc. = 1.73E+02
