 LCModel (Version 6.3-1L) Copyright: S.W. Provencher.          Ref.: Magn. Reson. Med. 30:672-679 (1993).                
 Slice#2 Row#10 Col#8  PD_05_press_1_raw_act
 36 lines in following concentration table = NCONC+1
    Conc.  %SD /Cr+PCr  Metabolite                                         
   97.239 106% 8.5E-02 Ala                                                 
   87.888 206% 7.7E-02 Asp                                                 
  656.809  27%   0.573 Cr                                                  
  489.020  37%   0.427 PCr                                                 
    0.000 999%   0.000 GABA                                                
    0.000 999%   0.000 Glc                                                 
 1.03E+03  20%   0.903 Gln                                                 
 1.46E+03  15%   1.277 Glu                                                 
  354.777   5%   0.310 GPC                                                 
    0.000 999%   0.000 PCh                                                 
  445.253  14%   0.389 GSH                                                 
 1.19E+03  18%   1.036 Ins                                                 
  196.100  58%   0.171 Lac                                                 
 1.84E+03   5%   1.603 NAA                                                 
   67.612 160% 5.9E-02 NAAG                                                
   45.728  47% 4.0E-02 Scyllo                                              
    0.000 999%   0.000 Tau                                                 
    0.000 999%   0.000 -CrCH2                                              
  354.777   5%   0.310 GPC+PCh                                             
 1.90E+03   4%   1.662 NAA+NAAG                                            
 1.15E+03   4%   1.000 Cr+PCr                                              
 2.50E+03  13%   2.180 Glu+Gln                                             
  182.600 260%   0.159 Lip13a                                              
  215.640 141%   0.188 Lip13b                                              
    0.000 999%   0.000 Lip09                                               
 1.38E+03  12%   1.202 MM09                                                
   50.591 165% 4.4E-02 Lip20                                               
 3.01E+03  11%   2.625 MM20                                                
  492.584  30%   0.430 MM12                                                
 3.40E+03  11%   2.969 MM14                                                
 1.28E+03  20%   1.121 MM17                                                
  398.240  75%   0.348 Lip13a+Lip13b                                       
 4.29E+03   8%   3.746 MM14+Lip13a+Lip13b+MM12                             
 1.38E+03  12%   1.202 MM09+Lip09                                          
 3.06E+03  10%   2.669 MM20+Lip20                                          
   6 lines in following misc. output table
  FWHM = 0.046 ppm    S/N =  12                                            
  Data shift = 0.023 ppm                                                   
  Ph:   1 deg       4.0 deg/ppm                                            
  alphaB,S = 2.0E+00,   1.0E+02                                            
   14 spline knots.   Ns = 7(1)                                            
  ( 7) 3 infls.   ( 5) 1 extrs.                                            
  498 points on ppm-axis = NY
      4.000000     3.992357     3.984714     3.977070     3.969427     3.961784     3.954141     3.946497     3.938854     3.931211
      3.923568     3.915925     3.908281     3.900638     3.892995     3.885352     3.877708     3.870065     3.862422     3.854779
      3.847136     3.839492     3.831849     3.824206     3.816563     3.808919     3.801276     3.793633     3.785990     3.778347
      3.770703     3.763060     3.755417     3.747774     3.740130     3.732487     3.724844     3.717201     3.709558     3.701914
      3.694271     3.686628     3.678985     3.671341     3.663698     3.656055     3.648412     3.640769     3.633125     3.625482
      3.617839     3.610196     3.602552     3.594909     3.587266     3.579623     3.571980     3.564336     3.556693     3.549050
      3.541407     3.533763     3.526120     3.518477     3.510834     3.503191     3.495547     3.487904     3.480261     3.472618
      3.464974     3.457331     3.449688     3.442045     3.434402     3.426758     3.419115     3.411472     3.403829     3.396185
      3.388542     3.380899     3.373256     3.365613     3.357969     3.350326     3.342683     3.335040     3.327396     3.319753
      3.312110     3.304467     3.296824     3.289180     3.281537     3.273894     3.266251     3.258607     3.250964     3.243321
      3.235678     3.228034     3.220391     3.212748     3.205105     3.197462     3.189818     3.182175     3.174532     3.166889
      3.159245     3.151602     3.143959     3.136316     3.128673     3.121029     3.113386     3.105743     3.098100     3.090456
      3.082813     3.075170     3.067527     3.059884     3.052240     3.044597     3.036954     3.029311     3.021667     3.014024
      3.006381     2.998738     2.991095     2.983451     2.975808     2.968165     2.960522     2.952878     2.945235     2.937592
      2.929949     2.922306     2.914662     2.907019     2.899376     2.891733     2.884089     2.876446     2.868803     2.861160
      2.853517     2.845873     2.838230     2.830587     2.822944     2.815300     2.807657     2.800014     2.792371     2.784728
      2.777084     2.769441     2.761798     2.754155     2.746511     2.738868     2.731225     2.723582     2.715939     2.708295
      2.700652     2.693009     2.685366     2.677722     2.670079     2.662436     2.654793     2.647150     2.639506     2.631863
      2.624220     2.616577     2.608933     2.601290     2.593647     2.586004     2.578361     2.570717     2.563074     2.555431
      2.547788     2.540144     2.532501     2.524858     2.517215     2.509572     2.501928     2.494285     2.486642     2.478999
      2.471355     2.463712     2.456069     2.448426     2.440783     2.433139     2.425496     2.417853     2.410210     2.402566
      2.394923     2.387280     2.379637     2.371994     2.364350     2.356707     2.349064     2.341421     2.333777     2.326134
      2.318491     2.310848     2.303205     2.295561     2.287918     2.280275     2.272632     2.264988     2.257345     2.249702
      2.242059     2.234416     2.226772     2.219129     2.211486     2.203843     2.196199     2.188556     2.180913     2.173270
      2.165627     2.157983     2.150340     2.142697     2.135054     2.127410     2.119767     2.112124     2.104481     2.096838
      2.089194     2.081551     2.073908     2.066265     2.058621     2.050978     2.043335     2.035692     2.028049     2.020405
      2.012762     2.005119     1.997476     1.989833     1.982190     1.974546     1.966903     1.959260     1.951617     1.943974
      1.936331     1.928688     1.921045     1.913402     1.905759     1.898115     1.890472     1.882829     1.875186     1.867543
      1.859900     1.852257     1.844614     1.836971     1.829327     1.821684     1.814041     1.806398     1.798755     1.791112
      1.783469     1.775826     1.768183     1.760540     1.752896     1.745253     1.737610     1.729967     1.722324     1.714681
      1.707038     1.699395     1.691752     1.684108     1.676465     1.668822     1.661179     1.653536     1.645893     1.638250
      1.630607     1.622964     1.615321     1.607677     1.600034     1.592391     1.584748     1.577105     1.569462     1.561819
      1.554176     1.546533     1.538890     1.531246     1.523603     1.515960     1.508317     1.500674     1.493031     1.485388
      1.477745     1.470102     1.462458     1.454815     1.447172     1.439529     1.431886     1.424243     1.416600     1.408957
      1.401314     1.393671     1.386027     1.378384     1.370741     1.363098     1.355455     1.347812     1.340169     1.332526
      1.324883     1.317240     1.309596     1.301953     1.294310     1.286667     1.279024     1.271381     1.263738     1.256095
      1.248452     1.240808     1.233165     1.225522     1.217879     1.210236     1.202593     1.194950     1.187307     1.179664
      1.172021     1.164377     1.156734     1.149091     1.141448     1.133805     1.126162     1.118519     1.110876     1.103233
      1.095590     1.087946     1.080303     1.072660     1.065017     1.057374     1.049731     1.042088     1.034445     1.026802
      1.019158     1.011515     1.003872     0.996229     0.988586     0.980943     0.973300     0.965657     0.958014     0.950371
      0.942727     0.935084     0.927441     0.919798     0.912155     0.904512     0.896869     0.889226     0.881583     0.873940
      0.866296     0.858653     0.851010     0.843367     0.835724     0.828081     0.820438     0.812795     0.805152     0.797508
      0.789865     0.782222     0.774579     0.766936     0.759293     0.751650     0.744007     0.736364     0.728721     0.721077
      0.713434     0.705791     0.698148     0.690505     0.682862     0.675219     0.667576     0.659933     0.652290     0.644646
      0.637003     0.629360     0.621717     0.614074     0.606431     0.598788     0.591145     0.583502     0.575858     0.568215
      0.560572     0.552929     0.545286     0.537643     0.530000     0.522357     0.514714     0.507071     0.499427     0.491784
      0.484141     0.476498     0.468855     0.461212     0.453569     0.445925     0.438282     0.430639     0.422996     0.415353
      0.407710     0.400067     0.392424     0.384780     0.377137     0.369494     0.361851     0.354208     0.346565     0.338922
      0.331278     0.323635     0.315992     0.308349     0.300706     0.293063     0.285420     0.277777     0.270133     0.262490
      0.254847     0.247204     0.239561     0.231918     0.224275     0.216631     0.208988     0.201345
 NY phased data points follow
   1.80055E+01  1.54848E+01  1.42876E+01  1.37095E+01  1.56493E+01  1.94060E+01  2.36925E+01  2.82057E+01  3.37579E+01  3.85904E+01
   4.40104E+01  3.91553E+01  3.84623E+01  3.51854E+01  2.93427E+01  3.00238E+01  2.09685E+01  2.57451E+01  2.34186E+01  1.68522E+01
   1.66283E+01  1.64037E+01  2.03079E+01  1.38263E+01  1.72149E+01  2.08885E+01  2.14662E+01  2.40392E+01  2.00053E+01  2.08570E+01
   2.01269E+01  2.04894E+01  2.17923E+01  1.88482E+01  1.40754E+01  1.88677E+01  1.38274E+01  1.99308E+01  1.66846E+01  1.96441E+01
   1.36745E+01  1.51880E+01  1.24622E+01  1.44198E+01  1.32678E+01  1.48182E+01  1.95409E+01  2.42288E+01  2.15367E+01  1.80034E+01
   1.60301E+01  1.59847E+01  1.09609E+01  1.70754E+01  1.65390E+01  1.67220E+01  1.38173E+01  2.16649E+01  1.49176E+01  1.57594E+01
   1.60685E+01  1.51881E+01  8.16799E+00  9.60538E+00  4.82375E+00  8.81337E+00  6.60268E+00  9.13394E+00  3.06394E+00  5.46003E+00
   1.11914E+01  9.99949E+00  9.41694E+00  1.25312E+01  6.88751E+00  8.52310E+00  6.36816E+00  4.67962E+00  8.90519E+00  8.76590E+00
   5.87646E+00  8.67896E+00  6.36265E+00  6.13948E+00  1.04366E+01  6.70997E+00  6.58363E+00  7.16340E+00  7.29792E+00  1.01337E+01
   1.07768E+01  8.15980E+00  1.05599E+01  1.18144E+01  6.90975E+00  7.36983E+00  4.38710E+00  8.90229E+00  1.07530E+01  1.15962E+01
   2.39968E+01  3.29339E+01  3.52114E+01  3.91330E+01  3.57968E+01  3.21426E+01  2.82526E+01  2.58110E+01  1.82523E+01  1.40720E+01
   1.30092E+01  1.41366E+01  1.20902E+01  9.98778E+00  1.12990E+01  7.58265E+00  1.00887E+01  7.94816E+00  2.15506E+00  6.37646E+00
   8.34056E+00  1.81291E+00  1.22220E+01  1.54324E+01  2.37322E+01  3.07083E+01  4.45983E+01  4.79862E+01  4.11237E+01  3.69972E+01
   3.07207E+01  2.51395E+01  2.52546E+01  1.87422E+01  1.36634E+01  1.22567E+01  1.19023E+01  8.88831E+00  5.47295E+00  6.39943E+00
   7.25330E+00  9.64064E+00  7.70402E+00  8.69096E+00  6.02782E+00  6.86261E+00  7.40027E+00  6.15503E+00  3.44522E+00  2.68130E+00
   3.91715E+00  4.78016E+00  4.75915E+00  1.38336E+00  4.02591E+00  2.68749E+00  6.63875E-01  2.98106E+00  2.64181E+00  4.76036E+00
  -4.63659E+00  3.06204E+00 -2.66950E-01  3.79797E+00  1.25553E+00  1.46824E+00  2.85853E+00  1.79825E+00 -5.93580E-02  1.60354E+00
  -1.97168E-01 -1.23678E+00 -3.52796E+00 -4.90461E+00 -5.34303E+00 -6.65730E+00 -4.54196E+00 -9.45124E+00 -4.60908E+00 -6.30397E+00
  -5.05439E+00 -9.45961E+00 -6.73383E+00 -2.18761E+00 -1.32366E+00 -1.86943E+00  1.37623E+00 -3.65548E+00 -1.87401E-01  6.36621E+00
   3.53037E+00  2.37752E+00  1.67447E-01  6.36944E+00  3.37772E+00  8.45340E-01 -1.74896E+00 -1.95706E+00  1.37542E+00  3.50023E+00
   2.69204E+00  5.55318E+00  7.91488E+00  6.78279E+00  4.70981E+00  3.54658E+00  3.57903E+00  1.02134E+00 -1.80143E+00 -5.94228E+00
  -4.44733E+00 -1.95047E+00  1.55042E+00  6.18873E+00  9.65003E+00  1.22376E+01  9.57845E+00  5.66835E+00  8.85810E+00  3.89411E+00
   6.23525E-01 -1.85743E+00 -2.40608E+00  3.03532E+00  5.18678E+00  3.74038E+00  5.88656E+00  1.20175E+01  1.52887E+01  1.24540E+01
   1.15407E+01  6.15472E+00  1.12534E+01  9.53590E+00  8.49765E+00  8.70198E+00  7.25747E+00  5.89195E+00  6.72798E+00  1.22829E+01
   8.81478E+00  6.09185E+00  5.78240E+00  4.62818E+00  8.03996E+00  9.70539E+00  9.58728E+00  1.51980E+01  1.46739E+01  1.69458E+01
   1.64397E+01  1.47266E+01  1.67482E+01  1.54807E+01  1.96344E+01  2.42625E+01  3.70097E+01  4.38553E+01  6.06293E+01  7.44125E+01
   7.80572E+01  6.79550E+01  5.56221E+01  4.67590E+01  4.31860E+01  3.03712E+01  2.13934E+01  1.62292E+01  1.44585E+01  1.48683E+01
   1.14801E+01  1.09006E+01  9.46539E+00  5.41801E+00  5.46823E+00  7.42459E+00  2.28028E+00  6.65375E+00  7.31154E+00  1.84155E+00
   5.65022E+00  8.73701E+00  4.88907E+00  5.36888E+00  5.01384E-01 -5.13634E-01  2.95622E+00  4.39062E+00  3.75451E+00  1.69791E+00
   1.37914E+00  3.85387E+00  6.32573E+00  1.26658E+00  8.10609E+00  5.08581E+00  7.94882E+00  5.69974E+00  3.94146E+00  4.93136E+00
   3.06659E+00  4.38759E+00  7.22210E+00  6.79547E+00  8.68459E+00  4.91322E+00  1.21302E+01  8.33445E+00  6.06429E+00  1.36459E+01
   1.38145E+01  1.20196E+01  8.38990E+00  1.30705E+01  8.10120E+00  8.82572E+00  1.11572E+01  1.13723E+01  1.01479E+01  1.20184E+01
   1.09656E+01  1.10597E+01  1.05035E+01  1.36058E+01  1.54967E+01  1.40603E+01  1.11993E+01  1.82007E+01  1.63456E+01  1.89497E+01
   2.17185E+01  2.24340E+01  2.00393E+01  2.35696E+01  2.32390E+01  2.46292E+01  2.90387E+01  2.61282E+01  2.72877E+01  2.74760E+01
   2.80288E+01  2.34844E+01  2.56822E+01  2.60845E+01  2.01199E+01  2.17605E+01  1.94603E+01  1.62029E+01  1.52900E+01  1.66045E+01
   8.50676E+00  1.42675E+01  1.12745E+01  1.22544E+01  1.01146E+01  1.25607E+01  9.05931E+00  1.06283E+01  1.15319E+01  7.46290E+00
   9.64943E+00  1.26586E+01  8.11091E+00  6.79679E+00  6.21527E+00  6.04944E+00  1.36515E+00  1.97740E+00  4.11204E+00  5.35523E+00
   5.35495E+00  3.69405E+00  4.78005E+00  7.80130E+00  6.12847E+00  4.79835E+00  3.45541E+00  5.21786E+00  1.41596E+00  3.74882E+00
   1.19543E+00  3.36867E+00  5.67976E+00  4.72046E+00  4.57459E+00  5.12599E+00  4.13069E+00  3.73070E+00  7.87207E-01  5.51102E+00
   6.29217E+00  5.52295E+00  3.77092E+00  1.00150E+01  4.18840E+00  7.15963E+00  1.31308E+00  8.56848E+00  8.51415E+00  8.84119E+00
   7.82900E+00  8.31731E+00  6.93181E+00  6.02531E+00  4.72139E+00  6.82853E+00  1.09912E+01  7.69565E+00  6.49270E+00  7.66383E+00
   9.37307E+00  1.01548E+01  5.39465E+00  8.06106E+00  9.54916E+00  3.35509E+00  4.84864E+00  6.59559E+00  4.92665E+00  6.76747E+00
   4.42740E+00  1.91213E+00  4.24952E+00  7.78811E-01  5.29966E+00 -5.42557E-02 -2.04555E+00  1.12515E+00  4.03120E+00  5.44467E+00
  -1.51555E+00  2.07786E+00  4.96071E+00 -3.08242E+00  3.99558E+00 -2.90576E+00  1.85075E+00  1.10410E+00 -2.27948E+00  1.04669E+00
   3.68869E+00  2.47729E+00  2.73190E+00  1.76476E+00 -1.91706E+00 -3.56084E+00 -4.24260E+00 -3.15745E+00  2.50539E+00  1.59412E+00
   3.40881E-01  3.60581E+00  1.79121E+00 -6.30953E-01  3.83131E+00  1.59657E-01  2.74934E+00  1.57132E+00 -1.33407E+00  1.31785E+00
   4.53287E+00  1.08626E+00 -1.49540E+00 -6.24783E+00 -2.11489E+00 -2.36712E+00 -4.18884E+00 -1.01540E+00  1.29277E+00 -1.67899E+00
  -5.30646E-01  4.23195E+00  6.01288E-02  3.77106E-01  2.69079E-01  2.40727E+00 -5.44932E-01  2.52325E+00  2.65802E+00  5.34337E+00
   5.19866E+00  6.51112E-01 -1.22074E-01  2.32990E+00 -1.58835E+00  1.92525E+00 -1.55982E+00 -1.60941E+00  3.26868E+00  1.89514E+00
   3.36404E+00  8.16008E-01  8.87987E-01  1.00928E+00  4.45083E+00  3.82467E-01 -4.84151E+00 -8.86148E-01
 NY points of the fit to the data follow
   1.52583E+01  1.47877E+01  1.46780E+01  1.50371E+01  1.60508E+01  1.81446E+01  2.16206E+01  2.63513E+01  3.16395E+01  3.62186E+01
   3.87368E+01  3.85125E+01  3.60139E+01  3.24732E+01  2.89704E+01  2.59316E+01  2.32740E+01  2.08439E+01  1.86837E+01  1.70507E+01
   1.58511E+01  1.53152E+01  1.51972E+01  1.53711E+01  1.58435E+01  1.67125E+01  1.81434E+01  1.99978E+01  2.16960E+01  2.27843E+01
   2.32989E+01  2.32871E+01  2.24310E+01  2.05888E+01  1.82709E+01  1.61193E+01  1.43791E+01  1.31323E+01  1.27406E+01  1.27539E+01
   1.27697E+01  1.30522E+01  1.38985E+01  1.53299E+01  1.71962E+01  1.91723E+01  2.06524E+01  2.09120E+01  1.97794E+01  1.78872E+01
   1.59807E+01  1.43443E+01  1.30119E+01  1.20585E+01  1.14694E+01  1.11449E+01  1.11690E+01  1.16536E+01  1.23536E+01  1.28317E+01
   1.28319E+01  1.23412E+01  1.15682E+01  1.07737E+01  1.01526E+01  9.82038E+00  9.77919E+00  9.90696E+00  1.01219E+01  1.04119E+01
   1.07028E+01  1.09151E+01  1.09385E+01  1.07695E+01  1.05027E+01  1.02162E+01  9.93898E+00  9.68151E+00  9.45504E+00  9.27693E+00
   9.15452E+00  9.15916E+00  9.26556E+00  9.36888E+00  9.32479E+00  8.96944E+00  8.26124E+00  7.40569E+00  6.74866E+00  6.49006E+00
   6.57273E+00  6.83747E+00  7.16611E+00  7.45353E+00  7.59037E+00  7.62223E+00  7.80297E+00  8.70029E+00  1.12155E+01  1.59241E+01
   2.27585E+01  3.06663E+01  3.72982E+01  4.00024E+01  3.80188E+01  3.31934E+01  2.80461E+01  2.35941E+01  1.96270E+01  1.61254E+01
   1.32013E+01  1.04682E+01  8.08314E+00  7.15405E+00  6.93841E+00  6.86774E+00  6.83947E+00  6.85390E+00  6.95135E+00  7.20145E+00
   7.79949E+00  9.33472E+00  1.26786E+01  1.83310E+01  2.62085E+01  3.52659E+01  4.30253E+01  4.65278E+01  4.48054E+01  3.97668E+01
   3.40495E+01  2.86644E+01  2.33411E+01  1.82879E+01  1.40489E+01  1.05018E+01  7.80699E+00  7.08834E+00  7.32134E+00  7.58846E+00
   7.62335E+00  7.48238E+00  7.30813E+00  7.10149E+00  6.85022E+00  6.53849E+00  6.14088E+00  5.69919E+00  5.24530E+00  4.82770E+00
   4.50413E+00  4.25063E+00  4.06369E+00  3.94616E+00  3.86211E+00  3.73349E+00  3.48716E+00  3.09991E+00  2.61080E+00  2.15289E+00
   1.90871E+00  1.97962E+00  2.26519E+00  2.50122E+00  2.47923E+00  2.19622E+00  1.80064E+00  1.43774E+00  1.16322E+00  9.27554E-01
   5.90938E-01  1.21224E-01 -4.33022E-01 -9.81232E-01 -1.33185E+00 -1.41484E+00 -1.28565E+00 -1.11428E+00 -1.10506E+00 -1.28078E+00
  -1.46909E+00 -1.53236E+00 -1.48853E+00 -1.36287E+00 -1.06096E+00 -4.53138E-01  5.45993E-01  1.88367E+00  3.17761E+00  3.99918E+00
   4.08587E+00  3.54445E+00  2.68561E+00  1.75496E+00  1.02305E+00  7.13916E-01  8.71308E-01  1.51399E+00  2.64908E+00  4.17908E+00
   5.93326E+00  7.58286E+00  8.71276E+00  8.94547E+00  8.04402E+00  5.95926E+00  3.03786E+00 -6.50251E-02 -2.57577E+00 -3.71976E+00
  -3.07810E+00 -9.05070E-01  2.14227E+00  5.44716E+00  8.34420E+00  9.95795E+00  9.69239E+00  7.87798E+00  5.31069E+00  2.37807E+00
  -2.50992E-01 -1.69260E+00 -1.55579E+00 -1.10998E-01  1.84761E+00  3.79904E+00  5.40216E+00  6.48968E+00  7.11236E+00  7.44788E+00
   7.76552E+00  8.08634E+00  8.24743E+00  8.28957E+00  8.40553E+00  8.67073E+00  9.07443E+00  9.44653E+00  9.64101E+00  9.57573E+00
   9.21685E+00  8.73783E+00  8.51695E+00  8.78774E+00  9.35030E+00  9.82146E+00  1.02125E+01  1.06213E+01  1.10812E+01  1.16514E+01
   1.25492E+01  1.38279E+01  1.51592E+01  1.68592E+01  2.00806E+01  2.60935E+01  3.55377E+01  4.82477E+01  6.20346E+01  7.21539E+01
   7.42034E+01  6.82297E+01  5.84813E+01  4.89415E+01  4.05287E+01  3.28581E+01  2.61734E+01  2.03484E+01  1.45493E+01  1.01112E+01
   8.39363E+00  7.62317E+00  7.15136E+00  6.83218E+00  6.54969E+00  6.20913E+00  5.84594E+00  5.47883E+00  5.11145E+00  4.75911E+00
   4.44579E+00  4.16916E+00  3.92552E+00  3.72006E+00  3.55230E+00  3.41913E+00  3.31802E+00  3.25123E+00  3.22641E+00  3.24647E+00
   3.30638E+00  3.40921E+00  3.55686E+00  3.74935E+00  3.98531E+00  4.26476E+00  4.58723E+00  4.94987E+00  5.34857E+00  5.77861E+00
   6.23142E+00  6.69697E+00  7.16416E+00  7.62045E+00  8.05339E+00  8.45181E+00  8.80653E+00  9.11019E+00  9.35729E+00  9.54633E+00
   9.67950E+00  9.76253E+00  9.80586E+00  9.82382E+00  9.83351E+00  9.85496E+00  9.91025E+00  1.00230E+01  1.02180E+01  1.05219E+01
   1.09660E+01  1.15794E+01  1.23628E+01  1.32800E+01  1.42643E+01  1.52187E+01  1.60555E+01  1.67730E+01  1.74726E+01  1.82758E+01
   1.92284E+01  2.03064E+01  2.14959E+01  2.27743E+01  2.40184E+01  2.50437E+01  2.57582E+01  2.61389E+01  2.62110E+01  2.60402E+01
   2.56804E+01  2.52028E+01  2.46321E+01  2.38981E+01  2.29280E+01  2.16342E+01  1.98896E+01  1.77630E+01  1.55682E+01  1.36710E+01
   1.22586E+01  1.13554E+01  1.09732E+01  1.10491E+01  1.12953E+01  1.13734E+01  1.12108E+01  1.08369E+01  1.02885E+01  9.62829E+00
   8.89371E+00  8.14670E+00  7.40549E+00  6.64323E+00  5.97900E+00  5.46427E+00  5.05688E+00  4.73111E+00  4.46893E+00  4.25549E+00
   4.07873E+00  3.92946E+00  3.80137E+00  3.69066E+00  3.59549E+00  3.51549E+00  3.45128E+00  3.40418E+00  3.37596E+00  3.36862E+00
   3.38417E+00  3.42448E+00  3.49129E+00  3.58619E+00  3.71051E+00  3.86525E+00  4.05092E+00  4.26745E+00  4.51415E+00  4.78970E+00
   5.09197E+00  5.41797E+00  5.76369E+00  6.12418E+00  6.49361E+00  6.86537E+00  7.23218E+00  7.58622E+00  7.91935E+00  8.22342E+00
   8.49068E+00  8.71402E+00  8.88727E+00  9.00542E+00  9.06483E+00  9.06350E+00  9.00115E+00  8.87920E+00  8.70064E+00  8.46982E+00
   8.19233E+00  7.87473E+00  7.52427E+00  7.14853E+00  6.75508E+00  6.35119E+00  5.94369E+00  5.53877E+00  5.14185E+00  4.75744E+00
   4.38910E+00  4.03946E+00  3.71036E+00  3.40293E+00  3.11764E+00  2.85436E+00  2.61247E+00  2.39106E+00  2.18899E+00  2.00503E+00
   1.83783E+00  1.68597E+00  1.54803E+00  1.42269E+00  1.30872E+00  1.20501E+00  1.11051E+00  1.02422E+00  9.45240E-01  8.72806E-01
   8.06271E-01  7.45055E-01  6.88604E-01  6.36396E-01  5.87988E-01  5.43028E-01  5.01226E-01  4.62299E-01  4.25956E-01  3.91930E-01
   3.60017E-01  3.30069E-01  3.01961E-01  2.75539E-01  2.50634E-01  2.27101E-01  2.04848E-01  1.83815E-01  1.63929E-01  1.45088E-01
   1.27182E-01  1.10142E-01  9.39387E-02  7.85526E-02  6.39290E-02  4.99826E-02  3.66406E-02  2.38730E-02  1.16824E-02  5.68988E-05
  -1.10532E-02 -2.17137E-02 -3.19652E-02 -4.18047E-02 -5.12197E-02 -6.02289E-02 -6.88874E-02 -7.72475E-02 -8.53225E-02 -9.30944E-02
  -1.00553E-01 -1.07727E-01 -1.14669E-01 -1.21413E-01 -1.27950E-01 -1.34253E-01 -1.40325E-01 -1.46207E-01 -1.51945E-01 -1.57552E-01
  -1.63005E-01 -1.68282E-01 -1.73401E-01 -1.78409E-01 -1.83340E-01 -1.88188E-01 -1.92923E-01 -1.97534E-01
 NY background values follow
     1.123E+01    1.117E+01    1.112E+01    1.106E+01    1.100E+01    1.094E+01    1.088E+01    1.082E+01    1.076E+01    1.070E+01
     1.064E+01    1.059E+01    1.053E+01    1.047E+01    1.041E+01    1.035E+01    1.029E+01    1.023E+01    1.017E+01    1.012E+01
     1.006E+01    9.998E+00    9.939E+00    9.880E+00    9.821E+00    9.763E+00    9.704E+00    9.645E+00    9.587E+00    9.528E+00
     9.470E+00    9.411E+00    9.352E+00    9.294E+00    9.236E+00    9.177E+00    9.119E+00    9.060E+00    9.002E+00    8.944E+00
     8.886E+00    8.827E+00    8.769E+00    8.711E+00    8.653E+00    8.595E+00    8.537E+00    8.479E+00    8.421E+00    8.363E+00
     8.306E+00    8.248E+00    8.190E+00    8.133E+00    8.075E+00    8.018E+00    7.961E+00    7.903E+00    7.846E+00    7.789E+00
     7.732E+00    7.675E+00    7.618E+00    7.562E+00    7.505E+00    7.448E+00    7.392E+00    7.336E+00    7.279E+00    7.223E+00
     7.167E+00    7.111E+00    7.055E+00    7.000E+00    6.944E+00    6.888E+00    6.833E+00    6.778E+00    6.723E+00    6.668E+00
     6.613E+00    6.558E+00    6.504E+00    6.449E+00    6.395E+00    6.341E+00    6.287E+00    6.233E+00    6.179E+00    6.125E+00
     6.072E+00    6.019E+00    5.966E+00    5.913E+00    5.860E+00    5.807E+00    5.755E+00    5.703E+00    5.650E+00    5.599E+00
     5.547E+00    5.495E+00    5.444E+00    5.392E+00    5.341E+00    5.291E+00    5.240E+00    5.189E+00    5.139E+00    5.089E+00
     5.039E+00    4.989E+00    4.940E+00    4.890E+00    4.841E+00    4.792E+00    4.743E+00    4.695E+00    4.646E+00    4.598E+00
     4.550E+00    4.502E+00    4.455E+00    4.407E+00    4.360E+00    4.313E+00    4.266E+00    4.220E+00    4.174E+00    4.128E+00
     4.082E+00    4.036E+00    3.991E+00    3.946E+00    3.901E+00    3.856E+00    3.811E+00    3.767E+00    3.723E+00    3.679E+00
     3.636E+00    3.593E+00    3.549E+00    3.507E+00    3.464E+00    3.422E+00    3.380E+00    3.338E+00    3.296E+00    3.255E+00
     3.214E+00    3.173E+00    3.132E+00    3.092E+00    3.051E+00    3.012E+00    2.972E+00    2.933E+00    2.893E+00    2.855E+00
     2.816E+00    2.778E+00    2.740E+00    2.702E+00    2.664E+00    2.627E+00    2.590E+00    2.553E+00    2.516E+00    2.480E+00
     2.444E+00    2.409E+00    2.373E+00    2.338E+00    2.303E+00    2.268E+00    2.234E+00    2.200E+00    2.166E+00    2.133E+00
     2.099E+00    2.066E+00    2.034E+00    2.001E+00    1.969E+00    1.937E+00    1.906E+00    1.875E+00    1.843E+00    1.813E+00
     1.782E+00    1.752E+00    1.722E+00    1.692E+00    1.663E+00    1.634E+00    1.605E+00    1.576E+00    1.547E+00    1.519E+00
     1.491E+00    1.464E+00    1.436E+00    1.409E+00    1.382E+00    1.355E+00    1.329E+00    1.302E+00    1.276E+00    1.250E+00
     1.225E+00    1.199E+00    1.174E+00    1.149E+00    1.125E+00    1.100E+00    1.076E+00    1.052E+00    1.028E+00    1.004E+00
     9.807E-01    9.574E-01    9.344E-01    9.116E-01    8.890E-01    8.665E-01    8.443E-01    8.222E-01    8.004E-01    7.787E-01
     7.573E-01    7.360E-01    7.149E-01    6.940E-01    6.733E-01    6.528E-01    6.325E-01    6.123E-01    5.924E-01    5.726E-01
     5.530E-01    5.335E-01    5.143E-01    4.952E-01    4.763E-01    4.576E-01    4.391E-01    4.207E-01    4.025E-01    3.845E-01
     3.667E-01    3.490E-01    3.315E-01    3.141E-01    2.969E-01    2.799E-01    2.631E-01    2.464E-01    2.299E-01    2.135E-01
     1.973E-01    1.812E-01    1.654E-01    1.496E-01    1.340E-01    1.186E-01    1.034E-01    8.824E-02    7.328E-02    5.846E-02
     4.380E-02    2.928E-02    1.492E-02    6.930E-04   -1.338E-02   -2.732E-02   -4.110E-02   -5.475E-02   -6.825E-02   -8.162E-02
    -9.484E-02   -1.079E-01   -1.209E-01   -1.337E-01   -1.463E-01   -1.589E-01   -1.713E-01   -1.835E-01   -1.957E-01   -2.077E-01
    -2.195E-01   -2.313E-01   -2.429E-01   -2.544E-01   -2.657E-01   -2.769E-01   -2.880E-01   -2.990E-01   -3.099E-01   -3.206E-01
    -3.312E-01   -3.417E-01   -3.520E-01   -3.623E-01   -3.724E-01   -3.824E-01   -3.923E-01   -4.020E-01   -4.117E-01   -4.212E-01
    -4.307E-01   -4.400E-01   -4.492E-01   -4.582E-01   -4.672E-01   -4.761E-01   -4.848E-01   -4.935E-01   -5.020E-01   -5.105E-01
    -5.188E-01   -5.270E-01   -5.351E-01   -5.431E-01   -5.511E-01   -5.589E-01   -5.666E-01   -5.742E-01   -5.817E-01   -5.891E-01
    -5.964E-01   -6.036E-01   -6.107E-01   -6.177E-01   -6.246E-01   -6.314E-01   -6.381E-01   -6.447E-01   -6.512E-01   -6.577E-01
    -6.640E-01   -6.702E-01   -6.764E-01   -6.824E-01   -6.884E-01   -6.943E-01   -7.001E-01   -7.058E-01   -7.114E-01   -7.169E-01
    -7.223E-01   -7.276E-01   -7.329E-01   -7.380E-01   -7.431E-01   -7.481E-01   -7.530E-01   -7.579E-01   -7.626E-01   -7.673E-01
    -7.718E-01   -7.763E-01   -7.807E-01   -7.851E-01   -7.893E-01   -7.935E-01   -7.976E-01   -8.016E-01   -8.055E-01   -8.094E-01
    -8.132E-01   -8.169E-01   -8.205E-01   -8.240E-01   -8.275E-01   -8.309E-01   -8.342E-01   -8.374E-01   -8.405E-01   -8.436E-01
    -8.466E-01   -8.495E-01   -8.523E-01   -8.551E-01   -8.578E-01   -8.604E-01   -8.629E-01   -8.653E-01   -8.677E-01   -8.700E-01
    -8.722E-01   -8.743E-01   -8.764E-01   -8.784E-01   -8.803E-01   -8.821E-01   -8.839E-01   -8.856E-01   -8.872E-01   -8.887E-01
    -8.902E-01   -8.916E-01   -8.929E-01   -8.941E-01   -8.953E-01   -8.964E-01   -8.974E-01   -8.983E-01   -8.992E-01   -9.000E-01
    -9.007E-01   -9.013E-01   -9.019E-01   -9.024E-01   -9.028E-01   -9.032E-01   -9.035E-01   -9.038E-01   -9.040E-01   -9.041E-01
    -9.041E-01   -9.041E-01   -9.040E-01   -9.039E-01   -9.037E-01   -9.035E-01   -9.032E-01   -9.028E-01   -9.024E-01   -9.019E-01
    -9.014E-01   -9.008E-01   -9.002E-01   -8.995E-01   -8.988E-01   -8.980E-01   -8.972E-01   -8.963E-01   -8.954E-01   -8.944E-01
    -8.934E-01   -8.923E-01   -8.913E-01   -8.901E-01   -8.889E-01   -8.877E-01   -8.865E-01   -8.852E-01   -8.838E-01   -8.825E-01
    -8.811E-01   -8.796E-01   -8.782E-01   -8.767E-01   -8.751E-01   -8.735E-01   -8.720E-01   -8.703E-01   -8.687E-01   -8.670E-01
    -8.653E-01   -8.636E-01   -8.618E-01   -8.600E-01   -8.582E-01   -8.564E-01   -8.545E-01   -8.527E-01   -8.508E-01   -8.489E-01
    -8.470E-01   -8.450E-01   -8.431E-01   -8.411E-01   -8.391E-01   -8.372E-01   -8.351E-01   -8.331E-01   -8.311E-01   -8.291E-01
    -8.270E-01   -8.250E-01   -8.229E-01   -8.209E-01   -8.188E-01   -8.167E-01   -8.147E-01   -8.126E-01   -8.105E-01   -8.084E-01
    -8.063E-01   -8.043E-01   -8.022E-01   -8.001E-01   -7.981E-01   -7.960E-01   -7.940E-01   -7.919E-01
 Ala      Conc. = 9.72E+01
