 LCModel (Version 6.3-1L) Copyright: S.W. Provencher.          Ref.: Magn. Reson. Med. 30:672-679 (1993).                
 Slice#1 Row#14 Col#6  PD_05_press_1_raw_act
 36 lines in following concentration table = NCONC+1
    Conc.  %SD /Cr+PCr  Metabolite                                         
    0.000 999%   0.000 Ala                                                 
    4.260  71%   0.137 Asp                                                 
    4.161 819%   0.134 Cr                                                  
   26.962 126%   0.866 PCr                                                 
    2.482  73% 8.0E-02 GABA                                                
    2.533  72% 8.1E-02 Glc                                                 
    3.392 999%   0.109 Gln                                                 
  110.661  56%   3.556 Glu                                                 
    0.000 999%   0.000 GPC                                                 
    0.000 999%   0.000 PCh                                                 
    0.000 999%   0.000 GSH                                                 
   67.595  88%   2.172 Ins                                                 
    0.000 999%   0.000 Lac                                                 
   52.005  29%   1.671 NAA                                                 
    0.000 999%   0.000 NAAG                                                
    0.789  77% 2.5E-02 Scyllo                                              
    3.813  80%   0.123 Tau                                                 
    0.000 999%   0.000 -CrCH2                                              
    0.000 999%   0.000 GPC+PCh                                             
   52.005  29%   1.671 NAA+NAAG                                            
   31.123  42%   1.000 Cr+PCr                                              
  114.054  69%   3.665 Glu+Gln                                             
    0.000 999%   0.000 Lip13a                                              
   74.526  43%   2.395 Lip13b                                              
   14.220 124%   0.457 Lip09                                               
    0.000 999%   0.000 MM09                                                
   10.489 118%   0.337 Lip20                                               
    0.000 999%   0.000 MM20                                                
    0.000 999%   0.000 MM12                                                
    0.000 999%   0.000 MM14                                                
    0.830 919% 2.7E-02 MM17                                                
   74.526  43%   2.395 Lip13a+Lip13b                                       
   74.526  43%   2.395 MM14+Lip13a+Lip13b+MM12                             
   14.220 124%   0.457 MM09+Lip09                                          
   10.489 118%   0.337 MM20+Lip20                                          
   6 lines in following misc. output table
  FWHM = 0.046 ppm    S/N =   1                                            
  Data shift = 0.015 ppm                                                   
  Ph:  82 deg     -36.0 deg/ppm                                            
  alphaB,S = 8.7E-01,   2.2E+01                                            
   14 spline knots.   Ns = 5(1)                                            
   2 inflections.     1 extrema                                            
  498 points on ppm-axis = NY
      4.000000     3.992357     3.984714     3.977070     3.969427     3.961784     3.954141     3.946497     3.938854     3.931211
      3.923568     3.915925     3.908281     3.900638     3.892995     3.885352     3.877708     3.870065     3.862422     3.854779
      3.847136     3.839492     3.831849     3.824206     3.816563     3.808919     3.801276     3.793633     3.785990     3.778347
      3.770703     3.763060     3.755417     3.747774     3.740130     3.732487     3.724844     3.717201     3.709558     3.701914
      3.694271     3.686628     3.678985     3.671341     3.663698     3.656055     3.648412     3.640769     3.633125     3.625482
      3.617839     3.610196     3.602552     3.594909     3.587266     3.579623     3.571980     3.564336     3.556693     3.549050
      3.541407     3.533763     3.526120     3.518477     3.510834     3.503191     3.495547     3.487904     3.480261     3.472618
      3.464974     3.457331     3.449688     3.442045     3.434402     3.426758     3.419115     3.411472     3.403829     3.396185
      3.388542     3.380899     3.373256     3.365613     3.357969     3.350326     3.342683     3.335040     3.327396     3.319753
      3.312110     3.304467     3.296824     3.289180     3.281537     3.273894     3.266251     3.258607     3.250964     3.243321
      3.235678     3.228034     3.220391     3.212748     3.205105     3.197462     3.189818     3.182175     3.174532     3.166889
      3.159245     3.151602     3.143959     3.136316     3.128673     3.121029     3.113386     3.105743     3.098100     3.090456
      3.082813     3.075170     3.067527     3.059884     3.052240     3.044597     3.036954     3.029311     3.021667     3.014024
      3.006381     2.998738     2.991095     2.983451     2.975808     2.968165     2.960522     2.952878     2.945235     2.937592
      2.929949     2.922306     2.914662     2.907019     2.899376     2.891733     2.884089     2.876446     2.868803     2.861160
      2.853517     2.845873     2.838230     2.830587     2.822944     2.815300     2.807657     2.800014     2.792371     2.784728
      2.777084     2.769441     2.761798     2.754155     2.746511     2.738868     2.731225     2.723582     2.715939     2.708295
      2.700652     2.693009     2.685366     2.677722     2.670079     2.662436     2.654793     2.647150     2.639506     2.631863
      2.624220     2.616577     2.608933     2.601290     2.593647     2.586004     2.578361     2.570717     2.563074     2.555431
      2.547788     2.540144     2.532501     2.524858     2.517215     2.509572     2.501928     2.494285     2.486642     2.478999
      2.471355     2.463712     2.456069     2.448426     2.440783     2.433139     2.425496     2.417853     2.410210     2.402566
      2.394923     2.387280     2.379637     2.371994     2.364350     2.356707     2.349064     2.341421     2.333777     2.326134
      2.318491     2.310848     2.303205     2.295561     2.287918     2.280275     2.272632     2.264988     2.257345     2.249702
      2.242059     2.234416     2.226772     2.219129     2.211486     2.203843     2.196199     2.188556     2.180913     2.173270
      2.165627     2.157983     2.150340     2.142697     2.135054     2.127410     2.119767     2.112124     2.104481     2.096838
      2.089194     2.081551     2.073908     2.066265     2.058621     2.050978     2.043335     2.035692     2.028049     2.020405
      2.012762     2.005119     1.997476     1.989833     1.982190     1.974546     1.966903     1.959260     1.951617     1.943974
      1.936331     1.928688     1.921045     1.913402     1.905759     1.898115     1.890472     1.882829     1.875186     1.867543
      1.859900     1.852257     1.844614     1.836971     1.829327     1.821684     1.814041     1.806398     1.798755     1.791112
      1.783469     1.775826     1.768183     1.760540     1.752896     1.745253     1.737610     1.729967     1.722324     1.714681
      1.707038     1.699395     1.691752     1.684108     1.676465     1.668822     1.661179     1.653536     1.645893     1.638250
      1.630607     1.622964     1.615321     1.607677     1.600034     1.592391     1.584748     1.577105     1.569462     1.561819
      1.554176     1.546533     1.538890     1.531246     1.523603     1.515960     1.508317     1.500674     1.493031     1.485388
      1.477745     1.470102     1.462458     1.454815     1.447172     1.439529     1.431886     1.424243     1.416600     1.408957
      1.401314     1.393671     1.386027     1.378384     1.370741     1.363098     1.355455     1.347812     1.340169     1.332526
      1.324883     1.317240     1.309596     1.301953     1.294310     1.286667     1.279024     1.271381     1.263738     1.256095
      1.248452     1.240808     1.233165     1.225522     1.217879     1.210236     1.202593     1.194950     1.187307     1.179664
      1.172021     1.164377     1.156734     1.149091     1.141448     1.133805     1.126162     1.118519     1.110876     1.103233
      1.095590     1.087946     1.080303     1.072660     1.065017     1.057374     1.049731     1.042088     1.034445     1.026802
      1.019158     1.011515     1.003872     0.996229     0.988586     0.980943     0.973300     0.965657     0.958014     0.950371
      0.942727     0.935084     0.927441     0.919798     0.912155     0.904512     0.896869     0.889226     0.881583     0.873940
      0.866296     0.858653     0.851010     0.843367     0.835724     0.828081     0.820438     0.812795     0.805152     0.797508
      0.789865     0.782222     0.774579     0.766936     0.759293     0.751650     0.744007     0.736364     0.728721     0.721077
      0.713434     0.705791     0.698148     0.690505     0.682862     0.675219     0.667576     0.659933     0.652290     0.644646
      0.637003     0.629360     0.621717     0.614074     0.606431     0.598788     0.591145     0.583502     0.575858     0.568215
      0.560572     0.552929     0.545286     0.537643     0.530000     0.522357     0.514714     0.507071     0.499427     0.491784
      0.484141     0.476498     0.468855     0.461212     0.453569     0.445925     0.438282     0.430639     0.422996     0.415353
      0.407710     0.400067     0.392424     0.384780     0.377137     0.369494     0.361851     0.354208     0.346565     0.338922
      0.331278     0.323635     0.315992     0.308349     0.300706     0.293063     0.285420     0.277777     0.270133     0.262490
      0.254847     0.247204     0.239561     0.231918     0.224275     0.216631     0.208988     0.201345
 NY phased data points follow
   2.64114E+01  2.43630E+01  2.67750E+01  2.50222E+01  2.41957E+01  2.53099E+01  2.39667E+01  2.53423E+01  2.40852E+01  2.23609E+01
   2.46313E+01  2.24029E+01  2.36898E+01  2.29905E+01  2.13237E+01  2.29727E+01  2.24433E+01  2.28747E+01  2.21180E+01  2.01466E+01
   1.88293E+01  2.00085E+01  1.87384E+01  2.02167E+01  1.98720E+01  2.01737E+01  2.19329E+01  2.06968E+01  2.00954E+01  1.92470E+01
   2.03587E+01  1.93455E+01  1.88515E+01  1.80849E+01  1.75714E+01  1.65843E+01  1.77491E+01  1.76865E+01  1.96093E+01  1.78654E+01
   1.87891E+01  1.79168E+01  1.80916E+01  1.83109E+01  1.89131E+01  1.89924E+01  1.77284E+01  1.82241E+01  1.80337E+01  1.72235E+01
   1.76026E+01  1.65103E+01  1.52274E+01  1.53989E+01  1.76739E+01  1.70976E+01  1.69578E+01  1.42435E+01  1.78613E+01  1.51231E+01
   1.57265E+01  1.46276E+01  1.57816E+01  1.37165E+01  1.49943E+01  1.57775E+01  1.45801E+01  1.44498E+01  1.60701E+01  1.48806E+01
   1.31628E+01  1.58667E+01  1.44193E+01  1.36152E+01  1.54353E+01  1.50265E+01  1.56880E+01  1.49009E+01  1.46402E+01  1.22629E+01
   1.39988E+01  1.31112E+01  1.37177E+01  1.28792E+01  1.35516E+01  1.30847E+01  1.29881E+01  1.33877E+01  1.25152E+01  1.22685E+01
   1.18262E+01  1.12967E+01  1.37512E+01  1.11823E+01  1.08590E+01  1.15854E+01  1.24903E+01  1.16211E+01  1.15528E+01  1.13743E+01
   1.14579E+01  1.10228E+01  1.07799E+01  1.18174E+01  1.21642E+01  1.04737E+01  1.18601E+01  1.32611E+01  1.22228E+01  1.14308E+01
   1.09828E+01  1.02783E+01  1.21798E+01  1.05574E+01  1.15378E+01  1.00860E+01  1.26408E+01  9.08047E+00  9.94512E+00  9.65691E+00
   9.25826E+00  9.86505E+00  9.20062E+00  9.76072E+00  9.18859E+00  1.01481E+01  1.16914E+01  1.17708E+01  1.00336E+01  1.22810E+01
   9.24107E+00  1.11538E+01  1.06479E+01  9.31867E+00  7.74889E+00  9.68416E+00  1.19384E+01  1.02749E+01  9.10973E+00  1.07372E+01
   8.66386E+00  8.58173E+00  8.10466E+00  8.60371E+00  1.00933E+01  1.04598E+01  9.15718E+00  9.08757E+00  1.02518E+01  1.00111E+01
   9.20795E+00  7.90449E+00  1.08042E+01  7.65489E+00  8.83048E+00  9.06319E+00  8.54285E+00  6.99551E+00  9.45623E+00  8.11504E+00
   8.72968E+00  9.23575E+00  9.79682E+00  1.01228E+01  1.02310E+01  8.31851E+00  8.07104E+00  9.19765E+00  8.20514E+00  8.72898E+00
   9.29746E+00  6.41730E+00  8.49594E+00  8.43793E+00  9.47873E+00  6.64582E+00  7.05789E+00  8.67532E+00  8.16897E+00  6.12969E+00
   7.01901E+00  6.33209E+00  7.13103E+00  8.55617E+00  8.14466E+00  5.24501E+00  8.61486E+00  9.84546E+00  8.61243E+00  7.58215E+00
   6.33289E+00  8.68302E+00  8.07398E+00  5.10535E+00  7.51910E+00  7.01433E+00  7.10483E+00  7.83052E+00  4.67907E+00  7.58720E+00
   5.92351E+00  7.37696E+00  5.66139E+00  6.98450E+00  7.10994E+00  9.12445E+00  5.78007E+00  6.95225E+00  6.58886E+00  6.02729E+00
   6.42650E+00  7.10669E+00  6.10123E+00  7.89383E+00  4.80061E+00  7.08393E+00  6.11806E+00  8.69008E+00  7.41805E+00  7.55240E+00
   5.67033E+00  4.94623E+00  3.88815E+00  4.57394E+00  5.90862E+00  6.70675E+00  7.49109E+00  4.60953E+00  6.43863E+00  5.31221E+00
   7.49545E+00  4.79396E+00  5.70495E+00  6.60722E+00  6.83143E+00  6.51840E+00  5.90999E+00  5.99743E+00  4.32142E+00  5.59278E+00
   5.65663E+00  5.96120E+00  5.76470E+00  4.65424E+00  6.61553E+00  4.47248E+00  6.01590E+00  4.05257E+00  5.33350E+00  5.34344E+00
   3.47285E+00  6.51456E+00  3.51056E+00  4.81267E+00  6.44215E+00  6.51397E+00  3.62589E+00  5.67165E+00  7.38197E+00  6.90423E+00
   7.86845E+00  6.65436E+00  5.77465E+00  6.29198E+00  7.37789E+00  4.75845E+00  4.16241E+00  4.33309E+00  4.26571E+00  4.46130E+00
   4.11724E+00  4.48213E+00  5.79415E+00  5.08024E+00  3.88526E+00  2.87210E+00  3.92771E+00  5.27366E+00  4.27869E+00  5.10654E+00
   5.33723E+00  4.49020E+00  4.67829E+00  2.97510E+00  3.45844E+00  5.33557E+00  4.56009E+00  4.46169E+00  3.86927E+00  4.55531E+00
   4.72874E+00  2.16361E+00  4.43138E+00  3.32555E+00  6.70917E+00  4.93594E+00  3.63721E+00  3.01052E+00  3.10941E+00  2.01027E+00
   4.44508E+00  3.01353E+00  6.28375E+00  2.26708E+00  2.90712E+00  4.34014E+00  3.73346E+00  3.74105E+00  4.83350E+00  4.47872E+00
   4.30261E+00  4.03156E+00  5.88909E+00  4.70003E+00  3.74269E+00  4.92770E+00  2.92515E+00  4.26150E+00  4.47583E+00  3.63860E+00
   2.95344E+00  4.54257E+00  4.58279E+00  3.70534E+00  2.32290E+00  2.95907E+00  5.00543E+00  2.38217E+00  2.02305E+00  2.11879E+00
   1.29896E+00  2.75352E+00  3.97950E+00  2.67253E+00  2.62224E+00  5.66834E-01  1.32637E-01  3.52228E-02  4.03519E+00  3.08798E+00
   3.99095E+00  5.23852E-01  5.10903E+00  5.53821E+00  4.21858E+00  3.25056E+00  2.57574E+00  3.01590E+00  4.13622E+00  6.12142E+00
   5.53475E+00  3.01747E+00  5.71146E+00  2.82883E+00  4.58046E+00  2.86752E+00  3.89607E+00  1.86790E+00  6.61473E-01  2.70472E+00
   2.19402E+00  3.24116E+00  1.91174E+00  1.64474E+00  1.96588E+00  1.92837E+00  2.74512E+00  2.03483E+00  1.85128E+00  2.61044E+00
   2.14297E+00  4.09283E+00  3.20783E+00  3.16583E+00  2.79088E+00  3.87469E+00  2.93837E+00  1.98105E+00  2.00443E+00  3.09817E+00
   3.88303E+00  4.22343E+00  2.14824E+00  2.85923E+00  3.76434E+00  1.82676E+00  2.94395E+00  1.52613E+00  2.56276E+00  1.88831E+00
   1.36434E+00  3.47380E+00  1.97968E+00  1.79207E-01  1.81629E-01  1.07765E+00  2.96106E+00  2.62327E+00  1.11737E+00  1.94465E+00
   1.12026E+00  1.61303E+00  1.86288E+00  1.38291E+00  1.86590E+00  1.19244E+00  1.56020E+00  1.15330E+00  3.01266E+00  1.32487E+00
   3.66797E+00  2.78803E+00  3.04119E+00  3.56502E+00  2.11924E+00  1.49627E+00  2.75699E+00  2.36937E+00  2.34677E+00  3.46939E+00
   2.42232E+00  4.35721E-01  1.33213E+00  8.94817E-01  8.67528E-01  5.78544E-01  2.85837E+00  2.39274E+00  2.80834E+00  3.68932E+00
   2.29321E+00  3.44313E+00 -8.42125E-01  2.28316E+00  9.60285E-01  3.42220E+00  2.88013E+00  2.14713E+00  9.70307E-01  1.58365E+00
   1.77414E+00  2.24788E+00  6.75733E-01  3.44261E+00  6.45593E-01  1.95448E+00  1.19170E+00  3.04106E+00  1.18448E+00  1.17445E+00
   1.01649E+00  1.90789E+00  1.48066E+00  1.37279E+00  2.39003E+00  1.39522E+00  3.25956E+00  1.78669E+00  6.88549E-01 -4.93203E-01
   2.45267E+00  1.98868E+00  1.84017E+00  2.68167E+00  2.85354E-01 -4.32884E-01  3.08024E+00  1.01829E+00  9.70636E-01  1.36277E+00
   1.21344E+00  3.44472E-01  1.42199E+00  1.71170E+00  5.82200E-01  2.60250E-01  7.09846E-01  1.12388E+00  1.47820E+00  2.05660E+00
   7.91238E-01  1.87552E+00 -2.10340E-01 -7.37118E-01  3.13820E+00 -5.75534E-01  1.56934E+00 -4.22767E-01  2.23510E+00  3.02769E+00
  -8.23534E-01  1.20716E-01 -3.10361E-02  2.01244E+00 -6.55534E-01  7.00294E-01  7.91337E-01  2.07756E-01
 NY points of the fit to the data follow
   2.30666E+01  2.29035E+01  2.27542E+01  2.26322E+01  2.25307E+01  2.24666E+01  2.24615E+01  2.25044E+01  2.25529E+01  2.25583E+01
   2.24912E+01  2.23459E+01  2.21255E+01  2.18359E+01  2.15064E+01  2.12109E+01  2.10162E+01  2.08740E+01  2.07534E+01  2.06500E+01
   2.05521E+01  2.04578E+01  2.03701E+01  2.02913E+01  2.02085E+01  2.00987E+01  1.99492E+01  1.97683E+01  1.95846E+01  1.94317E+01
   1.93332E+01  1.92967E+01  1.93103E+01  1.93421E+01  1.93346E+01  1.92280E+01  1.90297E+01  1.87740E+01  1.85064E+01  1.82823E+01
   1.81358E+01  1.80608E+01  1.80258E+01  1.80104E+01  1.80225E+01  1.80504E+01  1.80612E+01  1.80376E+01  1.79529E+01  1.77945E+01
   1.75724E+01  1.73016E+01  1.70045E+01  1.67318E+01  1.65485E+01  1.64651E+01  1.64327E+01  1.64114E+01  1.63903E+01  1.63599E+01
   1.63046E+01  1.62145E+01  1.60907E+01  1.59419E+01  1.57761E+01  1.56096E+01  1.54694E+01  1.53654E+01  1.52931E+01  1.52420E+01
   1.51929E+01  1.51324E+01  1.50533E+01  1.49564E+01  1.48488E+01  1.47332E+01  1.46114E+01  1.44833E+01  1.43586E+01  1.42473E+01
   1.41423E+01  1.40402E+01  1.39437E+01  1.38501E+01  1.37489E+01  1.36317E+01  1.34995E+01  1.33622E+01  1.32346E+01  1.31272E+01
   1.30434E+01  1.29841E+01  1.29494E+01  1.29286E+01  1.28953E+01  1.28343E+01  1.27455E+01  1.26386E+01  1.25229E+01  1.24061E+01
   1.22935E+01  1.21904E+01  1.21015E+01  1.20320E+01  1.19753E+01  1.19229E+01  1.18715E+01  1.18183E+01  1.17630E+01  1.17042E+01
   1.16397E+01  1.15712E+01  1.15031E+01  1.14366E+01  1.13708E+01  1.13060E+01  1.12416E+01  1.11783E+01  1.11179E+01  1.10624E+01
   1.10140E+01  1.09752E+01  1.09608E+01  1.10168E+01  1.11677E+01  1.13677E+01  1.15253E+01  1.15651E+01  1.14663E+01  1.12467E+01
   1.09249E+01  1.05224E+01  1.01103E+01  9.82393E+00  9.72788E+00  9.69271E+00  9.65650E+00  9.61732E+00  9.57623E+00  9.53271E+00
   9.48645E+00  9.43799E+00  9.38898E+00  9.34057E+00  9.29172E+00  9.24203E+00  9.19198E+00  9.14150E+00  9.09010E+00  9.03706E+00
   8.98329E+00  8.93014E+00  8.87860E+00  8.82890E+00  8.77959E+00  8.72982E+00  8.67902E+00  8.62468E+00  8.56498E+00  8.50193E+00
   8.44102E+00  8.38863E+00  8.34640E+00  8.31039E+00  8.27567E+00  8.23950E+00  8.19948E+00  8.15047E+00  8.08940E+00  8.02393E+00
   7.96150E+00  7.90752E+00  7.86048E+00  7.81058E+00  7.75990E+00  7.71486E+00  7.67829E+00  7.64682E+00  7.61502E+00  7.58162E+00
   7.54930E+00  7.51892E+00  7.48537E+00  7.44261E+00  7.39894E+00  7.36595E+00  7.34355E+00  7.32547E+00  7.30427E+00  7.28209E+00
   7.26048E+00  7.23850E+00  7.21272E+00  7.17839E+00  7.13616E+00  7.09560E+00  7.05676E+00  7.01560E+00  6.97195E+00  6.92835E+00
   6.88930E+00  6.85914E+00  6.83953E+00  6.82561E+00  6.80441E+00  6.76090E+00  6.68870E+00  6.58787E+00  6.46873E+00  6.35181E+00
   6.26895E+00  6.24986E+00  6.31817E+00  6.46785E+00  6.63931E+00  6.76195E+00  6.77335E+00  6.63985E+00  6.37687E+00  6.00564E+00
   5.58787E+00  5.25048E+00  5.11394E+00  5.22010E+00  5.45915E+00  5.74340E+00  6.03120E+00  6.27233E+00  6.39670E+00  6.35990E+00
   6.21831E+00  6.07315E+00  5.96279E+00  5.87774E+00  5.82208E+00  5.79116E+00  5.77268E+00  5.74853E+00  5.70365E+00  5.63970E+00
   5.57039E+00  5.51227E+00  5.48057E+00  5.47938E+00  5.50370E+00  5.54136E+00  5.57569E+00  5.58297E+00  5.55333E+00  5.49355E+00
   5.42325E+00  5.38624E+00  5.39484E+00  5.43640E+00  5.49990E+00  5.59289E+00  5.75967E+00  6.04376E+00  6.40322E+00  6.71415E+00
   6.85308E+00  6.76646E+00  6.47814E+00  6.02698E+00  5.43975E+00  4.79549E+00  4.30678E+00  4.15900E+00  4.18908E+00  4.21486E+00
   4.23591E+00  4.26348E+00  4.28938E+00  4.31160E+00  4.33439E+00  4.35109E+00  4.35698E+00  4.34896E+00  4.32550E+00  4.29030E+00
   4.25465E+00  4.22576E+00  4.20290E+00  4.18442E+00  4.16931E+00  4.15620E+00  4.14314E+00  4.12770E+00  4.10950E+00  4.09033E+00
   4.07059E+00  4.05053E+00  4.03077E+00  4.01160E+00  3.99275E+00  3.97389E+00  3.95517E+00  3.93673E+00  3.91834E+00  3.89993E+00
   3.88160E+00  3.86330E+00  3.84507E+00  3.82686E+00  3.80864E+00  3.79037E+00  3.77207E+00  3.75375E+00  3.73541E+00  3.71717E+00
   3.69917E+00  3.68141E+00  3.66383E+00  3.64644E+00  3.62924E+00  3.61224E+00  3.59545E+00  3.57888E+00  3.56255E+00  3.54647E+00
   3.53065E+00  3.51511E+00  3.49985E+00  3.48491E+00  3.47030E+00  3.45604E+00  3.44218E+00  3.42874E+00  3.41577E+00  3.40330E+00
   3.39142E+00  3.38019E+00  3.36973E+00  3.36017E+00  3.35167E+00  3.34449E+00  3.33898E+00  3.33563E+00  3.33510E+00  3.33829E+00
   3.34639E+00  3.36083E+00  3.38321E+00  3.41505E+00  3.45748E+00  3.51067E+00  3.57328E+00  3.64192E+00  3.71084E+00  3.77207E+00
   3.81609E+00  3.83313E+00  3.81487E+00  3.75612E+00  3.65623E+00  3.51965E+00  3.35554E+00  3.17636E+00  2.99586E+00  2.82687E+00
   2.67943E+00  2.55971E+00  2.46970E+00  2.40784E+00  2.36999E+00  2.35071E+00  2.34437E+00  2.34593E+00  2.35145E+00  2.35812E+00
   2.36419E+00  2.36875E+00  2.37143E+00  2.37224E+00  2.37134E+00  2.36899E+00  2.36543E+00  2.36088E+00  2.35553E+00  2.34953E+00
   2.34302E+00  2.33609E+00  2.32881E+00  2.32126E+00  2.31347E+00  2.30549E+00  2.29734E+00  2.28904E+00  2.28059E+00  2.27198E+00
   2.26320E+00  2.25423E+00  2.24503E+00  2.23556E+00  2.22576E+00  2.21559E+00  2.20499E+00  2.19390E+00  2.18227E+00  2.17004E+00
   2.15717E+00  2.14363E+00  2.12942E+00  2.11452E+00  2.09895E+00  2.08277E+00  2.06600E+00  2.04874E+00  2.03105E+00  2.01305E+00
   1.99483E+00  1.97649E+00  1.95815E+00  1.93990E+00  1.92183E+00  1.90403E+00  1.88656E+00  1.86947E+00  1.85280E+00  1.83658E+00
   1.82082E+00  1.80550E+00  1.79062E+00  1.77616E+00  1.76208E+00  1.74836E+00  1.73496E+00  1.72184E+00  1.70897E+00  1.69631E+00
   1.68383E+00  1.67151E+00  1.65933E+00  1.64725E+00  1.63525E+00  1.62333E+00  1.61147E+00  1.59965E+00  1.58788E+00  1.57613E+00
   1.56441E+00  1.55271E+00  1.54104E+00  1.52937E+00  1.51772E+00  1.50608E+00  1.49446E+00  1.48284E+00  1.47123E+00  1.45964E+00
   1.44805E+00  1.43647E+00  1.42491E+00  1.41335E+00  1.40181E+00  1.39029E+00  1.37877E+00  1.36728E+00  1.35580E+00  1.34434E+00
   1.33289E+00  1.32147E+00  1.31007E+00  1.29869E+00  1.28734E+00  1.27601E+00  1.26471E+00  1.25344E+00  1.24219E+00  1.23097E+00
   1.21978E+00  1.20863E+00  1.19751E+00  1.18642E+00  1.17537E+00  1.16435E+00  1.15338E+00  1.14244E+00  1.13154E+00  1.12068E+00
   1.10987E+00  1.09909E+00  1.08837E+00  1.07769E+00  1.06705E+00  1.05647E+00  1.04593E+00  1.03545E+00  1.02502E+00  1.01465E+00
   1.00434E+00  9.94080E-01  9.83888E-01  9.73761E-01  9.63702E-01  9.53712E-01  9.43795E-01  9.33956E-01
 NY background values follow
     2.284E+01    2.272E+01    2.260E+01    2.248E+01    2.237E+01    2.225E+01    2.213E+01    2.201E+01    2.189E+01    2.177E+01
     2.166E+01    2.154E+01    2.142E+01    2.130E+01    2.118E+01    2.107E+01    2.095E+01    2.083E+01    2.071E+01    2.060E+01
     2.048E+01    2.036E+01    2.025E+01    2.013E+01    2.001E+01    1.990E+01    1.978E+01    1.967E+01    1.955E+01    1.944E+01
     1.932E+01    1.921E+01    1.909E+01    1.898E+01    1.887E+01    1.875E+01    1.864E+01    1.853E+01    1.841E+01    1.830E+01
     1.819E+01    1.808E+01    1.797E+01    1.786E+01    1.775E+01    1.764E+01    1.753E+01    1.742E+01    1.731E+01    1.720E+01
     1.709E+01    1.699E+01    1.688E+01    1.677E+01    1.667E+01    1.656E+01    1.646E+01    1.635E+01    1.625E+01    1.614E+01
     1.604E+01    1.594E+01    1.584E+01    1.573E+01    1.563E+01    1.553E+01    1.543E+01    1.533E+01    1.523E+01    1.513E+01
     1.504E+01    1.494E+01    1.484E+01    1.474E+01    1.465E+01    1.455E+01    1.446E+01    1.436E+01    1.427E+01    1.417E+01
     1.408E+01    1.399E+01    1.390E+01    1.381E+01    1.372E+01    1.363E+01    1.354E+01    1.345E+01    1.336E+01    1.327E+01
     1.319E+01    1.310E+01    1.302E+01    1.293E+01    1.285E+01    1.276E+01    1.268E+01    1.260E+01    1.252E+01    1.244E+01
     1.236E+01    1.228E+01    1.220E+01    1.212E+01    1.204E+01    1.196E+01    1.188E+01    1.181E+01    1.173E+01    1.166E+01
     1.158E+01    1.151E+01    1.144E+01    1.136E+01    1.129E+01    1.122E+01    1.115E+01    1.108E+01    1.101E+01    1.094E+01
     1.087E+01    1.080E+01    1.073E+01    1.067E+01    1.060E+01    1.053E+01    1.047E+01    1.040E+01    1.034E+01    1.027E+01
     1.021E+01    1.015E+01    1.008E+01    1.002E+01    9.959E+00    9.898E+00    9.838E+00    9.777E+00    9.718E+00    9.659E+00
     9.600E+00    9.542E+00    9.484E+00    9.427E+00    9.370E+00    9.314E+00    9.258E+00    9.202E+00    9.147E+00    9.093E+00
     9.039E+00    8.985E+00    8.932E+00    8.879E+00    8.826E+00    8.774E+00    8.723E+00    8.671E+00    8.621E+00    8.570E+00
     8.520E+00    8.470E+00    8.421E+00    8.372E+00    8.323E+00    8.275E+00    8.227E+00    8.179E+00    8.132E+00    8.085E+00
     8.039E+00    7.992E+00    7.946E+00    7.901E+00    7.856E+00    7.811E+00    7.766E+00    7.721E+00    7.677E+00    7.634E+00
     7.590E+00    7.547E+00    7.504E+00    7.461E+00    7.419E+00    7.377E+00    7.335E+00    7.293E+00    7.252E+00    7.211E+00
     7.170E+00    7.129E+00    7.089E+00    7.049E+00    7.009E+00    6.970E+00    6.931E+00    6.892E+00    6.853E+00    6.814E+00
     6.776E+00    6.738E+00    6.700E+00    6.663E+00    6.625E+00    6.588E+00    6.552E+00    6.515E+00    6.479E+00    6.442E+00
     6.407E+00    6.371E+00    6.335E+00    6.300E+00    6.265E+00    6.230E+00    6.196E+00    6.162E+00    6.127E+00    6.094E+00
     6.060E+00    6.026E+00    5.993E+00    5.960E+00    5.927E+00    5.894E+00    5.862E+00    5.830E+00    5.798E+00    5.766E+00
     5.734E+00    5.703E+00    5.671E+00    5.640E+00    5.609E+00    5.579E+00    5.548E+00    5.518E+00    5.488E+00    5.458E+00
     5.428E+00    5.398E+00    5.369E+00    5.339E+00    5.310E+00    5.281E+00    5.253E+00    5.224E+00    5.196E+00    5.167E+00
     5.139E+00    5.111E+00    5.084E+00    5.056E+00    5.029E+00    5.001E+00    4.974E+00    4.947E+00    4.920E+00    4.894E+00
     4.867E+00    4.841E+00    4.814E+00    4.788E+00    4.762E+00    4.736E+00    4.711E+00    4.685E+00    4.660E+00    4.634E+00
     4.609E+00    4.584E+00    4.559E+00    4.535E+00    4.510E+00    4.485E+00    4.461E+00    4.437E+00    4.413E+00    4.389E+00
     4.365E+00    4.341E+00    4.317E+00    4.294E+00    4.270E+00    4.247E+00    4.224E+00    4.201E+00    4.178E+00    4.155E+00
     4.132E+00    4.110E+00    4.087E+00    4.065E+00    4.043E+00    4.021E+00    3.999E+00    3.977E+00    3.955E+00    3.934E+00
     3.912E+00    3.891E+00    3.869E+00    3.848E+00    3.827E+00    3.806E+00    3.785E+00    3.764E+00    3.744E+00    3.723E+00
     3.703E+00    3.682E+00    3.662E+00    3.642E+00    3.622E+00    3.602E+00    3.582E+00    3.562E+00    3.542E+00    3.523E+00
     3.503E+00    3.484E+00    3.465E+00    3.446E+00    3.427E+00    3.408E+00    3.389E+00    3.370E+00    3.351E+00    3.333E+00
     3.314E+00    3.296E+00    3.277E+00    3.259E+00    3.241E+00    3.223E+00    3.205E+00    3.187E+00    3.169E+00    3.151E+00
     3.134E+00    3.116E+00    3.099E+00    3.081E+00    3.064E+00    3.047E+00    3.030E+00    3.012E+00    2.995E+00    2.979E+00
     2.962E+00    2.945E+00    2.928E+00    2.912E+00    2.895E+00    2.879E+00    2.862E+00    2.846E+00    2.830E+00    2.813E+00
     2.797E+00    2.781E+00    2.765E+00    2.749E+00    2.734E+00    2.718E+00    2.702E+00    2.686E+00    2.671E+00    2.655E+00
     2.640E+00    2.625E+00    2.609E+00    2.594E+00    2.579E+00    2.564E+00    2.549E+00    2.533E+00    2.518E+00    2.504E+00
     2.489E+00    2.474E+00    2.459E+00    2.444E+00    2.430E+00    2.415E+00    2.400E+00    2.386E+00    2.371E+00    2.357E+00
     2.343E+00    2.328E+00    2.314E+00    2.300E+00    2.285E+00    2.271E+00    2.257E+00    2.243E+00    2.229E+00    2.215E+00
     2.201E+00    2.187E+00    2.173E+00    2.159E+00    2.145E+00    2.131E+00    2.118E+00    2.104E+00    2.090E+00    2.076E+00
     2.063E+00    2.049E+00    2.035E+00    2.022E+00    2.008E+00    1.995E+00    1.981E+00    1.968E+00    1.954E+00    1.941E+00
     1.928E+00    1.914E+00    1.901E+00    1.888E+00    1.874E+00    1.861E+00    1.848E+00    1.835E+00    1.822E+00    1.809E+00
     1.795E+00    1.782E+00    1.769E+00    1.756E+00    1.743E+00    1.730E+00    1.718E+00    1.705E+00    1.692E+00    1.679E+00
     1.666E+00    1.653E+00    1.641E+00    1.628E+00    1.615E+00    1.603E+00    1.590E+00    1.577E+00    1.565E+00    1.552E+00
     1.540E+00    1.527E+00    1.515E+00    1.502E+00    1.490E+00    1.477E+00    1.465E+00    1.453E+00    1.440E+00    1.428E+00
     1.416E+00    1.404E+00    1.391E+00    1.379E+00    1.367E+00    1.355E+00    1.343E+00    1.331E+00    1.319E+00    1.307E+00
     1.295E+00    1.283E+00    1.272E+00    1.260E+00    1.248E+00    1.236E+00    1.225E+00    1.213E+00    1.201E+00    1.190E+00
     1.178E+00    1.167E+00    1.156E+00    1.144E+00    1.133E+00    1.122E+00    1.110E+00    1.099E+00    1.088E+00    1.077E+00
     1.066E+00    1.055E+00    1.044E+00    1.033E+00    1.022E+00    1.011E+00    1.001E+00    9.899E-01
 Asp      Conc. = 4.26E+00
