 LCModel (Version 6.3-1L) Copyright: S.W. Provencher.          Ref.: Magn. Reson. Med. 30:672-679 (1993).                
 Slice#1 Row#6 Col#12  PD_05_press_1_raw_act
 36 lines in following concentration table = NCONC+1
    Conc.  %SD /Cr+PCr  Metabolite                                         
    0.000 999%   0.000 Ala                                                 
    2.601 999% 1.9E-02 Asp                                                 
    0.000 999%   0.000 Cr                                                  
  134.577  20%   1.000 PCr                                                 
   38.396 136%   0.285 GABA                                                
   54.288  94%   0.403 Glc                                                 
  268.906  72%   1.998 Gln                                                 
  847.707  26%   6.299 Glu                                                 
   37.205  30%   0.276 GPC                                                 
    0.000 999%   0.000 PCh                                                 
   40.863 108%   0.304 GSH                                                 
   86.264 158%   0.641 Ins                                                 
    0.000 999%   0.000 Lac                                                 
 1.28E+03   7%   9.484 NAA                                                 
   10.632 997% 7.9E-02 NAAG                                                
   33.728  36%   0.251 Scyllo                                              
   82.905  91%   0.616 Tau                                                 
    0.000 999%   0.000 -CrCH2                                              
   37.205  30%   0.276 GPC+PCh                                             
 1.29E+03   4%   9.563 NAA+NAAG                                            
  134.577  20%   1.000 Cr+PCr                                              
 1.12E+03  31%   8.297 Glu+Gln                                             
  745.902  29%   5.543 Lip13a                                              
    0.000 999%   0.000 Lip13b                                              
    0.000 999%   0.000 Lip09                                               
  965.046  10%   7.171 MM09                                                
  190.246  49%   1.414 Lip20                                               
 1.89E+03  10%  14.018 MM20                                                
  384.732  21%   2.859 MM12                                                
  662.856  26%   4.925 MM14                                                
  617.870  20%   4.591 MM17                                                
  745.902  29%   5.543 Lip13a+Lip13b                                       
 1.79E+03  10%  13.327 MM14+Lip13a+Lip13b+MM12                             
  965.046  10%   7.171 MM09+Lip09                                          
 2.08E+03   9%  15.431 MM20+Lip20                                          
   6 lines in following misc. output table
  FWHM = 0.076 ppm    S/N =  11                                            
  Data shift = 0.031 ppm                                                   
  Ph: -22 deg      -6.0 deg/ppm                                            
  alphaB,S = 8.5E+01,   4.1E+02                                            
   14 spline knots.   Ns =10(1)                                            
   2 inflections.     1 extrema                                            
  498 points on ppm-axis = NY
      4.000000     3.992357     3.984714     3.977070     3.969427     3.961784     3.954141     3.946497     3.938854     3.931211
      3.923568     3.915925     3.908281     3.900638     3.892995     3.885352     3.877708     3.870065     3.862422     3.854779
      3.847136     3.839492     3.831849     3.824206     3.816563     3.808919     3.801276     3.793633     3.785990     3.778347
      3.770703     3.763060     3.755417     3.747774     3.740130     3.732487     3.724844     3.717201     3.709558     3.701914
      3.694271     3.686628     3.678985     3.671341     3.663698     3.656055     3.648412     3.640769     3.633125     3.625482
      3.617839     3.610196     3.602552     3.594909     3.587266     3.579623     3.571980     3.564336     3.556693     3.549050
      3.541407     3.533763     3.526120     3.518477     3.510834     3.503191     3.495547     3.487904     3.480261     3.472618
      3.464974     3.457331     3.449688     3.442045     3.434402     3.426758     3.419115     3.411472     3.403829     3.396185
      3.388542     3.380899     3.373256     3.365613     3.357969     3.350326     3.342683     3.335040     3.327396     3.319753
      3.312110     3.304467     3.296824     3.289180     3.281537     3.273894     3.266251     3.258607     3.250964     3.243321
      3.235678     3.228034     3.220391     3.212748     3.205105     3.197462     3.189818     3.182175     3.174532     3.166889
      3.159245     3.151602     3.143959     3.136316     3.128673     3.121029     3.113386     3.105743     3.098100     3.090456
      3.082813     3.075170     3.067527     3.059884     3.052240     3.044597     3.036954     3.029311     3.021667     3.014024
      3.006381     2.998738     2.991095     2.983451     2.975808     2.968165     2.960522     2.952878     2.945235     2.937592
      2.929949     2.922306     2.914662     2.907019     2.899376     2.891733     2.884089     2.876446     2.868803     2.861160
      2.853517     2.845873     2.838230     2.830587     2.822944     2.815300     2.807657     2.800014     2.792371     2.784728
      2.777084     2.769441     2.761798     2.754155     2.746511     2.738868     2.731225     2.723582     2.715939     2.708295
      2.700652     2.693009     2.685366     2.677722     2.670079     2.662436     2.654793     2.647150     2.639506     2.631863
      2.624220     2.616577     2.608933     2.601290     2.593647     2.586004     2.578361     2.570717     2.563074     2.555431
      2.547788     2.540144     2.532501     2.524858     2.517215     2.509572     2.501928     2.494285     2.486642     2.478999
      2.471355     2.463712     2.456069     2.448426     2.440783     2.433139     2.425496     2.417853     2.410210     2.402566
      2.394923     2.387280     2.379637     2.371994     2.364350     2.356707     2.349064     2.341421     2.333777     2.326134
      2.318491     2.310848     2.303205     2.295561     2.287918     2.280275     2.272632     2.264988     2.257345     2.249702
      2.242059     2.234416     2.226772     2.219129     2.211486     2.203843     2.196199     2.188556     2.180913     2.173270
      2.165627     2.157983     2.150340     2.142697     2.135054     2.127410     2.119767     2.112124     2.104481     2.096838
      2.089194     2.081551     2.073908     2.066265     2.058621     2.050978     2.043335     2.035692     2.028049     2.020405
      2.012762     2.005119     1.997476     1.989833     1.982190     1.974546     1.966903     1.959260     1.951617     1.943974
      1.936331     1.928688     1.921045     1.913402     1.905759     1.898115     1.890472     1.882829     1.875186     1.867543
      1.859900     1.852257     1.844614     1.836971     1.829327     1.821684     1.814041     1.806398     1.798755     1.791112
      1.783469     1.775826     1.768183     1.760540     1.752896     1.745253     1.737610     1.729967     1.722324     1.714681
      1.707038     1.699395     1.691752     1.684108     1.676465     1.668822     1.661179     1.653536     1.645893     1.638250
      1.630607     1.622964     1.615321     1.607677     1.600034     1.592391     1.584748     1.577105     1.569462     1.561819
      1.554176     1.546533     1.538890     1.531246     1.523603     1.515960     1.508317     1.500674     1.493031     1.485388
      1.477745     1.470102     1.462458     1.454815     1.447172     1.439529     1.431886     1.424243     1.416600     1.408957
      1.401314     1.393671     1.386027     1.378384     1.370741     1.363098     1.355455     1.347812     1.340169     1.332526
      1.324883     1.317240     1.309596     1.301953     1.294310     1.286667     1.279024     1.271381     1.263738     1.256095
      1.248452     1.240808     1.233165     1.225522     1.217879     1.210236     1.202593     1.194950     1.187307     1.179664
      1.172021     1.164377     1.156734     1.149091     1.141448     1.133805     1.126162     1.118519     1.110876     1.103233
      1.095590     1.087946     1.080303     1.072660     1.065017     1.057374     1.049731     1.042088     1.034445     1.026802
      1.019158     1.011515     1.003872     0.996229     0.988586     0.980943     0.973300     0.965657     0.958014     0.950371
      0.942727     0.935084     0.927441     0.919798     0.912155     0.904512     0.896869     0.889226     0.881583     0.873940
      0.866296     0.858653     0.851010     0.843367     0.835724     0.828081     0.820438     0.812795     0.805152     0.797508
      0.789865     0.782222     0.774579     0.766936     0.759293     0.751650     0.744007     0.736364     0.728721     0.721077
      0.713434     0.705791     0.698148     0.690505     0.682862     0.675219     0.667576     0.659933     0.652290     0.644646
      0.637003     0.629360     0.621717     0.614074     0.606431     0.598788     0.591145     0.583502     0.575858     0.568215
      0.560572     0.552929     0.545286     0.537643     0.530000     0.522357     0.514714     0.507071     0.499427     0.491784
      0.484141     0.476498     0.468855     0.461212     0.453569     0.445925     0.438282     0.430639     0.422996     0.415353
      0.407710     0.400067     0.392424     0.384780     0.377137     0.369494     0.361851     0.354208     0.346565     0.338922
      0.331278     0.323635     0.315992     0.308349     0.300706     0.293063     0.285420     0.277777     0.270133     0.262490
      0.254847     0.247204     0.239561     0.231918     0.224275     0.216631     0.208988     0.201345
 NY phased data points follow
   1.07160E+00 -2.49519E-01  7.21606E-01  5.86353E-01 -9.30457E-01  1.60226E+00  3.67071E+00  1.09153E+00  2.26429E+00  3.02588E+00
   3.31520E+00  1.66127E+00  1.65889E+00  7.93764E-01  8.27664E-01 -1.62893E+00  1.54060E+00  9.06732E-01 -9.02575E-02 -3.68229E-01
   1.01506E-01 -5.01130E-01  6.77906E-02  1.00029E+00  1.39344E+00  6.21290E-01  4.52075E-01  4.11829E-02  1.17997E+00  2.47284E+00
   2.51978E+00  5.57234E-01 -2.16047E-01  1.26264E+00 -4.93040E-01 -4.27350E-01  1.57682E-01  1.70859E-01  3.07792E-01  1.11095E+00
   1.99068E+00 -3.58821E-01  4.13223E+00 -9.13397E-01  2.37987E+00  1.03676E+00 -8.03671E-01  6.70668E-01 -1.01630E+00 -3.91235E+00
   1.45947E+00 -7.67010E-01 -9.52772E-01  1.02758E+00  1.19494E+00  1.89181E-01  5.18063E-01  3.11278E-01  2.72800E+00 -1.30448E-01
  -8.57665E-02 -1.07499E+00 -1.50227E+00  3.66714E-02  8.34419E-01 -6.01938E-01 -2.47040E-01 -1.58278E+00  9.67155E-01  3.62111E-02
   2.66352E+00 -4.94687E-01 -9.62517E-01 -2.82885E-01 -7.42616E-01  9.20337E-02  5.70710E-01  1.74473E+00  3.65618E-01  9.74885E-01
   2.42824E-01 -1.73101E-01 -8.73179E-01  2.38259E+00  1.56928E+00  1.31188E+00  1.50866E+00  2.42709E+00  2.56448E+00  2.85426E-01
   1.35371E+00  1.23630E+00 -5.69574E-01  3.62997E-01 -3.18436E+00  3.37367E+00  2.67049E+00  6.13259E-01  3.80731E+00  6.00807E+00
   3.29554E+00  3.63883E+00  2.24681E+00  1.18449E+00 -1.43551E+00  4.72530E-01  3.62302E-01  3.10847E-01  4.08269E-01 -6.02182E-02
  -1.15031E+00  6.81555E-01 -3.71762E-01  3.26782E-01  4.59513E-01  2.06545E-01 -4.56590E-01  3.79871E-01 -1.19532E+00  1.23420E+00
  -1.57682E+00  5.69872E-01  2.63785E+00  5.69602E+00  5.47587E+00  7.41723E+00  5.05717E+00  2.66980E+00  9.30440E-01  2.93647E+00
   3.39082E-01  2.85335E+00  1.08940E+00  3.68710E+00  2.53703E+00  1.72769E+00 -9.71948E-01  2.05773E+00  1.50578E+00 -1.11178E+00
  -7.41530E-01  4.53406E-01 -1.97139E+00  7.42084E-01  1.18870E+00  1.20128E+00 -4.92477E-01 -6.78782E-01  2.40445E-01  7.96894E-02
   2.30925E+00  2.20483E+00  1.51731E+00  1.94308E+00  1.53064E+00 -1.17016E+00  2.72065E+00 -1.89049E-01  5.82007E-01 -1.60123E-01
   1.18826E+00 -9.91576E-02  1.78490E+00  2.67633E+00  1.44456E+00 -1.62552E+00 -8.45584E-01 -2.54242E+00 -2.19522E+00 -2.85630E+00
   1.70732E+00 -4.70002E+00 -4.59751E+00 -2.85456E+00 -3.97391E+00 -3.19030E+00 -3.43463E+00 -3.40131E+00 -4.70373E+00 -3.19501E+00
  -2.60505E+00 -1.54477E+00 -1.65662E+00 -2.17111E+00 -1.07998E+00  4.26798E-01  2.74756E-01  6.00146E-01 -1.22819E-02  7.31532E-01
   3.50445E-01 -4.13114E-01  2.13230E+00  1.40202E+00 -1.89239E+00 -2.52734E+00 -2.68101E+00 -3.31119E+00 -2.58295E+00 -1.24586E+00
  -1.74012E+00 -1.38353E+00  2.24386E+00 -4.46170E-01  1.29719E+00  2.61878E+00 -1.43740E-01 -2.11773E+00  7.03876E-01 -9.75358E-01
   7.77692E-01  2.58561E+00  3.98777E+00  3.84263E+00  4.17282E+00  5.91965E+00  4.32468E+00  3.89215E+00  2.72335E+00  1.34412E+00
   1.74227E-01  9.56041E-01 -8.37239E-01  1.65036E+00  5.43377E-02  3.00635E+00  3.84543E+00 -7.58104E-01  2.77778E+00  2.78860E+00
   3.30840E+00  3.03593E+00  2.32071E+00  3.97833E+00  3.24524E+00  5.35656E+00  4.79368E+00  4.18103E+00  3.99826E+00  4.74666E+00
   4.87597E+00  5.64024E+00  7.23871E+00  4.59776E+00  8.13332E+00  5.30135E+00  8.63456E+00  8.86670E+00  7.14289E+00  1.03333E+01
   1.32457E+01  1.24903E+01  1.10364E+01  1.65553E+01  1.93453E+01  1.98211E+01  2.49972E+01  3.69846E+01  3.69547E+01  4.04560E+01
   3.89745E+01  3.44131E+01  3.41349E+01  2.90924E+01  2.56587E+01  2.31072E+01  1.62177E+01  1.19542E+01  1.12812E+01  1.00410E+01
   7.08414E+00  5.17518E+00  8.30021E+00  3.13744E+00  1.84551E+00  4.79070E+00  4.74361E+00  1.89798E+00  2.82840E+00  1.18976E+00
   4.07886E+00  2.79168E+00  7.02931E-01  3.18516E+00  2.67254E+00  1.61537E-04  3.28136E+00  1.98533E+00  2.20005E+00  2.47512E+00
   1.80751E+00 -6.23799E-01  6.25168E-01  1.01274E+00  1.93915E+00  1.28445E+00  2.22146E+00  2.66355E+00 -2.50565E-01  5.17399E-01
   1.38404E+00  1.84863E+00  3.64275E+00  1.44990E+00  2.87395E+00  4.31935E+00  6.45251E+00  3.88026E+00  8.43853E+00  7.08766E+00
   6.72325E+00  6.92249E+00  3.44149E+00  6.49804E+00  5.20518E+00  4.45817E+00  4.94759E+00  5.54457E+00  8.87302E+00  6.09397E+00
   4.14221E+00  5.49961E+00  4.85287E+00  4.74281E+00  1.66698E+00  3.54179E+00  3.77167E+00  4.30251E+00  3.67838E+00  2.49898E+00
   3.98198E+00  2.93391E+00  3.80928E+00  6.88722E+00  7.05074E+00  6.14880E+00  6.57939E+00  5.37088E+00  3.10562E+00  5.24758E+00
   2.01629E+00  3.53895E+00  4.52589E+00  4.29367E+00  2.17754E+00  3.85859E+00  5.38568E+00  4.51855E+00  4.61561E+00  2.59777E+00
   4.19210E+00  6.40937E+00  4.42599E+00  3.79759E+00  7.16657E+00  5.20951E+00  4.48500E+00  5.25081E+00  2.75188E+00  3.08190E+00
   3.57054E+00  3.76764E+00  4.92381E+00  6.81801E+00  6.11117E+00  5.79180E+00  6.12050E+00  7.48444E+00  6.43157E+00  7.00313E+00
   5.72060E+00  6.68039E+00  6.36414E+00  3.79136E+00  4.89900E+00  4.05742E+00  2.50789E+00 -1.08235E-01  3.80088E+00  4.07056E+00
   3.13353E+00  3.69349E+00  2.41392E+00  2.23159E+00  3.40980E+00  3.58180E+00  2.33564E+00  1.16488E+00  1.68046E+00  5.16275E-02
   4.54411E+00  4.35505E+00  5.61812E+00  3.69591E+00  6.03149E+00  5.45803E+00  4.44842E+00  7.10041E+00  6.53975E+00  9.02810E+00
   7.22204E+00  7.43191E+00  4.59016E+00  7.26263E+00  6.03121E+00  9.06050E+00  4.97180E+00  6.95629E+00  4.49666E+00  3.37380E+00
   4.75128E+00  3.95085E+00  5.85425E+00  4.32344E+00  5.39521E+00  3.16229E+00  4.21762E+00  5.91100E+00  2.20852E+00  2.29668E+00
   3.58999E+00  1.76197E+00  1.95744E-01  1.60427E+00  3.58896E+00 -3.70189E-01 -6.33656E-01  5.68212E-01 -2.70481E-01 -1.78379E+00
   1.41838E-01  1.56868E-01  3.11720E-01 -1.80063E+00 -4.70448E-01 -1.54236E+00 -9.02408E-01  1.00947E+00  2.21948E-01 -8.85234E-01
  -2.42500E+00 -2.69828E+00 -2.88020E-01  1.37479E+00 -1.24826E+00  1.32153E+00  1.02862E+00 -2.13211E+00 -1.37060E-01 -1.42791E+00
   1.71673E+00 -2.03767E-01 -1.42429E+00 -1.90977E+00 -1.69929E+00 -8.19124E-01 -3.56652E-01 -4.67247E+00  8.55265E-01  2.16217E+00
   5.15262E-01 -3.32386E+00 -1.22374E+00 -1.80083E+00  5.75406E-01  5.15694E-01 -4.17538E-02 -3.66292E-01 -2.31965E-01  8.47204E-01
  -2.16382E+00  4.20837E-01 -1.38582E+00 -6.70647E-01 -1.40529E+00  5.81758E-01 -3.91817E-01  6.92511E-01  5.81220E-02  1.33842E+00
   6.11755E-01  2.13120E+00  2.14171E+00 -1.15977E+00 -3.31523E+00  1.56633E+00  2.21030E+00  3.31701E-01  1.19419E+00 -1.49693E+00
  -2.58143E-01  2.47440E-01 -1.39126E+00 -1.29707E+00  1.36580E+00  1.14101E+00  9.25994E-01 -1.52083E+00
 NY points of the fit to the data follow
  -1.98429E-01 -1.37317E-02  2.39206E-01  5.53490E-01  9.09173E-01  1.26380E+00  1.55901E+00  1.74974E+00  1.81850E+00  1.77310E+00
   1.63865E+00  1.44516E+00  1.22090E+00  9.90394E-01  7.76155E-01  6.01296E-01  4.77504E-01  4.04768E-01  3.63860E-01  3.34235E-01
   3.20665E-01  3.21803E-01  3.15473E-01  3.00850E-01  2.94763E-01  3.32371E-01  4.40776E-01  6.30793E-01  8.86328E-01  1.15789E+00
   1.38142E+00  1.50333E+00  1.48807E+00  1.33753E+00  1.08822E+00  7.98642E-01  5.32655E-01  3.38343E-01  2.33270E-01  2.09333E-01
   2.35360E-01  2.86971E-01  3.56463E-01  4.27999E-01  4.91555E-01  5.39076E-01  5.60726E-01  5.52998E-01  5.08128E-01  4.29591E-01
   3.26661E-01  2.11543E-01  1.02994E-01  1.70597E-02 -4.50834E-02 -8.63624E-02 -1.11662E-01 -1.25650E-01 -1.34014E-01 -1.38901E-01
  -1.41874E-01 -1.44933E-01 -1.48485E-01 -1.52677E-01 -1.57850E-01 -1.60226E-01 -1.53747E-01 -1.35779E-01 -1.05398E-01 -6.45073E-02
  -1.74568E-02  3.07344E-02  7.28149E-02  9.93720E-02  1.04117E-01  9.04810E-02  8.32784E-02  1.07129E-01  1.70874E-01  2.80189E-01
   4.34292E-01  6.26016E-01  8.33409E-01  1.01859E+00  1.14244E+00  1.18136E+00  1.13508E+00  1.02222E+00  8.65776E-01  6.85043E-01
   4.96515E-01  3.23720E-01  2.16713E-01  2.15579E-01  3.23588E-01  5.33660E-01  8.33047E-01  1.20693E+00  1.62681E+00  2.02165E+00
   2.31096E+00  2.45475E+00  2.45210E+00  2.32947E+00  2.12292E+00  1.86485E+00  1.58224E+00  1.29875E+00  1.03800E+00  8.18677E-01
   6.45167E-01  5.09469E-01  4.02892E-01  3.32482E-01  3.16572E-01  3.47147E-01  4.23182E-01  5.84532E-01  8.38517E-01  1.18911E+00
   1.64059E+00  2.18402E+00  2.78531E+00  3.37464E+00  3.86445E+00  4.18708E+00  4.31696E+00  4.26698E+00  4.07155E+00  3.77044E+00
   3.40059E+00  2.99475E+00  2.58723E+00  2.21195E+00  1.88884E+00  1.61784E+00  1.39262E+00  1.21603E+00  1.10342E+00  1.05298E+00
   1.02177E+00  9.89499E-01  9.51375E-01  9.06380E-01  8.55089E-01  7.99567E-01  7.41727E-01  6.82253E-01  6.23387E-01  5.67253E-01
   5.14224E-01  4.55803E-01  3.83987E-01  2.97672E-01  1.97166E-01  8.82273E-02 -2.77239E-02 -1.48945E-01 -2.59368E-01 -3.41000E-01
  -3.87734E-01 -4.12465E-01 -4.42366E-01 -5.01693E-01 -6.00661E-01 -7.37919E-01 -9.10807E-01 -1.11784E+00 -1.34362E+00 -1.57410E+00
  -1.79599E+00 -2.00136E+00 -2.18305E+00 -2.32942E+00 -2.42772E+00 -2.47394E+00 -2.48006E+00 -2.46563E+00 -2.44493E+00 -2.41179E+00
  -2.35630E+00 -2.27308E+00 -2.15800E+00 -2.00132E+00 -1.78699E+00 -1.50463E+00 -1.16687E+00 -8.03894E-01 -4.58799E-01 -1.58157E-01
   1.00109E-01  3.15102E-01  4.83897E-01  6.04934E-01  6.98800E-01  7.99140E-01  9.32183E-01  1.11049E+00  1.32228E+00  1.54197E+00
   1.72393E+00  1.82485E+00  1.80053E+00  1.61262E+00  1.26191E+00  7.98989E-01  3.18233E-01 -5.68955E-02 -2.49054E-01 -2.05587E-01
   8.29902E-02  5.75727E-01  1.16634E+00  1.69057E+00  2.00329E+00  2.03821E+00  1.79575E+00  1.32905E+00  7.46972E-01  1.88328E-01
  -2.12052E-01 -3.62155E-01 -2.46222E-01  1.10737E-01  6.35520E-01  1.22180E+00  1.79282E+00  2.32285E+00  2.80870E+00  3.24231E+00
   3.60133E+00  3.90551E+00  4.18562E+00  4.44549E+00  4.66937E+00  4.84817E+00  4.99919E+00  5.13745E+00  5.26068E+00  5.38002E+00
   5.52267E+00  5.70793E+00  5.93848E+00  6.20656E+00  6.50356E+00  6.82292E+00  7.15797E+00  7.50250E+00  7.86521E+00  8.30302E+00
   9.08728E+00  1.05981E+01  1.28636E+01  1.58858E+01  1.96546E+01  2.40624E+01  2.87815E+01  3.31675E+01  3.64460E+01  3.80778E+01
   3.79272E+01  3.62103E+01  3.33191E+01  2.96668E+01  2.56280E+01  2.15209E+01  1.76328E+01  1.42050E+01  1.13280E+01  8.92311E+00
   6.89105E+00  5.26192E+00  4.21229E+00  3.72507E+00  3.43277E+00  3.18988E+00  2.96718E+00  2.75435E+00  2.54443E+00  2.34209E+00
   2.15311E+00  1.98044E+00  1.82587E+00  1.68987E+00  1.57102E+00  1.46982E+00  1.38889E+00  1.32899E+00  1.28920E+00  1.26921E+00
   1.26955E+00  1.29147E+00  1.33638E+00  1.40542E+00  1.50092E+00  1.62515E+00  1.77949E+00  1.96484E+00  2.18124E+00  2.42735E+00
   2.70045E+00  2.99653E+00  3.31034E+00  3.63532E+00  3.96387E+00  4.28770E+00  4.59795E+00  4.88584E+00  5.14306E+00  5.36226E+00
   5.53753E+00  5.66477E+00  5.74193E+00  5.76917E+00  5.74884E+00  5.68544E+00  5.58523E+00  5.45573E+00  5.30530E+00  5.14258E+00
   4.97601E+00  4.81341E+00  4.66149E+00  4.52559E+00  4.40950E+00  4.31546E+00  4.24420E+00  4.19513E+00  4.16655E+00  4.15591E+00
   4.16009E+00  4.17573E+00  4.19951E+00  4.22838E+00  4.25967E+00  4.29127E+00  4.32167E+00  4.35004E+00  4.37614E+00  4.40032E+00
   4.42334E+00  4.44627E+00  4.47040E+00  4.49710E+00  4.52768E+00  4.56327E+00  4.60467E+00  4.65233E+00  4.70626E+00  4.76601E+00
   4.83067E+00  4.89887E+00  4.96877E+00  5.03823E+00  5.10479E+00  5.16585E+00  5.21871E+00  5.26069E+00  5.28924E+00  5.30206E+00
   5.29722E+00  5.27324E+00  5.22911E+00  5.16442E+00  5.07933E+00  4.97464E+00  4.85177E+00  4.71270E+00  4.55992E+00  4.39635E+00
   4.22528E+00  4.05027E+00  3.87503E+00  3.70334E+00  3.53896E+00  3.38549E+00  3.24641E+00  3.12497E+00  3.02414E+00  2.94662E+00
   2.89478E+00  2.87066E+00  2.87602E+00  2.91222E+00  2.98027E+00  3.08071E+00  3.21358E+00  3.37835E+00  3.57385E+00  3.79814E+00
   4.04844E+00  4.32103E+00  4.61129E+00  4.91362E+00  5.22160E+00  5.52798E+00  5.82497E+00  6.10441E+00  6.35808E+00  6.57808E+00
   6.75710E+00  6.88883E+00  6.96820E+00  6.99167E+00  6.95744E+00  6.86553E+00  6.71776E+00  6.51765E+00  6.27022E+00  5.98173E+00
   5.65938E+00  5.31095E+00  4.94439E+00  4.56752E+00  4.18773E+00  3.81170E+00  3.44526E+00  3.09323E+00  2.75940E+00  2.44649E+00
   2.15627E+00  1.88963E+00  1.64672E+00  1.42704E+00  1.22963E+00  1.05315E+00  8.96055E-01  7.56685E-01  6.33330E-01  5.24304E-01
   4.27989E-01  3.42875E-01  2.67586E-01  2.00890E-01  1.41687E-01  8.90012E-02  4.19768E-02 -1.23742E-04 -3.79298E-02 -7.19803E-02
  -1.02744E-01 -1.30628E-01 -1.55985E-01 -1.79109E-01 -2.00250E-01 -2.19624E-01 -2.37423E-01 -2.53819E-01 -2.68960E-01 -2.82966E-01
  -2.95942E-01 -3.07980E-01 -3.19173E-01 -3.29600E-01 -3.39330E-01 -3.48416E-01 -3.56906E-01 -3.64849E-01 -3.72295E-01 -3.79286E-01
  -3.85854E-01 -3.92023E-01 -3.97819E-01 -4.03272E-01 -4.08413E-01 -4.13263E-01 -4.17837E-01 -4.22146E-01 -4.26209E-01 -4.30044E-01
  -4.33669E-01 -4.37095E-01 -4.40327E-01 -4.43371E-01 -4.46242E-01 -4.48953E-01 -4.51514E-01 -4.53930E-01 -4.56200E-01 -4.58331E-01
  -4.60333E-01 -4.62216E-01 -4.63984E-01 -4.65635E-01 -4.67167E-01 -4.68587E-01 -4.69904E-01 -4.71120E-01 -4.72234E-01 -4.73242E-01
  -4.74141E-01 -4.74936E-01 -4.75631E-01 -4.76224E-01 -4.76705E-01 -4.77067E-01 -4.77304E-01 -4.77416E-01
 NY background values follow
    -5.933E-01   -5.930E-01   -5.926E-01   -5.923E-01   -5.919E-01   -5.915E-01   -5.912E-01   -5.908E-01   -5.905E-01   -5.901E-01
    -5.897E-01   -5.894E-01   -5.890E-01   -5.887E-01   -5.883E-01   -5.879E-01   -5.876E-01   -5.872E-01   -5.869E-01   -5.865E-01
    -5.861E-01   -5.858E-01   -5.854E-01   -5.851E-01   -5.847E-01   -5.843E-01   -5.840E-01   -5.836E-01   -5.833E-01   -5.829E-01
    -5.825E-01   -5.822E-01   -5.818E-01   -5.814E-01   -5.811E-01   -5.807E-01   -5.804E-01   -5.800E-01   -5.796E-01   -5.793E-01
    -5.789E-01   -5.785E-01   -5.782E-01   -5.778E-01   -5.775E-01   -5.771E-01   -5.767E-01   -5.764E-01   -5.760E-01   -5.756E-01
    -5.753E-01   -5.749E-01   -5.745E-01   -5.742E-01   -5.738E-01   -5.735E-01   -5.731E-01   -5.727E-01   -5.724E-01   -5.720E-01
    -5.716E-01   -5.713E-01   -5.709E-01   -5.705E-01   -5.702E-01   -5.698E-01   -5.694E-01   -5.691E-01   -5.687E-01   -5.683E-01
    -5.680E-01   -5.676E-01   -5.672E-01   -5.669E-01   -5.665E-01   -5.661E-01   -5.658E-01   -5.654E-01   -5.650E-01   -5.647E-01
    -5.643E-01   -5.639E-01   -5.636E-01   -5.632E-01   -5.628E-01   -5.625E-01   -5.621E-01   -5.617E-01   -5.614E-01   -5.610E-01
    -5.606E-01   -5.603E-01   -5.599E-01   -5.595E-01   -5.592E-01   -5.588E-01   -5.584E-01   -5.581E-01   -5.577E-01   -5.573E-01
    -5.569E-01   -5.566E-01   -5.562E-01   -5.558E-01   -5.555E-01   -5.551E-01   -5.547E-01   -5.544E-01   -5.540E-01   -5.536E-01
    -5.532E-01   -5.529E-01   -5.525E-01   -5.521E-01   -5.518E-01   -5.514E-01   -5.510E-01   -5.507E-01   -5.503E-01   -5.499E-01
    -5.495E-01   -5.492E-01   -5.488E-01   -5.484E-01   -5.481E-01   -5.477E-01   -5.473E-01   -5.469E-01   -5.466E-01   -5.462E-01
    -5.458E-01   -5.454E-01   -5.451E-01   -5.447E-01   -5.443E-01   -5.440E-01   -5.436E-01   -5.432E-01   -5.428E-01   -5.425E-01
    -5.421E-01   -5.417E-01   -5.413E-01   -5.410E-01   -5.406E-01   -5.402E-01   -5.399E-01   -5.395E-01   -5.391E-01   -5.387E-01
    -5.384E-01   -5.380E-01   -5.376E-01   -5.372E-01   -5.369E-01   -5.365E-01   -5.361E-01   -5.357E-01   -5.354E-01   -5.350E-01
    -5.346E-01   -5.342E-01   -5.339E-01   -5.335E-01   -5.331E-01   -5.327E-01   -5.324E-01   -5.320E-01   -5.316E-01   -5.312E-01
    -5.308E-01   -5.305E-01   -5.301E-01   -5.297E-01   -5.293E-01   -5.290E-01   -5.286E-01   -5.282E-01   -5.278E-01   -5.275E-01
    -5.271E-01   -5.267E-01   -5.263E-01   -5.260E-01   -5.256E-01   -5.252E-01   -5.248E-01   -5.244E-01   -5.241E-01   -5.237E-01
    -5.233E-01   -5.229E-01   -5.226E-01   -5.222E-01   -5.218E-01   -5.214E-01   -5.210E-01   -5.207E-01   -5.203E-01   -5.199E-01
    -5.195E-01   -5.191E-01   -5.188E-01   -5.184E-01   -5.180E-01   -5.176E-01   -5.172E-01   -5.169E-01   -5.165E-01   -5.161E-01
    -5.157E-01   -5.153E-01   -5.150E-01   -5.146E-01   -5.142E-01   -5.138E-01   -5.134E-01   -5.131E-01   -5.127E-01   -5.123E-01
    -5.119E-01   -5.115E-01   -5.112E-01   -5.108E-01   -5.104E-01   -5.100E-01   -5.096E-01   -5.093E-01   -5.089E-01   -5.085E-01
    -5.081E-01   -5.077E-01   -5.074E-01   -5.070E-01   -5.066E-01   -5.062E-01   -5.058E-01   -5.054E-01   -5.051E-01   -5.047E-01
    -5.043E-01   -5.039E-01   -5.035E-01   -5.032E-01   -5.028E-01   -5.024E-01   -5.020E-01   -5.016E-01   -5.012E-01   -5.009E-01
    -5.005E-01   -5.001E-01   -4.997E-01   -4.993E-01   -4.989E-01   -4.986E-01   -4.982E-01   -4.978E-01   -4.974E-01   -4.970E-01
    -4.966E-01   -4.963E-01   -4.959E-01   -4.955E-01   -4.951E-01   -4.947E-01   -4.943E-01   -4.940E-01   -4.936E-01   -4.932E-01
    -4.928E-01   -4.924E-01   -4.920E-01   -4.917E-01   -4.913E-01   -4.909E-01   -4.905E-01   -4.901E-01   -4.897E-01   -4.893E-01
    -4.890E-01   -4.886E-01   -4.882E-01   -4.878E-01   -4.874E-01   -4.870E-01   -4.866E-01   -4.863E-01   -4.859E-01   -4.855E-01
    -4.851E-01   -4.847E-01   -4.843E-01   -4.839E-01   -4.836E-01   -4.832E-01   -4.828E-01   -4.824E-01   -4.820E-01   -4.816E-01
    -4.812E-01   -4.809E-01   -4.805E-01   -4.801E-01   -4.797E-01   -4.793E-01   -4.789E-01   -4.785E-01   -4.782E-01   -4.778E-01
    -4.774E-01   -4.770E-01   -4.766E-01   -4.762E-01   -4.758E-01   -4.754E-01   -4.751E-01   -4.747E-01   -4.743E-01   -4.739E-01
    -4.735E-01   -4.731E-01   -4.727E-01   -4.723E-01   -4.720E-01   -4.716E-01   -4.712E-01   -4.708E-01   -4.704E-01   -4.700E-01
    -4.696E-01   -4.692E-01   -4.689E-01   -4.685E-01   -4.681E-01   -4.677E-01   -4.673E-01   -4.669E-01   -4.665E-01   -4.661E-01
    -4.657E-01   -4.654E-01   -4.650E-01   -4.646E-01   -4.642E-01   -4.638E-01   -4.634E-01   -4.630E-01   -4.626E-01   -4.622E-01
    -4.619E-01   -4.615E-01   -4.611E-01   -4.607E-01   -4.603E-01   -4.599E-01   -4.595E-01   -4.591E-01   -4.587E-01   -4.584E-01
    -4.580E-01   -4.576E-01   -4.572E-01   -4.568E-01   -4.564E-01   -4.560E-01   -4.556E-01   -4.552E-01   -4.548E-01   -4.545E-01
    -4.541E-01   -4.537E-01   -4.533E-01   -4.529E-01   -4.525E-01   -4.521E-01   -4.517E-01   -4.513E-01   -4.509E-01   -4.505E-01
    -4.502E-01   -4.498E-01   -4.494E-01   -4.490E-01   -4.486E-01   -4.482E-01   -4.478E-01   -4.474E-01   -4.470E-01   -4.466E-01
    -4.462E-01   -4.458E-01   -4.455E-01   -4.451E-01   -4.447E-01   -4.443E-01   -4.439E-01   -4.435E-01   -4.431E-01   -4.427E-01
    -4.423E-01   -4.419E-01   -4.415E-01   -4.411E-01   -4.408E-01   -4.404E-01   -4.400E-01   -4.396E-01   -4.392E-01   -4.388E-01
    -4.384E-01   -4.380E-01   -4.376E-01   -4.372E-01   -4.368E-01   -4.364E-01   -4.360E-01   -4.357E-01   -4.353E-01   -4.349E-01
    -4.345E-01   -4.341E-01   -4.337E-01   -4.333E-01   -4.329E-01   -4.325E-01   -4.321E-01   -4.317E-01   -4.313E-01   -4.309E-01
    -4.305E-01   -4.301E-01   -4.298E-01   -4.294E-01   -4.290E-01   -4.286E-01   -4.282E-01   -4.278E-01   -4.274E-01   -4.270E-01
    -4.266E-01   -4.262E-01   -4.258E-01   -4.254E-01   -4.250E-01   -4.246E-01   -4.242E-01   -4.238E-01   -4.234E-01   -4.231E-01
    -4.227E-01   -4.223E-01   -4.219E-01   -4.215E-01   -4.211E-01   -4.207E-01   -4.203E-01   -4.199E-01   -4.195E-01   -4.191E-01
    -4.187E-01   -4.183E-01   -4.179E-01   -4.175E-01   -4.171E-01   -4.167E-01   -4.163E-01   -4.159E-01   -4.156E-01   -4.152E-01
    -4.148E-01   -4.144E-01   -4.140E-01   -4.136E-01   -4.132E-01   -4.128E-01   -4.124E-01   -4.120E-01   -4.116E-01   -4.112E-01
    -4.108E-01   -4.104E-01   -4.100E-01   -4.096E-01   -4.092E-01   -4.088E-01   -4.084E-01   -4.080E-01   -4.076E-01   -4.072E-01
    -4.068E-01   -4.065E-01   -4.061E-01   -4.057E-01   -4.053E-01   -4.049E-01   -4.045E-01   -4.041E-01
 Asp      Conc. = 2.60E+00
