 LCModel (Version 6.3-1L) Copyright: S.W. Provencher.          Ref.: Magn. Reson. Med. 30:672-679 (1993).                
 Slice#1 Row#3 Col#2  PD_05_press_1_raw_act
 36 lines in following concentration table = NCONC+1
    Conc.  %SD /Cr+PCr  Metabolite                                         
   13.507 404%   0.164 Ala                                                 
   11.054  80%   0.134 Asp                                                 
    0.000 999%   0.000 Cr                                                  
   82.260  29%   1.000 PCr                                                 
    6.709  79% 8.2E-02 GABA                                                
    6.460  82% 7.9E-02 Glc                                                 
   30.959 357%   0.376 Gln                                                 
    0.000 999%   0.000 Glu                                                 
   16.430  54%   0.200 GPC                                                 
    0.000 999%   0.000 PCh                                                 
   63.770  54%   0.775 GSH                                                 
  113.419  96%   1.379 Ins                                                 
    0.000 999%   0.000 Lac                                                 
   85.243  29%   1.036 NAA                                                 
    0.000 999%   0.000 NAAG                                                
    1.985  90% 2.4E-02 Scyllo                                              
    9.270  95%   0.113 Tau                                                 
    0.000 999%   0.000 -CrCH2                                              
   16.430  54%   0.200 GPC+PCh                                             
   85.243  29%   1.036 NAA+NAAG                                            
   82.260  29%   1.000 Cr+PCr                                              
   30.959 357%   0.376 Glu+Gln                                             
  789.495  19%   9.598 Lip13a                                              
    0.000 999%   0.000 Lip13b                                              
  210.532  19%   2.559 Lip09                                               
    0.000 999%   0.000 MM09                                                
  118.419  19%   1.440 Lip20                                               
    0.000 999%   0.000 MM20                                                
    0.879 999% 1.1E-02 MM12                                                
   40.672 141%   0.494 MM14                                                
    0.000 999%   0.000 MM17                                                
  789.495  19%   9.598 Lip13a+Lip13b                                       
  831.046  18%  10.103 MM14+Lip13a+Lip13b+MM12                             
  210.532  19%   2.559 MM09+Lip09                                          
  118.419  19%   1.440 MM20+Lip20                                          
   6 lines in following misc. output table
  FWHM = 0.069 ppm    S/N =   1                                            
  Data shift = 0.000 ppm                                                   
  Ph: 101 deg      -4.0 deg/ppm                                            
  alphaB,S = 7.5E-01,   4.6E+01                                            
   14 spline knots.   Ns = 8(1)                                            
  ( 9) 2 infls.   ( 9) 1 extrs.                                            
  498 points on ppm-axis = NY
      4.000000     3.992357     3.984714     3.977070     3.969427     3.961784     3.954141     3.946497     3.938854     3.931211
      3.923568     3.915925     3.908281     3.900638     3.892995     3.885352     3.877708     3.870065     3.862422     3.854779
      3.847136     3.839492     3.831849     3.824206     3.816563     3.808919     3.801276     3.793633     3.785990     3.778347
      3.770703     3.763060     3.755417     3.747774     3.740130     3.732487     3.724844     3.717201     3.709558     3.701914
      3.694271     3.686628     3.678985     3.671341     3.663698     3.656055     3.648412     3.640769     3.633125     3.625482
      3.617839     3.610196     3.602552     3.594909     3.587266     3.579623     3.571980     3.564336     3.556693     3.549050
      3.541407     3.533763     3.526120     3.518477     3.510834     3.503191     3.495547     3.487904     3.480261     3.472618
      3.464974     3.457331     3.449688     3.442045     3.434402     3.426758     3.419115     3.411472     3.403829     3.396185
      3.388542     3.380899     3.373256     3.365613     3.357969     3.350326     3.342683     3.335040     3.327396     3.319753
      3.312110     3.304467     3.296824     3.289180     3.281537     3.273894     3.266251     3.258607     3.250964     3.243321
      3.235678     3.228034     3.220391     3.212748     3.205105     3.197462     3.189818     3.182175     3.174532     3.166889
      3.159245     3.151602     3.143959     3.136316     3.128673     3.121029     3.113386     3.105743     3.098100     3.090456
      3.082813     3.075170     3.067527     3.059884     3.052240     3.044597     3.036954     3.029311     3.021667     3.014024
      3.006381     2.998738     2.991095     2.983451     2.975808     2.968165     2.960522     2.952878     2.945235     2.937592
      2.929949     2.922306     2.914662     2.907019     2.899376     2.891733     2.884089     2.876446     2.868803     2.861160
      2.853517     2.845873     2.838230     2.830587     2.822944     2.815300     2.807657     2.800014     2.792371     2.784728
      2.777084     2.769441     2.761798     2.754155     2.746511     2.738868     2.731225     2.723582     2.715939     2.708295
      2.700652     2.693009     2.685366     2.677722     2.670079     2.662436     2.654793     2.647150     2.639506     2.631863
      2.624220     2.616577     2.608933     2.601290     2.593647     2.586004     2.578361     2.570717     2.563074     2.555431
      2.547788     2.540144     2.532501     2.524858     2.517215     2.509572     2.501928     2.494285     2.486642     2.478999
      2.471355     2.463712     2.456069     2.448426     2.440783     2.433139     2.425496     2.417853     2.410210     2.402566
      2.394923     2.387280     2.379637     2.371994     2.364350     2.356707     2.349064     2.341421     2.333777     2.326134
      2.318491     2.310848     2.303205     2.295561     2.287918     2.280275     2.272632     2.264988     2.257345     2.249702
      2.242059     2.234416     2.226772     2.219129     2.211486     2.203843     2.196199     2.188556     2.180913     2.173270
      2.165627     2.157983     2.150340     2.142697     2.135054     2.127410     2.119767     2.112124     2.104481     2.096838
      2.089194     2.081551     2.073908     2.066265     2.058621     2.050978     2.043335     2.035692     2.028049     2.020405
      2.012762     2.005119     1.997476     1.989833     1.982190     1.974546     1.966903     1.959260     1.951617     1.943974
      1.936331     1.928688     1.921045     1.913402     1.905759     1.898115     1.890472     1.882829     1.875186     1.867543
      1.859900     1.852257     1.844614     1.836971     1.829327     1.821684     1.814041     1.806398     1.798755     1.791112
      1.783469     1.775826     1.768183     1.760540     1.752896     1.745253     1.737610     1.729967     1.722324     1.714681
      1.707038     1.699395     1.691752     1.684108     1.676465     1.668822     1.661179     1.653536     1.645893     1.638250
      1.630607     1.622964     1.615321     1.607677     1.600034     1.592391     1.584748     1.577105     1.569462     1.561819
      1.554176     1.546533     1.538890     1.531246     1.523603     1.515960     1.508317     1.500674     1.493031     1.485388
      1.477745     1.470102     1.462458     1.454815     1.447172     1.439529     1.431886     1.424243     1.416600     1.408957
      1.401314     1.393671     1.386027     1.378384     1.370741     1.363098     1.355455     1.347812     1.340169     1.332526
      1.324883     1.317240     1.309596     1.301953     1.294310     1.286667     1.279024     1.271381     1.263738     1.256095
      1.248452     1.240808     1.233165     1.225522     1.217879     1.210236     1.202593     1.194950     1.187307     1.179664
      1.172021     1.164377     1.156734     1.149091     1.141448     1.133805     1.126162     1.118519     1.110876     1.103233
      1.095590     1.087946     1.080303     1.072660     1.065017     1.057374     1.049731     1.042088     1.034445     1.026802
      1.019158     1.011515     1.003872     0.996229     0.988586     0.980943     0.973300     0.965657     0.958014     0.950371
      0.942727     0.935084     0.927441     0.919798     0.912155     0.904512     0.896869     0.889226     0.881583     0.873940
      0.866296     0.858653     0.851010     0.843367     0.835724     0.828081     0.820438     0.812795     0.805152     0.797508
      0.789865     0.782222     0.774579     0.766936     0.759293     0.751650     0.744007     0.736364     0.728721     0.721077
      0.713434     0.705791     0.698148     0.690505     0.682862     0.675219     0.667576     0.659933     0.652290     0.644646
      0.637003     0.629360     0.621717     0.614074     0.606431     0.598788     0.591145     0.583502     0.575858     0.568215
      0.560572     0.552929     0.545286     0.537643     0.530000     0.522357     0.514714     0.507071     0.499427     0.491784
      0.484141     0.476498     0.468855     0.461212     0.453569     0.445925     0.438282     0.430639     0.422996     0.415353
      0.407710     0.400067     0.392424     0.384780     0.377137     0.369494     0.361851     0.354208     0.346565     0.338922
      0.331278     0.323635     0.315992     0.308349     0.300706     0.293063     0.285420     0.277777     0.270133     0.262490
      0.254847     0.247204     0.239561     0.231918     0.224275     0.216631     0.208988     0.201345
 NY phased data points follow
   1.94683E+01  2.14424E+01  1.95308E+01  1.99424E+01  2.07704E+01  2.17924E+01  1.97139E+01  1.90458E+01  1.90107E+01  2.15303E+01
   1.67074E+01  1.93864E+01  1.82065E+01  1.75027E+01  1.63333E+01  1.84836E+01  1.69635E+01  1.73519E+01  1.78640E+01  1.70913E+01
   1.63597E+01  1.89612E+01  1.36030E+01  1.41434E+01  1.34196E+01  1.60433E+01  1.48471E+01  1.46325E+01  1.51873E+01  1.73623E+01
   1.47293E+01  1.49678E+01  1.56090E+01  1.55922E+01  1.30084E+01  1.33772E+01  1.40540E+01  1.25049E+01  1.27415E+01  1.19088E+01
   1.29863E+01  1.23020E+01  1.36154E+01  1.26373E+01  1.22831E+01  1.21446E+01  1.20730E+01  1.26143E+01  1.36298E+01  1.18786E+01
   1.35479E+01  1.33655E+01  1.03264E+01  1.24613E+01  1.10047E+01  1.02484E+01  1.15799E+01  1.06526E+01  1.00367E+01  1.20117E+01
   1.08533E+01  1.13167E+01  1.09676E+01  9.46190E+00  1.10490E+01  1.08243E+01  9.87372E+00  1.11410E+01  1.14503E+01  1.03672E+01
   1.20475E+01  1.07974E+01  1.28284E+01  9.74426E+00  1.12119E+01  1.16068E+01  9.56190E+00  1.28410E+01  9.77633E+00  1.12669E+01
   8.41404E+00  8.07547E+00  9.36181E+00  9.36839E+00  1.17199E+01  9.60480E+00  8.80064E+00  9.02524E+00  8.27290E+00  9.94809E+00
   8.50888E+00  8.59744E+00  1.00257E+01  1.12015E+01  8.33550E+00  6.54981E+00  5.11687E+00  8.78020E+00  9.65324E+00  7.22658E+00
   9.11512E+00  1.01894E+01  9.69466E+00  1.04880E+01  8.68441E+00  1.01790E+01  1.02608E+01  9.88433E+00  9.44025E+00  9.00677E+00
   8.79406E+00  8.71533E+00  8.60162E+00  8.67486E+00  8.30113E+00  1.01721E+01  5.56960E+00  8.05661E+00  8.06653E+00  7.42845E+00
   7.42824E+00  5.03527E+00  4.41128E+00  7.80212E+00  7.26216E+00  5.61042E+00  7.97925E+00  9.04387E+00  8.84250E+00  9.80380E+00
   7.01989E+00  1.05850E+01  8.23956E+00  9.04694E+00  8.90963E+00  5.82809E+00  6.08427E+00  8.69353E+00  8.06805E+00  6.09597E+00
   8.37143E+00  4.62192E+00  5.63976E+00  5.44904E+00  8.43978E+00  7.37132E+00  5.87428E+00  5.44762E+00  4.84263E+00  6.27295E+00
   5.97789E+00  6.70749E+00  5.57451E+00  5.38623E+00  4.71686E+00  6.12692E+00  8.50930E+00  8.66284E+00  4.95433E+00  6.71580E+00
   7.23471E+00  4.24545E+00  6.98748E+00  8.00776E+00  6.57414E+00  5.47005E+00  4.59753E+00  4.35307E+00  3.90023E+00  6.46774E+00
   5.48323E+00  4.35641E+00  4.56355E+00  4.57521E+00  5.53512E+00  6.54820E+00  6.74111E+00  6.89287E+00  7.79958E+00  5.44969E+00
   6.17445E+00  6.36314E+00  6.02824E+00  4.82059E+00  7.47695E+00  6.11846E+00  4.48881E+00  4.02132E+00  5.21295E+00  5.27190E+00
   2.52975E+00  3.05779E+00  5.58459E+00  5.44201E+00  4.43883E+00  6.50571E+00  5.81272E+00  5.00872E+00  6.99455E+00  4.34717E+00
   3.60261E+00  3.72285E+00  5.40128E+00  4.81896E+00  3.72733E+00  7.48928E+00  6.45952E+00  5.56083E+00  5.18383E+00  4.80656E+00
   8.35307E+00  4.65394E+00  5.37322E+00  6.33656E+00  4.81606E+00  4.74463E+00  3.88599E+00  4.53492E+00  4.14772E+00  4.69829E+00
   3.31817E+00  7.48291E+00  5.58302E+00  4.74491E+00  5.01124E+00  6.28897E+00  5.92230E+00  6.04197E+00  7.23338E+00  6.23378E+00
   4.71118E+00  3.40525E+00  3.83426E+00  4.68897E+00  5.74548E+00  5.90128E+00  6.24484E+00  3.11406E+00  6.17604E+00  8.16682E+00
   6.84061E+00  4.39043E+00  2.05196E+00  4.11475E+00  3.59870E+00  5.65201E+00  6.74400E+00  2.56351E+00  1.29302E+00  5.26143E+00
   5.17357E+00  2.95090E+00  5.79983E+00  5.00356E+00  4.23021E+00  3.44138E+00  6.64820E+00  4.76554E+00  4.48085E+00  6.72671E+00
   5.34822E+00  6.63503E+00  5.81199E+00  5.14741E+00  7.67488E+00  6.38149E+00  4.88180E+00  6.22551E+00  5.39658E+00  1.52419E+00
   4.64212E+00  3.17602E+00  3.43276E+00  6.45248E+00  3.40264E+00  1.73347E+00  2.96869E+00  2.14286E+00  5.84614E-01  6.92155E+00
   2.22548E+00  3.94648E+00  1.44264E+00  3.55239E+00  2.48843E+00  5.21675E+00  5.60452E+00  3.53078E+00  3.14767E+00  3.17716E+00
   1.62203E+00  1.93116E+00  4.38772E+00  4.11099E+00  3.90269E+00  2.33361E+00  3.31797E+00  4.21611E+00  1.87103E+00  2.67630E+00
   7.59451E+00  3.19441E+00  3.62420E+00  2.94007E+00  6.11005E+00  3.89183E+00  4.89789E+00  5.74707E+00  3.39449E+00  1.87238E+00
   3.19356E+00  4.33423E+00  1.59395E+00  6.29707E+00  3.96963E+00  2.42836E+00  4.50476E+00  4.09000E+00  7.28010E+00  3.89794E+00
   2.40694E+00  2.59052E+00  3.40873E+00  3.33809E+00  2.46287E+00  6.26854E+00  2.06829E+00  7.65617E+00  3.72857E+00  5.68637E+00
   4.61020E+00  4.17625E+00  6.01747E+00  6.49738E+00  6.31979E+00  5.49834E+00  3.89110E+00  7.96436E+00  5.18600E+00  5.67519E+00
   7.02724E+00  6.60168E+00  1.00511E+01  5.52920E+00  7.22641E+00  4.77045E+00  6.82123E+00  6.39363E+00  6.19876E+00  6.81359E+00
   4.81076E+00  6.56621E+00  5.75977E+00  7.28438E+00  6.23325E+00  5.21153E+00  5.04005E+00  7.94101E+00  6.77122E+00  1.29392E+00
   3.78924E+00  2.63354E+00  8.43379E-01  2.44928E+00  4.82495E+00  5.68397E+00  6.04635E+00  3.65646E+00  5.69448E+00  2.71951E+00
   4.14179E+00  2.50776E+00  3.13287E+00  2.78107E+00  5.54281E+00  1.53263E+00  5.18043E+00  3.74834E+00  4.43167E+00  1.93888E+00
   3.87453E+00  2.49662E+00  9.33671E-01  6.97413E-01  1.65706E-01  1.99533E+00  1.82106E+00  1.19167E+00  3.01262E+00  1.82536E+00
   1.28553E+00  2.41833E+00 -2.52409E-01  7.28409E-01  3.45908E-01  1.60809E+00  1.04609E+00  2.05547E+00  4.01022E+00  2.05906E+00
   3.33609E+00  2.46297E+00  2.36777E+00  2.80771E+00  1.83070E+00  3.63144E+00  3.84062E+00  4.37237E+00  3.96594E+00  2.97923E+00
   4.91298E+00  4.25887E+00  2.77454E+00  2.58865E+00  4.31696E+00  2.37627E+00  2.59150E+00  1.72744E+00  3.82545E+00  9.36746E-01
   6.00170E-01  2.56461E+00  8.48190E-01  3.38418E+00  2.26801E+00  4.23286E+00  1.39622E-02  2.63750E+00  2.40464E+00  1.28964E+00
   4.10374E+00  1.05720E+00  3.45572E+00  2.91647E+00  3.11486E+00  3.68219E+00  3.37529E+00  5.63089E+00  1.90894E+00  2.21203E+00
   4.59755E+00  2.48637E+00  2.95035E+00  1.04786E+00  1.92288E+00  2.32126E+00  3.60471E+00  5.02374E+00  2.10215E-01  1.47567E+00
   1.38494E+00  3.51127E+00  2.99709E+00  5.43032E-01  1.98642E+00  3.94340E+00  3.91544E+00  4.22613E+00  2.15476E+00  2.85934E+00
   4.83651E+00  1.03931E+00  1.92770E+00  1.08705E+00  2.41320E-01  1.36902E+00  1.47631E+00  3.04684E+00  2.42538E+00  9.38154E-02
   8.85415E-01  1.24334E+00  3.08149E+00  1.33627E+00  1.83042E+00  2.46268E-01  2.01673E+00  3.05258E+00  2.51662E+00  3.66775E+00
   1.17941E+00  3.57102E+00  7.63432E-01  4.61780E-01  1.13592E+00  3.20245E+00  3.21476E+00  2.74515E+00  3.06752E+00  2.59243E+00
   2.33481E+00  2.48081E+00 -4.15300E-01  6.88870E-01  1.22351E+00  2.91082E+00  1.52519E+00  2.87866E+00
 NY points of the fit to the data follow
   1.72131E+01  1.70634E+01  1.69212E+01  1.68126E+01  1.67545E+01  1.67592E+01  1.68323E+01  1.69571E+01  1.71017E+01  1.72235E+01
   1.72956E+01  1.73159E+01  1.72806E+01  1.71688E+01  1.69526E+01  1.66163E+01  1.61706E+01  1.56846E+01  1.52921E+01  1.51014E+01
   1.50226E+01  1.49647E+01  1.49146E+01  1.48502E+01  1.47921E+01  1.47739E+01  1.48023E+01  1.48706E+01  1.49697E+01  1.50770E+01
   1.51617E+01  1.52152E+01  1.52407E+01  1.52220E+01  1.51278E+01  1.49331E+01  1.46165E+01  1.41931E+01  1.37510E+01  1.34332E+01
   1.33017E+01  1.32385E+01  1.31972E+01  1.31741E+01  1.31593E+01  1.31454E+01  1.31378E+01  1.31465E+01  1.31598E+01  1.31538E+01
   1.31097E+01  1.30246E+01  1.28985E+01  1.27238E+01  1.24969E+01  1.22394E+01  1.20074E+01  1.18644E+01  1.18235E+01  1.18339E+01
   1.18440E+01  1.18336E+01  1.18005E+01  1.17459E+01  1.16734E+01  1.15840E+01  1.14789E+01  1.13607E+01  1.12387E+01  1.11364E+01
   1.10700E+01  1.10353E+01  1.10181E+01  1.09974E+01  1.09623E+01  1.09082E+01  1.08359E+01  1.07513E+01  1.06590E+01  1.05592E+01
   1.04538E+01  1.03523E+01  1.02637E+01  1.01797E+01  1.00946E+01  1.00098E+01  9.92404E+00  9.83498E+00  9.74550E+00  9.65848E+00
   9.57465E+00  9.49782E+00  9.43331E+00  9.38655E+00  9.36788E+00  9.38576E+00  9.41465E+00  9.44030E+00  9.47641E+00  9.53028E+00
   9.60532E+00  9.70192E+00  9.80207E+00  9.87527E+00  9.90959E+00  9.91046E+00  9.87555E+00  9.78078E+00  9.59517E+00  9.30749E+00
   8.93370E+00  8.54877E+00  8.27842E+00  8.18945E+00  8.17024E+00  8.15475E+00  8.14006E+00  8.12804E+00  8.12800E+00  8.14763E+00
   8.16050E+00  8.19179E+00  8.28967E+00  8.46229E+00  8.69607E+00  8.97760E+00  9.26421E+00  9.49794E+00  9.65671E+00  9.74022E+00
   9.73043E+00  9.59069E+00  9.27549E+00  8.76725E+00  8.10504E+00  7.42760E+00  6.95435E+00  6.79172E+00  6.74493E+00  6.70335E+00
   6.66576E+00  6.64838E+00  6.67344E+00  6.74991E+00  6.84136E+00  6.89697E+00  6.89903E+00  6.84562E+00  6.75093E+00  6.64585E+00
   6.55040E+00  6.47888E+00  6.42553E+00  6.37662E+00  6.33072E+00  6.28768E+00  6.24600E+00  6.20434E+00  6.16330E+00  6.12463E+00
   6.08744E+00  6.05140E+00  6.01553E+00  5.97769E+00  5.93625E+00  5.89356E+00  5.85544E+00  5.82351E+00  5.79603E+00  5.76849E+00
   5.73315E+00  5.68368E+00  5.62591E+00  5.56868E+00  5.51889E+00  5.47804E+00  5.43891E+00  5.39951E+00  5.36109E+00  5.32363E+00
   5.28965E+00  5.26252E+00  5.24305E+00  5.22910E+00  5.21701E+00  5.20447E+00  5.19629E+00  5.20476E+00  5.23566E+00  5.27780E+00
   5.31840E+00  5.34858E+00  5.36473E+00  5.36634E+00  5.34755E+00  5.29717E+00  5.21437E+00  5.11029E+00  5.01189E+00  4.94565E+00
   4.92709E+00  4.95817E+00  5.02507E+00  5.10704E+00  5.18458E+00  5.23702E+00  5.24374E+00  5.19489E+00  5.10790E+00  5.01671E+00
   4.93235E+00  4.85999E+00  4.80459E+00  4.77309E+00  4.76989E+00  4.79069E+00  4.82656E+00  4.86897E+00  4.90865E+00  4.93320E+00
   4.93906E+00  4.94129E+00  4.94219E+00  4.93203E+00  4.91495E+00  4.89548E+00  4.86969E+00  4.83472E+00  4.79235E+00  4.74697E+00
   4.69977E+00  4.65602E+00  4.62770E+00  4.61891E+00  4.62404E+00  4.63936E+00  4.66489E+00  4.69580E+00  4.72145E+00  4.73122E+00
   4.71152E+00  4.65249E+00  4.57139E+00  4.49563E+00  4.43682E+00  4.40228E+00  4.40680E+00  4.46397E+00  4.54940E+00  4.63027E+00
   4.70389E+00  4.77308E+00  4.83764E+00  4.87464E+00  4.89388E+00  4.96827E+00  5.12639E+00  5.34741E+00  5.61111E+00  5.88745E+00
   6.11989E+00  6.26337E+00  6.31247E+00  6.27056E+00  6.11633E+00  5.81378E+00  5.34358E+00  4.72834E+00  4.06530E+00  3.54722E+00
   3.35290E+00  3.37986E+00  3.42379E+00  3.45632E+00  3.48134E+00  3.50182E+00  3.51914E+00  3.53406E+00  3.54640E+00  3.55523E+00
   3.56058E+00  3.56373E+00  3.56542E+00  3.56645E+00  3.56781E+00  3.57047E+00  3.57525E+00  3.58195E+00  3.58967E+00  3.59806E+00
   3.60679E+00  3.61516E+00  3.62283E+00  3.62969E+00  3.63599E+00  3.64246E+00  3.64949E+00  3.65703E+00  3.66519E+00  3.67425E+00
   3.68424E+00  3.69507E+00  3.70683E+00  3.71955E+00  3.73316E+00  3.74774E+00  3.76336E+00  3.78014E+00  3.79817E+00  3.81757E+00
   3.83848E+00  3.86101E+00  3.88529E+00  3.91146E+00  3.93969E+00  3.97019E+00  4.00318E+00  4.03896E+00  4.07800E+00  4.12039E+00
   4.16447E+00  4.21256E+00  4.26685E+00  4.32491E+00  4.38352E+00  4.44063E+00  4.49386E+00  4.54289E+00  4.58791E+00  4.63069E+00
   4.67578E+00  4.72660E+00  4.78597E+00  4.85969E+00  4.95498E+00  5.07781E+00  5.23021E+00  5.40241E+00  5.57025E+00  5.72468E+00
   5.86463E+00  5.98479E+00  6.07877E+00  6.14470E+00  6.19277E+00  6.24212E+00  6.29254E+00  6.33129E+00  6.35251E+00  6.35305E+00
   6.33081E+00  6.28444E+00  6.21335E+00  6.11764E+00  5.99816E+00  5.85642E+00  5.69460E+00  5.51540E+00  5.32201E+00  5.11792E+00
   4.90682E+00  4.69243E+00  4.47837E+00  4.26804E+00  4.06453E+00  3.87050E+00  3.68816E+00  3.51922E+00  3.36490E+00  3.22591E+00
   3.10258E+00  2.99481E+00  2.90218E+00  2.82404E+00  2.75951E+00  2.70760E+00  2.66727E+00  2.63741E+00  2.61698E+00  2.60494E+00
   2.60033E+00  2.60228E+00  2.61000E+00  2.62278E+00  2.64000E+00  2.66108E+00  2.68552E+00  2.71285E+00  2.74265E+00  2.77447E+00
   2.80790E+00  2.84249E+00  2.87776E+00  2.91322E+00  2.94834E+00  2.98251E+00  3.01514E+00  3.04555E+00  3.07310E+00  3.09709E+00
   3.11687E+00  3.13182E+00  3.14136E+00  3.14501E+00  3.14238E+00  3.13322E+00  3.11741E+00  3.09499E+00  3.06613E+00  3.03120E+00
   2.99066E+00  2.94516E+00  2.89541E+00  2.84223E+00  2.78649E+00  2.72907E+00  2.67088E+00  2.61276E+00  2.55551E+00  2.49984E+00
   2.44637E+00  2.39562E+00  2.34799E+00  2.30377E+00  2.26314E+00  2.22619E+00  2.19292E+00  2.16327E+00  2.13709E+00  2.11420E+00
   2.09439E+00  2.07742E+00  2.06304E+00  2.05100E+00  2.04107E+00  2.03298E+00  2.02653E+00  2.02151E+00  2.01773E+00  2.01502E+00
   2.01322E+00  2.01220E+00  2.01184E+00  2.01204E+00  2.01270E+00  2.01375E+00  2.01512E+00  2.01675E+00  2.01859E+00  2.02060E+00
   2.02275E+00  2.02499E+00  2.02731E+00  2.02968E+00  2.03208E+00  2.03450E+00  2.03692E+00  2.03934E+00  2.04175E+00  2.04413E+00
   2.04648E+00  2.04880E+00  2.05109E+00  2.05333E+00  2.05553E+00  2.05768E+00  2.05978E+00  2.06184E+00  2.06385E+00  2.06581E+00
   2.06771E+00  2.06957E+00  2.07138E+00  2.07314E+00  2.07486E+00  2.07652E+00  2.07814E+00  2.07971E+00  2.08125E+00  2.08274E+00
   2.08418E+00  2.08559E+00  2.08696E+00  2.08829E+00  2.08960E+00  2.09087E+00  2.09210E+00  2.09331E+00  2.09449E+00  2.09566E+00
   2.09680E+00  2.09792E+00  2.09903E+00  2.10013E+00  2.10122E+00  2.10231E+00  2.10339E+00  2.10449E+00
 NY background values follow
     1.642E+01    1.634E+01    1.625E+01    1.617E+01    1.608E+01    1.600E+01    1.591E+01    1.582E+01    1.574E+01    1.565E+01
     1.557E+01    1.548E+01    1.540E+01    1.531E+01    1.523E+01    1.514E+01    1.506E+01    1.497E+01    1.489E+01    1.480E+01
     1.472E+01    1.463E+01    1.455E+01    1.446E+01    1.438E+01    1.429E+01    1.421E+01    1.413E+01    1.404E+01    1.396E+01
     1.388E+01    1.379E+01    1.371E+01    1.363E+01    1.355E+01    1.346E+01    1.338E+01    1.330E+01    1.322E+01    1.314E+01
     1.306E+01    1.297E+01    1.289E+01    1.281E+01    1.273E+01    1.265E+01    1.257E+01    1.250E+01    1.242E+01    1.234E+01
     1.226E+01    1.218E+01    1.210E+01    1.203E+01    1.195E+01    1.187E+01    1.179E+01    1.172E+01    1.164E+01    1.157E+01
     1.149E+01    1.142E+01    1.134E+01    1.127E+01    1.119E+01    1.112E+01    1.105E+01    1.097E+01    1.090E+01    1.083E+01
     1.076E+01    1.069E+01    1.061E+01    1.054E+01    1.047E+01    1.040E+01    1.033E+01    1.026E+01    1.020E+01    1.013E+01
     1.006E+01    9.991E+00    9.923E+00    9.856E+00    9.790E+00    9.724E+00    9.658E+00    9.593E+00    9.528E+00    9.463E+00
     9.399E+00    9.336E+00    9.273E+00    9.210E+00    9.148E+00    9.086E+00    9.024E+00    8.963E+00    8.903E+00    8.842E+00
     8.783E+00    8.723E+00    8.664E+00    8.606E+00    8.548E+00    8.490E+00    8.433E+00    8.376E+00    8.320E+00    8.264E+00
     8.208E+00    8.153E+00    8.098E+00    8.044E+00    7.990E+00    7.937E+00    7.884E+00    7.831E+00    7.779E+00    7.727E+00
     7.676E+00    7.625E+00    7.574E+00    7.524E+00    7.475E+00    7.425E+00    7.377E+00    7.328E+00    7.280E+00    7.232E+00
     7.185E+00    7.138E+00    7.092E+00    7.046E+00    7.001E+00    6.955E+00    6.911E+00    6.866E+00    6.822E+00    6.779E+00
     6.736E+00    6.693E+00    6.651E+00    6.609E+00    6.567E+00    6.526E+00    6.485E+00    6.445E+00    6.405E+00    6.365E+00
     6.326E+00    6.287E+00    6.248E+00    6.210E+00    6.172E+00    6.134E+00    6.097E+00    6.060E+00    6.024E+00    5.988E+00
     5.952E+00    5.916E+00    5.881E+00    5.847E+00    5.812E+00    5.778E+00    5.744E+00    5.710E+00    5.677E+00    5.644E+00
     5.612E+00    5.579E+00    5.547E+00    5.516E+00    5.484E+00    5.453E+00    5.422E+00    5.392E+00    5.362E+00    5.332E+00
     5.302E+00    5.272E+00    5.243E+00    5.214E+00    5.186E+00    5.157E+00    5.129E+00    5.101E+00    5.074E+00    5.047E+00
     5.019E+00    4.993E+00    4.966E+00    4.940E+00    4.914E+00    4.888E+00    4.862E+00    4.837E+00    4.812E+00    4.787E+00
     4.762E+00    4.738E+00    4.713E+00    4.689E+00    4.665E+00    4.642E+00    4.619E+00    4.595E+00    4.572E+00    4.550E+00
     4.527E+00    4.505E+00    4.483E+00    4.461E+00    4.439E+00    4.417E+00    4.396E+00    4.375E+00    4.354E+00    4.333E+00
     4.312E+00    4.292E+00    4.272E+00    4.252E+00    4.232E+00    4.212E+00    4.192E+00    4.173E+00    4.154E+00    4.135E+00
     4.116E+00    4.097E+00    4.078E+00    4.060E+00    4.042E+00    4.024E+00    4.006E+00    3.988E+00    3.970E+00    3.953E+00
     3.935E+00    3.918E+00    3.901E+00    3.884E+00    3.868E+00    3.851E+00    3.835E+00    3.818E+00    3.802E+00    3.786E+00
     3.771E+00    3.755E+00    3.739E+00    3.724E+00    3.709E+00    3.694E+00    3.679E+00    3.664E+00    3.650E+00    3.635E+00
     3.621E+00    3.607E+00    3.593E+00    3.579E+00    3.565E+00    3.551E+00    3.538E+00    3.525E+00    3.511E+00    3.498E+00
     3.485E+00    3.473E+00    3.460E+00    3.447E+00    3.435E+00    3.423E+00    3.411E+00    3.399E+00    3.387E+00    3.375E+00
     3.364E+00    3.352E+00    3.341E+00    3.330E+00    3.318E+00    3.307E+00    3.297E+00    3.286E+00    3.275E+00    3.265E+00
     3.254E+00    3.244E+00    3.234E+00    3.224E+00    3.214E+00    3.204E+00    3.194E+00    3.185E+00    3.175E+00    3.166E+00
     3.157E+00    3.147E+00    3.138E+00    3.129E+00    3.121E+00    3.112E+00    3.103E+00    3.094E+00    3.086E+00    3.078E+00
     3.069E+00    3.061E+00    3.053E+00    3.045E+00    3.037E+00    3.029E+00    3.021E+00    3.014E+00    3.006E+00    2.999E+00
     2.991E+00    2.984E+00    2.977E+00    2.970E+00    2.963E+00    2.956E+00    2.949E+00    2.942E+00    2.935E+00    2.928E+00
     2.922E+00    2.915E+00    2.909E+00    2.903E+00    2.896E+00    2.890E+00    2.884E+00    2.878E+00    2.872E+00    2.866E+00
     2.860E+00    2.855E+00    2.849E+00    2.843E+00    2.838E+00    2.832E+00    2.827E+00    2.822E+00    2.816E+00    2.811E+00
     2.806E+00    2.801E+00    2.796E+00    2.791E+00    2.787E+00    2.782E+00    2.777E+00    2.773E+00    2.768E+00    2.764E+00
     2.759E+00    2.755E+00    2.751E+00    2.746E+00    2.742E+00    2.738E+00    2.734E+00    2.730E+00    2.726E+00    2.723E+00
     2.719E+00    2.715E+00    2.711E+00    2.708E+00    2.704E+00    2.701E+00    2.697E+00    2.694E+00    2.691E+00    2.688E+00
     2.684E+00    2.681E+00    2.678E+00    2.675E+00    2.672E+00    2.669E+00    2.666E+00    2.663E+00    2.661E+00    2.658E+00
     2.655E+00    2.653E+00    2.650E+00    2.647E+00    2.645E+00    2.642E+00    2.640E+00    2.638E+00    2.635E+00    2.633E+00
     2.631E+00    2.629E+00    2.626E+00    2.624E+00    2.622E+00    2.620E+00    2.618E+00    2.616E+00    2.614E+00    2.612E+00
     2.610E+00    2.609E+00    2.607E+00    2.605E+00    2.603E+00    2.601E+00    2.600E+00    2.598E+00    2.596E+00    2.595E+00
     2.593E+00    2.592E+00    2.590E+00    2.588E+00    2.587E+00    2.585E+00    2.584E+00    2.582E+00    2.581E+00    2.579E+00
     2.578E+00    2.576E+00    2.575E+00    2.574E+00    2.572E+00    2.571E+00    2.569E+00    2.568E+00    2.566E+00    2.565E+00
     2.563E+00    2.562E+00    2.560E+00    2.559E+00    2.557E+00    2.556E+00    2.554E+00    2.553E+00    2.551E+00    2.550E+00
     2.548E+00    2.547E+00    2.545E+00    2.543E+00    2.542E+00    2.540E+00    2.538E+00    2.537E+00    2.535E+00    2.533E+00
     2.531E+00    2.530E+00    2.528E+00    2.526E+00    2.524E+00    2.522E+00    2.521E+00    2.519E+00    2.517E+00    2.515E+00
     2.513E+00    2.511E+00    2.509E+00    2.507E+00    2.505E+00    2.504E+00    2.502E+00    2.500E+00    2.498E+00    2.496E+00
     2.494E+00    2.492E+00    2.490E+00    2.488E+00    2.486E+00    2.484E+00    2.482E+00    2.480E+00    2.478E+00    2.476E+00
     2.474E+00    2.472E+00    2.470E+00    2.468E+00    2.465E+00    2.463E+00    2.461E+00    2.459E+00
 Ala      Conc. = 1.35E+01
