 LCModel (Version 6.3-1L) Copyright: S.W. Provencher.          Ref.: Magn. Reson. Med. 30:672-679 (1993).                
 Slice#2 Row#4 Col#6  PD_05_press_1_raw_act
 36 lines in following concentration table = NCONC+1
    Conc.  %SD /Cr+PCr  Metabolite                                         
    0.000 999%   0.000 Ala                                                 
    0.000 999%   0.000 Asp                                                 
  353.770  77%   0.188 Cr                                                  
 1.53E+03  18%   0.812 PCr                                                 
  262.107  81%   0.139 GABA                                                
   93.461 213% 5.0E-02 Glc                                                 
 1.03E+03  28%   0.547 Gln                                                 
 1.43E+03  24%   0.760 Glu                                                 
  916.393   3%   0.486 GPC                                                 
    0.000 999%   0.000 PCh                                                 
  591.196  15%   0.314 GSH                                                 
 2.08E+03  17%   1.102 Ins                                                 
  264.923  57%   0.140 Lac                                                 
 3.02E+03   3%   1.600 NAA                                                 
    0.000 999%   0.000 NAAG                                                
  314.324  11%   0.167 Scyllo                                              
    0.000 999%   0.000 Tau                                                 
  388.497  37%   0.206 -CrCH2                                              
  916.393   3%   0.486 GPC+PCh                                             
 3.02E+03   3%   1.600 NAA+NAAG                                            
 1.89E+03   3%   1.000 Cr+PCr                                              
 2.46E+03  21%   1.306 Glu+Gln                                             
  899.299  56%   0.477 Lip13a                                              
    0.000 999%   0.000 Lip13b                                              
    0.000 999%   0.000 Lip09                                               
 1.68E+03  17%   0.892 MM09                                                
  114.202 182% 6.1E-02 Lip20                                               
 2.84E+03  18%   1.507 MM20                                                
  958.522  24%   0.508 MM12                                                
 1.05E+03  37%   0.559 MM14                                                
  962.978  31%   0.511 MM17                                                
  899.299  56%   0.477 Lip13a+Lip13b                                       
 2.91E+03  22%   1.545 MM14+Lip13a+Lip13b+MM12                             
 1.68E+03  17%   0.892 MM09+Lip09                                          
 2.96E+03  17%   1.567 MM20+Lip20                                          
   6 lines in following misc. output table
  FWHM = 0.061 ppm    S/N =  15                                            
  Data shift =-0.046 ppm                                                   
  Ph: -57 deg     -17.7 deg/ppm                                            
  alphaB,S = 4.7E-01,   5.4E+00                                            
   14 spline knots.   Ns = 8(1)                                            
  (12)14 infls.   ( 7) 5 extrs.                                            
  498 points on ppm-axis = NY
      4.000000     3.992357     3.984714     3.977070     3.969427     3.961784     3.954141     3.946497     3.938854     3.931211
      3.923568     3.915925     3.908281     3.900638     3.892995     3.885352     3.877708     3.870065     3.862422     3.854779
      3.847136     3.839492     3.831849     3.824206     3.816563     3.808919     3.801276     3.793633     3.785990     3.778347
      3.770703     3.763060     3.755417     3.747774     3.740130     3.732487     3.724844     3.717201     3.709558     3.701914
      3.694271     3.686628     3.678985     3.671341     3.663698     3.656055     3.648412     3.640769     3.633125     3.625482
      3.617839     3.610196     3.602552     3.594909     3.587266     3.579623     3.571980     3.564336     3.556693     3.549050
      3.541407     3.533763     3.526120     3.518477     3.510834     3.503191     3.495547     3.487904     3.480261     3.472618
      3.464974     3.457331     3.449688     3.442045     3.434402     3.426758     3.419115     3.411472     3.403829     3.396185
      3.388542     3.380899     3.373256     3.365613     3.357969     3.350326     3.342683     3.335040     3.327396     3.319753
      3.312110     3.304467     3.296824     3.289180     3.281537     3.273894     3.266251     3.258607     3.250964     3.243321
      3.235678     3.228034     3.220391     3.212748     3.205105     3.197462     3.189818     3.182175     3.174532     3.166889
      3.159245     3.151602     3.143959     3.136316     3.128673     3.121029     3.113386     3.105743     3.098100     3.090456
      3.082813     3.075170     3.067527     3.059884     3.052240     3.044597     3.036954     3.029311     3.021667     3.014024
      3.006381     2.998738     2.991095     2.983451     2.975808     2.968165     2.960522     2.952878     2.945235     2.937592
      2.929949     2.922306     2.914662     2.907019     2.899376     2.891733     2.884089     2.876446     2.868803     2.861160
      2.853517     2.845873     2.838230     2.830587     2.822944     2.815300     2.807657     2.800014     2.792371     2.784728
      2.777084     2.769441     2.761798     2.754155     2.746511     2.738868     2.731225     2.723582     2.715939     2.708295
      2.700652     2.693009     2.685366     2.677722     2.670079     2.662436     2.654793     2.647150     2.639506     2.631863
      2.624220     2.616577     2.608933     2.601290     2.593647     2.586004     2.578361     2.570717     2.563074     2.555431
      2.547788     2.540144     2.532501     2.524858     2.517215     2.509572     2.501928     2.494285     2.486642     2.478999
      2.471355     2.463712     2.456069     2.448426     2.440783     2.433139     2.425496     2.417853     2.410210     2.402566
      2.394923     2.387280     2.379637     2.371994     2.364350     2.356707     2.349064     2.341421     2.333777     2.326134
      2.318491     2.310848     2.303205     2.295561     2.287918     2.280275     2.272632     2.264988     2.257345     2.249702
      2.242059     2.234416     2.226772     2.219129     2.211486     2.203843     2.196199     2.188556     2.180913     2.173270
      2.165627     2.157983     2.150340     2.142697     2.135054     2.127410     2.119767     2.112124     2.104481     2.096838
      2.089194     2.081551     2.073908     2.066265     2.058621     2.050978     2.043335     2.035692     2.028049     2.020405
      2.012762     2.005119     1.997476     1.989833     1.982190     1.974546     1.966903     1.959260     1.951617     1.943974
      1.936331     1.928688     1.921045     1.913402     1.905759     1.898115     1.890472     1.882829     1.875186     1.867543
      1.859900     1.852257     1.844614     1.836971     1.829327     1.821684     1.814041     1.806398     1.798755     1.791112
      1.783469     1.775826     1.768183     1.760540     1.752896     1.745253     1.737610     1.729967     1.722324     1.714681
      1.707038     1.699395     1.691752     1.684108     1.676465     1.668822     1.661179     1.653536     1.645893     1.638250
      1.630607     1.622964     1.615321     1.607677     1.600034     1.592391     1.584748     1.577105     1.569462     1.561819
      1.554176     1.546533     1.538890     1.531246     1.523603     1.515960     1.508317     1.500674     1.493031     1.485388
      1.477745     1.470102     1.462458     1.454815     1.447172     1.439529     1.431886     1.424243     1.416600     1.408957
      1.401314     1.393671     1.386027     1.378384     1.370741     1.363098     1.355455     1.347812     1.340169     1.332526
      1.324883     1.317240     1.309596     1.301953     1.294310     1.286667     1.279024     1.271381     1.263738     1.256095
      1.248452     1.240808     1.233165     1.225522     1.217879     1.210236     1.202593     1.194950     1.187307     1.179664
      1.172021     1.164377     1.156734     1.149091     1.141448     1.133805     1.126162     1.118519     1.110876     1.103233
      1.095590     1.087946     1.080303     1.072660     1.065017     1.057374     1.049731     1.042088     1.034445     1.026802
      1.019158     1.011515     1.003872     0.996229     0.988586     0.980943     0.973300     0.965657     0.958014     0.950371
      0.942727     0.935084     0.927441     0.919798     0.912155     0.904512     0.896869     0.889226     0.881583     0.873940
      0.866296     0.858653     0.851010     0.843367     0.835724     0.828081     0.820438     0.812795     0.805152     0.797508
      0.789865     0.782222     0.774579     0.766936     0.759293     0.751650     0.744007     0.736364     0.728721     0.721077
      0.713434     0.705791     0.698148     0.690505     0.682862     0.675219     0.667576     0.659933     0.652290     0.644646
      0.637003     0.629360     0.621717     0.614074     0.606431     0.598788     0.591145     0.583502     0.575858     0.568215
      0.560572     0.552929     0.545286     0.537643     0.530000     0.522357     0.514714     0.507071     0.499427     0.491784
      0.484141     0.476498     0.468855     0.461212     0.453569     0.445925     0.438282     0.430639     0.422996     0.415353
      0.407710     0.400067     0.392424     0.384780     0.377137     0.369494     0.361851     0.354208     0.346565     0.338922
      0.331278     0.323635     0.315992     0.308349     0.300706     0.293063     0.285420     0.277777     0.270133     0.262490
      0.254847     0.247204     0.239561     0.231918     0.224275     0.216631     0.208988     0.201345
 NY phased data points follow
  -1.33812E+02 -1.32405E+02 -1.26826E+02 -1.22330E+02 -1.14251E+02 -1.10470E+02 -9.68573E+01 -8.97141E+01 -8.45275E+01 -8.62665E+01
  -8.49565E+01 -8.35953E+01 -8.64130E+01 -8.86826E+01 -9.15120E+01 -9.99961E+01 -1.03421E+02 -1.00478E+02 -1.00123E+02 -9.76167E+01
  -1.03752E+02 -9.74096E+01 -9.73508E+01 -9.91485E+01 -9.62048E+01 -9.18493E+01 -9.37785E+01 -8.88207E+01 -8.63983E+01 -8.79032E+01
  -8.14038E+01 -8.52575E+01 -8.50647E+01 -8.40946E+01 -8.39291E+01 -8.37012E+01 -8.11448E+01 -7.95128E+01 -7.63805E+01 -7.89292E+01
  -7.94441E+01 -7.78809E+01 -7.23427E+01 -7.21240E+01 -7.14352E+01 -6.94328E+01 -6.55907E+01 -6.94358E+01 -6.88622E+01 -7.07899E+01
  -7.27631E+01 -7.27274E+01 -7.29396E+01 -7.49344E+01 -7.15402E+01 -7.17370E+01 -6.72348E+01 -7.34035E+01 -7.28032E+01 -7.06461E+01
  -7.12151E+01 -7.30825E+01 -7.50264E+01 -7.33516E+01 -7.41596E+01 -7.09811E+01 -7.47421E+01 -7.27209E+01 -7.06325E+01 -6.90990E+01
  -7.01063E+01 -6.87522E+01 -6.51623E+01 -6.52497E+01 -6.43709E+01 -6.38295E+01 -6.53748E+01 -6.38842E+01 -5.98467E+01 -5.80505E+01
  -5.81340E+01 -5.51161E+01 -5.16116E+01 -5.47652E+01 -4.83253E+01 -5.13533E+01 -4.59468E+01 -5.22983E+01 -5.10121E+01 -5.03777E+01
  -5.70055E+01 -5.06212E+01 -5.56210E+01 -5.28873E+01 -5.17052E+01 -4.89734E+01 -4.44032E+01 -3.68546E+01 -2.70224E+01 -1.99363E+01
  -4.69068E+00  6.05510E+00  7.82822E+00  6.66491E+00  2.80647E+00 -1.59533E+00 -8.91581E+00 -1.50086E+01 -2.50208E+01 -2.70080E+01
  -3.13758E+01 -3.35844E+01 -3.61635E+01 -4.02497E+01 -4.55879E+01 -4.92572E+01 -4.70571E+01 -5.10686E+01 -5.22072E+01 -4.62769E+01
  -4.31046E+01 -3.86779E+01 -3.02037E+01 -2.07875E+01 -4.95204E+00 -1.12259E+00  7.79253E+00  1.48152E+00  1.66320E+00 -7.41041E+00
  -1.00510E+01 -1.72524E+01 -2.25566E+01 -2.64788E+01 -3.29338E+01 -3.53396E+01 -3.86553E+01 -4.03576E+01 -4.04339E+01 -4.32223E+01
  -4.33402E+01 -4.34179E+01 -4.71782E+01 -4.79936E+01 -4.47799E+01 -4.45205E+01 -3.93177E+01 -4.12484E+01 -4.21919E+01 -4.12593E+01
  -3.99553E+01 -4.04283E+01 -3.96372E+01 -3.74163E+01 -3.80409E+01 -4.05814E+01 -4.15674E+01 -3.68668E+01 -3.80075E+01 -4.11546E+01
  -4.39076E+01 -3.90582E+01 -4.04702E+01 -3.84169E+01 -3.95158E+01 -3.76844E+01 -3.59304E+01 -3.87453E+01 -3.54454E+01 -3.93204E+01
  -3.56480E+01 -3.96473E+01 -3.37244E+01 -3.42281E+01 -3.77367E+01 -3.98168E+01 -3.79077E+01 -4.01085E+01 -3.97971E+01 -4.02697E+01
  -3.89244E+01 -3.86974E+01 -4.24419E+01 -4.13817E+01 -3.73736E+01 -3.80401E+01 -3.71596E+01 -3.15917E+01 -2.67791E+01 -2.55888E+01
  -2.18878E+01 -2.35892E+01 -1.94874E+01 -2.19722E+01 -1.86704E+01 -2.32684E+01 -1.99534E+01 -2.18566E+01 -2.05337E+01 -1.78360E+01
  -1.73240E+01 -2.19568E+01 -2.01154E+01 -1.50945E+01 -1.85865E+01 -1.95121E+01 -1.99454E+01 -2.16575E+01 -2.31951E+01 -2.03674E+01
  -2.03739E+01 -2.01311E+01 -1.26887E+01 -1.48468E+01 -1.04450E+01 -9.26161E+00 -1.05866E+01 -9.86489E+00 -1.37179E+01 -1.24877E+01
  -1.34042E+01 -1.46187E+01 -1.08938E+01 -1.29100E+01 -1.20784E+01 -1.24307E+01 -9.77411E+00 -6.43201E+00 -7.58048E+00 -6.07290E+00
  -7.48712E+00 -6.69953E+00 -7.64100E+00 -1.02022E+01 -8.59351E+00 -6.15607E+00 -3.81212E+00 -3.51526E+00 -3.60681E+00 -3.23269E+00
  -3.18813E+00 -4.99628E-01 -9.33442E-01 -2.51905E+00  2.70266E+00 -9.81627E-01 -3.75596E+00 -2.97782E+00 -2.84425E+00 -4.12325E+00
  -4.96124E+00 -5.22162E+00  2.25106E+00  5.58498E+00  1.18903E+01  2.10432E+01  3.34559E+01  5.40141E+01  6.37420E+01  7.46403E+01
   7.70405E+01  7.38793E+01  7.04412E+01  5.84094E+01  4.74641E+01  3.66715E+01  2.99761E+01  2.00765E+01  1.62340E+01  1.01629E+01
   5.48018E+00  3.10320E+00  1.93778E+00 -1.59916E-01 -1.17938E+00 -5.53637E+00 -8.34653E+00 -6.95537E+00 -8.12133E+00 -1.05752E+01
  -1.24405E+01 -1.02045E+01 -1.11589E+01 -1.03883E+01 -1.09191E+01 -1.30213E+01 -9.18089E+00 -8.56418E+00 -9.96227E+00 -8.45582E+00
  -9.65982E+00 -6.08430E+00 -6.24968E+00 -6.21851E+00 -6.81233E+00 -3.09494E+00 -6.86650E+00 -6.93140E+00 -4.69087E+00 -6.03175E+00
  -4.21723E+00 -6.66607E+00 -3.05533E+00 -6.20621E+00 -2.73887E+00  1.11560E+00 -7.85584E-01 -3.58009E+00 -7.83088E-01  1.59151E+00
  -3.81613E-01 -1.05921E+00  5.87137E-01  1.41324E+00  2.67351E+00  5.97468E+00  1.83214E+00  4.30627E+00  2.48336E+00 -1.58419E+00
  -7.02900E-01 -4.72658E+00 -2.96713E+00 -1.64298E+00 -1.93297E+00 -2.17161E+00 -2.44273E+00 -6.58582E-01 -1.64500E+00  1.24543E+00
  -1.44199E+00  2.18926E-01 -5.25840E-01  7.79221E+00  1.80063E+00  4.79894E+00  3.55057E+00  5.08844E+00  5.89192E+00  2.53325E+00
   4.27264E+00  3.07580E+00  3.35098E+00  6.07891E+00  6.72738E+00  6.13659E+00  4.09503E+00  4.65339E+00  3.60641E+00  4.37455E+00
   7.50170E+00  4.20569E+00  3.78553E-01  2.10881E+00  4.82134E+00  3.22486E+00  3.76571E+00  1.05096E+01  4.85060E+00  8.95316E+00
   7.15072E+00  7.11684E+00  1.13338E+01  1.20486E+01  9.24696E+00  1.04597E+01  1.25368E+01  1.05511E+01  1.08217E+01  1.34780E+01
   1.21067E+01  1.00996E+01  8.80074E+00  1.29661E+01  7.95109E+00  6.01703E+00  6.02934E+00  8.46619E+00  7.67435E+00  3.33600E+00
   1.08788E+01  5.43773E+00  7.41646E+00  5.97769E+00  3.65407E+00  8.28570E+00  7.05141E+00  1.86717E+00  7.32022E+00  4.83417E+00
   5.76530E+00  7.23920E+00  6.52014E+00  1.04221E+01  9.36588E+00  6.60578E+00  8.15777E+00  1.13157E+01  1.08733E+01  1.19801E+01
   1.52376E+01  1.36949E+01  1.06133E+01  1.52694E+01  1.30937E+01  1.44168E+01  1.86110E+01  1.88229E+01  1.71647E+01  1.50915E+01
   1.75501E+01  1.93033E+01  1.89802E+01  1.96261E+01  1.85832E+01  1.40742E+01  1.23207E+01  1.35367E+01  1.57457E+01  1.34569E+01
   1.40162E+01  1.30140E+01  1.30052E+01  1.19729E+01  1.24585E+01  1.68224E+01  1.17699E+01  1.25178E+01  9.89788E+00  9.83984E+00
   9.14445E+00  1.10996E+01  1.08249E+01  8.88372E+00  8.99788E+00  9.49458E+00  7.80717E+00  8.89536E+00  8.05175E+00  8.13020E+00
   6.86141E+00  1.03173E+01  1.23377E+01  7.36967E+00  9.02219E+00  1.04037E+01  9.26428E+00  7.83464E+00  1.03223E+01  9.05568E+00
   1.08157E+01  1.29297E+01  1.06416E+01  1.09655E+01  1.19807E+01  1.03125E+01  1.02422E+01  1.12449E+01  1.00960E+01  8.50110E+00
   7.54291E+00  9.69987E+00  7.51899E+00  8.53479E+00  1.02416E+01  9.17748E+00  1.20077E+01  9.94089E+00  1.10864E+01  1.08623E+01
   1.02425E+01  8.14837E+00  1.48943E+01  1.38790E+01  6.76099E+00  9.19275E+00  1.25539E+01  9.19745E+00  1.31981E+01  1.34322E+01
   1.00781E+01  7.89022E+00  1.22944E+01  9.76918E+00  9.19530E+00  8.92099E+00  1.41330E+01  1.09464E+01  1.09501E+01  9.71939E+00
   1.03446E+01  7.21607E+00  1.07119E+01  1.24329E+01  1.25152E+01  1.21436E+01  1.31950E+01  1.51623E+01
 NY points of the fit to the data follow
  -1.23604E+02 -1.22808E+02 -1.20712E+02 -1.17459E+02 -1.13176E+02 -1.07933E+02 -9.94400E+01 -9.34409E+01 -8.72881E+01 -8.69072E+01
  -8.52570E+01 -8.65224E+01 -8.82389E+01 -9.04775E+01 -9.30830E+01 -9.49123E+01 -9.68572E+01 -9.73368E+01 -9.62588E+01 -9.95070E+01
  -1.01661E+02 -1.01719E+02 -1.01057E+02 -1.00011E+02 -9.83757E+01 -9.63187E+01 -9.28222E+01 -9.00371E+01 -8.65795E+01 -8.47885E+01
  -8.29609E+01 -8.21721E+01 -8.26573E+01 -8.28980E+01 -8.42628E+01 -8.50391E+01 -8.57440E+01 -8.57099E+01 -8.42115E+01 -8.39482E+01
  -8.23272E+01 -7.99145E+01 -7.72201E+01 -7.41129E+01 -7.17353E+01 -7.03329E+01 -7.05061E+01 -7.08604E+01 -7.12601E+01 -7.23536E+01
  -7.35624E+01 -7.40805E+01 -7.42113E+01 -7.41519E+01 -7.32233E+01 -7.21016E+01 -7.20451E+01 -7.19752E+01 -7.15647E+01 -7.09977E+01
  -7.11973E+01 -7.12847E+01 -7.13729E+01 -7.11294E+01 -7.06691E+01 -7.00953E+01 -6.92429E+01 -6.80457E+01 -6.73772E+01 -6.65066E+01
  -6.61544E+01 -6.56140E+01 -6.50888E+01 -6.46573E+01 -6.41624E+01 -6.37915E+01 -6.34011E+01 -6.28392E+01 -6.17368E+01 -6.03203E+01
  -5.84292E+01 -5.64851E+01 -5.32869E+01 -5.12568E+01 -4.96529E+01 -4.99368E+01 -5.04018E+01 -5.09138E+01 -5.20918E+01 -5.28739E+01
  -5.37958E+01 -5.42672E+01 -5.44697E+01 -5.45783E+01 -5.32677E+01 -5.14846E+01 -4.77261E+01 -4.04892E+01 -3.04679E+01 -1.75433E+01
  -3.53250E+00  5.49231E+00  1.05200E+01  8.02749E+00  6.08945E+00 -1.08250E+00 -8.29256E+00 -1.62599E+01 -2.36231E+01 -2.92544E+01
  -3.41094E+01 -3.61419E+01 -3.92913E+01 -4.68337E+01 -4.98665E+01 -5.04630E+01 -5.04983E+01 -5.01981E+01 -4.93951E+01 -4.69092E+01
  -4.26545E+01 -3.71570E+01 -2.89440E+01 -1.93060E+01 -6.95846E+00 -5.25007E-01  4.91504E+00  1.96960E+00  1.68140E+00 -3.97438E+00
  -9.37269E+00 -1.59898E+01 -2.24034E+01 -2.73887E+01 -3.16293E+01 -3.35357E+01 -3.49563E+01 -4.14030E+01 -4.30562E+01 -4.27066E+01
  -4.21132E+01 -4.16875E+01 -4.13034E+01 -4.13656E+01 -4.11789E+01 -4.09696E+01 -4.08400E+01 -4.05785E+01 -4.04678E+01 -4.04349E+01
  -4.03602E+01 -4.04136E+01 -4.02737E+01 -4.00879E+01 -3.98981E+01 -3.97284E+01 -3.96540E+01 -3.95554E+01 -3.96955E+01 -3.95951E+01
  -3.94464E+01 -3.89020E+01 -3.83768E+01 -3.80688E+01 -3.77115E+01 -3.77850E+01 -3.76188E+01 -3.77427E+01 -3.78455E+01 -3.80838E+01
  -3.83948E+01 -3.83613E+01 -3.83731E+01 -3.85564E+01 -3.84775E+01 -3.85009E+01 -3.80858E+01 -3.75507E+01 -3.73483E+01 -3.68676E+01
  -3.66174E+01 -3.60335E+01 -3.56675E+01 -3.50932E+01 -3.43443E+01 -3.30849E+01 -3.13586E+01 -2.92118E+01 -2.77961E+01 -2.65284E+01
  -2.57452E+01 -2.50357E+01 -2.46832E+01 -2.47516E+01 -2.46641E+01 -2.44226E+01 -2.37707E+01 -2.24622E+01 -2.09411E+01 -1.95477E+01
  -1.81147E+01 -1.68014E+01 -1.62006E+01 -1.58960E+01 -1.66848E+01 -1.76678E+01 -1.94102E+01 -2.06297E+01 -2.14792E+01 -2.12663E+01
  -2.04666E+01 -1.92139E+01 -1.71848E+01 -1.49418E+01 -1.38810E+01 -1.33967E+01 -1.38363E+01 -1.40573E+01 -1.54015E+01 -1.60190E+01
  -1.59057E+01 -1.55763E+01 -1.48031E+01 -1.34313E+01 -1.21353E+01 -1.11695E+01 -1.09005E+01 -1.03993E+01 -1.00414E+01 -9.57993E+00
  -9.05816E+00 -8.21889E+00 -7.20212E+00 -5.93872E+00 -5.19546E+00 -4.57964E+00 -4.01605E+00 -4.11947E+00 -3.89699E+00 -4.56807E+00
  -4.61711E+00 -4.85549E+00 -4.45785E+00 -4.35997E+00 -4.10112E+00 -3.47671E+00 -2.75120E+00 -2.39912E+00 -1.94855E+00 -1.22555E+00
  -4.37715E-01  1.72110E-01  2.21614E+00  7.45399E+00  1.34701E+01  2.33109E+01  3.43107E+01  5.23895E+01  6.50824E+01  7.59608E+01
   7.58647E+01  7.34159E+01  6.82173E+01  5.84025E+01  4.87348E+01  3.79450E+01  2.89085E+01  2.16293E+01  1.55236E+01  1.45702E+01
   6.58615E+00 -2.17002E+00 -4.33060E+00 -5.02995E+00 -5.52699E+00 -5.80040E+00 -6.10393E+00 -6.48714E+00 -6.85615E+00 -7.17381E+00
  -7.46561E+00 -7.69655E+00 -7.83070E+00 -7.95533E+00 -8.04828E+00 -8.10434E+00 -8.13518E+00 -8.12096E+00 -8.05566E+00 -7.99663E+00
  -7.87988E+00 -7.72776E+00 -7.55366E+00 -7.31923E+00 -7.04574E+00 -6.74153E+00 -6.38452E+00 -5.97167E+00 -5.50313E+00 -5.00342E+00
  -4.45911E+00 -3.88698E+00 -3.30207E+00 -2.71171E+00 -2.12797E+00 -1.57431E+00 -1.05794E+00 -5.97558E-01 -1.98176E-01  1.26573E-01
   3.76491E-01  5.44388E-01  6.37653E-01  6.54845E-01  6.12324E-01  5.15359E-01  3.82966E-01  2.23833E-01  5.83986E-02 -1.04494E-01
  -2.45820E-01 -3.60218E-01 -4.33402E-01 -4.64860E-01 -4.45292E-01 -3.79048E-01 -2.61671E-01 -1.02167E-01  1.00238E-01  3.34085E-01
   5.98951E-01  8.83061E-01  1.18597E+00  1.49702E+00  1.81782E+00  2.14122E+00  2.47435E+00  2.81842E+00  3.19749E+00  3.65304E+00
   4.15573E+00  4.63229E+00  5.14711E+00  5.54503E+00  5.86647E+00  5.59069E+00  5.21278E+00  4.44011E+00  4.09114E+00  3.59335E+00
   3.46119E+00  3.66637E+00  4.37354E+00  5.23652E+00  6.22557E+00  6.92751E+00  7.70420E+00  7.88312E+00  8.39744E+00  8.82210E+00
   9.07446E+00  9.26878E+00  9.35328E+00  9.54529E+00  9.73398E+00  9.47629E+00  9.27621E+00  9.12562E+00  8.97313E+00  8.79704E+00
   8.59888E+00  8.37481E+00  8.13428E+00  7.87799E+00  7.61809E+00  7.35673E+00  7.10642E+00  6.86888E+00  6.65573E+00  6.46765E+00
   6.31503E+00  6.19704E+00  6.12246E+00  6.08892E+00  6.10396E+00  6.16439E+00  6.27703E+00  6.43804E+00  6.65354E+00  6.91908E+00
   7.24029E+00  7.61220E+00  8.03954E+00  8.51597E+00  9.04435E+00  9.61618E+00  1.02319E+01  1.08802E+01  1.15585E+01  1.22520E+01
   1.29547E+01  1.36490E+01  1.43267E+01  1.49686E+01  1.55658E+01  1.60993E+01  1.65617E+01  1.69370E+01  1.72220E+01  1.74055E+01
   1.74898E+01  1.74700E+01  1.73544E+01  1.71443E+01  1.68537E+01  1.64885E+01  1.60662E+01  1.55950E+01  1.50937E+01  1.45707E+01
   1.40437E+01  1.35190E+01  1.30113E+01  1.25240E+01  1.20682E+01  1.16437E+01  1.12586E+01  1.09092E+01  1.06008E+01  1.03276E+01
   1.00930E+01  9.88992E+00  9.72083E+00  9.57798E+00  9.46338E+00  9.36940E+00  9.29833E+00  9.24285E+00  9.20554E+00  9.17938E+00
   9.16739E+00  9.16311E+00  9.17005E+00  9.18213E+00  9.20304E+00  9.22695E+00  9.25788E+00  9.29036E+00  9.32865E+00  9.36738E+00
   9.41084E+00  9.45378E+00  9.50068E+00  9.54650E+00  9.59587E+00  9.64376E+00  9.69473E+00  9.74387E+00  9.79591E+00  9.84602E+00
   9.89891E+00  9.94967E+00  1.00030E+01  1.00540E+01  1.01076E+01  1.01589E+01  1.02128E+01  1.02643E+01  1.03181E+01  1.03697E+01
   1.04236E+01  1.04754E+01  1.05295E+01  1.05813E+01  1.06354E+01  1.06873E+01  1.07417E+01  1.07939E+01  1.08486E+01  1.09010E+01
   1.09559E+01  1.10087E+01  1.10642E+01  1.11175E+01  1.11735E+01  1.12274E+01  1.12839E+01  1.13386E+01  1.13960E+01  1.14515E+01
   1.15098E+01  1.15662E+01  1.16256E+01  1.16832E+01  1.17438E+01  1.18028E+01  1.18647E+01  1.19250E+01
 NY background values follow
    -1.305E+02   -1.295E+02   -1.284E+02   -1.274E+02   -1.264E+02   -1.254E+02   -1.244E+02   -1.234E+02   -1.224E+02   -1.214E+02
    -1.204E+02   -1.195E+02   -1.185E+02   -1.175E+02   -1.165E+02   -1.155E+02   -1.146E+02   -1.136E+02   -1.127E+02   -1.117E+02
    -1.108E+02   -1.098E+02   -1.089E+02   -1.079E+02   -1.070E+02   -1.061E+02   -1.052E+02   -1.043E+02   -1.034E+02   -1.025E+02
    -1.016E+02   -1.007E+02   -9.981E+01   -9.894E+01   -9.807E+01   -9.722E+01   -9.637E+01   -9.553E+01   -9.470E+01   -9.388E+01
    -9.307E+01   -9.226E+01   -9.146E+01   -9.067E+01   -8.990E+01   -8.913E+01   -8.837E+01   -8.762E+01   -8.687E+01   -8.614E+01
    -8.542E+01   -8.471E+01   -8.400E+01   -8.331E+01   -8.262E+01   -8.194E+01   -8.127E+01   -8.061E+01   -7.996E+01   -7.932E+01
    -7.868E+01   -7.805E+01   -7.743E+01   -7.682E+01   -7.622E+01   -7.563E+01   -7.504E+01   -7.446E+01   -7.389E+01   -7.333E+01
    -7.277E+01   -7.222E+01   -7.168E+01   -7.114E+01   -7.062E+01   -7.010E+01   -6.958E+01   -6.908E+01   -6.858E+01   -6.809E+01
    -6.760E+01   -6.712E+01   -6.665E+01   -6.618E+01   -6.572E+01   -6.527E+01   -6.482E+01   -6.438E+01   -6.394E+01   -6.351E+01
    -6.309E+01   -6.267E+01   -6.226E+01   -6.185E+01   -6.145E+01   -6.105E+01   -6.066E+01   -6.027E+01   -5.989E+01   -5.951E+01
    -5.914E+01   -5.877E+01   -5.840E+01   -5.804E+01   -5.768E+01   -5.733E+01   -5.698E+01   -5.663E+01   -5.628E+01   -5.594E+01
    -5.560E+01   -5.526E+01   -5.493E+01   -5.459E+01   -5.426E+01   -5.394E+01   -5.361E+01   -5.328E+01   -5.296E+01   -5.264E+01
    -5.231E+01   -5.199E+01   -5.167E+01   -5.135E+01   -5.103E+01   -5.072E+01   -5.040E+01   -5.008E+01   -4.976E+01   -4.944E+01
    -4.912E+01   -4.880E+01   -4.848E+01   -4.816E+01   -4.783E+01   -4.751E+01   -4.718E+01   -4.685E+01   -4.652E+01   -4.619E+01
    -4.586E+01   -4.553E+01   -4.519E+01   -4.485E+01   -4.451E+01   -4.417E+01   -4.383E+01   -4.349E+01   -4.314E+01   -4.280E+01
    -4.245E+01   -4.210E+01   -4.175E+01   -4.140E+01   -4.104E+01   -4.069E+01   -4.033E+01   -3.997E+01   -3.962E+01   -3.925E+01
    -3.889E+01   -3.853E+01   -3.816E+01   -3.780E+01   -3.743E+01   -3.706E+01   -3.669E+01   -3.632E+01   -3.595E+01   -3.557E+01
    -3.520E+01   -3.482E+01   -3.444E+01   -3.407E+01   -3.369E+01   -3.330E+01   -3.292E+01   -3.254E+01   -3.215E+01   -3.176E+01
    -3.138E+01   -3.099E+01   -3.060E+01   -3.021E+01   -2.982E+01   -2.942E+01   -2.903E+01   -2.864E+01   -2.825E+01   -2.785E+01
    -2.746E+01   -2.707E+01   -2.668E+01   -2.630E+01   -2.591E+01   -2.553E+01   -2.515E+01   -2.477E+01   -2.439E+01   -2.401E+01
    -2.364E+01   -2.327E+01   -2.291E+01   -2.255E+01   -2.219E+01   -2.184E+01   -2.149E+01   -2.115E+01   -2.081E+01   -2.047E+01
    -2.014E+01   -1.982E+01   -1.950E+01   -1.919E+01   -1.889E+01   -1.859E+01   -1.829E+01   -1.801E+01   -1.773E+01   -1.746E+01
    -1.720E+01   -1.694E+01   -1.669E+01   -1.645E+01   -1.622E+01   -1.600E+01   -1.579E+01   -1.558E+01   -1.539E+01   -1.520E+01
    -1.502E+01   -1.485E+01   -1.469E+01   -1.453E+01   -1.439E+01   -1.425E+01   -1.412E+01   -1.399E+01   -1.387E+01   -1.376E+01
    -1.365E+01   -1.355E+01   -1.345E+01   -1.336E+01   -1.328E+01   -1.320E+01   -1.312E+01   -1.305E+01   -1.298E+01   -1.292E+01
    -1.286E+01   -1.280E+01   -1.275E+01   -1.270E+01   -1.265E+01   -1.260E+01   -1.256E+01   -1.252E+01   -1.248E+01   -1.244E+01
    -1.241E+01   -1.237E+01   -1.234E+01   -1.230E+01   -1.227E+01   -1.224E+01   -1.220E+01   -1.217E+01   -1.214E+01   -1.210E+01
    -1.206E+01   -1.203E+01   -1.199E+01   -1.195E+01   -1.190E+01   -1.186E+01   -1.181E+01   -1.177E+01   -1.172E+01   -1.167E+01
    -1.161E+01   -1.156E+01   -1.150E+01   -1.145E+01   -1.139E+01   -1.133E+01   -1.126E+01   -1.120E+01   -1.113E+01   -1.107E+01
    -1.100E+01   -1.092E+01   -1.085E+01   -1.077E+01   -1.070E+01   -1.062E+01   -1.054E+01   -1.045E+01   -1.037E+01   -1.028E+01
    -1.019E+01   -1.010E+01   -1.001E+01   -9.917E+00   -9.821E+00   -9.722E+00   -9.622E+00   -9.519E+00   -9.415E+00   -9.308E+00
    -9.200E+00   -9.089E+00   -8.976E+00   -8.861E+00   -8.744E+00   -8.625E+00   -8.504E+00   -8.381E+00   -8.255E+00   -8.128E+00
    -7.999E+00   -7.867E+00   -7.734E+00   -7.599E+00   -7.463E+00   -7.325E+00   -7.185E+00   -7.045E+00   -6.902E+00   -6.759E+00
    -6.614E+00   -6.468E+00   -6.321E+00   -6.173E+00   -6.024E+00   -5.875E+00   -5.724E+00   -5.573E+00   -5.422E+00   -5.269E+00
    -5.117E+00   -4.964E+00   -4.810E+00   -4.657E+00   -4.503E+00   -4.349E+00   -4.195E+00   -4.042E+00   -3.888E+00   -3.734E+00
    -3.581E+00   -3.429E+00   -3.276E+00   -3.124E+00   -2.973E+00   -2.822E+00   -2.673E+00   -2.524E+00   -2.375E+00   -2.228E+00
    -2.082E+00   -1.937E+00   -1.793E+00   -1.650E+00   -1.509E+00   -1.368E+00   -1.229E+00   -1.091E+00   -9.537E-01   -8.176E-01
    -6.826E-01   -5.486E-01   -4.155E-01   -2.834E-01   -1.523E-01   -2.199E-02    1.074E-01    2.359E-01    3.636E-01    4.905E-01
     6.167E-01    7.420E-01    8.667E-01    9.906E-01    1.114E+00    1.236E+00    1.358E+00    1.480E+00    1.601E+00    1.721E+00
     1.841E+00    1.960E+00    2.078E+00    2.197E+00    2.315E+00    2.432E+00    2.549E+00    2.666E+00    2.782E+00    2.898E+00
     3.014E+00    3.129E+00    3.245E+00    3.360E+00    3.475E+00    3.589E+00    3.704E+00    3.818E+00    3.933E+00    4.047E+00
     4.161E+00    4.275E+00    4.388E+00    4.502E+00    4.615E+00    4.728E+00    4.841E+00    4.953E+00    5.065E+00    5.176E+00
     5.287E+00    5.398E+00    5.508E+00    5.617E+00    5.726E+00    5.835E+00    5.943E+00    6.050E+00    6.157E+00    6.263E+00
     6.368E+00    6.472E+00    6.576E+00    6.679E+00    6.782E+00    6.883E+00    6.984E+00    7.083E+00    7.182E+00    7.280E+00
     7.377E+00    7.473E+00    7.568E+00    7.662E+00    7.754E+00    7.846E+00    7.937E+00    8.026E+00    8.114E+00    8.201E+00
     8.287E+00    8.372E+00    8.455E+00    8.537E+00    8.618E+00    8.697E+00    8.776E+00    8.853E+00    8.929E+00    9.004E+00
     9.078E+00    9.151E+00    9.224E+00    9.295E+00    9.366E+00    9.435E+00    9.504E+00    9.573E+00    9.640E+00    9.707E+00
     9.774E+00    9.840E+00    9.905E+00    9.970E+00    1.003E+01    1.010E+01    1.016E+01    1.023E+01    1.029E+01    1.035E+01
     1.042E+01    1.048E+01    1.054E+01    1.060E+01    1.067E+01    1.073E+01    1.079E+01    1.085E+01    1.092E+01    1.098E+01
     1.105E+01    1.111E+01    1.117E+01    1.124E+01    1.130E+01    1.137E+01    1.144E+01    1.150E+01
 Cr       Conc. = 3.54E+02
