 LCModel (Version 6.3-1L) Copyright: S.W. Provencher.          Ref.: Magn. Reson. Med. 30:672-679 (1993).                
 Slice#3 Row#13 Col#13  PD_05_press_1_raw_act
 36 lines in following concentration table = NCONC+1
    Conc.  %SD /Cr+PCr  Metabolite                                         
 7.48E+03   4%   0.000 Ala                                                 
    0.804 224%   0.000 Asp                                                 
    0.000 999%   0.000 Cr                                                  
    0.000 999%   0.000 PCr                                                 
    0.481 225%   0.000 GABA                                                
    0.493 220%   0.000 Glc                                                 
    0.000 999%   0.000 Gln                                                 
    0.000 999%   0.000 Glu                                                 
    0.000 999%   0.000 GPC                                                 
    5.440 158%   0.000 PCh                                                 
   37.038 110%   0.000 GSH                                                 
    0.000 999%   0.000 Ins                                                 
 3.93E+03  10%   0.000 Lac                                                 
    0.000 999%   0.000 NAA                                                 
    0.000 999%   0.000 NAAG                                                
    0.169 213%   0.000 Scyllo                                              
    0.840 214%   0.000 Tau                                                 
    5.289 123%   0.000 -CrCH2                                              
    5.440 158%   0.000 GPC+PCh                                             
    0.000 999%   0.000 NAA+NAAG                                            
    0.000 999%   0.000 Cr+PCr                                              
    0.000 999%   0.000 Glu+Gln                                             
    0.000 999%   0.000 Lip13a                                              
    0.000 999%   0.000 Lip13b                                              
  334.779  30%   0.000 Lip09                                               
 1.07E+03   9%   0.000 MM09                                                
    0.000 999%   0.000 Lip20                                               
 1.18E+03  12%   0.000-MM20                                                
  288.922  17%   0.000 MM12                                                
 2.88E+03   3%   0.000+MM14                                                
  572.669  19%   0.000 MM17                                                
    0.000 999%   0.000 Lip13a+Lip13b                                       
 3.17E+03   4%   0.000 MM14+Lip13a+Lip13b+MM12                             
 1.40E+03   8%   0.000 MM09+Lip09                                          
 1.18E+03  12%   0.000 MM20+Lip20                                          
   6 lines in following misc. output table
  FWHM = 0.168 ppm    S/N =  16                                            
  Data shift = 0.115 ppm                                                   
  Ph:-112 deg     -65.5 deg/ppm                                            
  alphaB,S = 8.5E+01,   6.3E+02                                            
    6 spline knots.   Ns = 9(2)                                            
   2 inflections.     1 extrema                                            
  498 points on ppm-axis = NY
      4.000000     3.992357     3.984714     3.977070     3.969427     3.961784     3.954141     3.946497     3.938854     3.931211
      3.923568     3.915925     3.908281     3.900638     3.892995     3.885352     3.877708     3.870065     3.862422     3.854779
      3.847136     3.839492     3.831849     3.824206     3.816563     3.808919     3.801276     3.793633     3.785990     3.778347
      3.770703     3.763060     3.755417     3.747774     3.740130     3.732487     3.724844     3.717201     3.709558     3.701914
      3.694271     3.686628     3.678985     3.671341     3.663698     3.656055     3.648412     3.640769     3.633125     3.625482
      3.617839     3.610196     3.602552     3.594909     3.587266     3.579623     3.571980     3.564336     3.556693     3.549050
      3.541407     3.533763     3.526120     3.518477     3.510834     3.503191     3.495547     3.487904     3.480261     3.472618
      3.464974     3.457331     3.449688     3.442045     3.434402     3.426758     3.419115     3.411472     3.403829     3.396185
      3.388542     3.380899     3.373256     3.365613     3.357969     3.350326     3.342683     3.335040     3.327396     3.319753
      3.312110     3.304467     3.296824     3.289180     3.281537     3.273894     3.266251     3.258607     3.250964     3.243321
      3.235678     3.228034     3.220391     3.212748     3.205105     3.197462     3.189818     3.182175     3.174532     3.166889
      3.159245     3.151602     3.143959     3.136316     3.128673     3.121029     3.113386     3.105743     3.098100     3.090456
      3.082813     3.075170     3.067527     3.059884     3.052240     3.044597     3.036954     3.029311     3.021667     3.014024
      3.006381     2.998738     2.991095     2.983451     2.975808     2.968165     2.960522     2.952878     2.945235     2.937592
      2.929949     2.922306     2.914662     2.907019     2.899376     2.891733     2.884089     2.876446     2.868803     2.861160
      2.853517     2.845873     2.838230     2.830587     2.822944     2.815300     2.807657     2.800014     2.792371     2.784728
      2.777084     2.769441     2.761798     2.754155     2.746511     2.738868     2.731225     2.723582     2.715939     2.708295
      2.700652     2.693009     2.685366     2.677722     2.670079     2.662436     2.654793     2.647150     2.639506     2.631863
      2.624220     2.616577     2.608933     2.601290     2.593647     2.586004     2.578361     2.570717     2.563074     2.555431
      2.547788     2.540144     2.532501     2.524858     2.517215     2.509572     2.501928     2.494285     2.486642     2.478999
      2.471355     2.463712     2.456069     2.448426     2.440783     2.433139     2.425496     2.417853     2.410210     2.402566
      2.394923     2.387280     2.379637     2.371994     2.364350     2.356707     2.349064     2.341421     2.333777     2.326134
      2.318491     2.310848     2.303205     2.295561     2.287918     2.280275     2.272632     2.264988     2.257345     2.249702
      2.242059     2.234416     2.226772     2.219129     2.211486     2.203843     2.196199     2.188556     2.180913     2.173270
      2.165627     2.157983     2.150340     2.142697     2.135054     2.127410     2.119767     2.112124     2.104481     2.096838
      2.089194     2.081551     2.073908     2.066265     2.058621     2.050978     2.043335     2.035692     2.028049     2.020405
      2.012762     2.005119     1.997476     1.989833     1.982190     1.974546     1.966903     1.959260     1.951617     1.943974
      1.936331     1.928688     1.921045     1.913402     1.905759     1.898115     1.890472     1.882829     1.875186     1.867543
      1.859900     1.852257     1.844614     1.836971     1.829327     1.821684     1.814041     1.806398     1.798755     1.791112
      1.783469     1.775826     1.768183     1.760540     1.752896     1.745253     1.737610     1.729967     1.722324     1.714681
      1.707038     1.699395     1.691752     1.684108     1.676465     1.668822     1.661179     1.653536     1.645893     1.638250
      1.630607     1.622964     1.615321     1.607677     1.600034     1.592391     1.584748     1.577105     1.569462     1.561819
      1.554176     1.546533     1.538890     1.531246     1.523603     1.515960     1.508317     1.500674     1.493031     1.485388
      1.477745     1.470102     1.462458     1.454815     1.447172     1.439529     1.431886     1.424243     1.416600     1.408957
      1.401314     1.393671     1.386027     1.378384     1.370741     1.363098     1.355455     1.347812     1.340169     1.332526
      1.324883     1.317240     1.309596     1.301953     1.294310     1.286667     1.279024     1.271381     1.263738     1.256095
      1.248452     1.240808     1.233165     1.225522     1.217879     1.210236     1.202593     1.194950     1.187307     1.179664
      1.172021     1.164377     1.156734     1.149091     1.141448     1.133805     1.126162     1.118519     1.110876     1.103233
      1.095590     1.087946     1.080303     1.072660     1.065017     1.057374     1.049731     1.042088     1.034445     1.026802
      1.019158     1.011515     1.003872     0.996229     0.988586     0.980943     0.973300     0.965657     0.958014     0.950371
      0.942727     0.935084     0.927441     0.919798     0.912155     0.904512     0.896869     0.889226     0.881583     0.873940
      0.866296     0.858653     0.851010     0.843367     0.835724     0.828081     0.820438     0.812795     0.805152     0.797508
      0.789865     0.782222     0.774579     0.766936     0.759293     0.751650     0.744007     0.736364     0.728721     0.721077
      0.713434     0.705791     0.698148     0.690505     0.682862     0.675219     0.667576     0.659933     0.652290     0.644646
      0.637003     0.629360     0.621717     0.614074     0.606431     0.598788     0.591145     0.583502     0.575858     0.568215
      0.560572     0.552929     0.545286     0.537643     0.530000     0.522357     0.514714     0.507071     0.499427     0.491784
      0.484141     0.476498     0.468855     0.461212     0.453569     0.445925     0.438282     0.430639     0.422996     0.415353
      0.407710     0.400067     0.392424     0.384780     0.377137     0.369494     0.361851     0.354208     0.346565     0.338922
      0.331278     0.323635     0.315992     0.308349     0.300706     0.293063     0.285420     0.277777     0.270133     0.262490
      0.254847     0.247204     0.239561     0.231918     0.224275     0.216631     0.208988     0.201345
 NY phased data points follow
   9.23111E-01  1.13787E+00  1.70787E+00  2.50777E-01  9.81688E-01  2.10009E+00  2.44897E+00  8.77872E-01  1.31848E+00  2.55413E+00
   2.33410E+00  1.50990E+00  1.53685E+00  1.38938E+00  1.21008E+00  1.74718E+00  4.91845E-01  1.47142E+00  6.96739E-01  7.09249E-01
   1.94355E+00  2.07785E+00  1.71542E+00  1.45994E+00  8.90497E-01  1.69346E+00  1.78137E+00  2.22380E+00  1.56571E+00  2.76854E+00
   2.06648E+00  8.12698E-01  2.02404E+00  3.37721E+00  2.30831E+00  2.47104E+00  3.07185E+00  2.58306E+00  1.66459E+00  2.25999E+00
   1.99030E+00  2.29919E+00  2.26533E+00  2.26516E+00  2.83219E+00  2.04927E+00  2.31674E+00  3.02243E+00  2.85074E+00  3.23932E+00
   2.09160E+00  2.90226E+00  3.06313E+00  1.31817E+00  2.35332E+00  3.78928E+00  2.45714E+00  3.03356E+00  2.12195E+00  3.86661E+00
   3.58800E+00  3.28981E+00  3.60214E+00  4.14832E+00  3.08378E+00  2.18286E+00  2.15068E+00  3.36228E+00  3.85715E+00  3.11247E+00
   2.95352E+00  2.98623E+00  2.63309E+00  3.67850E+00  4.26568E+00  2.54404E+00  3.47562E+00  2.13979E+00  3.00136E+00  4.14118E+00
   2.65846E+00  3.43836E+00  2.55283E+00  3.75634E+00  4.61769E+00  3.47765E+00  3.27717E+00  4.13668E+00  3.42237E+00  3.85554E+00
   4.76929E+00  3.65415E+00  3.67608E+00  3.77069E+00  3.57323E+00  3.57233E+00  2.65098E+00  2.82393E+00  2.73414E+00  3.53729E+00
   4.27479E+00  4.26946E+00  3.93647E+00  2.59011E+00  3.89929E+00  2.69536E+00  4.24102E+00  3.61857E+00  4.78614E+00  3.17784E+00
   3.62657E+00  4.05155E+00  3.37199E+00  4.34715E+00  4.46442E+00  4.29542E+00  4.98207E+00  4.43886E+00  3.42351E+00  3.89149E+00
   3.62069E+00  4.18903E+00  3.29732E+00  4.19273E+00  4.77013E+00  2.50532E+00  4.46854E+00  4.21406E+00  3.69519E+00  5.12768E+00
   4.03615E+00  3.02488E+00  4.03459E+00  5.42552E+00  3.05787E+00  4.75118E+00  3.60644E+00  4.26167E+00  4.43120E+00  3.53675E+00
   5.57605E+00  5.07439E+00  3.94470E+00  4.53228E+00  5.21082E+00  5.14707E+00  4.42846E+00  4.46283E+00  4.48341E+00  4.88627E+00
   4.05763E+00  4.77715E+00  4.26609E+00  4.27545E+00  4.13204E+00  4.94191E+00  4.04223E+00  4.65668E+00  4.46084E+00  4.76181E+00
   4.74391E+00  4.53914E+00  4.90310E+00  4.81424E+00  4.26751E+00  3.53007E+00  4.13515E+00  5.94057E+00  5.32660E+00  5.03044E+00
   3.71636E+00  4.12920E+00  3.71344E+00  4.52674E+00  4.74290E+00  4.72318E+00  5.26747E+00  4.13388E+00  4.69306E+00  4.47113E+00
   4.89492E+00  4.38388E+00  3.98759E+00  4.57244E+00  4.17590E+00  4.03116E+00  4.83249E+00  5.23252E+00  4.90918E+00  4.01221E+00
   3.91331E+00  5.79647E+00  4.37737E+00  4.79128E+00  4.37252E+00  4.99131E+00  4.60963E+00  4.79635E+00  5.31312E+00  5.40485E+00
   4.53692E+00  5.79845E+00  5.50938E+00  4.55886E+00  5.42934E+00  5.22872E+00  5.67678E+00  5.24448E+00  5.06113E+00  5.41359E+00
   4.32130E+00  5.31013E+00  6.38335E+00  6.00577E+00  5.17346E+00  5.26281E+00  5.02621E+00  6.26666E+00  6.24152E+00  6.58696E+00
   6.12732E+00  5.24789E+00  7.39998E+00  6.59115E+00  6.20378E+00  7.19764E+00  6.15283E+00  6.32642E+00  6.42330E+00  7.20396E+00
   6.37946E+00  6.30367E+00  6.51569E+00  5.90636E+00  5.70653E+00  6.28838E+00  6.35910E+00  6.13495E+00  6.80042E+00  6.81653E+00
   6.66283E+00  6.56863E+00  7.29141E+00  6.95581E+00  7.87413E+00  8.00557E+00  8.66277E+00  7.44693E+00  8.49514E+00  6.84904E+00
   8.00661E+00  7.13019E+00  7.60208E+00  6.92716E+00  7.55235E+00  7.68551E+00  6.85019E+00  7.83689E+00  7.71243E+00  7.87206E+00
   7.36736E+00  8.20968E+00  6.98621E+00  7.47365E+00  7.01371E+00  6.99642E+00  8.25259E+00  7.34068E+00  7.79906E+00  7.55597E+00
   8.50622E+00  7.54342E+00  7.42231E+00  5.71826E+00  8.38257E+00  6.54761E+00  7.40519E+00  7.64456E+00  9.12903E+00  7.68418E+00
   7.86168E+00  8.07594E+00  7.45167E+00  7.65232E+00  8.65058E+00  7.66232E+00  9.36501E+00  9.16153E+00  7.52830E+00  8.89343E+00
   9.46397E+00  1.06681E+01  9.65079E+00  9.60721E+00  1.11177E+01  1.12666E+01  1.12825E+01  1.14809E+01  1.34009E+01  1.28418E+01
   1.32802E+01  1.35671E+01  1.46397E+01  1.51971E+01  1.56404E+01  1.65674E+01  1.61883E+01  1.91597E+01  1.96844E+01  2.04407E+01
   2.21590E+01  2.21588E+01  2.30061E+01  2.52391E+01  2.58494E+01  2.73519E+01  2.84503E+01  2.92541E+01  3.11329E+01  3.15659E+01
   3.12378E+01  3.44337E+01  3.51982E+01  3.49653E+01  3.66767E+01  3.66531E+01  3.72805E+01  3.73020E+01  3.92644E+01  3.84207E+01
   3.92280E+01  3.95057E+01  3.95567E+01  3.85361E+01  3.91900E+01  3.94103E+01  3.91393E+01  3.90512E+01  3.88166E+01  3.76034E+01
   3.70299E+01  3.74343E+01  3.53673E+01  3.49736E+01  3.36664E+01  3.15807E+01  3.12194E+01  3.00285E+01  2.81665E+01  2.80970E+01
   2.57758E+01  2.51243E+01  2.37158E+01  2.19314E+01  2.18614E+01  2.05569E+01  2.07075E+01  1.89568E+01  1.79922E+01  1.74237E+01
   1.72220E+01  1.73262E+01  1.64937E+01  1.57345E+01  1.50876E+01  1.63015E+01  1.59874E+01  1.53080E+01  1.51434E+01  1.46396E+01
   1.53072E+01  1.56104E+01  1.51088E+01  1.53741E+01  1.45012E+01  1.26947E+01  1.47417E+01  1.37532E+01  1.37532E+01  1.36781E+01
   1.29736E+01  1.29775E+01  1.36500E+01  1.23594E+01  1.34500E+01  1.22809E+01  1.17832E+01  1.23797E+01  1.22210E+01  1.20803E+01
   1.22050E+01  1.21194E+01  1.22541E+01  1.24233E+01  1.12013E+01  1.17055E+01  1.15826E+01  1.07904E+01  1.06095E+01  1.06413E+01
   1.09516E+01  1.12537E+01  1.04653E+01  1.01088E+01  9.93529E+00  1.06716E+01  9.43988E+00  1.06558E+01  9.40558E+00  1.05927E+01
   8.91348E+00  8.84097E+00  8.97276E+00  8.91409E+00  9.22023E+00  9.12246E+00  9.53901E+00  8.43652E+00  8.50902E+00  8.76789E+00
   7.67421E+00  7.40351E+00  7.49128E+00  8.41464E+00  8.67426E+00  9.83657E+00  8.75588E+00  8.42171E+00  7.77953E+00  7.44138E+00
   8.17148E+00  7.91168E+00  7.93588E+00  7.84837E+00  8.20876E+00  6.96397E+00  8.32335E+00  7.37131E+00  6.86765E+00  8.37497E+00
   7.91501E+00  7.28172E+00  6.85934E+00  7.08332E+00  6.26373E+00  6.92729E+00  5.91881E+00  7.08143E+00  5.86117E+00  6.63721E+00
   7.35535E+00  6.41393E+00  6.23202E+00  5.74651E+00  5.64515E+00  6.66620E+00  6.35173E+00  5.35739E+00  5.69235E+00  4.68977E+00
   5.83563E+00  6.05355E+00  5.14058E+00  6.65179E+00  5.72842E+00  5.35384E+00  5.22236E+00  6.49116E+00  5.12955E+00  5.36050E+00
   5.34106E+00  4.70033E+00  5.12922E+00  4.96444E+00  4.35916E+00  5.12239E+00  5.57899E+00  5.67651E+00  4.48900E+00  5.51774E+00
   4.75588E+00  4.26615E+00  5.23439E+00  4.80325E+00  4.96500E+00  3.99303E+00  4.68517E+00  4.18829E+00  3.93164E+00  3.56909E+00
   4.19984E+00  5.92723E+00  4.67963E+00  4.43365E+00  4.73924E+00  4.36712E+00  4.76605E+00  4.40109E+00
 NY points of the fit to the data follow
   1.80865E+00  2.44473E+00  1.78029E+00  2.35820E+00  1.96632E+00  2.63055E+00  2.42689E+00  3.10223E+00  2.78057E+00  3.18339E+00
   2.74681E+00  2.92286E+00  2.40610E+00  2.59316E+00  2.00992E+00  2.40850E+00  1.99999E+00  2.47523E+00  2.13226E+00  2.59010E+00
   2.22599E+00  2.66008E+00  2.20532E+00  2.49653E+00  2.04599E+00  2.20244E+00  1.78605E+00  1.83564E+00  1.57272E+00  1.60655E+00
   1.57455E+00  1.60837E+00  1.80540E+00  1.82662E+00  2.16496E+00  2.05374E+00  2.41051E+00  2.13472E+00  2.48991E+00  2.08111E+00
   2.36466E+00  1.94692E+00  2.29167E+00  1.94443E+00  2.36775E+00  2.12096E+00  2.61821E+00  2.52255E+00  2.85954E+00  2.67665E+00
   2.86691E+00  2.63304E+00  2.70543E+00  2.44322E+00  2.41675E+00  2.34282E+00  2.44425E+00  2.47822E+00  2.61552E+00  2.70234E+00
   2.83582E+00  2.92547E+00  2.96755E+00  2.99224E+00  3.00759E+00  3.02014E+00  3.02940E+00  3.03869E+00  3.04646E+00  3.05500E+00
   3.06257E+00  3.07107E+00  3.07905E+00  3.08778E+00  3.09646E+00  3.10571E+00  3.11509E+00  3.12485E+00  3.13494E+00  3.14527E+00
   3.15620E+00  3.16732E+00  3.17918E+00  3.19148E+00  3.20586E+00  3.22728E+00  3.24962E+00  3.27055E+00  3.29732E+00  3.31722E+00
   3.34876E+00  3.36813E+00  3.40525E+00  3.42342E+00  3.46616E+00  3.48135E+00  3.52880E+00  3.54071E+00  3.59233E+00  3.60043E+00
   3.65518E+00  3.65869E+00  3.71428E+00  3.71264E+00  3.76706E+00  3.76030E+00  3.81150E+00  3.80340E+00  3.85107E+00  3.84431E+00
   3.88851E+00  3.88594E+00  3.92754E+00  3.92993E+00  3.96935E+00  3.97843E+00  4.01774E+00  4.03100E+00  4.06595E+00  4.08140E+00
   4.11170E+00  4.12890E+00  4.15810E+00  4.17698E+00  4.20827E+00  4.22999E+00  4.26367E+00  4.27852E+00  4.31092E+00  4.31753E+00
   4.34850E+00  4.34648E+00  4.37528E+00  4.36400E+00  4.38966E+00  4.36957E+00  4.39187E+00  4.36478E+00  4.38493E+00  4.35347E+00
   4.37142E+00  4.33705E+00  4.35130E+00  4.31497E+00  4.32406E+00  4.28754E+00  4.29156E+00  4.25760E+00  4.25814E+00  4.22764E+00
   4.22537E+00  4.19888E+00  4.19409E+00  4.17268E+00  4.16708E+00  4.15248E+00  4.14855E+00  4.13747E+00  4.13153E+00  4.12336E+00
   4.11625E+00  4.11161E+00  4.10663E+00  4.10566E+00  4.10448E+00  4.10575E+00  4.10701E+00  4.10903E+00  4.11138E+00  4.11444E+00
   4.11802E+00  4.12273E+00  4.12915E+00  4.13684E+00  4.14630E+00  4.15597E+00  4.16618E+00  4.17697E+00  4.18762E+00  4.19870E+00
   4.20756E+00  4.22206E+00  4.23281E+00  4.25070E+00  4.26238E+00  4.28323E+00  4.29545E+00  4.31941E+00  4.33241E+00  4.35934E+00
   4.37351E+00  4.40299E+00  4.41803E+00  4.44934E+00  4.46558E+00  4.49904E+00  4.51773E+00  4.55335E+00  4.57604E+00  4.61439E+00
   4.64197E+00  4.68233E+00  4.71398E+00  4.75568E+00  4.79129E+00  4.83428E+00  4.87399E+00  4.91831E+00  4.96165E+00  5.00804E+00
   5.05540E+00  5.10400E+00  5.15569E+00  5.20664E+00  5.26078E+00  5.31504E+00  5.37238E+00  5.43018E+00  5.49071E+00  5.55293E+00
   5.61700E+00  5.68254E+00  5.74915E+00  5.81791E+00  5.88794E+00  5.96048E+00  6.03442E+00  6.11197E+00  6.19333E+00  6.27625E+00
   6.36442E+00  6.45270E+00  6.54817E+00  6.64163E+00  6.74394E+00  6.84106E+00  6.94857E+00  7.04753E+00  7.15790E+00  7.25650E+00
   7.36643E+00  7.46277E+00  7.56958E+00  7.66086E+00  7.76069E+00  7.84273E+00  7.93035E+00  7.99837E+00  8.06839E+00  8.11863E+00
   8.16774E+00  8.19831E+00  8.22516E+00  8.23443E+00  8.23791E+00  8.22786E+00  8.21148E+00  8.18486E+00  8.15197E+00  8.11281E+00
   8.06828E+00  8.01770E+00  7.96253E+00  7.90433E+00  7.84336E+00  7.78207E+00  7.71957E+00  7.65985E+00  7.60179E+00  7.54745E+00
   7.49648E+00  7.45060E+00  7.41008E+00  7.37633E+00  7.35005E+00  7.33300E+00  7.32644E+00  7.33257E+00  7.35286E+00  7.38986E+00
   7.44541E+00  7.52234E+00  7.62253E+00  7.74873E+00  7.90246E+00  8.08582E+00  8.29941E+00  8.54399E+00  8.81854E+00  9.12191E+00
   9.45104E+00  9.80271E+00  1.01720E+01  1.05540E+01  1.09429E+01  1.13334E+01  1.17205E+01  1.21008E+01  1.24725E+01  1.28369E+01
   1.31982E+01  1.35655E+01  1.39531E+01  1.43824E+01  1.48842E+01  1.55041E+01  1.63124E+01  1.74334E+01  1.90871E+01  2.11839E+01
   2.24879E+01  2.41516E+01  2.49963E+01  2.63549E+01  2.67461E+01  2.76811E+01  2.75169E+01  2.91844E+01  2.95996E+01  3.14231E+01
   3.18866E+01  3.35334E+01  3.38474E+01  3.52101E+01  3.53886E+01  3.63816E+01  3.65269E+01  3.70642E+01  3.74701E+01  3.81330E+01
   3.84462E+01  3.84174E+01  3.89339E+01  3.85215E+01  3.92835E+01  3.83759E+01  3.89851E+01  3.82834E+01  3.87145E+01  3.75351E+01
   3.75607E+01  3.61232E+01  3.56221E+01  3.41449E+01  3.32983E+01  3.19178E+01  3.09229E+01  2.96681E+01  2.87070E+01  2.79704E+01
   2.66030E+01  2.57165E+01  2.41572E+01  2.33404E+01  2.16987E+01  2.09538E+01  1.92912E+01  1.91201E+01  1.81984E+01  1.81291E+01
   1.75530E+01  1.75101E+01  1.70727E+01  1.70019E+01  1.66826E+01  1.65316E+01  1.63584E+01  1.61545E+01  1.62193E+01  1.64126E+01
   1.62417E+01  1.59556E+01  1.56088E+01  1.49637E+01  1.44714E+01  1.35528E+01  1.30235E+01  1.27295E+01  1.25578E+01  1.24623E+01
   1.24183E+01  1.24100E+01  1.24257E+01  1.24567E+01  1.24952E+01  1.25348E+01  1.25695E+01  1.25945E+01  1.26052E+01  1.25984E+01
   1.25711E+01  1.25217E+01  1.24486E+01  1.23520E+01  1.22320E+01  1.20904E+01  1.19289E+01  1.17504E+01  1.15576E+01  1.13542E+01
   1.11436E+01  1.09297E+01  1.07159E+01  1.05058E+01  1.03023E+01  1.01084E+01  9.92620E+00  9.75782E+00  9.60422E+00  9.46643E+00
   9.34435E+00  9.23796E+00  9.14615E+00  9.06796E+00  9.00139E+00  8.94474E+00  8.89547E+00  8.85149E+00  8.81003E+00  8.76895E+00
   8.72559E+00  8.67814E+00  8.62447E+00  8.56343E+00  8.49362E+00  8.41469E+00  8.32610E+00  8.22837E+00  8.12181E+00  8.00767E+00
   7.88683E+00  7.76100E+00  7.63142E+00  7.49999E+00  7.36798E+00  7.23720E+00  7.10869E+00  6.98393E+00  6.86362E+00  6.74886E+00
   6.63994E+00  6.53756E+00  6.44158E+00  6.35238E+00  6.26956E+00  6.19324E+00  6.12285E+00  6.05835E+00  5.99906E+00  5.94488E+00
   5.89513E+00  5.84974E+00  5.80801E+00  5.76990E+00  5.73475E+00  5.70259E+00  5.67284E+00  5.64556E+00  5.62021E+00  5.59690E+00
   5.57513E+00  5.55506E+00  5.53626E+00  5.51890E+00  5.50255E+00  5.48742E+00  5.47312E+00  5.45988E+00  5.44733E+00  5.43571E+00
   5.42465E+00  5.41440E+00  5.40461E+00  5.39556E+00  5.38691E+00  5.37892E+00  5.37124E+00  5.36417E+00  5.35737E+00  5.35113E+00
   5.34513E+00  5.33964E+00  5.33435E+00  5.32954E+00  5.32492E+00  5.32076E+00  5.31676E+00  5.31322E+00  5.30981E+00  5.30687E+00
   5.30408E+00  5.30175E+00  5.29960E+00  5.29794E+00  5.29650E+00  5.29564E+00  5.29511E+00  5.29531E+00
 NY background values follow
     2.062E+00    2.072E+00    2.081E+00    2.091E+00    2.101E+00    2.110E+00    2.120E+00    2.130E+00    2.139E+00    2.149E+00
     2.159E+00    2.168E+00    2.178E+00    2.188E+00    2.197E+00    2.207E+00    2.216E+00    2.226E+00    2.236E+00    2.245E+00
     2.255E+00    2.265E+00    2.274E+00    2.284E+00    2.293E+00    2.303E+00    2.313E+00    2.322E+00    2.332E+00    2.341E+00
     2.351E+00    2.360E+00    2.370E+00    2.380E+00    2.389E+00    2.399E+00    2.408E+00    2.418E+00    2.427E+00    2.437E+00
     2.446E+00    2.456E+00    2.465E+00    2.475E+00    2.484E+00    2.494E+00    2.503E+00    2.513E+00    2.522E+00    2.532E+00
     2.541E+00    2.551E+00    2.560E+00    2.569E+00    2.579E+00    2.588E+00    2.598E+00    2.607E+00    2.616E+00    2.626E+00
     2.635E+00    2.645E+00    2.654E+00    2.663E+00    2.673E+00    2.682E+00    2.691E+00    2.700E+00    2.710E+00    2.719E+00
     2.728E+00    2.737E+00    2.747E+00    2.756E+00    2.765E+00    2.774E+00    2.783E+00    2.793E+00    2.802E+00    2.811E+00
     2.820E+00    2.829E+00    2.838E+00    2.847E+00    2.857E+00    2.866E+00    2.875E+00    2.884E+00    2.893E+00    2.902E+00
     2.911E+00    2.920E+00    2.929E+00    2.938E+00    2.947E+00    2.955E+00    2.964E+00    2.973E+00    2.982E+00    2.991E+00
     3.000E+00    3.009E+00    3.018E+00    3.026E+00    3.035E+00    3.044E+00    3.053E+00    3.061E+00    3.070E+00    3.079E+00
     3.087E+00    3.096E+00    3.105E+00    3.113E+00    3.122E+00    3.131E+00    3.139E+00    3.148E+00    3.156E+00    3.165E+00
     3.173E+00    3.182E+00    3.190E+00    3.199E+00    3.207E+00    3.215E+00    3.224E+00    3.232E+00    3.241E+00    3.249E+00
     3.257E+00    3.265E+00    3.274E+00    3.282E+00    3.290E+00    3.298E+00    3.306E+00    3.315E+00    3.323E+00    3.331E+00
     3.339E+00    3.347E+00    3.355E+00    3.363E+00    3.371E+00    3.379E+00    3.387E+00    3.395E+00    3.403E+00    3.411E+00
     3.419E+00    3.426E+00    3.434E+00    3.442E+00    3.450E+00    3.457E+00    3.465E+00    3.473E+00    3.480E+00    3.488E+00
     3.496E+00    3.503E+00    3.511E+00    3.518E+00    3.526E+00    3.533E+00    3.541E+00    3.548E+00    3.556E+00    3.563E+00
     3.570E+00    3.578E+00    3.585E+00    3.592E+00    3.599E+00    3.607E+00    3.614E+00    3.621E+00    3.628E+00    3.635E+00
     3.642E+00    3.649E+00    3.656E+00    3.663E+00    3.670E+00    3.677E+00    3.684E+00    3.691E+00    3.698E+00    3.705E+00
     3.712E+00    3.719E+00    3.725E+00    3.732E+00    3.739E+00    3.746E+00    3.752E+00    3.759E+00    3.766E+00    3.772E+00
     3.779E+00    3.786E+00    3.792E+00    3.799E+00    3.805E+00    3.812E+00    3.818E+00    3.824E+00    3.831E+00    3.837E+00
     3.844E+00    3.850E+00    3.856E+00    3.863E+00    3.869E+00    3.875E+00    3.881E+00    3.887E+00    3.894E+00    3.900E+00
     3.906E+00    3.912E+00    3.918E+00    3.924E+00    3.930E+00    3.936E+00    3.942E+00    3.948E+00    3.954E+00    3.960E+00
     3.966E+00    3.972E+00    3.978E+00    3.984E+00    3.989E+00    3.995E+00    4.001E+00    4.007E+00    4.013E+00    4.018E+00
     4.024E+00    4.030E+00    4.035E+00    4.041E+00    4.047E+00    4.052E+00    4.058E+00    4.063E+00    4.069E+00    4.074E+00
     4.080E+00    4.085E+00    4.091E+00    4.096E+00    4.102E+00    4.107E+00    4.112E+00    4.118E+00    4.123E+00    4.128E+00
     4.134E+00    4.139E+00    4.144E+00    4.149E+00    4.155E+00    4.160E+00    4.165E+00    4.170E+00    4.175E+00    4.180E+00
     4.185E+00    4.191E+00    4.196E+00    4.201E+00    4.206E+00    4.211E+00    4.216E+00    4.221E+00    4.226E+00    4.231E+00
     4.235E+00    4.240E+00    4.245E+00    4.250E+00    4.255E+00    4.260E+00    4.265E+00    4.269E+00    4.274E+00    4.279E+00
     4.284E+00    4.288E+00    4.293E+00    4.298E+00    4.302E+00    4.307E+00    4.312E+00    4.316E+00    4.321E+00    4.325E+00
     4.330E+00    4.335E+00    4.339E+00    4.344E+00    4.348E+00    4.353E+00    4.357E+00    4.362E+00    4.366E+00    4.370E+00
     4.375E+00    4.379E+00    4.384E+00    4.388E+00    4.392E+00    4.397E+00    4.401E+00    4.405E+00    4.409E+00    4.414E+00
     4.418E+00    4.422E+00    4.426E+00    4.431E+00    4.435E+00    4.439E+00    4.443E+00    4.447E+00    4.451E+00    4.455E+00
     4.460E+00    4.464E+00    4.468E+00    4.472E+00    4.476E+00    4.480E+00    4.484E+00    4.488E+00    4.492E+00    4.496E+00
     4.500E+00    4.504E+00    4.508E+00    4.512E+00    4.515E+00    4.519E+00    4.523E+00    4.527E+00    4.531E+00    4.535E+00
     4.539E+00    4.542E+00    4.546E+00    4.550E+00    4.554E+00    4.558E+00    4.561E+00    4.565E+00    4.569E+00    4.572E+00
     4.576E+00    4.580E+00    4.583E+00    4.587E+00    4.591E+00    4.594E+00    4.598E+00    4.602E+00    4.605E+00    4.609E+00
     4.612E+00    4.616E+00    4.620E+00    4.623E+00    4.627E+00    4.630E+00    4.634E+00    4.637E+00    4.641E+00    4.644E+00
     4.648E+00    4.651E+00    4.655E+00    4.658E+00    4.661E+00    4.665E+00    4.668E+00    4.672E+00    4.675E+00    4.678E+00
     4.682E+00    4.685E+00    4.689E+00    4.692E+00    4.695E+00    4.699E+00    4.702E+00    4.705E+00    4.709E+00    4.712E+00
     4.715E+00    4.718E+00    4.722E+00    4.725E+00    4.728E+00    4.731E+00    4.735E+00    4.738E+00    4.741E+00    4.744E+00
     4.747E+00    4.751E+00    4.754E+00    4.757E+00    4.760E+00    4.763E+00    4.767E+00    4.770E+00    4.773E+00    4.776E+00
     4.779E+00    4.782E+00    4.785E+00    4.788E+00    4.792E+00    4.795E+00    4.798E+00    4.801E+00    4.804E+00    4.807E+00
     4.810E+00    4.813E+00    4.816E+00    4.819E+00    4.822E+00    4.825E+00    4.828E+00    4.831E+00    4.834E+00    4.837E+00
     4.840E+00    4.843E+00    4.846E+00    4.849E+00    4.852E+00    4.855E+00    4.858E+00    4.861E+00    4.864E+00    4.867E+00
     4.870E+00    4.873E+00    4.876E+00    4.879E+00    4.882E+00    4.885E+00    4.888E+00    4.891E+00    4.894E+00    4.896E+00
     4.899E+00    4.902E+00    4.905E+00    4.908E+00    4.911E+00    4.914E+00    4.917E+00    4.920E+00    4.923E+00    4.925E+00
     4.928E+00    4.931E+00    4.934E+00    4.937E+00    4.940E+00    4.943E+00    4.946E+00    4.948E+00    4.951E+00    4.954E+00
     4.957E+00    4.960E+00    4.963E+00    4.965E+00    4.968E+00    4.971E+00    4.974E+00    4.977E+00    4.980E+00    4.983E+00
     4.985E+00    4.988E+00    4.991E+00    4.994E+00    4.997E+00    5.000E+00    5.002E+00    5.005E+00
 Ala      Conc. = 7.48E+03
