 LCModel (Version 6.3-1L) Copyright: S.W. Provencher.          Ref.: Magn. Reson. Med. 30:672-679 (1993).                
 Slice#3 Row#4 Col#11  PD_05_press_1_raw_act
 36 lines in following concentration table = NCONC+1
    Conc.  %SD /Cr+PCr  Metabolite                                         
  377.573  62%   0.457 Ala                                                 
   43.410 289% 5.3E-02 Asp                                                 
    0.000 999%   0.000 Cr                                                  
  826.344   8%   1.000 PCr                                                 
   70.453 116% 8.5E-02 GABA                                                
   12.531 633% 1.5E-02 Glc                                                 
 1.47E+03  32%   1.778 Gln                                                 
 2.50E+03  23%   3.029 Glu                                                 
  230.974  10%   0.280 GPC                                                 
    0.000 999%   0.000 PCh                                                 
  188.877  50%   0.229 GSH                                                 
 1.21E+03  26%   1.464 Ins                                                 
    0.000 999%   0.000 Lac                                                 
 1.08E+03   7%   1.302 NAA                                                 
    0.000 999%   0.000 NAAG                                                
   59.639  35% 7.2E-02 Scyllo                                              
    0.000 999%   0.000 Tau                                                 
  203.043  67%   0.246 -CrCH2                                              
  230.974  10%   0.280 GPC+PCh                                             
 1.08E+03   7%   1.302 NAA+NAAG                                            
  826.344   8%   1.000 Cr+PCr                                              
 3.97E+03  24%   4.806 Glu+Gln                                             
  459.818 166%   0.556 Lip13a                                              
  347.377 136%   0.420 Lip13b                                              
    0.000 999%   0.000 Lip09                                               
  205.138  51%   0.248 MM09                                                
 1.21E+03  34%   1.469 Lip20                                               
  599.798  71%   0.726 MM20                                                
   44.162 333% 5.3E-02 MM12                                                
 2.42E+03  16%   2.933 MM14                                                
 1.72E+03  19%   2.087 MM17                                                
  807.196  49%   0.977 Lip13a+Lip13b                                       
 3.28E+03  18%   3.963 MM14+Lip13a+Lip13b+MM12                             
  205.138  51%   0.248 MM09+Lip09                                          
 1.81E+03  21%   2.195 MM20+Lip20                                          
   6 lines in following misc. output table
  FWHM = 0.122 ppm    S/N =   8                                            
  Data shift = 0.008 ppm                                                   
  Ph:   7 deg     -19.9 deg/ppm                                            
  alphaB,S = 2.7E-01,   3.1E-01                                            
   14 spline knots.   Ns = 7(2)                                            
   9 inflections.     5 extrema                                            
  498 points on ppm-axis = NY
      4.000000     3.992357     3.984714     3.977070     3.969427     3.961784     3.954141     3.946497     3.938854     3.931211
      3.923568     3.915925     3.908281     3.900638     3.892995     3.885352     3.877708     3.870065     3.862422     3.854779
      3.847136     3.839492     3.831849     3.824206     3.816563     3.808919     3.801276     3.793633     3.785990     3.778347
      3.770703     3.763060     3.755417     3.747774     3.740130     3.732487     3.724844     3.717201     3.709558     3.701914
      3.694271     3.686628     3.678985     3.671341     3.663698     3.656055     3.648412     3.640769     3.633125     3.625482
      3.617839     3.610196     3.602552     3.594909     3.587266     3.579623     3.571980     3.564336     3.556693     3.549050
      3.541407     3.533763     3.526120     3.518477     3.510834     3.503191     3.495547     3.487904     3.480261     3.472618
      3.464974     3.457331     3.449688     3.442045     3.434402     3.426758     3.419115     3.411472     3.403829     3.396185
      3.388542     3.380899     3.373256     3.365613     3.357969     3.350326     3.342683     3.335040     3.327396     3.319753
      3.312110     3.304467     3.296824     3.289180     3.281537     3.273894     3.266251     3.258607     3.250964     3.243321
      3.235678     3.228034     3.220391     3.212748     3.205105     3.197462     3.189818     3.182175     3.174532     3.166889
      3.159245     3.151602     3.143959     3.136316     3.128673     3.121029     3.113386     3.105743     3.098100     3.090456
      3.082813     3.075170     3.067527     3.059884     3.052240     3.044597     3.036954     3.029311     3.021667     3.014024
      3.006381     2.998738     2.991095     2.983451     2.975808     2.968165     2.960522     2.952878     2.945235     2.937592
      2.929949     2.922306     2.914662     2.907019     2.899376     2.891733     2.884089     2.876446     2.868803     2.861160
      2.853517     2.845873     2.838230     2.830587     2.822944     2.815300     2.807657     2.800014     2.792371     2.784728
      2.777084     2.769441     2.761798     2.754155     2.746511     2.738868     2.731225     2.723582     2.715939     2.708295
      2.700652     2.693009     2.685366     2.677722     2.670079     2.662436     2.654793     2.647150     2.639506     2.631863
      2.624220     2.616577     2.608933     2.601290     2.593647     2.586004     2.578361     2.570717     2.563074     2.555431
      2.547788     2.540144     2.532501     2.524858     2.517215     2.509572     2.501928     2.494285     2.486642     2.478999
      2.471355     2.463712     2.456069     2.448426     2.440783     2.433139     2.425496     2.417853     2.410210     2.402566
      2.394923     2.387280     2.379637     2.371994     2.364350     2.356707     2.349064     2.341421     2.333777     2.326134
      2.318491     2.310848     2.303205     2.295561     2.287918     2.280275     2.272632     2.264988     2.257345     2.249702
      2.242059     2.234416     2.226772     2.219129     2.211486     2.203843     2.196199     2.188556     2.180913     2.173270
      2.165627     2.157983     2.150340     2.142697     2.135054     2.127410     2.119767     2.112124     2.104481     2.096838
      2.089194     2.081551     2.073908     2.066265     2.058621     2.050978     2.043335     2.035692     2.028049     2.020405
      2.012762     2.005119     1.997476     1.989833     1.982190     1.974546     1.966903     1.959260     1.951617     1.943974
      1.936331     1.928688     1.921045     1.913402     1.905759     1.898115     1.890472     1.882829     1.875186     1.867543
      1.859900     1.852257     1.844614     1.836971     1.829327     1.821684     1.814041     1.806398     1.798755     1.791112
      1.783469     1.775826     1.768183     1.760540     1.752896     1.745253     1.737610     1.729967     1.722324     1.714681
      1.707038     1.699395     1.691752     1.684108     1.676465     1.668822     1.661179     1.653536     1.645893     1.638250
      1.630607     1.622964     1.615321     1.607677     1.600034     1.592391     1.584748     1.577105     1.569462     1.561819
      1.554176     1.546533     1.538890     1.531246     1.523603     1.515960     1.508317     1.500674     1.493031     1.485388
      1.477745     1.470102     1.462458     1.454815     1.447172     1.439529     1.431886     1.424243     1.416600     1.408957
      1.401314     1.393671     1.386027     1.378384     1.370741     1.363098     1.355455     1.347812     1.340169     1.332526
      1.324883     1.317240     1.309596     1.301953     1.294310     1.286667     1.279024     1.271381     1.263738     1.256095
      1.248452     1.240808     1.233165     1.225522     1.217879     1.210236     1.202593     1.194950     1.187307     1.179664
      1.172021     1.164377     1.156734     1.149091     1.141448     1.133805     1.126162     1.118519     1.110876     1.103233
      1.095590     1.087946     1.080303     1.072660     1.065017     1.057374     1.049731     1.042088     1.034445     1.026802
      1.019158     1.011515     1.003872     0.996229     0.988586     0.980943     0.973300     0.965657     0.958014     0.950371
      0.942727     0.935084     0.927441     0.919798     0.912155     0.904512     0.896869     0.889226     0.881583     0.873940
      0.866296     0.858653     0.851010     0.843367     0.835724     0.828081     0.820438     0.812795     0.805152     0.797508
      0.789865     0.782222     0.774579     0.766936     0.759293     0.751650     0.744007     0.736364     0.728721     0.721077
      0.713434     0.705791     0.698148     0.690505     0.682862     0.675219     0.667576     0.659933     0.652290     0.644646
      0.637003     0.629360     0.621717     0.614074     0.606431     0.598788     0.591145     0.583502     0.575858     0.568215
      0.560572     0.552929     0.545286     0.537643     0.530000     0.522357     0.514714     0.507071     0.499427     0.491784
      0.484141     0.476498     0.468855     0.461212     0.453569     0.445925     0.438282     0.430639     0.422996     0.415353
      0.407710     0.400067     0.392424     0.384780     0.377137     0.369494     0.361851     0.354208     0.346565     0.338922
      0.331278     0.323635     0.315992     0.308349     0.300706     0.293063     0.285420     0.277777     0.270133     0.262490
      0.254847     0.247204     0.239561     0.231918     0.224275     0.216631     0.208988     0.201345
 NY phased data points follow
   1.18540E+01  1.24403E+01  1.38351E+01  1.04764E+01  1.20917E+01  1.32281E+01  1.37635E+01  1.41721E+01  1.53658E+01  1.27211E+01
   1.42823E+01  9.81432E+00  1.42449E+01  1.42786E+01  1.14531E+01  8.97257E+00  1.06064E+01  1.17760E+01  1.10755E+01  1.19091E+01
   9.28018E+00  1.28438E+01  1.08478E+01  1.09179E+01  1.04467E+01  1.15845E+01  1.18250E+01  9.40759E+00  1.00548E+01  1.09443E+01
   1.16295E+01  1.17578E+01  1.21156E+01  1.06658E+01  8.94301E+00  1.09083E+01  1.09313E+01  1.12921E+01  1.20395E+01  1.45485E+01
   1.25135E+01  1.26525E+01  1.40091E+01  1.12722E+01  1.23908E+01  1.26021E+01  1.50498E+01  1.21160E+01  1.48607E+01  1.17911E+01
   1.18941E+01  1.15323E+01  1.07253E+01  1.32712E+01  9.18292E+00  8.45412E+00  9.56473E+00  1.04683E+01  9.97437E+00  9.63340E+00
   8.96955E+00  1.06292E+01  8.15096E+00  8.92703E+00  6.85163E+00  5.21043E+00  9.86593E+00  1.00317E+01  9.81574E+00  7.01079E+00
   1.10602E+01  7.57432E+00  5.93606E+00  6.72378E+00  8.83426E+00  6.74639E+00  7.73794E+00  8.06082E+00  6.61807E+00  8.31565E+00
   7.39848E+00  6.73898E+00  8.01917E+00  1.03426E+01  9.56667E+00  1.03636E+01  8.57631E+00  8.80274E+00  1.24134E+01  1.17150E+01
   1.06686E+01  9.57661E+00  1.30833E+01  1.25337E+01  1.23190E+01  1.10169E+01  1.39982E+01  1.54596E+01  1.65018E+01  1.60833E+01
   1.62496E+01  1.90386E+01  1.84790E+01  1.74256E+01  1.63264E+01  1.36671E+01  1.69860E+01  1.49532E+01  1.46006E+01  1.36260E+01
   1.25439E+01  1.01802E+01  1.20420E+01  1.18682E+01  1.44955E+01  1.33846E+01  1.63206E+01  1.39913E+01  1.57164E+01  1.79610E+01
   1.93822E+01  2.08816E+01  2.02021E+01  1.97007E+01  2.35600E+01  2.51869E+01  2.31946E+01  2.65879E+01  2.50242E+01  2.28458E+01
   1.88968E+01  1.80413E+01  2.02448E+01  1.89025E+01  1.82453E+01  1.79815E+01  1.50133E+01  1.58290E+01  1.48551E+01  1.40809E+01
   1.70339E+01  1.55786E+01  1.42603E+01  1.72402E+01  1.37537E+01  1.50955E+01  1.32759E+01  1.45563E+01  1.51094E+01  1.43184E+01
   1.61998E+01  1.48720E+01  1.45560E+01  1.32232E+01  1.36509E+01  1.41902E+01  1.65789E+01  1.44122E+01  1.54747E+01  1.19083E+01
   1.38328E+01  1.21966E+01  1.57750E+01  1.75012E+01  1.62388E+01  1.43475E+01  1.45006E+01  1.27888E+01  1.51582E+01  1.28322E+01
   1.36078E+01  1.56475E+01  1.46912E+01  1.21472E+01  1.50699E+01  9.71676E+00  1.22581E+01  1.38955E+01  1.24896E+01  1.30600E+01
   1.45994E+01  1.47044E+01  1.21921E+01  1.65342E+01  1.32051E+01  1.38915E+01  1.40900E+01  1.53073E+01  1.72365E+01  1.78377E+01
   1.58331E+01  1.62712E+01  1.64930E+01  1.55509E+01  1.62888E+01  1.50066E+01  1.75601E+01  1.40245E+01  1.70775E+01  1.92790E+01
   1.94635E+01  1.95299E+01  2.04913E+01  2.17811E+01  1.84495E+01  1.82826E+01  2.36001E+01  2.11714E+01  2.33361E+01  2.32347E+01
   2.44775E+01  2.40066E+01  2.32734E+01  2.61211E+01  2.32382E+01  2.41979E+01  2.29176E+01  2.36634E+01  2.27773E+01  2.51098E+01
   2.40499E+01  2.62467E+01  2.55875E+01  2.65490E+01  2.57947E+01  2.90743E+01  2.77553E+01  2.76398E+01  2.85866E+01  2.99388E+01
   2.91235E+01  2.93327E+01  3.12183E+01  3.09148E+01  3.07118E+01  3.19615E+01  2.91392E+01  3.10045E+01  3.21812E+01  3.17709E+01
   3.39759E+01  3.27131E+01  3.28548E+01  3.51814E+01  3.61073E+01  3.49419E+01  4.10054E+01  3.80450E+01  3.99953E+01  3.87619E+01
   4.34348E+01  4.40613E+01  4.48367E+01  4.87750E+01  4.89939E+01  5.07065E+01  5.32179E+01  5.68918E+01  5.79728E+01  5.97212E+01
   6.04091E+01  6.22219E+01  6.03902E+01  5.46852E+01  5.25324E+01  5.45259E+01  5.74637E+01  5.39292E+01  5.10691E+01  5.10087E+01
   4.98749E+01  5.04621E+01  4.79260E+01  4.61559E+01  4.74568E+01  4.72593E+01  4.45832E+01  4.41764E+01  4.79691E+01  4.86469E+01
   4.65149E+01  4.67506E+01  4.74874E+01  4.61811E+01  4.76520E+01  4.82458E+01  4.95478E+01  4.83607E+01  4.93839E+01  4.82584E+01
   4.79715E+01  4.62210E+01  4.86605E+01  4.80110E+01  5.00229E+01  5.22455E+01  5.01700E+01  4.99232E+01  4.82514E+01  5.01977E+01
   4.90575E+01  5.03547E+01  5.04408E+01  5.01094E+01  5.32062E+01  5.12902E+01  5.33231E+01  5.29247E+01  5.36281E+01  5.49018E+01
   5.47377E+01  5.49744E+01  5.49018E+01  5.54840E+01  5.28220E+01  5.39920E+01  5.59611E+01  5.74560E+01  5.54230E+01  5.34619E+01
   5.42860E+01  5.36543E+01  5.15001E+01  5.50861E+01  5.24390E+01  5.27166E+01  5.11700E+01  5.27806E+01  5.14257E+01  5.13637E+01
   5.02309E+01  5.04315E+01  5.14837E+01  4.69078E+01  4.87490E+01  4.61490E+01  4.57718E+01  4.62426E+01  4.31554E+01  4.45929E+01
   4.40650E+01  4.33646E+01  4.18740E+01  4.10058E+01  4.35933E+01  4.34249E+01  4.18837E+01  4.16346E+01  4.33324E+01  3.95846E+01
   4.13385E+01  3.83854E+01  4.02842E+01  4.22291E+01  3.84998E+01  4.22941E+01  3.87770E+01  4.02271E+01  3.74432E+01  3.81443E+01
   3.65197E+01  3.93005E+01  3.64837E+01  3.51149E+01  3.70755E+01  3.39556E+01  3.34935E+01  3.31558E+01  3.19868E+01  3.03656E+01
   3.33836E+01  3.14704E+01  3.20349E+01  3.16149E+01  2.73449E+01  2.79997E+01  2.96901E+01  2.76186E+01  2.98245E+01  2.71690E+01
   2.60673E+01  2.59842E+01  2.83848E+01  2.71390E+01  2.68250E+01  2.41950E+01  2.74894E+01  2.37784E+01  2.41211E+01  2.58709E+01
   2.43482E+01  2.31591E+01  2.23783E+01  2.27981E+01  2.24493E+01  2.38629E+01  2.01301E+01  2.26522E+01  2.13230E+01  2.29140E+01
   2.11463E+01  2.22114E+01  2.09733E+01  2.31786E+01  2.25390E+01  1.97096E+01  2.20365E+01  1.89937E+01  2.11781E+01  2.03301E+01
   2.33720E+01  1.95541E+01  2.13798E+01  1.78907E+01  2.06536E+01  2.03313E+01  1.83296E+01  2.06123E+01  2.02994E+01  1.83216E+01
   1.87482E+01  1.92458E+01  1.74536E+01  1.78195E+01  1.64010E+01  1.51084E+01  1.72966E+01  1.92277E+01  1.64750E+01  1.64014E+01
   1.66322E+01  1.66546E+01  1.55505E+01  1.27583E+01  1.53843E+01  1.50056E+01  1.42543E+01  1.51736E+01  1.43759E+01  1.18544E+01
   1.37189E+01  1.20186E+01  1.43991E+01  1.50351E+01  1.31994E+01  1.32433E+01  1.42241E+01  1.27977E+01  1.46334E+01  1.38661E+01
   1.39630E+01  1.13945E+01  1.21420E+01  1.24739E+01  9.91430E+00  1.27551E+01  1.18524E+01  1.28616E+01  1.25914E+01  1.11495E+01
   1.10812E+01  1.18477E+01  1.17780E+01  1.20095E+01  1.31860E+01  1.22508E+01  1.20574E+01  9.45443E+00  1.05847E+01  1.09636E+01
   1.14118E+01  1.04980E+01  1.07213E+01  1.03454E+01  1.34955E+01  9.39490E+00  1.01655E+01  9.97052E+00  9.96153E+00  9.55024E+00
   8.60061E+00  1.12627E+01  1.02801E+01  9.37287E+00  9.22823E+00  8.28648E+00  8.41601E+00  8.69778E+00  7.95129E+00  9.61339E+00
   1.17745E+01  1.11134E+01  9.78561E+00  1.04222E+01  1.12391E+01  9.41848E+00  8.80803E+00  8.00735E+00
 NY points of the fit to the data follow
   1.11366E+01  1.11435E+01  1.21219E+01  1.18289E+01  1.28523E+01  1.26612E+01  1.38542E+01  1.33747E+01  1.44502E+01  1.37146E+01
   1.45852E+01  1.25845E+01  1.24143E+01  1.23693E+01  1.27109E+01  1.16604E+01  1.19268E+01  1.11368E+01  1.10098E+01  1.10655E+01
   1.08690E+01  1.09380E+01  1.05318E+01  1.09590E+01  1.04840E+01  1.08009E+01  1.01492E+01  1.09386E+01  1.03923E+01  1.18966E+01
   1.16901E+01  1.29473E+01  1.13021E+01  1.24187E+01  1.12574E+01  1.13979E+01  1.04073E+01  1.18260E+01  1.17913E+01  1.29247E+01
   1.22054E+01  1.26208E+01  1.17228E+01  1.18381E+01  1.17944E+01  1.25615E+01  1.27523E+01  1.29856E+01  1.24180E+01  1.15600E+01
   1.04610E+01  1.03025E+01  1.07624E+01  1.07666E+01  1.06036E+01  1.02184E+01  9.96685E+00  9.53919E+00  9.53745E+00  9.29682E+00
   9.55858E+00  9.14327E+00  9.11510E+00  8.72322E+00  8.81135E+00  8.62912E+00  8.99929E+00  8.77514E+00  9.04673E+00  8.72859E+00
   8.86390E+00  8.68345E+00  9.09527E+00  9.06221E+00  8.84703E+00  8.59233E+00  8.80115E+00  8.76739E+00  8.66486E+00  8.61249E+00
   8.48231E+00  8.49187E+00  8.35753E+00  8.41377E+00  8.09799E+00  8.09798E+00  7.89283E+00  8.36859E+00  9.65399E+00  9.84510E+00
   9.85456E+00  1.03385E+01  1.16623E+01  1.20891E+01  1.33412E+01  1.36419E+01  1.48414E+01  1.51156E+01  1.66393E+01  1.67482E+01
   1.79244E+01  1.78037E+01  1.84088E+01  1.72479E+01  1.47292E+01  1.40946E+01  1.57240E+01  1.53810E+01  1.44383E+01  1.35828E+01
   1.25452E+01  1.19044E+01  1.15911E+01  1.34522E+01  1.38071E+01  1.35335E+01  1.37800E+01  1.55152E+01  1.55952E+01  1.72708E+01
   1.79270E+01  1.95446E+01  2.01277E+01  2.19936E+01  2.24332E+01  2.36824E+01  2.38850E+01  2.45891E+01  2.37012E+01  2.05512E+01
   1.99358E+01  2.15518E+01  2.14893E+01  2.00898E+01  1.93027E+01  1.77481E+01  1.70526E+01  1.59519E+01  1.58071E+01  1.54957E+01
   1.55388E+01  1.52169E+01  1.50100E+01  1.40547E+01  1.39200E+01  1.38620E+01  1.40407E+01  1.39834E+01  1.39919E+01  1.40011E+01
   1.40525E+01  1.41343E+01  1.41756E+01  1.42105E+01  1.41931E+01  1.42920E+01  1.42904E+01  1.43489E+01  1.42809E+01  1.43108E+01
   1.42587E+01  1.42788E+01  1.41987E+01  1.41676E+01  1.42972E+01  1.42533E+01  1.41363E+01  1.38864E+01  1.37260E+01  1.37851E+01
   1.38789E+01  1.37706E+01  1.36582E+01  1.35508E+01  1.34218E+01  1.35410E+01  1.35414E+01  1.37391E+01  1.37795E+01  1.41383E+01
   1.39549E+01  1.41093E+01  1.40491E+01  1.44381E+01  1.45474E+01  1.48827E+01  1.48178E+01  1.53019E+01  1.57009E+01  1.61603E+01
   1.64804E+01  1.69217E+01  1.73814E+01  1.76270E+01  1.79272E+01  1.83129E+01  1.81174E+01  1.84617E+01  1.93724E+01  1.99233E+01
   1.96070E+01  2.02575E+01  2.09507E+01  2.14223E+01  2.04461E+01  2.09340E+01  2.09724E+01  2.13307E+01  2.03944E+01  2.10119E+01
   2.14167E+01  2.29095E+01  2.39047E+01  2.46562E+01  2.31029E+01  2.38082E+01  2.36827E+01  2.40824E+01  2.23141E+01  2.30778E+01
   2.41047E+01  2.52729E+01  2.42244E+01  2.55097E+01  2.64652E+01  2.84122E+01  2.78916E+01  2.80093E+01  2.86720E+01  2.94573E+01
   3.01043E+01  3.10266E+01  3.14459E+01  3.14033E+01  3.24391E+01  3.18169E+01  3.24256E+01  3.18660E+01  3.39144E+01  3.32440E+01
   3.40395E+01  3.28569E+01  3.43284E+01  3.31950E+01  3.43694E+01  3.46035E+01  3.68419E+01  3.90060E+01  4.03996E+01  4.03613E+01
   4.17206E+01  4.45294E+01  4.64637E+01  4.94948E+01  5.06107E+01  5.29126E+01  5.35410E+01  5.64312E+01  5.67612E+01  5.92189E+01
   5.92482E+01  6.10998E+01  5.86932E+01  5.50359E+01  5.37136E+01  5.64910E+01  5.53506E+01  5.42848E+01  5.27314E+01  5.12607E+01
   4.95696E+01  4.84471E+01  4.75730E+01  4.75151E+01  4.72078E+01  4.72009E+01  4.65594E+01  4.55053E+01  4.52557E+01  4.53218E+01
   4.53927E+01  4.55574E+01  4.57939E+01  4.60299E+01  4.62742E+01  4.65239E+01  4.68541E+01  4.71884E+01  4.75620E+01  4.79283E+01
   4.82890E+01  4.86540E+01  4.89950E+01  4.93376E+01  4.96663E+01  4.99785E+01  5.02669E+01  5.05497E+01  5.07871E+01  5.10140E+01
   5.12045E+01  5.13848E+01  5.15376E+01  5.16879E+01  5.18244E+01  5.19669E+01  5.21031E+01  5.22631E+01  5.24307E+01  5.26301E+01
   5.28552E+01  5.31436E+01  5.35457E+01  5.41014E+01  5.40518E+01  5.41365E+01  5.43484E+01  5.47806E+01  5.46682E+01  5.47668E+01
   5.43258E+01  5.46945E+01  5.45014E+01  5.43256E+01  5.34674E+01  5.32601E+01  5.24601E+01  5.20455E+01  5.09678E+01  5.00437E+01
   4.97714E+01  4.97573E+01  4.90160E+01  4.82504E+01  4.77418E+01  4.71987E+01  4.69985E+01  4.57600E+01  4.49078E+01  4.45873E+01
   4.44295E+01  4.37979E+01  4.33502E+01  4.26044E+01  4.22729E+01  4.17757E+01  4.14432E+01  4.11701E+01  4.10273E+01  4.09188E+01
   4.09040E+01  4.07090E+01  4.05542E+01  4.04310E+01  4.02721E+01  4.00676E+01  3.97779E+01  3.94118E+01  3.89478E+01  3.84122E+01
   3.77990E+01  3.71459E+01  3.64532E+01  3.57595E+01  3.50621E+01  3.43931E+01  3.37417E+01  3.31319E+01  3.25457E+01  3.20015E+01
   3.14776E+01  3.09904E+01  3.05175E+01  3.00751E+01  2.96417E+01  2.92343E+01  2.88322E+01  2.84532E+01  2.80773E+01  2.77226E+01
   2.73698E+01  2.70370E+01  2.67054E+01  2.63933E+01  2.60820E+01  2.57900E+01  2.54988E+01  2.52270E+01  2.49561E+01  2.47050E+01
   2.44551E+01  2.42250E+01  2.39964E+01  2.37874E+01  2.35794E+01  2.33903E+01  2.32010E+01  2.30287E+01  2.28540E+01  2.26936E+01
   2.25276E+01  2.23722E+01  2.22073E+01  2.20488E+01  2.18767E+01  2.17071E+01  2.15206E+01  2.13336E+01  2.11275E+01  2.09194E+01
   2.06915E+01  2.04621E+01  2.02141E+01  1.99665E+01  1.97031E+01  1.94432E+01  1.91712E+01  1.89065E+01  1.86334E+01  1.83711E+01
   1.81037E+01  1.78499E+01  1.75934E+01  1.73524E+01  1.71100E+01  1.68839E+01  1.66570E+01  1.64465E+01  1.62349E+01  1.60392E+01
   1.58418E+01  1.56596E+01  1.54749E+01  1.53046E+01  1.51310E+01  1.49708E+01  1.48067E+01  1.46554E+01  1.44995E+01  1.43559E+01
   1.42072E+01  1.40702E+01  1.39278E+01  1.37969E+01  1.36602E+01  1.35345E+01  1.34030E+01  1.32822E+01  1.31554E+01  1.30391E+01
   1.29167E+01  1.28046E+01  1.26862E+01  1.25781E+01  1.24635E+01  1.23590E+01  1.22480E+01  1.21470E+01  1.20394E+01  1.19416E+01
   1.18371E+01  1.17425E+01  1.16411E+01  1.15493E+01  1.14508E+01  1.13618E+01  1.12659E+01  1.11795E+01  1.10862E+01  1.10022E+01
   1.09113E+01  1.08296E+01  1.07409E+01  1.06614E+01  1.05749E+01  1.04974E+01  1.04127E+01  1.03371E+01  1.02543E+01  1.01805E+01
   1.00994E+01  1.00271E+01  9.94753E+00  9.87671E+00  9.79858E+00  9.72908E+00  9.65222E+00  9.58389E+00  9.50817E+00  9.44090E+00
   9.36618E+00  9.29981E+00  9.22593E+00  9.16030E+00  9.08712E+00  9.02212E+00  8.94952E+00  8.88497E+00
 NY background values follow
     5.230E+00    5.227E+00    5.225E+00    5.223E+00    5.221E+00    5.220E+00    5.219E+00    5.218E+00    5.218E+00    5.217E+00
     5.218E+00    5.218E+00    5.219E+00    5.220E+00    5.222E+00    5.224E+00    5.226E+00    5.229E+00    5.232E+00    5.236E+00
     5.240E+00    5.244E+00    5.249E+00    5.254E+00    5.260E+00    5.266E+00    5.272E+00    5.279E+00    5.287E+00    5.295E+00
     5.303E+00    5.312E+00    5.322E+00    5.332E+00    5.342E+00    5.353E+00    5.365E+00    5.377E+00    5.389E+00    5.403E+00
     5.416E+00    5.431E+00    5.446E+00    5.461E+00    5.477E+00    5.494E+00    5.511E+00    5.529E+00    5.548E+00    5.567E+00
     5.587E+00    5.608E+00    5.629E+00    5.651E+00    5.674E+00    5.697E+00    5.722E+00    5.747E+00    5.773E+00    5.800E+00
     5.827E+00    5.856E+00    5.885E+00    5.915E+00    5.947E+00    5.979E+00    6.012E+00    6.046E+00    6.081E+00    6.117E+00
     6.154E+00    6.192E+00    6.231E+00    6.271E+00    6.313E+00    6.355E+00    6.398E+00    6.443E+00    6.489E+00    6.536E+00
     6.584E+00    6.633E+00    6.684E+00    6.736E+00    6.789E+00    6.843E+00    6.899E+00    6.955E+00    7.014E+00    7.073E+00
     7.134E+00    7.196E+00    7.260E+00    7.325E+00    7.391E+00    7.459E+00    7.527E+00    7.597E+00    7.668E+00    7.740E+00
     7.813E+00    7.887E+00    7.961E+00    8.037E+00    8.114E+00    8.191E+00    8.269E+00    8.348E+00    8.427E+00    8.508E+00
     8.588E+00    8.670E+00    8.751E+00    8.834E+00    8.916E+00    8.999E+00    9.083E+00    9.166E+00    9.250E+00    9.334E+00
     9.418E+00    9.503E+00    9.587E+00    9.672E+00    9.756E+00    9.841E+00    9.925E+00    1.001E+01    1.009E+01    1.018E+01
     1.026E+01    1.034E+01    1.043E+01    1.051E+01    1.059E+01    1.067E+01    1.075E+01    1.083E+01    1.091E+01    1.099E+01
     1.107E+01    1.115E+01    1.123E+01    1.131E+01    1.139E+01    1.147E+01    1.155E+01    1.164E+01    1.172E+01    1.180E+01
     1.188E+01    1.197E+01    1.205E+01    1.214E+01    1.222E+01    1.231E+01    1.240E+01    1.249E+01    1.259E+01    1.268E+01
     1.278E+01    1.288E+01    1.298E+01    1.308E+01    1.318E+01    1.329E+01    1.340E+01    1.351E+01    1.363E+01    1.374E+01
     1.386E+01    1.399E+01    1.411E+01    1.424E+01    1.437E+01    1.451E+01    1.464E+01    1.479E+01    1.493E+01    1.508E+01
     1.523E+01    1.539E+01    1.555E+01    1.572E+01    1.588E+01    1.606E+01    1.623E+01    1.641E+01    1.659E+01    1.678E+01
     1.697E+01    1.716E+01    1.736E+01    1.756E+01    1.776E+01    1.797E+01    1.818E+01    1.839E+01    1.861E+01    1.883E+01
     1.905E+01    1.928E+01    1.950E+01    1.973E+01    1.997E+01    2.020E+01    2.044E+01    2.069E+01    2.093E+01    2.118E+01
     2.143E+01    2.168E+01    2.193E+01    2.219E+01    2.245E+01    2.271E+01    2.297E+01    2.323E+01    2.350E+01    2.377E+01
     2.404E+01    2.431E+01    2.459E+01    2.487E+01    2.514E+01    2.542E+01    2.571E+01    2.599E+01    2.627E+01    2.656E+01
     2.685E+01    2.713E+01    2.742E+01    2.771E+01    2.800E+01    2.829E+01    2.858E+01    2.887E+01    2.916E+01    2.945E+01
     2.974E+01    3.003E+01    3.031E+01    3.060E+01    3.088E+01    3.116E+01    3.145E+01    3.172E+01    3.200E+01    3.228E+01
     3.255E+01    3.282E+01    3.309E+01    3.335E+01    3.361E+01    3.387E+01    3.413E+01    3.438E+01    3.463E+01    3.487E+01
     3.511E+01    3.535E+01    3.558E+01    3.580E+01    3.603E+01    3.624E+01    3.646E+01    3.666E+01    3.686E+01    3.706E+01
     3.725E+01    3.743E+01    3.761E+01    3.778E+01    3.795E+01    3.811E+01    3.826E+01    3.841E+01    3.855E+01    3.869E+01
     3.882E+01    3.894E+01    3.906E+01    3.917E+01    3.927E+01    3.937E+01    3.946E+01    3.954E+01    3.962E+01    3.970E+01
     3.976E+01    3.982E+01    3.988E+01    3.992E+01    3.996E+01    4.000E+01    4.003E+01    4.005E+01    4.006E+01    4.007E+01
     4.008E+01    4.007E+01    4.006E+01    4.004E+01    4.002E+01    3.999E+01    3.995E+01    3.991E+01    3.986E+01    3.981E+01
     3.974E+01    3.967E+01    3.960E+01    3.952E+01    3.943E+01    3.933E+01    3.923E+01    3.912E+01    3.900E+01    3.888E+01
     3.875E+01    3.862E+01    3.848E+01    3.833E+01    3.818E+01    3.802E+01    3.786E+01    3.769E+01    3.752E+01    3.734E+01
     3.716E+01    3.697E+01    3.678E+01    3.658E+01    3.638E+01    3.618E+01    3.597E+01    3.575E+01    3.554E+01    3.532E+01
     3.509E+01    3.486E+01    3.463E+01    3.440E+01    3.416E+01    3.393E+01    3.368E+01    3.344E+01    3.319E+01    3.294E+01
     3.269E+01    3.244E+01    3.219E+01    3.193E+01    3.167E+01    3.141E+01    3.115E+01    3.089E+01    3.063E+01    3.037E+01
     3.010E+01    2.984E+01    2.957E+01    2.931E+01    2.904E+01    2.878E+01    2.851E+01    2.825E+01    2.798E+01    2.772E+01
     2.745E+01    2.719E+01    2.693E+01    2.666E+01    2.640E+01    2.614E+01    2.587E+01    2.561E+01    2.535E+01    2.509E+01
     2.484E+01    2.458E+01    2.432E+01    2.407E+01    2.381E+01    2.356E+01    2.331E+01    2.306E+01    2.281E+01    2.257E+01
     2.232E+01    2.208E+01    2.184E+01    2.160E+01    2.136E+01    2.113E+01    2.090E+01    2.067E+01    2.044E+01    2.021E+01
     1.999E+01    1.977E+01    1.955E+01    1.933E+01    1.912E+01    1.891E+01    1.870E+01    1.850E+01    1.830E+01    1.810E+01
     1.790E+01    1.771E+01    1.752E+01    1.733E+01    1.715E+01    1.696E+01    1.679E+01    1.661E+01    1.644E+01    1.626E+01
     1.610E+01    1.593E+01    1.577E+01    1.561E+01    1.545E+01    1.529E+01    1.514E+01    1.499E+01    1.484E+01    1.469E+01
     1.455E+01    1.441E+01    1.427E+01    1.413E+01    1.399E+01    1.386E+01    1.373E+01    1.360E+01    1.347E+01    1.335E+01
     1.322E+01    1.310E+01    1.298E+01    1.286E+01    1.275E+01    1.263E+01    1.252E+01    1.241E+01    1.230E+01    1.219E+01
     1.209E+01    1.198E+01    1.188E+01    1.178E+01    1.168E+01    1.158E+01    1.149E+01    1.139E+01    1.130E+01    1.121E+01
     1.111E+01    1.102E+01    1.094E+01    1.085E+01    1.076E+01    1.068E+01    1.059E+01    1.051E+01    1.043E+01    1.035E+01
     1.027E+01    1.019E+01    1.012E+01    1.004E+01    9.963E+00    9.889E+00    9.815E+00    9.742E+00    9.670E+00    9.599E+00
     9.528E+00    9.458E+00    9.389E+00    9.320E+00    9.253E+00    9.185E+00    9.119E+00    9.052E+00    8.987E+00    8.922E+00
     8.857E+00    8.793E+00    8.729E+00    8.665E+00    8.602E+00    8.539E+00    8.476E+00    8.414E+00
 Ala      Conc. = 3.78E+02
