 LCModel (Version 6.3-1L) Copyright: S.W. Provencher.          Ref.: Magn. Reson. Med. 30:672-679 (1993).                
 Slice#1 Row#4 Col#3  PD_05_press_1_raw_act
 36 lines in following concentration table = NCONC+1
    Conc.  %SD /Cr+PCr  Metabolite                                         
  728.782  48%   0.000 Ala                                                 
   41.317 117%   0.000 Asp                                                 
    0.000 999%   0.000 Cr                                                  
    0.000 999%   0.000 PCr                                                 
   11.962 246%   0.000 GABA                                                
   31.054  95%   0.000 Glc                                                 
    0.000 999%   0.000 Gln                                                 
    0.000 999%   0.000 Glu                                                 
    0.000 999%   0.000 GPC                                                 
   58.041  34%   0.000 PCh                                                 
    0.000 999%   0.000 GSH                                                 
   75.248 319%   0.000 Ins                                                 
    0.000 999%   0.000 Lac                                                 
    0.000 999%   0.000 NAA                                                 
  379.666  18%   0.000 NAAG                                                
   18.108  51%   0.000 Scyllo                                              
   85.682  55%   0.000 Tau                                                 
  330.265  22%   0.000+-CrCH2                                              
   58.041  34%   0.000 GPC+PCh                                             
  379.666  18%   0.000 NAA+NAAG                                            
    0.000 999%   0.000 Cr+PCr                                              
    0.000 999%   0.000 Glu+Gln                                             
    0.000 999%   0.000 Lip13a                                              
    0.000 999%   0.000 Lip13b                                              
    0.000 999%   0.000 Lip09                                               
  571.333  19%   0.000 MM09                                                
    0.000 999%   0.000 Lip20                                               
  807.429  24%   0.000 MM20                                                
  140.166  34%   0.000 MM12                                                
  731.267  18%   0.000 MM14                                                
  391.730  23%   0.000 MM17                                                
    0.000 999%   0.000 Lip13a+Lip13b                                       
  871.434  18%   0.000 MM14+Lip13a+Lip13b+MM12                             
  571.333  19%   0.000 MM09+Lip09                                          
  807.429  24%   0.000 MM20+Lip20                                          
   6 lines in following misc. output table
  FWHM = 0.138 ppm    S/N =   2                                            
  Data shift = 0.130 ppm                                                   
  Ph:-115 deg     -48.5 deg/ppm                                            
  alphaB,S = 3.5E+00,   2.0E+02                                            
    7 spline knots.   Ns = 9(2)                                            
   2 inflections.     1 extrema                                            
  498 points on ppm-axis = NY
      4.000000     3.992357     3.984714     3.977070     3.969427     3.961784     3.954141     3.946497     3.938854     3.931211
      3.923568     3.915925     3.908281     3.900638     3.892995     3.885352     3.877708     3.870065     3.862422     3.854779
      3.847136     3.839492     3.831849     3.824206     3.816563     3.808919     3.801276     3.793633     3.785990     3.778347
      3.770703     3.763060     3.755417     3.747774     3.740130     3.732487     3.724844     3.717201     3.709558     3.701914
      3.694271     3.686628     3.678985     3.671341     3.663698     3.656055     3.648412     3.640769     3.633125     3.625482
      3.617839     3.610196     3.602552     3.594909     3.587266     3.579623     3.571980     3.564336     3.556693     3.549050
      3.541407     3.533763     3.526120     3.518477     3.510834     3.503191     3.495547     3.487904     3.480261     3.472618
      3.464974     3.457331     3.449688     3.442045     3.434402     3.426758     3.419115     3.411472     3.403829     3.396185
      3.388542     3.380899     3.373256     3.365613     3.357969     3.350326     3.342683     3.335040     3.327396     3.319753
      3.312110     3.304467     3.296824     3.289180     3.281537     3.273894     3.266251     3.258607     3.250964     3.243321
      3.235678     3.228034     3.220391     3.212748     3.205105     3.197462     3.189818     3.182175     3.174532     3.166889
      3.159245     3.151602     3.143959     3.136316     3.128673     3.121029     3.113386     3.105743     3.098100     3.090456
      3.082813     3.075170     3.067527     3.059884     3.052240     3.044597     3.036954     3.029311     3.021667     3.014024
      3.006381     2.998738     2.991095     2.983451     2.975808     2.968165     2.960522     2.952878     2.945235     2.937592
      2.929949     2.922306     2.914662     2.907019     2.899376     2.891733     2.884089     2.876446     2.868803     2.861160
      2.853517     2.845873     2.838230     2.830587     2.822944     2.815300     2.807657     2.800014     2.792371     2.784728
      2.777084     2.769441     2.761798     2.754155     2.746511     2.738868     2.731225     2.723582     2.715939     2.708295
      2.700652     2.693009     2.685366     2.677722     2.670079     2.662436     2.654793     2.647150     2.639506     2.631863
      2.624220     2.616577     2.608933     2.601290     2.593647     2.586004     2.578361     2.570717     2.563074     2.555431
      2.547788     2.540144     2.532501     2.524858     2.517215     2.509572     2.501928     2.494285     2.486642     2.478999
      2.471355     2.463712     2.456069     2.448426     2.440783     2.433139     2.425496     2.417853     2.410210     2.402566
      2.394923     2.387280     2.379637     2.371994     2.364350     2.356707     2.349064     2.341421     2.333777     2.326134
      2.318491     2.310848     2.303205     2.295561     2.287918     2.280275     2.272632     2.264988     2.257345     2.249702
      2.242059     2.234416     2.226772     2.219129     2.211486     2.203843     2.196199     2.188556     2.180913     2.173270
      2.165627     2.157983     2.150340     2.142697     2.135054     2.127410     2.119767     2.112124     2.104481     2.096838
      2.089194     2.081551     2.073908     2.066265     2.058621     2.050978     2.043335     2.035692     2.028049     2.020405
      2.012762     2.005119     1.997476     1.989833     1.982190     1.974546     1.966903     1.959260     1.951617     1.943974
      1.936331     1.928688     1.921045     1.913402     1.905759     1.898115     1.890472     1.882829     1.875186     1.867543
      1.859900     1.852257     1.844614     1.836971     1.829327     1.821684     1.814041     1.806398     1.798755     1.791112
      1.783469     1.775826     1.768183     1.760540     1.752896     1.745253     1.737610     1.729967     1.722324     1.714681
      1.707038     1.699395     1.691752     1.684108     1.676465     1.668822     1.661179     1.653536     1.645893     1.638250
      1.630607     1.622964     1.615321     1.607677     1.600034     1.592391     1.584748     1.577105     1.569462     1.561819
      1.554176     1.546533     1.538890     1.531246     1.523603     1.515960     1.508317     1.500674     1.493031     1.485388
      1.477745     1.470102     1.462458     1.454815     1.447172     1.439529     1.431886     1.424243     1.416600     1.408957
      1.401314     1.393671     1.386027     1.378384     1.370741     1.363098     1.355455     1.347812     1.340169     1.332526
      1.324883     1.317240     1.309596     1.301953     1.294310     1.286667     1.279024     1.271381     1.263738     1.256095
      1.248452     1.240808     1.233165     1.225522     1.217879     1.210236     1.202593     1.194950     1.187307     1.179664
      1.172021     1.164377     1.156734     1.149091     1.141448     1.133805     1.126162     1.118519     1.110876     1.103233
      1.095590     1.087946     1.080303     1.072660     1.065017     1.057374     1.049731     1.042088     1.034445     1.026802
      1.019158     1.011515     1.003872     0.996229     0.988586     0.980943     0.973300     0.965657     0.958014     0.950371
      0.942727     0.935084     0.927441     0.919798     0.912155     0.904512     0.896869     0.889226     0.881583     0.873940
      0.866296     0.858653     0.851010     0.843367     0.835724     0.828081     0.820438     0.812795     0.805152     0.797508
      0.789865     0.782222     0.774579     0.766936     0.759293     0.751650     0.744007     0.736364     0.728721     0.721077
      0.713434     0.705791     0.698148     0.690505     0.682862     0.675219     0.667576     0.659933     0.652290     0.644646
      0.637003     0.629360     0.621717     0.614074     0.606431     0.598788     0.591145     0.583502     0.575858     0.568215
      0.560572     0.552929     0.545286     0.537643     0.530000     0.522357     0.514714     0.507071     0.499427     0.491784
      0.484141     0.476498     0.468855     0.461212     0.453569     0.445925     0.438282     0.430639     0.422996     0.415353
      0.407710     0.400067     0.392424     0.384780     0.377137     0.369494     0.361851     0.354208     0.346565     0.338922
      0.331278     0.323635     0.315992     0.308349     0.300706     0.293063     0.285420     0.277777     0.270133     0.262490
      0.254847     0.247204     0.239561     0.231918     0.224275     0.216631     0.208988     0.201345
 NY phased data points follow
  -5.43257E+01 -5.50947E+01 -5.28189E+01 -5.32929E+01 -5.00443E+01 -5.09954E+01 -4.89383E+01 -5.32006E+01 -5.09879E+01 -4.90711E+01
  -4.89549E+01 -4.65898E+01 -4.89190E+01 -4.63232E+01 -4.69876E+01 -4.71552E+01 -4.84444E+01 -4.37642E+01 -4.42262E+01 -4.21458E+01
  -4.42476E+01 -4.33178E+01 -4.21957E+01 -4.02460E+01 -4.43404E+01 -4.50622E+01 -4.10011E+01 -4.20652E+01 -3.74812E+01 -3.81344E+01
  -3.79931E+01 -4.03889E+01 -3.96553E+01 -3.80556E+01 -3.72954E+01 -3.74492E+01 -3.86281E+01 -3.75876E+01 -3.66824E+01 -3.45657E+01
  -3.62096E+01 -3.63010E+01 -3.72007E+01 -3.51134E+01 -3.59368E+01 -3.52709E+01 -3.34207E+01 -3.33284E+01 -3.50834E+01 -3.53361E+01
  -3.62812E+01 -3.21313E+01 -3.38223E+01 -3.29638E+01 -2.96306E+01 -3.19411E+01 -3.12497E+01 -3.13356E+01 -2.87419E+01 -3.24512E+01
  -3.09071E+01 -3.02018E+01 -3.07231E+01 -3.25855E+01 -2.64664E+01 -2.91250E+01 -2.50551E+01 -2.65897E+01 -2.86090E+01 -2.55836E+01
  -2.62422E+01 -2.45568E+01 -2.57007E+01 -2.39422E+01 -2.40617E+01 -2.60091E+01 -2.35638E+01 -2.35377E+01 -2.24348E+01 -2.09013E+01
  -2.36922E+01 -2.49798E+01 -2.40314E+01 -2.44420E+01 -2.32293E+01 -2.35214E+01 -2.03536E+01 -2.20241E+01 -1.92196E+01 -2.10655E+01
  -1.76564E+01 -1.91043E+01 -2.28503E+01 -1.74955E+01 -2.00271E+01 -1.94343E+01 -1.85880E+01 -2.21688E+01 -2.16645E+01 -1.59722E+01
  -1.90813E+01 -1.78187E+01 -1.71503E+01 -1.88179E+01 -1.66723E+01 -1.66238E+01 -1.84108E+01 -1.78867E+01 -1.77649E+01 -1.50019E+01
  -1.64280E+01 -1.34787E+01 -1.82335E+01 -1.56408E+01 -1.25577E+01 -1.62277E+01 -1.22084E+01 -1.45420E+01 -1.28024E+01 -1.20129E+01
  -1.50709E+01 -1.59516E+01 -1.47726E+01 -1.42991E+01 -1.65040E+01 -1.41016E+01 -1.30936E+01 -1.36382E+01 -1.49850E+01 -1.15641E+01
  -1.27854E+01 -1.31771E+01 -1.14579E+01 -1.38093E+01 -8.61704E+00 -1.29686E+01 -1.31616E+01 -1.16540E+01 -1.13623E+01 -8.94239E+00
  -1.26974E+01 -1.29638E+01 -1.34109E+01 -1.17069E+01 -9.20776E+00 -7.84653E+00 -1.40437E+01 -1.28833E+01 -1.22286E+01 -1.24474E+01
  -1.09450E+01 -9.80727E+00 -9.91984E+00 -1.12016E+01 -9.13710E+00 -1.09646E+01 -9.14311E+00 -9.15347E+00 -6.78918E+00 -9.43906E+00
  -7.81278E+00 -8.30890E+00 -9.14485E+00 -8.98938E+00 -9.45875E+00 -1.22299E+01 -9.65281E+00 -9.07869E+00 -1.05952E+01 -6.49855E+00
  -8.46150E+00 -6.18238E+00 -7.45216E+00 -5.68995E+00 -7.79531E+00 -7.05088E+00 -4.44752E+00 -4.62220E+00 -4.01258E+00 -7.95486E+00
  -4.03718E+00 -4.90451E+00 -3.03667E+00 -6.57031E+00 -6.17709E+00 -3.76658E+00 -5.31268E+00 -4.97214E+00 -3.77195E+00 -5.21102E+00
  -5.12996E+00 -3.04907E+00 -1.11870E+00 -4.08907E+00 -5.37025E+00 -3.64059E+00 -5.08561E+00 -1.11741E+00 -2.54319E+00 -4.43236E+00
  -1.97917E+00 -2.99226E+00 -1.21334E+00 -4.44099E-01 -1.88634E+00 -2.55341E+00  2.95515E+00  8.10772E-01 -9.30448E-01 -1.72403E+00
  -1.99731E+00  6.31500E-01 -1.08363E+00 -1.48714E+00 -2.85798E+00 -9.80380E-01  1.10547E+00 -6.13905E-01  1.61384E+00  2.48470E+00
   2.17907E+00 -2.23486E+00 -3.07524E-01  9.93790E-01 -4.51481E-01 -1.48582E+00  3.48284E+00  1.80262E+00 -6.60838E-01  9.98851E-01
   2.35748E+00  3.45336E+00  1.10784E+00  1.68141E+00  1.43012E+00  7.35997E-01  4.34487E+00  3.39513E+00 -3.94701E-02  4.20171E+00
   1.27495E+00  4.56298E+00  4.22430E+00  3.76012E+00  7.86247E+00  3.25771E+00  6.93298E+00  7.74407E+00  7.53045E+00  1.08294E+01
   1.19233E+01  1.12108E+01  1.52131E+01  1.22456E+01  1.15175E+01  1.19295E+01  8.63108E+00  7.02426E+00  9.20193E+00  8.98295E+00
   8.69341E+00  6.22166E+00  9.83330E+00  5.99694E+00  6.83110E+00  4.52801E+00  5.96104E+00  6.33965E+00  8.12952E+00  6.29796E+00
   5.62944E+00  7.00573E+00  4.94256E+00  3.39400E+00  6.82140E+00  6.53376E+00  5.99236E+00  6.16013E+00  6.00752E+00  7.37595E+00
   6.28165E+00  7.02916E+00  6.92429E+00  4.44637E+00  4.00624E+00  6.85056E+00  6.09411E+00  6.29197E+00  7.95657E+00  5.04252E+00
   9.73446E+00  2.83353E+00  5.48755E+00  5.36268E+00  6.85566E+00  5.65705E+00  6.65129E+00  7.54541E+00  1.02084E+01  7.87971E+00
   7.46482E+00  8.37623E+00  9.07595E+00  9.42797E+00  9.39837E+00  7.39224E+00  8.53723E+00  1.21691E+01  1.10854E+01  9.73615E+00
   1.01488E+01  8.91013E+00  1.04761E+01  1.01505E+01  1.03015E+01  1.00259E+01  1.16400E+01  8.15570E+00  1.00643E+01  1.25798E+01
   1.47003E+01  1.41203E+01  1.19690E+01  1.46633E+01  9.87512E+00  1.10758E+01  1.25221E+01  1.38499E+01  1.13277E+01  1.09649E+01
   1.09940E+01  1.17260E+01  1.35603E+01  1.22937E+01  1.15762E+01  9.01449E+00  1.12256E+01  7.61480E+00  1.13836E+01  1.13932E+01
   1.20988E+01  6.11711E+00  7.11438E+00  9.94230E+00  7.62856E+00  9.33175E+00  1.38229E+01  9.61213E+00  7.54855E+00  8.35909E+00
   5.93163E+00  7.21630E+00  5.14282E+00  1.01556E+01  6.17921E+00  4.82134E+00  7.39777E+00  4.10477E+00  9.30785E+00  7.74670E+00
   6.61621E+00  4.03693E+00  8.07870E+00  6.89839E+00  4.00405E+00  7.11316E+00  3.91417E+00  7.16038E+00  2.71043E+00  4.70678E+00
   4.62261E+00  8.11724E+00  4.18782E+00  6.95247E+00  5.28175E+00  6.01385E+00  6.28163E+00  1.00645E+01  5.10455E+00  8.08576E+00
   6.97829E+00  6.95710E+00  7.18045E+00  8.82619E+00  7.30221E+00  9.70009E+00  8.92043E+00  1.31688E+01  1.06595E+01  8.21409E+00
   8.88142E+00  1.16185E+01  7.85808E+00  1.19152E+01  7.60669E+00  8.02116E+00  8.81248E+00  9.91958E+00  9.38261E+00  6.57168E+00
   1.26394E+01  8.73121E+00  9.03690E+00  1.24711E+01  1.06371E+01  1.11274E+01  1.40250E+01  8.77844E+00  1.25798E+01  1.16743E+01
   9.23461E+00  1.09179E+01  8.64390E+00  9.78732E+00  1.08691E+01  1.13076E+01  1.11338E+01  1.24710E+01  1.40428E+01  1.11557E+01
   1.04644E+01  1.02181E+01  7.14293E+00  7.71719E+00  9.36342E+00  1.00553E+01  1.09780E+01  9.20803E+00  1.11257E+01  9.41866E+00
   8.21973E+00  7.70556E+00  8.39652E+00  1.01297E+01  7.21168E+00  8.90257E+00  8.00742E+00  1.16343E+01  9.67971E+00  8.86351E+00
   9.29322E+00  9.55908E+00  7.73859E+00  1.24655E+01  7.05183E+00  7.00517E+00  8.63647E+00  1.02900E+01  8.87425E+00  9.07519E+00
   9.26831E+00  9.50894E+00  6.87036E+00  8.70498E+00  9.57445E+00  8.77123E+00  5.98844E+00  7.34819E+00  8.10388E+00  7.44940E+00
   1.22817E+01  1.12714E+01  7.12252E+00  8.96640E+00  7.58408E+00  9.10553E+00  5.92246E+00  6.04587E+00  7.42316E+00  9.50817E+00
   6.79871E+00  7.10022E+00  9.82557E+00  8.02291E+00  7.40714E+00  4.03620E+00  8.23201E+00  9.03846E+00  9.28711E+00  9.51289E+00
   8.50945E+00  8.19986E+00  7.62576E+00  9.09714E+00  6.47976E+00  6.70594E+00  7.04353E+00  7.81120E+00  6.80343E+00  8.77444E+00
   8.55185E+00  6.85396E+00  8.74585E+00  6.81704E+00  8.20807E+00  8.69421E+00  6.81907E+00  8.04584E+00
 NY points of the fit to the data follow
  -5.03906E+01 -5.08196E+01 -5.02612E+01 -5.06590E+01 -5.00106E+01 -5.02863E+01 -4.95469E+01 -4.96194E+01 -4.88650E+01 -4.87586E+01
  -4.80503E+01 -4.78034E+01 -4.71702E+01 -4.68177E+01 -4.62793E+01 -4.58106E+01 -4.53435E+01 -4.47878E+01 -4.43948E+01 -4.38046E+01
  -4.34800E+01 -4.28874E+01 -4.26187E+01 -4.20468E+01 -4.17938E+01 -4.12579E+01 -4.09840E+01 -4.04987E+01 -4.01915E+01 -3.97692E+01
  -3.94369E+01 -3.91064E+01 -3.87557E+01 -3.84894E+01 -3.81229E+01 -3.78981E+01 -3.75158E+01 -3.73086E+01 -3.69094E+01 -3.67034E+01
  -3.62976E+01 -3.60812E+01 -3.56820E+01 -3.54537E+01 -3.50723E+01 -3.48356E+01 -3.44766E+01 -3.42302E+01 -3.38992E+01 -3.36423E+01
  -3.33309E+01 -3.30546E+01 -3.27602E+01 -3.24658E+01 -3.21839E+01 -3.18693E+01 -3.15942E+01 -3.12633E+01 -3.09968E+01 -3.06575E+01
  -3.04020E+01 -3.00619E+01 -2.98202E+01 -2.94827E+01 -2.92440E+01 -2.89082E+01 -2.86671E+01 -2.83320E+01 -2.80696E+01 -2.77436E+01
  -2.74649E+01 -2.71584E+01 -2.68686E+01 -2.65832E+01 -2.62793E+01 -2.60140E+01 -2.56978E+01 -2.54528E+01 -2.51286E+01 -2.49046E+01
  -2.45781E+01 -2.43692E+01 -2.40531E+01 -2.38503E+01 -2.35272E+01 -2.32363E+01 -2.29051E+01 -2.25316E+01 -2.22076E+01 -2.17672E+01
  -2.14587E+01 -2.09555E+01 -2.06685E+01 -2.01116E+01 -1.98565E+01 -1.92752E+01 -1.90690E+01 -1.85166E+01 -1.83711E+01 -1.78994E+01
  -1.78165E+01 -1.74531E+01 -1.74137E+01 -1.71415E+01 -1.71199E+01 -1.69093E+01 -1.68880E+01 -1.67172E+01 -1.66834E+01 -1.65431E+01
  -1.64955E+01 -1.63773E+01 -1.63083E+01 -1.61952E+01 -1.60996E+01 -1.59820E+01 -1.58605E+01 -1.57313E+01 -1.55816E+01 -1.54269E+01
  -1.52508E+01 -1.50679E+01 -1.48743E+01 -1.46697E+01 -1.44643E+01 -1.42371E+01 -1.40322E+01 -1.38085E+01 -1.36098E+01 -1.33931E+01
  -1.32018E+01 -1.29932E+01 -1.28107E+01 -1.26104E+01 -1.24367E+01 -1.22454E+01 -1.20854E+01 -1.19047E+01 -1.17554E+01 -1.15831E+01
  -1.14383E+01 -1.12701E+01 -1.11350E+01 -1.09700E+01 -1.08468E+01 -1.06839E+01 -1.05714E+01 -1.04083E+01 -1.03038E+01 -1.01372E+01
  -1.00401E+01 -9.87133E+00 -9.78660E+00 -9.61040E+00 -9.53357E+00 -9.34899E+00 -9.27687E+00 -9.09095E+00 -9.02205E+00 -8.83222E+00
  -8.76244E+00 -8.56569E+00 -8.49198E+00 -8.28986E+00 -8.21501E+00 -8.01268E+00 -7.92495E+00 -7.72286E+00 -7.61684E+00 -7.41725E+00
  -7.29418E+00 -7.09849E+00 -6.95658E+00 -6.76271E+00 -6.59417E+00 -6.40684E+00 -6.21485E+00 -6.03717E+00 -5.82704E+00 -5.66019E+00
  -5.44134E+00 -5.28220E+00 -5.06121E+00 -4.91333E+00 -4.69645E+00 -4.56323E+00 -4.35606E+00 -4.23595E+00 -4.03940E+00 -3.92885E+00
  -3.74534E+00 -3.64779E+00 -3.47363E+00 -3.38668E+00 -3.21700E+00 -3.14058E+00 -2.97679E+00 -2.91153E+00 -2.75611E+00 -2.69807E+00
  -2.54735E+00 -2.49131E+00 -2.33969E+00 -2.27970E+00 -2.12364E+00 -2.05330E+00 -1.88895E+00 -1.80245E+00 -1.63260E+00 -1.52911E+00
  -1.35944E+00 -1.23904E+00 -1.07291E+00 -9.41257E-01 -7.78067E-01 -6.38197E-01 -4.76503E-01 -3.22859E-01 -1.61108E-01  1.56959E-04
   1.57271E-01  3.23180E-01  4.75236E-01  6.40980E-01  7.80556E-01  9.48263E-01  1.08186E+00  1.25604E+00  1.38696E+00  1.57078E+00
   1.69761E+00  1.88973E+00  2.01577E+00  2.21817E+00  2.35378E+00  2.57477E+00  2.74275E+00  3.06669E+00  3.46754E+00  3.83236E+00
   4.46225E+00  4.78545E+00  5.61102E+00  5.84321E+00  6.85485E+00  6.95884E+00  8.14244E+00  8.06739E+00  9.36400E+00  9.04924E+00
   1.03350E+01  9.75246E+00  1.08941E+01  1.00707E+01  1.09720E+01  1.00032E+01  1.06640E+01  9.65488E+00  1.01133E+01  9.13115E+00
   9.42150E+00  8.50869E+00  8.65362E+00  7.83786E+00  7.85754E+00  7.16790E+00  7.10458E+00  6.54768E+00  6.42917E+00  5.99953E+00
   5.84896E+00  5.54637E+00  5.40657E+00  5.21534E+00  5.11296E+00  5.00931E+00  4.95373E+00  4.92124E+00  4.93246E+00  4.92613E+00
   4.95908E+00  4.96955E+00  5.02437E+00  5.05437E+00  5.13424E+00  5.18852E+00  5.29572E+00  5.37782E+00  5.51355E+00  5.62493E+00
   5.78737E+00  5.92722E+00  6.11265E+00  6.27744E+00  6.47987E+00  6.66243E+00  6.87232E+00  7.06298E+00  7.26857E+00  7.45577E+00
   7.64689E+00  7.82256E+00  7.99413E+00  8.15613E+00  8.31203E+00  8.47037E+00  8.63034E+00  8.81886E+00  9.05285E+00  9.38155E+00
   9.58894E+00  9.96422E+00  1.00955E+01  1.04663E+01  1.05036E+01  1.08322E+01  1.07243E+01  1.11182E+01  1.09720E+01  1.13837E+01
   1.12045E+01  1.15263E+01  1.13159E+01  1.14938E+01  1.13067E+01  1.13528E+01  1.12916E+01  1.12623E+01  1.13820E+01  1.12779E+01
   1.15405E+01  1.13141E+01  1.16291E+01  1.12301E+01  1.15016E+01  1.09560E+01  1.11582E+01  1.05468E+01  1.06909E+01  1.00784E+01
   1.01874E+01  9.61609E+00  9.70702E+00  9.20902E+00  9.26784E+00  8.85543E+00  8.87924E+00  8.54817E+00  8.53889E+00  8.28197E+00
   8.21187E+00  8.00155E+00  7.91100E+00  7.76291E+00  7.67837E+00  7.58681E+00  7.51936E+00  7.49482E+00  7.47265E+00  7.47516E+00
   7.47078E+00  7.48512E+00  7.48845E+00  7.50741E+00  7.51312E+00  7.53276E+00  7.53805E+00  7.55652E+00  7.56035E+00  7.57731E+00
   7.57993E+00  7.59618E+00  7.59885E+00  7.61600E+00  7.62066E+00  7.64093E+00  7.64998E+00  7.67593E+00  7.69209E+00  7.72655E+00
   7.75275E+00  7.79879E+00  7.83818E+00  7.89902E+00  7.95494E+00  8.03397E+00  8.10981E+00  8.21037E+00  8.30932E+00  8.43431E+00
   8.55879E+00  8.70996E+00  8.86081E+00  9.03782E+00  9.21325E+00  9.41263E+00  9.60729E+00  9.82162E+00  1.00260E+01  1.02436E+01
   1.04441E+01  1.06500E+01  1.08303E+01  1.10074E+01  1.11507E+01  1.12828E+01  1.13743E+01  1.14489E+01  1.14788E+01  1.14895E+01
   1.14549E+01  1.14026E+01  1.13084E+01  1.12013E+01  1.10585E+01  1.09101E+01  1.07342E+01  1.05612E+01  1.03690E+01  1.01877E+01
   9.99472E+00  9.81919E+00  9.63764E+00  9.47807E+00  9.31599E+00  9.17833E+00  9.03968E+00  8.92607E+00  8.81145E+00  8.72122E+00
   8.62894E+00  8.55965E+00  8.48677E+00  8.43518E+00  8.37834E+00  8.34111E+00  8.29707E+00  8.27114E+00  8.23707E+00  8.21987E+00
   8.19347E+00  8.18293E+00  8.16238E+00  8.15693E+00  8.14084E+00  8.13926E+00  8.12658E+00  8.12796E+00  8.11790E+00  8.12156E+00
   8.11353E+00  8.11895E+00  8.11249E+00  8.11927E+00  8.11404E+00  8.12188E+00  8.11759E+00  8.12625E+00  8.12270E+00  8.13198E+00
   8.12900E+00  8.13875E+00  8.13620E+00  8.14629E+00  8.14405E+00  8.15439E+00  8.15237E+00  8.16286E+00  8.16099E+00  8.17157E+00
   8.16978E+00  8.18038E+00  8.17861E+00  8.18919E+00  8.18739E+00  8.19790E+00  8.19603E+00  8.20643E+00  8.20447E+00  8.21472E+00
   8.21262E+00  8.22271E+00  8.22045E+00  8.23035E+00  8.22790E+00  8.23758E+00  8.23493E+00  8.24437E+00  8.24150E+00  8.25069E+00
   8.24758E+00  8.25651E+00  8.25315E+00  8.26180E+00  8.25820E+00  8.26657E+00  8.26271E+00  8.27083E+00
 NY background values follow
    -4.882E+01   -4.850E+01   -4.818E+01   -4.787E+01   -4.755E+01   -4.724E+01   -4.693E+01   -4.661E+01   -4.630E+01   -4.599E+01
    -4.567E+01   -4.536E+01   -4.505E+01   -4.474E+01   -4.443E+01   -4.412E+01   -4.381E+01   -4.350E+01   -4.320E+01   -4.289E+01
    -4.258E+01   -4.228E+01   -4.197E+01   -4.166E+01   -4.136E+01   -4.106E+01   -4.075E+01   -4.045E+01   -4.015E+01   -3.985E+01
    -3.954E+01   -3.924E+01   -3.894E+01   -3.865E+01   -3.835E+01   -3.805E+01   -3.775E+01   -3.746E+01   -3.716E+01   -3.687E+01
    -3.657E+01   -3.628E+01   -3.598E+01   -3.569E+01   -3.540E+01   -3.511E+01   -3.482E+01   -3.453E+01   -3.424E+01   -3.396E+01
    -3.367E+01   -3.338E+01   -3.310E+01   -3.281E+01   -3.253E+01   -3.225E+01   -3.196E+01   -3.168E+01   -3.140E+01   -3.112E+01
    -3.084E+01   -3.057E+01   -3.029E+01   -3.001E+01   -2.974E+01   -2.946E+01   -2.919E+01   -2.892E+01   -2.865E+01   -2.837E+01
    -2.810E+01   -2.784E+01   -2.757E+01   -2.730E+01   -2.703E+01   -2.677E+01   -2.651E+01   -2.624E+01   -2.598E+01   -2.572E+01
    -2.546E+01   -2.520E+01   -2.494E+01   -2.468E+01   -2.443E+01   -2.417E+01   -2.392E+01   -2.367E+01   -2.341E+01   -2.316E+01
    -2.291E+01   -2.267E+01   -2.242E+01   -2.217E+01   -2.193E+01   -2.168E+01   -2.144E+01   -2.120E+01   -2.096E+01   -2.072E+01
    -2.048E+01   -2.024E+01   -2.000E+01   -1.977E+01   -1.954E+01   -1.930E+01   -1.907E+01   -1.884E+01   -1.861E+01   -1.838E+01
    -1.816E+01   -1.793E+01   -1.771E+01   -1.749E+01   -1.726E+01   -1.704E+01   -1.682E+01   -1.661E+01   -1.639E+01   -1.617E+01
    -1.596E+01   -1.575E+01   -1.554E+01   -1.533E+01   -1.512E+01   -1.491E+01   -1.471E+01   -1.450E+01   -1.430E+01   -1.410E+01
    -1.389E+01   -1.370E+01   -1.350E+01   -1.330E+01   -1.311E+01   -1.291E+01   -1.272E+01   -1.253E+01   -1.234E+01   -1.215E+01
    -1.196E+01   -1.177E+01   -1.159E+01   -1.140E+01   -1.122E+01   -1.104E+01   -1.086E+01   -1.068E+01   -1.050E+01   -1.033E+01
    -1.015E+01   -9.979E+00   -9.806E+00   -9.635E+00   -9.464E+00   -9.295E+00   -9.128E+00   -8.961E+00   -8.796E+00   -8.631E+00
    -8.468E+00   -8.307E+00   -8.146E+00   -7.987E+00   -7.828E+00   -7.671E+00   -7.515E+00   -7.361E+00   -7.207E+00   -7.055E+00
    -6.903E+00   -6.753E+00   -6.604E+00   -6.456E+00   -6.310E+00   -6.164E+00   -6.019E+00   -5.876E+00   -5.734E+00   -5.593E+00
    -5.453E+00   -5.314E+00   -5.176E+00   -5.039E+00   -4.904E+00   -4.769E+00   -4.636E+00   -4.503E+00   -4.372E+00   -4.242E+00
    -4.113E+00   -3.985E+00   -3.858E+00   -3.732E+00   -3.607E+00   -3.483E+00   -3.360E+00   -3.238E+00   -3.117E+00   -2.998E+00
    -2.879E+00   -2.761E+00   -2.644E+00   -2.529E+00   -2.414E+00   -2.300E+00   -2.188E+00   -2.076E+00   -1.965E+00   -1.856E+00
    -1.747E+00   -1.639E+00   -1.532E+00   -1.427E+00   -1.322E+00   -1.218E+00   -1.115E+00   -1.013E+00   -9.119E-01   -8.118E-01
    -7.126E-01   -6.144E-01   -5.171E-01   -4.207E-01   -3.253E-01   -2.308E-01   -1.372E-01   -4.446E-02    4.734E-02    1.382E-01
     2.282E-01    3.174E-01    4.056E-01    4.929E-01    5.794E-01    6.650E-01    7.497E-01    8.335E-01    9.165E-01    9.987E-01
     1.080E+00    1.160E+00    1.240E+00    1.319E+00    1.397E+00    1.474E+00    1.550E+00    1.625E+00    1.700E+00    1.774E+00
     1.847E+00    1.919E+00    1.990E+00    2.061E+00    2.131E+00    2.200E+00    2.268E+00    2.335E+00    2.402E+00    2.468E+00
     2.533E+00    2.598E+00    2.662E+00    2.725E+00    2.787E+00    2.848E+00    2.909E+00    2.969E+00    3.029E+00    3.088E+00
     3.146E+00    3.203E+00    3.260E+00    3.316E+00    3.371E+00    3.426E+00    3.480E+00    3.533E+00    3.586E+00    3.638E+00
     3.690E+00    3.741E+00    3.791E+00    3.840E+00    3.890E+00    3.938E+00    3.986E+00    4.033E+00    4.080E+00    4.126E+00
     4.172E+00    4.217E+00    4.261E+00    4.305E+00    4.348E+00    4.391E+00    4.433E+00    4.475E+00    4.516E+00    4.557E+00
     4.597E+00    4.637E+00    4.676E+00    4.715E+00    4.753E+00    4.791E+00    4.828E+00    4.865E+00    4.902E+00    4.938E+00
     4.973E+00    5.008E+00    5.043E+00    5.077E+00    5.111E+00    5.144E+00    5.177E+00    5.210E+00    5.242E+00    5.274E+00
     5.305E+00    5.336E+00    5.367E+00    5.397E+00    5.427E+00    5.456E+00    5.485E+00    5.514E+00    5.543E+00    5.571E+00
     5.599E+00    5.626E+00    5.654E+00    5.681E+00    5.707E+00    5.734E+00    5.760E+00    5.785E+00    5.811E+00    5.836E+00
     5.861E+00    5.886E+00    5.910E+00    5.934E+00    5.958E+00    5.982E+00    6.006E+00    6.029E+00    6.052E+00    6.075E+00
     6.098E+00    6.120E+00    6.142E+00    6.164E+00    6.186E+00    6.208E+00    6.230E+00    6.251E+00    6.272E+00    6.293E+00
     6.314E+00    6.335E+00    6.356E+00    6.376E+00    6.397E+00    6.417E+00    6.438E+00    6.458E+00    6.478E+00    6.498E+00
     6.518E+00    6.537E+00    6.557E+00    6.577E+00    6.596E+00    6.616E+00    6.635E+00    6.655E+00    6.674E+00    6.694E+00
     6.713E+00    6.732E+00    6.751E+00    6.770E+00    6.789E+00    6.808E+00    6.827E+00    6.846E+00    6.864E+00    6.883E+00
     6.901E+00    6.920E+00    6.938E+00    6.956E+00    6.975E+00    6.993E+00    7.011E+00    7.029E+00    7.047E+00    7.064E+00
     7.082E+00    7.100E+00    7.117E+00    7.135E+00    7.152E+00    7.169E+00    7.186E+00    7.203E+00    7.220E+00    7.237E+00
     7.254E+00    7.270E+00    7.287E+00    7.303E+00    7.319E+00    7.336E+00    7.352E+00    7.368E+00    7.384E+00    7.399E+00
     7.415E+00    7.431E+00    7.446E+00    7.461E+00    7.476E+00    7.491E+00    7.506E+00    7.521E+00    7.536E+00    7.551E+00
     7.565E+00    7.579E+00    7.593E+00    7.608E+00    7.621E+00    7.635E+00    7.649E+00    7.662E+00    7.676E+00    7.689E+00
     7.702E+00    7.715E+00    7.728E+00    7.741E+00    7.753E+00    7.766E+00    7.778E+00    7.790E+00    7.802E+00    7.814E+00
     7.826E+00    7.837E+00    7.849E+00    7.860E+00    7.871E+00    7.882E+00    7.893E+00    7.903E+00    7.914E+00    7.924E+00
     7.934E+00    7.944E+00    7.954E+00    7.964E+00    7.973E+00    7.983E+00    7.992E+00    8.001E+00    8.010E+00    8.018E+00
     8.027E+00    8.035E+00    8.043E+00    8.051E+00    8.059E+00    8.067E+00    8.074E+00    8.081E+00    8.088E+00    8.095E+00
     8.102E+00    8.108E+00    8.115E+00    8.121E+00    8.127E+00    8.133E+00    8.138E+00    8.143E+00    8.149E+00    8.154E+00
     8.158E+00    8.163E+00    8.167E+00    8.172E+00    8.176E+00    8.179E+00    8.183E+00    8.186E+00
 Ala      Conc. = 7.29E+02
