 LCModel (Version 6.3-1L) Copyright: S.W. Provencher.          Ref.: Magn. Reson. Med. 30:672-679 (1993).                
 Slice#3 Row#3 Col#2  PD_05_press_1_raw_act
 36 lines in following concentration table = NCONC+1
    Conc.  %SD /Cr+PCr  Metabolite                                         
    0.000 999%   0.000 Ala                                                 
   40.916  23%   2.468 Asp                                                 
   16.578 166%   1.000 Cr                                                  
    0.000 999%   0.000 PCr                                                 
   25.127  22%   1.516 GABA                                                
   24.940  22%   1.504 Glc                                                 
    0.000 999%   0.000 Gln                                                 
   90.407 118%   5.454 Glu                                                 
    5.791 427%   0.349 GPC                                                 
    4.457 551%   0.269 PCh                                                 
    0.000 999%   0.000 GSH                                                 
  109.915 111%   6.630 Ins                                                 
    8.342 564%   0.503 Lac                                                 
  355.731  12%  21.458 NAA                                                 
  420.715  10%  25.378 NAAG                                                
    8.538  21%   0.515 Scyllo                                              
   42.617  22%   2.571 Tau                                                 
    8.287 271%   0.500 -CrCH2                                              
   10.249 103%   0.618 GPC+PCh                                             
  776.446   7%  46.837 NAA+NAAG                                            
   16.578 166%   1.000 Cr+PCr                                              
   90.407 118%   5.454 Glu+Gln                                             
  956.081  22%  57.673 Lip13a                                              
    0.000 999%   0.000 Lip13b                                              
    0.000 999%   0.000 Lip09                                               
    0.000 999%   0.000 MM09                                                
  640.846  20%  38.657 Lip20                                               
    4.757 344%   0.287 MM20                                                
    0.000 999%   0.000 MM12                                                
    9.000 217%   0.543 MM14                                                
    5.644 230%   0.340 MM17                                                
  956.081  22%  57.673 Lip13a+Lip13b                                       
  965.081  22%  58.216 MM14+Lip13a+Lip13b+MM12                             
    0.000 999%   0.000 MM09+Lip09                                          
  645.603  20%  38.944 MM20+Lip20                                          
   6 lines in following misc. output table
  FWHM = 0.275 ppm    S/N =   4                                            
  Data shift =-0.138 ppm                                                   
  Ph: -44 deg     -46.1 deg/ppm                                            
  alphaB,S = 8.1E-01,   4.0E-01                                            
   10 spline knots.   Ns = 9(2)                                            
   8 inflections.     9 extrema                                            
  498 points on ppm-axis = NY
      4.000000     3.992357     3.984714     3.977070     3.969427     3.961784     3.954141     3.946497     3.938854     3.931211
      3.923568     3.915925     3.908281     3.900638     3.892995     3.885352     3.877708     3.870065     3.862422     3.854779
      3.847136     3.839492     3.831849     3.824206     3.816563     3.808919     3.801276     3.793633     3.785990     3.778347
      3.770703     3.763060     3.755417     3.747774     3.740130     3.732487     3.724844     3.717201     3.709558     3.701914
      3.694271     3.686628     3.678985     3.671341     3.663698     3.656055     3.648412     3.640769     3.633125     3.625482
      3.617839     3.610196     3.602552     3.594909     3.587266     3.579623     3.571980     3.564336     3.556693     3.549050
      3.541407     3.533763     3.526120     3.518477     3.510834     3.503191     3.495547     3.487904     3.480261     3.472618
      3.464974     3.457331     3.449688     3.442045     3.434402     3.426758     3.419115     3.411472     3.403829     3.396185
      3.388542     3.380899     3.373256     3.365613     3.357969     3.350326     3.342683     3.335040     3.327396     3.319753
      3.312110     3.304467     3.296824     3.289180     3.281537     3.273894     3.266251     3.258607     3.250964     3.243321
      3.235678     3.228034     3.220391     3.212748     3.205105     3.197462     3.189818     3.182175     3.174532     3.166889
      3.159245     3.151602     3.143959     3.136316     3.128673     3.121029     3.113386     3.105743     3.098100     3.090456
      3.082813     3.075170     3.067527     3.059884     3.052240     3.044597     3.036954     3.029311     3.021667     3.014024
      3.006381     2.998738     2.991095     2.983451     2.975808     2.968165     2.960522     2.952878     2.945235     2.937592
      2.929949     2.922306     2.914662     2.907019     2.899376     2.891733     2.884089     2.876446     2.868803     2.861160
      2.853517     2.845873     2.838230     2.830587     2.822944     2.815300     2.807657     2.800014     2.792371     2.784728
      2.777084     2.769441     2.761798     2.754155     2.746511     2.738868     2.731225     2.723582     2.715939     2.708295
      2.700652     2.693009     2.685366     2.677722     2.670079     2.662436     2.654793     2.647150     2.639506     2.631863
      2.624220     2.616577     2.608933     2.601290     2.593647     2.586004     2.578361     2.570717     2.563074     2.555431
      2.547788     2.540144     2.532501     2.524858     2.517215     2.509572     2.501928     2.494285     2.486642     2.478999
      2.471355     2.463712     2.456069     2.448426     2.440783     2.433139     2.425496     2.417853     2.410210     2.402566
      2.394923     2.387280     2.379637     2.371994     2.364350     2.356707     2.349064     2.341421     2.333777     2.326134
      2.318491     2.310848     2.303205     2.295561     2.287918     2.280275     2.272632     2.264988     2.257345     2.249702
      2.242059     2.234416     2.226772     2.219129     2.211486     2.203843     2.196199     2.188556     2.180913     2.173270
      2.165627     2.157983     2.150340     2.142697     2.135054     2.127410     2.119767     2.112124     2.104481     2.096838
      2.089194     2.081551     2.073908     2.066265     2.058621     2.050978     2.043335     2.035692     2.028049     2.020405
      2.012762     2.005119     1.997476     1.989833     1.982190     1.974546     1.966903     1.959260     1.951617     1.943974
      1.936331     1.928688     1.921045     1.913402     1.905759     1.898115     1.890472     1.882829     1.875186     1.867543
      1.859900     1.852257     1.844614     1.836971     1.829327     1.821684     1.814041     1.806398     1.798755     1.791112
      1.783469     1.775826     1.768183     1.760540     1.752896     1.745253     1.737610     1.729967     1.722324     1.714681
      1.707038     1.699395     1.691752     1.684108     1.676465     1.668822     1.661179     1.653536     1.645893     1.638250
      1.630607     1.622964     1.615321     1.607677     1.600034     1.592391     1.584748     1.577105     1.569462     1.561819
      1.554176     1.546533     1.538890     1.531246     1.523603     1.515960     1.508317     1.500674     1.493031     1.485388
      1.477745     1.470102     1.462458     1.454815     1.447172     1.439529     1.431886     1.424243     1.416600     1.408957
      1.401314     1.393671     1.386027     1.378384     1.370741     1.363098     1.355455     1.347812     1.340169     1.332526
      1.324883     1.317240     1.309596     1.301953     1.294310     1.286667     1.279024     1.271381     1.263738     1.256095
      1.248452     1.240808     1.233165     1.225522     1.217879     1.210236     1.202593     1.194950     1.187307     1.179664
      1.172021     1.164377     1.156734     1.149091     1.141448     1.133805     1.126162     1.118519     1.110876     1.103233
      1.095590     1.087946     1.080303     1.072660     1.065017     1.057374     1.049731     1.042088     1.034445     1.026802
      1.019158     1.011515     1.003872     0.996229     0.988586     0.980943     0.973300     0.965657     0.958014     0.950371
      0.942727     0.935084     0.927441     0.919798     0.912155     0.904512     0.896869     0.889226     0.881583     0.873940
      0.866296     0.858653     0.851010     0.843367     0.835724     0.828081     0.820438     0.812795     0.805152     0.797508
      0.789865     0.782222     0.774579     0.766936     0.759293     0.751650     0.744007     0.736364     0.728721     0.721077
      0.713434     0.705791     0.698148     0.690505     0.682862     0.675219     0.667576     0.659933     0.652290     0.644646
      0.637003     0.629360     0.621717     0.614074     0.606431     0.598788     0.591145     0.583502     0.575858     0.568215
      0.560572     0.552929     0.545286     0.537643     0.530000     0.522357     0.514714     0.507071     0.499427     0.491784
      0.484141     0.476498     0.468855     0.461212     0.453569     0.445925     0.438282     0.430639     0.422996     0.415353
      0.407710     0.400067     0.392424     0.384780     0.377137     0.369494     0.361851     0.354208     0.346565     0.338922
      0.331278     0.323635     0.315992     0.308349     0.300706     0.293063     0.285420     0.277777     0.270133     0.262490
      0.254847     0.247204     0.239561     0.231918     0.224275     0.216631     0.208988     0.201345
 NY phased data points follow
  -1.04289E+01 -1.19864E+01 -9.32738E+00 -9.42031E+00 -1.28281E+01 -1.06230E+01 -1.04291E+01 -9.88197E+00 -1.15016E+01 -9.39408E+00
  -9.76765E+00 -7.16666E+00 -9.66963E+00 -1.09516E+01 -8.18705E+00 -9.65291E+00 -9.33916E+00 -8.25340E+00 -9.76918E+00 -8.58330E+00
  -7.88934E+00 -7.29653E+00 -9.35017E+00 -8.30872E+00 -8.67315E+00 -8.08713E+00 -8.08278E+00 -6.74332E+00 -8.57456E+00 -7.84529E+00
  -6.71558E+00 -6.44501E+00 -6.58874E+00 -6.24216E+00 -6.50994E+00 -5.54707E+00 -5.35047E+00 -5.73073E+00 -4.66998E+00 -6.30537E+00
  -4.98827E+00 -5.44189E+00 -6.13326E+00 -4.77878E+00 -3.76440E+00 -3.54546E+00 -4.59720E+00 -5.02544E+00 -4.12701E+00 -4.73552E+00
  -4.27474E+00 -5.28055E+00 -4.89913E+00 -4.09033E+00 -2.96287E+00 -3.27295E+00 -2.72934E+00 -3.66190E+00 -2.89527E+00 -4.16769E+00
  -3.21087E+00 -2.43937E+00 -3.21525E+00 -4.58989E+00 -2.43390E+00 -3.73223E+00 -1.73803E+00 -9.76682E-01 -1.97820E+00 -2.06968E+00
  -9.01541E-01 -1.44327E+00 -2.37836E+00 -5.94017E-01 -2.45148E+00 -4.99135E-01  8.07401E-01 -1.97159E+00  1.17960E-01 -3.24889E-01
  -3.96259E-01  2.48033E-01 -3.91740E-01 -8.48162E-01 -5.20270E-01  7.83236E-01 -6.26299E-01  8.09875E-01  3.71531E-01 -9.66266E-01
  -2.19484E-01  1.96307E-01  5.94227E-01  3.23492E-01 -1.36009E-01  1.80506E+00  1.49737E+00 -1.79270E+00  1.02852E+00  3.27450E+00
   1.99949E+00  2.24975E-02  2.74147E+00  7.65368E-02  1.26670E+00  1.85188E+00  2.31662E+00  7.88193E-01  8.55738E-01  1.30970E+00
   2.46794E+00  1.94951E+00  2.04017E+00  2.57801E+00  1.22112E+00  1.07772E+00  3.66716E+00  1.04099E+00  3.85401E+00  2.30539E+00
   5.26100E-01  2.99639E+00  2.84435E+00  3.44907E+00  3.41866E+00  2.74331E+00  3.63753E+00  2.23674E+00  3.80301E+00  3.11379E+00
   4.35274E+00  2.39965E+00  1.85809E+00  3.10134E+00  1.91319E+00  3.78767E+00  4.96095E+00  4.98679E+00  4.61496E+00  3.31977E+00
   5.98619E+00  5.29183E+00  5.31670E+00  5.50235E+00  4.07786E+00  3.33578E+00  4.15231E+00  6.45243E+00  2.67552E+00  4.67462E+00
   4.91364E+00  3.27271E+00  6.06481E+00  6.75808E+00  5.54224E+00  4.06426E+00  4.35387E+00  5.19760E+00  5.46239E+00  5.51206E+00
   6.28689E+00  7.20774E+00  4.44177E+00  7.86381E+00  7.15867E+00  6.43749E+00  6.05077E+00  6.60934E+00  6.47044E+00  7.35057E+00
   8.43511E+00  8.11269E+00  7.20445E+00  7.34129E+00  8.61448E+00  8.50249E+00  6.55280E+00  6.26885E+00  7.23998E+00  7.20997E+00
   8.38947E+00  6.23708E+00  7.16587E+00  7.64712E+00  7.46880E+00  6.34927E+00  6.27268E+00  8.44240E+00  7.56153E+00  6.74050E+00
   8.13833E+00  6.42970E+00  8.40598E+00  9.89705E+00  8.45154E+00  1.01071E+01  8.36092E+00  6.79186E+00  9.34374E+00  7.99553E+00
   8.39189E+00  8.07723E+00  8.78156E+00  8.48922E+00  7.28413E+00  8.51579E+00  9.44327E+00  9.06322E+00  8.56201E+00  9.48235E+00
   8.94277E+00  8.62554E+00  9.96394E+00  9.50961E+00  1.00952E+01  1.04793E+01  1.03968E+01  1.13023E+01  1.17045E+01  1.12452E+01
   1.10125E+01  1.11575E+01  1.08350E+01  1.32774E+01  1.32975E+01  1.41236E+01  1.29362E+01  1.47911E+01  1.56248E+01  1.63120E+01
   1.67854E+01  1.62626E+01  1.76186E+01  1.85745E+01  1.79493E+01  1.85304E+01  1.80945E+01  1.87593E+01  2.08994E+01  2.15717E+01
   2.08376E+01  2.43986E+01  2.02051E+01  2.21835E+01  2.17018E+01  2.29811E+01  2.19078E+01  2.27301E+01  2.30164E+01  2.28727E+01
   2.26402E+01  2.31512E+01  2.19190E+01  2.18343E+01  2.43486E+01  2.50709E+01  2.37148E+01  2.26112E+01  2.48058E+01  2.47991E+01
   2.40972E+01  2.45325E+01  2.44920E+01  2.33709E+01  2.27002E+01  2.34556E+01  2.40702E+01  2.43497E+01  2.25452E+01  2.24605E+01
   2.46094E+01  2.34647E+01  2.41654E+01  2.27155E+01  2.44719E+01  2.16336E+01  2.28756E+01  2.30541E+01  2.28007E+01  1.97183E+01
   2.05132E+01  2.13270E+01  2.11446E+01  2.23350E+01  2.04868E+01  2.04610E+01  2.16570E+01  1.98706E+01  2.02416E+01  1.86532E+01
   1.96201E+01  1.90354E+01  1.86442E+01  1.96435E+01  1.85836E+01  1.86928E+01  1.78448E+01  1.86487E+01  1.98800E+01  1.87321E+01
   1.85976E+01  1.60316E+01  1.81682E+01  1.96819E+01  1.80145E+01  1.73687E+01  1.94853E+01  1.77286E+01  1.83331E+01  1.77898E+01
   1.76912E+01  1.81751E+01  1.83839E+01  1.85509E+01  1.87485E+01  1.83452E+01  1.81623E+01  1.90950E+01  1.91483E+01  1.78628E+01
   1.77574E+01  1.66405E+01  1.72822E+01  1.78815E+01  1.82842E+01  1.85315E+01  1.85821E+01  1.77054E+01  1.69927E+01  1.81435E+01
   1.75728E+01  1.75415E+01  2.01535E+01  1.84783E+01  1.72086E+01  1.76914E+01  1.66646E+01  1.70021E+01  1.76644E+01  1.68672E+01
   1.48103E+01  1.74611E+01  1.67376E+01  1.75396E+01  1.75184E+01  1.76216E+01  1.68382E+01  1.79849E+01  1.76993E+01  1.78043E+01
   1.67010E+01  1.64907E+01  1.62524E+01  1.60416E+01  1.82634E+01  1.64211E+01  1.72626E+01  1.49300E+01  1.52293E+01  1.66293E+01
   1.47929E+01  1.70279E+01  1.57701E+01  1.54637E+01  1.32387E+01  1.67173E+01  1.61413E+01  1.41466E+01  1.51563E+01  1.51386E+01
   1.41106E+01  1.47972E+01  1.61834E+01  1.20295E+01  1.35792E+01  1.15777E+01  1.34541E+01  1.31693E+01  1.14193E+01  1.09021E+01
   1.21517E+01  1.08416E+01  1.08477E+01  1.00209E+01  9.77804E+00  1.12308E+01  8.69692E+00  9.93174E+00  9.82498E+00  8.03739E+00
   8.89212E+00  7.84875E+00  6.56719E+00  8.67576E+00  7.17733E+00  8.03842E+00  6.36652E+00  7.31441E+00  7.38933E+00  7.56179E+00
   7.48245E+00  8.22739E+00  8.36635E+00  7.42019E+00  5.27513E+00  7.87603E+00  7.71079E+00  6.51220E+00  6.58377E+00  7.50520E+00
   7.62591E+00  6.69647E+00  5.97585E+00  6.43972E+00  8.88970E+00  7.30604E+00  7.43552E+00  7.71252E+00  5.82372E+00  6.36959E+00
   8.56883E+00  7.10805E+00  7.58962E+00  7.79305E+00  7.05402E+00  5.99115E+00  7.47702E+00  6.65760E+00  6.23339E+00  7.33222E+00
   7.44134E+00  7.37092E+00  5.36419E+00  5.75488E+00  6.44555E+00  5.59169E+00  5.53198E+00  5.52624E+00  5.24043E+00  5.77048E+00
   6.70110E+00  7.32887E+00  5.72968E+00  6.81619E+00  6.73041E+00  6.39270E+00  7.04329E+00  5.07206E+00  6.52188E+00  7.25793E+00
   4.73594E+00  4.99074E+00  6.53547E+00  5.55649E+00  6.56290E+00  4.79903E+00  5.25542E+00  5.36874E+00  6.41033E+00  5.34866E+00
   5.51972E+00  7.20738E+00  5.40587E+00  5.49510E+00  4.89258E+00  5.88386E+00  5.78439E+00  3.01812E+00  4.65153E+00  6.32855E+00
   5.07165E+00  6.98954E+00  6.08652E+00  4.89439E+00  3.91732E+00  4.18020E+00  5.38092E+00  4.53818E+00  4.16199E+00  4.70824E+00
   3.19057E+00  4.44698E+00  5.21358E+00  5.61174E+00  7.18764E+00  3.75769E+00  5.95674E+00  6.43916E+00  3.61268E+00  5.07987E+00
   3.77293E+00  4.51448E+00  4.55834E+00  4.37843E+00  4.78858E+00  4.16899E+00  3.70244E+00  5.32144E+00
 NY points of the fit to the data follow
  -1.09602E+01 -1.07337E+01 -1.06924E+01 -1.04999E+01 -1.03641E+01 -1.02823E+01 -1.00781E+01 -1.00689E+01 -9.92633E+00 -9.64935E+00
  -9.58725E+00 -9.40717E+00 -9.33840E+00 -9.25415E+00 -9.05821E+00 -8.95099E+00 -8.77875E+00 -8.62781E+00 -8.61928E+00 -8.49754E+00
  -8.42025E+00 -8.27515E+00 -8.07529E+00 -8.01787E+00 -7.78958E+00 -7.59733E+00 -7.52155E+00 -7.33892E+00 -7.24731E+00 -7.03625E+00
  -6.74263E+00 -6.56770E+00 -6.38914E+00 -6.43967E+00 -6.52906E+00 -6.40887E+00 -6.30330E+00 -6.07286E+00 -5.81096E+00 -5.64276E+00
  -5.44640E+00 -5.35005E+00 -5.31862E+00 -5.22381E+00 -5.15662E+00 -4.96293E+00 -4.72578E+00 -4.59311E+00 -4.43306E+00 -4.33326E+00
  -4.27686E+00 -4.13124E+00 -4.10916E+00 -3.94710E+00 -3.73136E+00 -3.69022E+00 -3.50712E+00 -3.29664E+00 -3.17835E+00 -3.06576E+00
  -3.03283E+00 -2.97029E+00 -2.83666E+00 -2.70493E+00 -2.50342E+00 -2.36001E+00 -2.23616E+00 -2.08303E+00 -1.96861E+00 -1.95834E+00
  -1.86176E+00 -1.99141E+00 -2.00901E+00 -1.79781E+00 -1.52861E+00 -1.27920E+00 -1.07133E+00 -1.08540E+00 -1.07604E+00 -1.17215E+00
  -1.10379E+00 -9.64697E-01 -8.56182E-01 -5.76723E-01 -2.96540E-01 -4.26175E-02  7.16073E-02  2.73128E-02 -6.41613E-02 -1.89894E-01
  -1.04824E-01  8.00983E-02  3.36620E-01  5.22442E-01  5.99170E-01  5.91884E-01  6.35086E-01  5.57952E-01  5.03298E-01  5.17044E-01
   7.60263E-01  1.08871E+00  1.26210E+00  1.30539E+00  1.26508E+00  1.18406E+00  1.19906E+00  1.19549E+00  1.39519E+00  1.76454E+00
   1.84484E+00  2.00745E+00  2.01087E+00  1.94808E+00  1.94401E+00  1.89869E+00  2.00036E+00  2.27651E+00  2.41523E+00  2.64536E+00
   2.65299E+00  2.59688E+00  2.55503E+00  2.45551E+00  2.57783E+00  2.80333E+00  2.90468E+00  3.04436E+00  3.13447E+00  3.16612E+00
   3.20083E+00  3.22368E+00  3.28833E+00  3.45914E+00  3.58668E+00  3.73411E+00  3.80133E+00  3.86175E+00  3.95110E+00  3.96509E+00
   4.22739E+00  4.55904E+00  4.61293E+00  4.70261E+00  4.67427E+00  4.58908E+00  4.83705E+00  5.08369E+00  5.24355E+00  5.47182E+00
   5.44179E+00  5.38289E+00  5.27163E+00  5.23740E+00  5.52794E+00  5.76733E+00  6.18034E+00  6.33579E+00  6.01873E+00  5.92659E+00
   5.78415E+00  5.85563E+00  6.26218E+00  6.28634E+00  6.36695E+00  6.30838E+00  6.34755E+00  6.43813E+00  6.35131E+00  6.42183E+00
   6.56836E+00  6.54135E+00  6.93684E+00  7.01325E+00  7.00162E+00  7.05238E+00  6.90072E+00  6.92660E+00  7.04701E+00  7.15790E+00
   7.25991E+00  7.32748E+00  7.55129E+00  7.61801E+00  7.64484E+00  7.70069E+00  7.78164E+00  7.99752E+00  8.28496E+00  8.25751E+00
   8.37243E+00  8.23615E+00  8.18969E+00  8.32550E+00  8.61207E+00  8.85302E+00  8.96193E+00  8.99086E+00  9.42448E+00  9.47853E+00
   9.61052E+00  9.63355E+00  9.67449E+00  9.75595E+00  9.85753E+00  1.00812E+01  1.05142E+01  1.06701E+01  1.08915E+01  1.10362E+01
   1.09537E+01  1.09425E+01  1.09367E+01  1.10714E+01  1.15580E+01  1.17091E+01  1.20567E+01  1.24690E+01  1.26374E+01  1.27463E+01
   1.27007E+01  1.26848E+01  1.29032E+01  1.30514E+01  1.33426E+01  1.36893E+01  1.39729E+01  1.42514E+01  1.44154E+01  1.44937E+01
   1.46342E+01  1.46474E+01  1.48144E+01  1.51012E+01  1.55030E+01  1.59190E+01  1.62727E+01  1.75042E+01  2.09969E+01  2.18571E+01
   2.24035E+01  2.19977E+01  2.11701E+01  2.18323E+01  2.24447E+01  2.31507E+01  2.26005E+01  2.21828E+01  2.27149E+01  2.26750E+01
   2.29473E+01  2.30585E+01  2.14303E+01  2.22680E+01  2.44778E+01  2.47895E+01  2.39078E+01  2.34674E+01  2.47514E+01  2.49964E+01
   2.38672E+01  2.40069E+01  2.39246E+01  2.37839E+01  2.32933E+01  2.31796E+01  2.45786E+01  2.43087E+01  2.24425E+01  2.24804E+01
   2.36515E+01  2.40584E+01  2.37136E+01  2.32763E+01  2.33835E+01  2.32100E+01  2.30351E+01  2.28879E+01  2.15096E+01  2.08147E+01
   1.93692E+01  1.89037E+01  1.88511E+01  1.87592E+01  1.87480E+01  1.86984E+01  1.86666E+01  1.86033E+01  1.85746E+01  1.85761E+01
   1.86443E+01  1.86242E+01  1.86584E+01  1.86128E+01  1.86015E+01  1.85520E+01  1.84991E+01  1.84426E+01  1.84349E+01  1.84091E+01
   1.84376E+01  1.84154E+01  1.84299E+01  1.84044E+01  1.83390E+01  1.82612E+01  1.82107E+01  1.81474E+01  1.81304E+01  1.80973E+01
   1.80678E+01  1.80468E+01  1.79925E+01  1.79279E+01  1.78664E+01  1.77946E+01  1.77362E+01  1.76883E+01  1.76392E+01  1.76006E+01
   1.75536E+01  1.75067E+01  1.74592E+01  1.74134E+01  1.73689E+01  1.73276E+01  1.72904E+01  1.72590E+01  1.72370E+01  1.72296E+01
   1.71877E+01  1.71447E+01  1.71010E+01  1.70476E+01  1.70487E+01  1.70576E+01  1.70723E+01  1.71388E+01  1.71587E+01  1.71903E+01
   1.72040E+01  1.71723E+01  1.71809E+01  1.71934E+01  1.72378E+01  1.73265E+01  1.73452E+01  1.73610E+01  1.73499E+01  1.73012E+01
   1.72668E+01  1.71928E+01  1.71397E+01  1.71242E+01  1.70496E+01  1.69669E+01  1.68429E+01  1.66811E+01  1.65011E+01  1.62823E+01
   1.60904E+01  1.59148E+01  1.57019E+01  1.54919E+01  1.52439E+01  1.49882E+01  1.47332E+01  1.44463E+01  1.41863E+01  1.39467E+01
   1.37038E+01  1.34875E+01  1.32601E+01  1.30308E+01  1.28043E+01  1.25737E+01  1.23552E+01  1.21467E+01  1.19462E+01  1.17534E+01
   1.15674E+01  1.13883E+01  1.12152E+01  1.10483E+01  1.08867E+01  1.07305E+01  1.05789E+01  1.04320E+01  1.02892E+01  1.01504E+01
   1.00150E+01  9.88327E+00  9.75444E+00  9.62882E+00  9.50581E+00  9.38565E+00  9.26777E+00  9.15246E+00  9.03921E+00  8.92837E+00
   8.81943E+00  8.71273E+00  8.60775E+00  8.50487E+00  8.40365E+00  8.30448E+00  8.20690E+00  8.11128E+00  8.01717E+00  7.92498E+00
   7.83430E+00  7.74555E+00  7.65826E+00  7.57285E+00  7.48888E+00  7.40681E+00  7.32623E+00  7.24755E+00  7.17034E+00  7.09501E+00
   7.02115E+00  6.94923E+00  6.87884E+00  6.81039E+00  6.74345E+00  6.67846E+00  6.61504E+00  6.55362E+00  6.49373E+00  6.43575E+00
   6.37920E+00  6.32447E+00  6.27113E+00  6.21956E+00  6.16928E+00  6.12067E+00  6.07325E+00  6.02744E+00  5.98279E+00  5.93968E+00
   5.89763E+00  5.85702E+00  5.81739E+00  5.77916E+00  5.74187E+00  5.70590E+00  5.67076E+00  5.63686E+00  5.60373E+00  5.57179E+00
   5.54058E+00  5.51047E+00  5.48098E+00  5.45251E+00  5.42463E+00  5.39773E+00  5.37134E+00  5.34583E+00  5.32075E+00  5.29649E+00
   5.27262E+00  5.24951E+00  5.22671E+00  5.20459E+00  5.18269E+00  5.16142E+00  5.14033E+00  5.11981E+00  5.09938E+00  5.07943E+00
   5.05950E+00  5.04001E+00  5.02051E+00  5.00136E+00  4.98209E+00  4.96311E+00  4.94396E+00  4.92506E+00  4.90593E+00  4.88696E+00
   4.86767E+00  4.84847E+00  4.82892E+00  4.80941E+00  4.78948E+00  4.76949E+00  4.74900E+00  4.72842E+00  4.70730E+00  4.68603E+00
   4.66413E+00  4.64199E+00  4.61918E+00  4.59611E+00  4.57233E+00  4.54824E+00  4.52338E+00  4.49819E+00
 NY background values follow
    -1.128E+01   -1.114E+01   -1.101E+01   -1.087E+01   -1.074E+01   -1.060E+01   -1.047E+01   -1.033E+01   -1.020E+01   -1.006E+01
    -9.925E+00   -9.790E+00   -9.654E+00   -9.519E+00   -9.383E+00   -9.248E+00   -9.112E+00   -8.977E+00   -8.842E+00   -8.707E+00
    -8.572E+00   -8.437E+00   -8.302E+00   -8.167E+00   -8.033E+00   -7.899E+00   -7.765E+00   -7.631E+00   -7.498E+00   -7.364E+00
    -7.231E+00   -7.099E+00   -6.966E+00   -6.834E+00   -6.703E+00   -6.572E+00   -6.441E+00   -6.310E+00   -6.180E+00   -6.050E+00
    -5.921E+00   -5.792E+00   -5.664E+00   -5.536E+00   -5.409E+00   -5.282E+00   -5.156E+00   -5.031E+00   -4.906E+00   -4.781E+00
    -4.657E+00   -4.534E+00   -4.412E+00   -4.290E+00   -4.169E+00   -4.048E+00   -3.928E+00   -3.809E+00   -3.691E+00   -3.573E+00
    -3.457E+00   -3.341E+00   -3.226E+00   -3.111E+00   -2.998E+00   -2.885E+00   -2.773E+00   -2.662E+00   -2.552E+00   -2.443E+00
    -2.335E+00   -2.228E+00   -2.122E+00   -2.017E+00   -1.913E+00   -1.809E+00   -1.707E+00   -1.605E+00   -1.505E+00   -1.405E+00
    -1.306E+00   -1.208E+00   -1.111E+00   -1.014E+00   -9.184E-01   -8.234E-01   -7.292E-01   -6.356E-01   -5.428E-01   -4.507E-01
    -3.593E-01   -2.685E-01   -1.783E-01   -8.880E-02    1.212E-04    8.845E-02    1.762E-01    2.634E-01    3.501E-01    4.362E-01
     5.219E-01    6.070E-01    6.917E-01    7.759E-01    8.597E-01    9.431E-01    1.026E+00    1.109E+00    1.191E+00    1.273E+00
     1.354E+00    1.435E+00    1.516E+00    1.597E+00    1.677E+00    1.757E+00    1.837E+00    1.917E+00    1.996E+00    2.075E+00
     2.155E+00    2.233E+00    2.312E+00    2.391E+00    2.469E+00    2.548E+00    2.626E+00    2.705E+00    2.783E+00    2.861E+00
     2.940E+00    3.018E+00    3.096E+00    3.175E+00    3.253E+00    3.332E+00    3.411E+00    3.489E+00    3.568E+00    3.647E+00
     3.727E+00    3.806E+00    3.886E+00    3.966E+00    4.046E+00    4.126E+00    4.207E+00    4.287E+00    4.369E+00    4.450E+00
     4.532E+00    4.614E+00    4.696E+00    4.779E+00    4.862E+00    4.945E+00    5.029E+00    5.113E+00    5.197E+00    5.282E+00
     5.368E+00    5.453E+00    5.539E+00    5.626E+00    5.713E+00    5.800E+00    5.888E+00    5.977E+00    6.066E+00    6.155E+00
     6.245E+00    6.336E+00    6.427E+00    6.518E+00    6.611E+00    6.703E+00    6.797E+00    6.891E+00    6.985E+00    7.080E+00
     7.176E+00    7.273E+00    7.370E+00    7.467E+00    7.566E+00    7.665E+00    7.765E+00    7.865E+00    7.966E+00    8.068E+00
     8.171E+00    8.274E+00    8.379E+00    8.484E+00    8.589E+00    8.696E+00    8.803E+00    8.912E+00    9.021E+00    9.130E+00
     9.241E+00    9.353E+00    9.465E+00    9.579E+00    9.693E+00    9.808E+00    9.924E+00    1.004E+01    1.016E+01    1.028E+01
     1.040E+01    1.052E+01    1.064E+01    1.076E+01    1.089E+01    1.101E+01    1.114E+01    1.126E+01    1.139E+01    1.152E+01
     1.165E+01    1.178E+01    1.191E+01    1.204E+01    1.217E+01    1.230E+01    1.243E+01    1.256E+01    1.269E+01    1.282E+01
     1.295E+01    1.308E+01    1.321E+01    1.334E+01    1.347E+01    1.360E+01    1.373E+01    1.386E+01    1.398E+01    1.411E+01
     1.424E+01    1.436E+01    1.449E+01    1.461E+01    1.473E+01    1.485E+01    1.498E+01    1.509E+01    1.521E+01    1.533E+01
     1.544E+01    1.556E+01    1.567E+01    1.578E+01    1.589E+01    1.599E+01    1.610E+01    1.620E+01    1.630E+01    1.640E+01
     1.650E+01    1.659E+01    1.669E+01    1.678E+01    1.686E+01    1.695E+01    1.703E+01    1.711E+01    1.719E+01    1.726E+01
     1.734E+01    1.741E+01    1.747E+01    1.753E+01    1.760E+01    1.765E+01    1.771E+01    1.776E+01    1.780E+01    1.785E+01
     1.789E+01    1.792E+01    1.796E+01    1.799E+01    1.801E+01    1.804E+01    1.805E+01    1.807E+01    1.808E+01    1.809E+01
     1.809E+01    1.809E+01    1.809E+01    1.808E+01    1.807E+01    1.806E+01    1.804E+01    1.802E+01    1.800E+01    1.797E+01
     1.795E+01    1.791E+01    1.788E+01    1.784E+01    1.780E+01    1.776E+01    1.771E+01    1.766E+01    1.761E+01    1.756E+01
     1.750E+01    1.745E+01    1.738E+01    1.732E+01    1.726E+01    1.719E+01    1.712E+01    1.705E+01    1.697E+01    1.690E+01
     1.682E+01    1.674E+01    1.666E+01    1.657E+01    1.649E+01    1.640E+01    1.631E+01    1.622E+01    1.613E+01    1.604E+01
     1.594E+01    1.585E+01    1.575E+01    1.565E+01    1.555E+01    1.545E+01    1.535E+01    1.524E+01    1.514E+01    1.503E+01
     1.493E+01    1.482E+01    1.471E+01    1.460E+01    1.449E+01    1.438E+01    1.427E+01    1.416E+01    1.405E+01    1.394E+01
     1.383E+01    1.371E+01    1.360E+01    1.349E+01    1.337E+01    1.326E+01    1.315E+01    1.303E+01    1.292E+01    1.281E+01
     1.269E+01    1.258E+01    1.247E+01    1.235E+01    1.224E+01    1.213E+01    1.201E+01    1.190E+01    1.179E+01    1.167E+01
     1.156E+01    1.145E+01    1.134E+01    1.123E+01    1.112E+01    1.101E+01    1.090E+01    1.079E+01    1.068E+01    1.057E+01
     1.046E+01    1.035E+01    1.025E+01    1.014E+01    1.004E+01    9.930E+00    9.826E+00    9.722E+00    9.618E+00    9.516E+00
     9.414E+00    9.313E+00    9.213E+00    9.114E+00    9.015E+00    8.918E+00    8.821E+00    8.725E+00    8.630E+00    8.536E+00
     8.443E+00    8.351E+00    8.260E+00    8.170E+00    8.081E+00    7.993E+00    7.907E+00    7.821E+00    7.737E+00    7.654E+00
     7.572E+00    7.491E+00    7.412E+00    7.334E+00    7.257E+00    7.181E+00    7.107E+00    7.035E+00    6.963E+00    6.893E+00
     6.825E+00    6.758E+00    6.693E+00    6.629E+00    6.566E+00    6.505E+00    6.446E+00    6.389E+00    6.333E+00    6.278E+00
     6.225E+00    6.174E+00    6.124E+00    6.075E+00    6.028E+00    5.982E+00    5.938E+00    5.895E+00    5.853E+00    5.812E+00
     5.773E+00    5.734E+00    5.697E+00    5.661E+00    5.626E+00    5.592E+00    5.559E+00    5.527E+00    5.496E+00    5.466E+00
     5.437E+00    5.408E+00    5.380E+00    5.354E+00    5.327E+00    5.302E+00    5.277E+00    5.253E+00    5.230E+00    5.207E+00
     5.184E+00    5.162E+00    5.141E+00    5.120E+00    5.100E+00    5.080E+00    5.060E+00    5.040E+00    5.021E+00    5.002E+00
     4.983E+00    4.965E+00    4.947E+00    4.928E+00    4.910E+00    4.892E+00    4.874E+00    4.856E+00    4.838E+00    4.820E+00
     4.801E+00    4.783E+00    4.764E+00    4.745E+00    4.726E+00    4.707E+00    4.687E+00    4.667E+00    4.647E+00    4.626E+00
     4.605E+00    4.584E+00    4.561E+00    4.539E+00    4.516E+00    4.492E+00    4.467E+00    4.442E+00
 Asp      Conc. = 4.09E+01
