 LCModel (Version 6.3-1L) Copyright: S.W. Provencher.          Ref.: Magn. Reson. Med. 30:672-679 (1993).                
 Slice#2 Row#12 Col#8  PD_05_press_1_raw_act
 36 lines in following concentration table = NCONC+1
    Conc.  %SD /Cr+PCr  Metabolite                                         
  130.905  86%   0.131 Ala                                                 
   18.519 819% 1.9E-02 Asp                                                 
  228.582  82%   0.229 Cr                                                  
  771.315  25%   0.771 PCr                                                 
   12.838 856% 1.3E-02 GABA                                                
    0.000 999%   0.000 Glc                                                 
 1.14E+03  19%   1.138 Gln                                                 
 1.22E+03  21%   1.224 Glu                                                 
  305.763   5%   0.306 GPC                                                 
    0.000 999%   0.000 PCh                                                 
  279.514  19%   0.280 GSH                                                 
  696.042  25%   0.696 Ins                                                 
  278.434  44%   0.278 Lac                                                 
 1.73E+03   3%   1.734 NAA                                                 
    0.000 999%   0.000 NAAG                                                
   69.782  26% 7.0E-02 Scyllo                                              
    0.000 999%   0.000 Tau                                                 
    0.000 999%   0.000 -CrCH2                                              
  305.763   5%   0.306 GPC+PCh                                             
 1.73E+03   3%   1.734 NAA+NAAG                                            
  999.897   4%   1.000 Cr+PCr                                              
 2.36E+03  16%   2.362 Glu+Gln                                             
 1.22E+03  22%   1.215 Lip13a                                              
    0.000 999%   0.000 Lip13b                                              
    0.000 999%   0.000 Lip09                                               
  908.613  13%   0.909 MM09                                                
  210.302  47%   0.210 Lip20                                               
 2.08E+03  11%   2.079 MM20                                                
  311.481  27%   0.312 MM12                                                
 1.94E+03  12%   1.936+MM14                                                
  926.457  19%   0.927 MM17                                                
 1.22E+03  22%   1.215 Lip13a+Lip13b                                       
 3.46E+03   8%   3.462 MM14+Lip13a+Lip13b+MM12                             
  908.613  13%   0.909 MM09+Lip09                                          
 2.29E+03  10%   2.290 MM20+Lip20                                          
   6 lines in following misc. output table
  FWHM = 0.069 ppm    S/N =  12                                            
  Data shift = 0.046 ppm                                                   
  Ph: -50 deg     -12.9 deg/ppm                                            
  alphaB,S = 2.6E+00,   1.8E+02                                            
   14 spline knots.   Ns = 9(1)                                            
  (15) 4 infls.   (17) 1 extrs.                                            
  498 points on ppm-axis = NY
      4.000000     3.992357     3.984714     3.977070     3.969427     3.961784     3.954141     3.946497     3.938854     3.931211
      3.923568     3.915925     3.908281     3.900638     3.892995     3.885352     3.877708     3.870065     3.862422     3.854779
      3.847136     3.839492     3.831849     3.824206     3.816563     3.808919     3.801276     3.793633     3.785990     3.778347
      3.770703     3.763060     3.755417     3.747774     3.740130     3.732487     3.724844     3.717201     3.709558     3.701914
      3.694271     3.686628     3.678985     3.671341     3.663698     3.656055     3.648412     3.640769     3.633125     3.625482
      3.617839     3.610196     3.602552     3.594909     3.587266     3.579623     3.571980     3.564336     3.556693     3.549050
      3.541407     3.533763     3.526120     3.518477     3.510834     3.503191     3.495547     3.487904     3.480261     3.472618
      3.464974     3.457331     3.449688     3.442045     3.434402     3.426758     3.419115     3.411472     3.403829     3.396185
      3.388542     3.380899     3.373256     3.365613     3.357969     3.350326     3.342683     3.335040     3.327396     3.319753
      3.312110     3.304467     3.296824     3.289180     3.281537     3.273894     3.266251     3.258607     3.250964     3.243321
      3.235678     3.228034     3.220391     3.212748     3.205105     3.197462     3.189818     3.182175     3.174532     3.166889
      3.159245     3.151602     3.143959     3.136316     3.128673     3.121029     3.113386     3.105743     3.098100     3.090456
      3.082813     3.075170     3.067527     3.059884     3.052240     3.044597     3.036954     3.029311     3.021667     3.014024
      3.006381     2.998738     2.991095     2.983451     2.975808     2.968165     2.960522     2.952878     2.945235     2.937592
      2.929949     2.922306     2.914662     2.907019     2.899376     2.891733     2.884089     2.876446     2.868803     2.861160
      2.853517     2.845873     2.838230     2.830587     2.822944     2.815300     2.807657     2.800014     2.792371     2.784728
      2.777084     2.769441     2.761798     2.754155     2.746511     2.738868     2.731225     2.723582     2.715939     2.708295
      2.700652     2.693009     2.685366     2.677722     2.670079     2.662436     2.654793     2.647150     2.639506     2.631863
      2.624220     2.616577     2.608933     2.601290     2.593647     2.586004     2.578361     2.570717     2.563074     2.555431
      2.547788     2.540144     2.532501     2.524858     2.517215     2.509572     2.501928     2.494285     2.486642     2.478999
      2.471355     2.463712     2.456069     2.448426     2.440783     2.433139     2.425496     2.417853     2.410210     2.402566
      2.394923     2.387280     2.379637     2.371994     2.364350     2.356707     2.349064     2.341421     2.333777     2.326134
      2.318491     2.310848     2.303205     2.295561     2.287918     2.280275     2.272632     2.264988     2.257345     2.249702
      2.242059     2.234416     2.226772     2.219129     2.211486     2.203843     2.196199     2.188556     2.180913     2.173270
      2.165627     2.157983     2.150340     2.142697     2.135054     2.127410     2.119767     2.112124     2.104481     2.096838
      2.089194     2.081551     2.073908     2.066265     2.058621     2.050978     2.043335     2.035692     2.028049     2.020405
      2.012762     2.005119     1.997476     1.989833     1.982190     1.974546     1.966903     1.959260     1.951617     1.943974
      1.936331     1.928688     1.921045     1.913402     1.905759     1.898115     1.890472     1.882829     1.875186     1.867543
      1.859900     1.852257     1.844614     1.836971     1.829327     1.821684     1.814041     1.806398     1.798755     1.791112
      1.783469     1.775826     1.768183     1.760540     1.752896     1.745253     1.737610     1.729967     1.722324     1.714681
      1.707038     1.699395     1.691752     1.684108     1.676465     1.668822     1.661179     1.653536     1.645893     1.638250
      1.630607     1.622964     1.615321     1.607677     1.600034     1.592391     1.584748     1.577105     1.569462     1.561819
      1.554176     1.546533     1.538890     1.531246     1.523603     1.515960     1.508317     1.500674     1.493031     1.485388
      1.477745     1.470102     1.462458     1.454815     1.447172     1.439529     1.431886     1.424243     1.416600     1.408957
      1.401314     1.393671     1.386027     1.378384     1.370741     1.363098     1.355455     1.347812     1.340169     1.332526
      1.324883     1.317240     1.309596     1.301953     1.294310     1.286667     1.279024     1.271381     1.263738     1.256095
      1.248452     1.240808     1.233165     1.225522     1.217879     1.210236     1.202593     1.194950     1.187307     1.179664
      1.172021     1.164377     1.156734     1.149091     1.141448     1.133805     1.126162     1.118519     1.110876     1.103233
      1.095590     1.087946     1.080303     1.072660     1.065017     1.057374     1.049731     1.042088     1.034445     1.026802
      1.019158     1.011515     1.003872     0.996229     0.988586     0.980943     0.973300     0.965657     0.958014     0.950371
      0.942727     0.935084     0.927441     0.919798     0.912155     0.904512     0.896869     0.889226     0.881583     0.873940
      0.866296     0.858653     0.851010     0.843367     0.835724     0.828081     0.820438     0.812795     0.805152     0.797508
      0.789865     0.782222     0.774579     0.766936     0.759293     0.751650     0.744007     0.736364     0.728721     0.721077
      0.713434     0.705791     0.698148     0.690505     0.682862     0.675219     0.667576     0.659933     0.652290     0.644646
      0.637003     0.629360     0.621717     0.614074     0.606431     0.598788     0.591145     0.583502     0.575858     0.568215
      0.560572     0.552929     0.545286     0.537643     0.530000     0.522357     0.514714     0.507071     0.499427     0.491784
      0.484141     0.476498     0.468855     0.461212     0.453569     0.445925     0.438282     0.430639     0.422996     0.415353
      0.407710     0.400067     0.392424     0.384780     0.377137     0.369494     0.361851     0.354208     0.346565     0.338922
      0.331278     0.323635     0.315992     0.308349     0.300706     0.293063     0.285420     0.277777     0.270133     0.262490
      0.254847     0.247204     0.239561     0.231918     0.224275     0.216631     0.208988     0.201345
 NY phased data points follow
  -1.67320E+00  1.04590E+00 -1.59439E+00  3.96788E+00  7.99683E+00  5.13423E+00  8.52214E+00  1.19159E+01  1.35298E+01  1.56314E+01
   1.67762E+01  1.68108E+01  1.69388E+01  1.36774E+01  9.11516E+00  8.46670E+00  7.48587E+00  3.04352E+00  2.01073E+00  2.58349E+00
  -1.15305E-01  1.67595E+00 -5.30063E-01  7.18855E-01  4.24280E+00  4.55665E+00  2.48658E+00  5.59389E+00  1.63579E+00  4.95980E+00
   1.58565E+00  4.88198E+00  5.19332E+00  2.07248E+00  2.57994E-01  5.79356E+00  1.80888E+00  1.42307E+00  2.23938E+00  7.98769E-01
   1.38898E+00  2.53963E+00  5.40296E-01  2.57187E+00  5.46938E+00  3.78501E+00  4.06083E+00  4.80696E+00  4.26696E+00  5.26083E+00
   3.08191E-01  3.26271E+00  3.10743E-01 -8.21162E-04 -6.40344E-01  4.97814E-03  3.02028E+00 -2.54298E+00  2.04195E-01 -1.04997E+00
   1.05767E+00  6.07050E-01 -6.44745E-01 -2.77428E+00 -3.57231E-01 -1.80510E+00 -1.80023E+00 -3.69673E+00 -1.57527E+00 -3.54641E+00
  -9.68778E-01 -3.01278E+00 -1.16370E+00 -3.07714E+00 -1.64537E+00 -1.13292E+00 -3.91243E-01 -2.34451E+00  7.10233E-01 -3.39891E+00
  -5.48876E-01 -1.77642E+00 -1.36322E+00  1.86540E-01 -6.54469E-01 -7.02036E-01  8.29176E-01 -5.23470E-01  4.28199E+00  2.60458E-01
   3.08676E-01  3.73463E-01  1.66576E+00  2.51115E+00  2.22513E+00  3.56000E+00  5.41011E+00  3.05616E+00  6.09634E+00  8.77650E+00
   1.16272E+01  1.71764E+01  1.85425E+01  1.97242E+01  2.22576E+01  2.05457E+01  1.32876E+01  1.14649E+01  9.76507E+00  9.88072E+00
   5.86529E+00  9.91761E+00  5.41868E+00  2.79161E+00 -4.18763E-02  6.56671E-01  1.66323E+00  2.00441E+00  1.45854E-01  1.97490E+00
   3.53246E+00  3.66048E+00  1.06610E+01  1.10451E+01  1.70761E+01  2.00488E+01  2.42302E+01  2.73712E+01  2.65875E+01  2.11946E+01
   2.06607E+01  1.68474E+01  1.37161E+01  1.10381E+01  9.56597E+00  6.61467E+00  3.96975E+00  1.64308E+00  1.20931E+00  6.07519E-01
  -1.39291E-01  1.52932E+00 -7.99908E-01 -3.90092E+00  2.88395E+00 -1.24959E+00  8.59763E-01 -1.71187E+00 -2.09343E+00  6.02169E-01
  -1.51197E+00  1.75774E+00  7.30049E-01  2.64732E-01 -3.00138E+00 -7.84495E-01 -2.03731E+00  9.07081E-01 -1.18856E+00 -5.58051E-01
  -3.41196E+00 -3.18409E+00 -3.03501E+00 -1.64211E+00 -7.43482E-01 -2.89357E+00 -6.66597E-01 -1.91762E+00 -3.75784E+00 -4.10806E+00
  -5.72835E+00 -2.84662E+00 -3.36223E+00 -8.01963E+00 -6.30276E+00 -5.47205E+00 -8.66892E+00 -6.00587E+00 -8.88540E+00 -6.23703E+00
  -3.22092E+00 -4.22909E+00 -5.08828E+00 -6.13372E+00 -5.14745E+00 -2.40778E+00 -5.28822E+00 -6.40761E+00 -3.67505E+00 -3.81586E+00
   6.97940E-01 -2.90183E-01 -3.54828E-01  2.72712E-01  4.31969E+00  1.89010E+00  1.30656E-01  2.35686E+00  3.00175E+00  2.47222E-01
   2.03342E+00  2.79849E-01 -9.12902E-01  2.45169E+00  1.72781E+00  1.60865E+00 -1.41173E-01  4.99470E-01 -2.65841E+00 -9.75421E-02
  -3.15536E-02  2.16717E-01  1.16909E+00  3.91995E+00  4.04368E+00  7.38570E+00  8.45579E+00  7.55014E+00  6.66808E+00  5.62906E+00
   4.56627E+00  2.87596E+00  3.20280E+00  1.71511E+00  2.27415E+00  1.83788E+00  6.90105E+00  6.08385E+00  6.13247E+00  7.62246E+00
   8.40585E+00  6.12034E+00  4.86083E+00  6.02059E+00  6.50816E+00  6.36863E+00  5.37862E+00  7.19195E+00  7.75652E+00  5.47724E+00
   6.12130E+00  1.93423E+00  5.72505E+00  6.09308E+00  8.30023E+00  9.50549E+00  8.03864E+00  9.14652E+00  9.57849E+00  6.39055E+00
   1.37453E+01  1.17734E+01  9.84976E+00  1.60776E+01  1.94645E+01  2.56407E+01  2.66900E+01  3.40165E+01  4.30454E+01  5.25032E+01
   5.08088E+01  5.09165E+01  5.15733E+01  4.32392E+01  4.00153E+01  3.24504E+01  2.62282E+01  2.15487E+01  1.72055E+01  1.45515E+01
   1.29261E+01  9.90477E+00  8.06449E+00  9.06713E+00  7.84928E+00  5.83366E+00  9.64741E+00  6.01989E+00  4.27788E+00  5.97576E+00
   7.56239E+00  3.62691E+00  9.03478E+00  6.66207E+00  3.87977E+00  2.84834E+00  5.63335E+00  3.61745E+00  4.43475E+00  5.96758E+00
   6.77869E+00  4.64873E+00  5.36426E+00  4.43039E+00  4.67829E+00  3.45066E+00  5.93672E+00  4.36041E+00  8.54274E+00  4.27940E+00
   7.00156E+00  5.91007E+00  5.37063E+00  5.03649E+00  5.82618E+00  6.13628E+00  6.99117E+00  7.15508E+00  9.37663E+00  1.15134E+01
   9.85337E+00  1.09605E+01  1.16504E+01  1.43428E+01  1.01153E+01  1.28171E+01  8.83381E+00  1.22613E+01  9.91726E+00  1.23620E+01
   1.27884E+01  1.42738E+01  1.09040E+01  1.25411E+01  1.63358E+01  1.44167E+01  1.69266E+01  1.53587E+01  1.55268E+01  1.55078E+01
   1.55430E+01  1.75263E+01  1.33246E+01  1.77847E+01  1.68852E+01  1.86416E+01  1.88020E+01  1.63839E+01  1.83189E+01  1.45415E+01
   1.72061E+01  1.55752E+01  1.67992E+01  1.48925E+01  1.40558E+01  1.25102E+01  1.38511E+01  1.21309E+01  8.93809E+00  1.24523E+01
   9.26425E+00  1.06828E+01  9.10255E+00  8.35314E+00  1.06790E+01  9.45567E+00  9.60692E+00  1.17527E+01  8.98129E+00  1.20910E+01
   1.00894E+01  9.27854E+00  9.48256E+00  8.45795E+00  1.37804E+01  9.60962E+00  1.02768E+01  1.11506E+01  9.80162E+00  9.50358E+00
   1.07333E+01  4.10334E+00  8.96125E+00  8.57390E+00  5.50980E+00  9.08190E+00  7.11150E+00  5.31577E+00  4.91129E+00  4.21405E+00
   4.74014E+00  6.13707E+00  5.00774E+00  2.17367E+00  1.58990E+00  3.10289E+00  3.50185E+00  5.47145E+00  4.94874E+00  3.98857E+00
   6.31510E+00  6.47977E+00  7.25472E+00  5.23186E+00  5.11128E+00  7.73531E+00  5.70355E+00  6.82593E+00  7.48303E+00  2.42964E+00
   6.35366E+00  6.35313E+00  7.09889E+00  4.37155E+00  5.22532E+00  6.03922E+00  7.42641E+00  8.90320E+00  7.98779E+00  7.81961E+00
   7.63506E+00  5.50859E+00  5.48621E+00  8.30210E+00  7.52469E+00  7.60534E+00  9.75886E+00  5.53720E+00  5.03834E+00  5.01199E+00
   4.48399E+00  4.95648E+00  4.77691E+00  6.21521E+00  2.53802E+00  5.45367E+00  3.78434E+00  3.05729E+00  2.00993E+00  3.26806E+00
   3.82469E+00  3.48760E+00  5.47489E+00  3.16955E+00  1.86480E+00  2.94558E+00  6.27865E+00  5.21548E+00  6.25224E+00  6.20839E-01
   5.21573E+00  3.57209E+00  2.52019E+00  1.72714E+00  2.52295E+00  4.36147E+00  4.01888E+00  4.53705E+00  3.11369E+00  3.36629E+00
   4.69203E+00  4.25711E+00  4.71368E+00  5.00084E+00  3.29916E+00  2.06791E+00  2.94153E+00  2.71455E+00  2.46293E+00  3.58528E+00
   2.17845E+00  9.89774E-01  2.21205E+00  4.03201E+00  3.09409E+00  1.46327E+00  2.54759E+00 -1.04465E+00  2.36593E+00  4.10064E+00
   3.27171E+00  1.84357E+00  2.39270E+00  3.26483E+00  2.15940E+00  3.88442E+00  4.00332E+00  2.99275E+00  1.75832E-01  3.28051E+00
   5.48759E+00  8.48011E-01  3.79297E+00  1.66779E+00 -6.13764E-01  4.85876E+00  2.61610E+00  3.57695E+00  1.14250E+00  3.79054E+00
   5.02682E+00  1.01909E+00  1.44338E+00  4.71596E-01  1.90374E+00 -2.03795E-01  3.43977E+00  2.04664E+00
 NY points of the fit to the data follow
  -2.67389E-01  3.15322E-01  1.30154E+00  2.65555E+00  4.33439E+00  6.36531E+00  8.86138E+00  1.16342E+01  1.41302E+01  1.57978E+01
   1.63403E+01  1.57211E+01  1.41866E+01  1.21892E+01  1.01464E+01  8.31504E+00  6.74504E+00  5.33768E+00  3.93103E+00  2.45070E+00
   1.25927E+00  7.16039E-01  5.47778E-01  5.85045E-01  7.23288E-01  1.01844E+00  1.60207E+00  2.49881E+00  3.55853E+00  4.54198E+00
   5.22001E+00  5.44785E+00  5.16261E+00  4.44258E+00  3.51673E+00  2.61064E+00  1.81276E+00  1.21133E+00  8.91677E-01  7.38883E-01
   7.40293E-01  9.82689E-01  1.39228E+00  1.90673E+00  2.50869E+00  3.11256E+00  3.53499E+00  3.60202E+00  3.31379E+00  2.76861E+00
   2.06025E+00  1.37308E+00  8.22544E-01  4.17436E-01  1.52297E-01 -2.20883E-02 -1.91795E-01 -3.30739E-01 -3.38670E-01 -2.70770E-01
  -2.71004E-01 -3.92295E-01 -5.85117E-01 -7.86566E-01 -9.46268E-01 -1.03603E+00 -1.04414E+00 -9.80855E-01 -8.89829E-01 -8.06593E-01
  -7.31895E-01 -6.74220E-01 -6.36851E-01 -6.24486E-01 -6.45064E-01 -6.87388E-01 -7.36647E-01 -7.60424E-01 -7.01731E-01 -5.90115E-01
  -4.62312E-01 -3.28467E-01 -1.45713E-01  1.34440E-01  4.61946E-01  7.22728E-01  8.28469E-01  7.73955E-01  5.87593E-01  3.23723E-01
   6.99853E-02 -1.06477E-01 -1.76546E-01 -9.74086E-02  3.83375E-01  1.44735E+00  2.86126E+00  4.54990E+00  6.66176E+00  9.37039E+00
   1.27718E+01  1.63869E+01  1.92978E+01  2.08112E+01  2.07037E+01  1.90917E+01  1.64515E+01  1.34910E+01  1.07296E+01  8.38977E+00
   6.45739E+00  4.73290E+00  2.92921E+00  1.06614E+00 -1.53810E-01 -4.09158E-01 -3.23820E-01 -3.71011E-02  7.82378E-01  2.34731E+00
   4.37728E+00  6.69932E+00  9.36874E+00  1.26766E+01  1.67507E+01  2.09734E+01  2.42744E+01  2.59158E+01  2.56979E+01  2.37922E+01
   2.07622E+01  1.73442E+01  1.40753E+01  1.11905E+01  8.68985E+00  6.40036E+00  4.07889E+00  1.84674E+00  5.42805E-01  3.44420E-01
   4.26698E-01  4.96080E-01  4.86845E-01  4.17170E-01  3.50671E-01  2.98513E-01  2.29838E-01  1.41004E-01  2.38729E-02 -1.25066E-01
  -2.78455E-01 -4.24529E-01 -5.49850E-01 -6.64355E-01 -7.70968E-01 -8.64149E-01 -9.38223E-01 -1.02366E+00 -1.16495E+00 -1.34382E+00
  -1.49817E+00 -1.57436E+00 -1.56134E+00 -1.50433E+00 -1.47688E+00 -1.53610E+00 -1.70132E+00 -1.96273E+00 -2.28443E+00 -2.58437E+00
  -2.81101E+00 -2.98057E+00 -3.18831E+00 -3.47940E+00 -3.76898E+00 -3.95565E+00 -3.97874E+00 -3.89834E+00 -3.82713E+00 -3.78560E+00
  -3.73121E+00 -3.63410E+00 -3.48033E+00 -3.26647E+00 -2.99718E+00 -2.63902E+00 -2.17620E+00 -1.66299E+00 -1.17047E+00 -7.18275E-01
  -3.67515E-01 -1.68125E-01 -1.30799E-01 -1.88138E-01 -1.88031E-01  2.15982E-02  5.04929E-01  1.23397E+00  2.05807E+00  2.79137E+00
   3.33525E+00  3.64935E+00  3.70977E+00  3.42631E+00  2.69444E+00  1.54117E+00  1.60304E-01 -1.04469E+00 -1.71267E+00 -1.80211E+00
  -1.35795E+00 -4.08580E-01  9.33389E-01  2.38734E+00  3.61436E+00  4.46893E+00  4.86982E+00  4.79740E+00  4.27711E+00  3.32807E+00
   2.11888E+00  1.10912E+00  6.84023E-01  8.54613E-01  1.42955E+00  2.18607E+00  2.92519E+00  3.60604E+00  4.23441E+00  4.70415E+00
   5.06830E+00  5.42310E+00  5.81737E+00  6.22006E+00  6.57506E+00  6.92537E+00  7.34631E+00  7.72819E+00  7.86167E+00  7.64581E+00
   7.16384E+00  6.60896E+00  6.15090E+00  5.95728E+00  6.14255E+00  6.61987E+00  7.18312E+00  7.77654E+00  8.39161E+00  8.98831E+00
   9.68171E+00  1.10232E+01  1.35933E+01  1.69507E+01  2.06591E+01  2.46829E+01  2.95072E+01  3.56551E+01  4.25310E+01  4.84659E+01
   5.19894E+01  5.24740E+01  4.98869E+01  4.48899E+01  3.88135E+01  3.28417E+01  2.75827E+01  2.31423E+01  1.92405E+01  1.52704E+01
   1.10312E+01  7.66671E+00  6.31687E+00  5.81848E+00  5.52409E+00  5.31891E+00  5.15566E+00  4.97776E+00  4.79354E+00  4.61854E+00
   4.46010E+00  4.32475E+00  4.21419E+00  4.11836E+00  4.03522E+00  3.97633E+00  3.94780E+00  3.94668E+00  3.97095E+00  4.02138E+00
   4.10019E+00  4.20659E+00  4.33515E+00  4.48671E+00  4.66328E+00  4.86451E+00  5.08939E+00  5.33643E+00  5.60334E+00  5.88683E+00
   6.18287E+00  6.48789E+00  6.79786E+00  7.10815E+00  7.41458E+00  7.71370E+00  8.00286E+00  8.28067E+00  8.54712E+00  8.80362E+00
   9.05302E+00  9.29951E+00  9.54846E+00  9.80625E+00  1.00804E+01  1.03795E+01  1.07132E+01  1.10945E+01  1.15404E+01  1.20351E+01
   1.25499E+01  1.30769E+01  1.36156E+01  1.41590E+01  1.46646E+01  1.50595E+01  1.53167E+01  1.54666E+01  1.55379E+01  1.55613E+01
   1.55800E+01  1.56462E+01  1.57990E+01  1.60275E+01  1.62688E+01  1.64499E+01  1.65286E+01  1.65181E+01  1.64856E+01  1.64020E+01
   1.62019E+01  1.59148E+01  1.55871E+01  1.52427E+01  1.48178E+01  1.41758E+01  1.33290E+01  1.23863E+01  1.14045E+01  1.04613E+01
   9.67480E+00  9.19102E+00  9.10170E+00  9.36330E+00  9.81697E+00  1.02846E+01  1.06359E+01  1.08376E+01  1.09647E+01  1.10092E+01
   1.09109E+01  1.07254E+01  1.04972E+01  1.02243E+01  9.85664E+00  9.37152E+00  8.89616E+00  8.50241E+00  8.14898E+00  7.81723E+00
   7.50169E+00  7.20123E+00  6.91643E+00  6.64857E+00  6.39914E+00  6.16958E+00  5.96119E+00  5.77503E+00  5.61195E+00  5.47254E+00
   5.35721E+00  5.26617E+00  5.19947E+00  5.15706E+00  5.13874E+00  5.14423E+00  5.17313E+00  5.22495E+00  5.29902E+00  5.39452E+00
   5.51039E+00  5.64530E+00  5.79762E+00  5.96536E+00  6.14612E+00  6.33710E+00  6.53509E+00  6.73646E+00  6.93727E+00  7.13332E+00
   7.32022E+00  7.49354E+00  7.64897E+00  7.78242E+00  7.89024E+00  7.96931E+00  8.01720E+00  8.03224E+00  8.01361E+00  7.96140E+00
   7.87655E+00  7.76081E+00  7.61669E+00  7.44730E+00  7.25623E+00  7.04740E+00  6.82488E+00  6.59279E+00  6.35508E+00  6.11547E+00
   5.87733E+00  5.64362E+00  5.41684E+00  5.19901E+00  4.99167E+00  4.79592E+00  4.61246E+00  4.44162E+00  4.28342E+00  4.13762E+00
   4.00381E+00  3.88142E+00  3.76977E+00  3.66814E+00  3.57578E+00  3.49192E+00  3.41581E+00  3.34676E+00  3.28409E+00  3.22719E+00
   3.17549E+00  3.12847E+00  3.08566E+00  3.04663E+00  3.01102E+00  2.97849E+00  2.94872E+00  2.92145E+00  2.89644E+00  2.87349E+00
   2.85239E+00  2.83299E+00  2.81513E+00  2.79868E+00  2.78351E+00  2.76952E+00  2.75663E+00  2.74473E+00  2.73375E+00  2.72361E+00
   2.71426E+00  2.70564E+00  2.69770E+00  2.69038E+00  2.68364E+00  2.67745E+00  2.67176E+00  2.66655E+00  2.66178E+00  2.65742E+00
   2.65345E+00  2.64984E+00  2.64658E+00  2.64364E+00  2.64102E+00  2.63867E+00  2.63660E+00  2.63478E+00  2.63322E+00  2.63188E+00
   2.63076E+00  2.62985E+00  2.62914E+00  2.62861E+00  2.62828E+00  2.62811E+00  2.62811E+00  2.62826E+00  2.62857E+00  2.62903E+00
   2.62964E+00  2.63038E+00  2.63126E+00  2.63226E+00  2.63341E+00  2.63468E+00  2.63609E+00  2.63763E+00
 NY background values follow
    -4.078E+00   -4.062E+00   -4.046E+00   -4.031E+00   -4.015E+00   -3.999E+00   -3.983E+00   -3.968E+00   -3.952E+00   -3.936E+00
    -3.920E+00   -3.905E+00   -3.889E+00   -3.873E+00   -3.858E+00   -3.842E+00   -3.826E+00   -3.810E+00   -3.795E+00   -3.779E+00
    -3.763E+00   -3.747E+00   -3.732E+00   -3.716E+00   -3.700E+00   -3.685E+00   -3.669E+00   -3.653E+00   -3.637E+00   -3.621E+00
    -3.606E+00   -3.590E+00   -3.574E+00   -3.558E+00   -3.543E+00   -3.527E+00   -3.511E+00   -3.495E+00   -3.479E+00   -3.464E+00
    -3.448E+00   -3.432E+00   -3.416E+00   -3.400E+00   -3.384E+00   -3.368E+00   -3.353E+00   -3.337E+00   -3.321E+00   -3.305E+00
    -3.289E+00   -3.273E+00   -3.257E+00   -3.241E+00   -3.225E+00   -3.209E+00   -3.193E+00   -3.177E+00   -3.161E+00   -3.145E+00
    -3.129E+00   -3.113E+00   -3.097E+00   -3.081E+00   -3.065E+00   -3.049E+00   -3.033E+00   -3.017E+00   -3.000E+00   -2.984E+00
    -2.968E+00   -2.952E+00   -2.936E+00   -2.919E+00   -2.903E+00   -2.887E+00   -2.871E+00   -2.854E+00   -2.838E+00   -2.822E+00
    -2.805E+00   -2.789E+00   -2.773E+00   -2.756E+00   -2.740E+00   -2.723E+00   -2.707E+00   -2.690E+00   -2.674E+00   -2.657E+00
    -2.641E+00   -2.624E+00   -2.608E+00   -2.591E+00   -2.574E+00   -2.558E+00   -2.541E+00   -2.524E+00   -2.507E+00   -2.491E+00
    -2.474E+00   -2.457E+00   -2.440E+00   -2.423E+00   -2.407E+00   -2.390E+00   -2.373E+00   -2.356E+00   -2.339E+00   -2.322E+00
    -2.305E+00   -2.288E+00   -2.271E+00   -2.254E+00   -2.236E+00   -2.219E+00   -2.202E+00   -2.185E+00   -2.168E+00   -2.150E+00
    -2.133E+00   -2.116E+00   -2.098E+00   -2.081E+00   -2.064E+00   -2.046E+00   -2.029E+00   -2.011E+00   -1.994E+00   -1.976E+00
    -1.958E+00   -1.941E+00   -1.923E+00   -1.905E+00   -1.888E+00   -1.870E+00   -1.852E+00   -1.834E+00   -1.816E+00   -1.798E+00
    -1.781E+00   -1.763E+00   -1.745E+00   -1.727E+00   -1.709E+00   -1.690E+00   -1.672E+00   -1.654E+00   -1.636E+00   -1.618E+00
    -1.599E+00   -1.581E+00   -1.563E+00   -1.545E+00   -1.526E+00   -1.508E+00   -1.489E+00   -1.471E+00   -1.452E+00   -1.434E+00
    -1.415E+00   -1.396E+00   -1.378E+00   -1.359E+00   -1.340E+00   -1.322E+00   -1.303E+00   -1.284E+00   -1.265E+00   -1.246E+00
    -1.227E+00   -1.208E+00   -1.189E+00   -1.170E+00   -1.151E+00   -1.132E+00   -1.113E+00   -1.094E+00   -1.075E+00   -1.056E+00
    -1.036E+00   -1.017E+00   -9.977E-01   -9.783E-01   -9.589E-01   -9.395E-01   -9.201E-01   -9.006E-01   -8.812E-01   -8.617E-01
    -8.421E-01   -8.226E-01   -8.031E-01   -7.835E-01   -7.640E-01   -7.444E-01   -7.249E-01   -7.053E-01   -6.857E-01   -6.662E-01
    -6.466E-01   -6.271E-01   -6.075E-01   -5.880E-01   -5.685E-01   -5.490E-01   -5.295E-01   -5.101E-01   -4.907E-01   -4.712E-01
    -4.519E-01   -4.325E-01   -4.132E-01   -3.939E-01   -3.747E-01   -3.554E-01   -3.363E-01   -3.171E-01   -2.980E-01   -2.790E-01
    -2.600E-01   -2.411E-01   -2.222E-01   -2.033E-01   -1.846E-01   -1.659E-01   -1.472E-01   -1.286E-01   -1.101E-01   -9.160E-02
    -7.320E-02   -5.487E-02   -3.660E-02   -1.841E-02   -2.787E-04    1.778E-02    3.577E-02    5.368E-02    7.153E-02    8.930E-02
     1.070E-01    1.246E-01    1.422E-01    1.596E-01    1.770E-01    1.943E-01    2.116E-01    2.287E-01    2.458E-01    2.628E-01
     2.797E-01    2.965E-01    3.133E-01    3.300E-01    3.465E-01    3.630E-01    3.794E-01    3.957E-01    4.120E-01    4.281E-01
     4.441E-01    4.601E-01    4.760E-01    4.917E-01    5.074E-01    5.230E-01    5.385E-01    5.539E-01    5.691E-01    5.843E-01
     5.994E-01    6.144E-01    6.293E-01    6.441E-01    6.588E-01    6.734E-01    6.879E-01    7.023E-01    7.166E-01    7.308E-01
     7.449E-01    7.589E-01    7.728E-01    7.866E-01    8.003E-01    8.139E-01    8.274E-01    8.408E-01    8.541E-01    8.673E-01
     8.804E-01    8.934E-01    9.063E-01    9.192E-01    9.319E-01    9.445E-01    9.570E-01    9.694E-01    9.818E-01    9.940E-01
     1.006E+00    1.018E+00    1.030E+00    1.042E+00    1.054E+00    1.065E+00    1.077E+00    1.088E+00    1.100E+00    1.111E+00
     1.122E+00    1.133E+00    1.144E+00    1.155E+00    1.166E+00    1.176E+00    1.187E+00    1.197E+00    1.208E+00    1.218E+00
     1.228E+00    1.239E+00    1.249E+00    1.258E+00    1.268E+00    1.278E+00    1.288E+00    1.297E+00    1.307E+00    1.316E+00
     1.326E+00    1.335E+00    1.344E+00    1.353E+00    1.362E+00    1.371E+00    1.380E+00    1.389E+00    1.397E+00    1.406E+00
     1.414E+00    1.423E+00    1.431E+00    1.440E+00    1.448E+00    1.456E+00    1.464E+00    1.472E+00    1.480E+00    1.488E+00
     1.496E+00    1.504E+00    1.511E+00    1.519E+00    1.526E+00    1.534E+00    1.541E+00    1.549E+00    1.556E+00    1.563E+00
     1.571E+00    1.578E+00    1.585E+00    1.592E+00    1.599E+00    1.606E+00    1.613E+00    1.620E+00    1.626E+00    1.633E+00
     1.640E+00    1.647E+00    1.653E+00    1.660E+00    1.666E+00    1.673E+00    1.679E+00    1.686E+00    1.692E+00    1.698E+00
     1.705E+00    1.711E+00    1.717E+00    1.723E+00    1.730E+00    1.736E+00    1.742E+00    1.748E+00    1.754E+00    1.760E+00
     1.766E+00    1.772E+00    1.778E+00    1.784E+00    1.790E+00    1.796E+00    1.801E+00    1.807E+00    1.813E+00    1.819E+00
     1.825E+00    1.831E+00    1.836E+00    1.842E+00    1.848E+00    1.854E+00    1.859E+00    1.865E+00    1.871E+00    1.876E+00
     1.882E+00    1.888E+00    1.893E+00    1.899E+00    1.905E+00    1.911E+00    1.916E+00    1.922E+00    1.927E+00    1.933E+00
     1.939E+00    1.944E+00    1.950E+00    1.956E+00    1.961E+00    1.967E+00    1.972E+00    1.978E+00    1.983E+00    1.989E+00
     1.994E+00    2.000E+00    2.005E+00    2.011E+00    2.016E+00    2.022E+00    2.027E+00    2.033E+00    2.038E+00    2.044E+00
     2.049E+00    2.055E+00    2.060E+00    2.065E+00    2.071E+00    2.076E+00    2.082E+00    2.087E+00    2.092E+00    2.098E+00
     2.103E+00    2.108E+00    2.113E+00    2.119E+00    2.124E+00    2.129E+00    2.134E+00    2.140E+00    2.145E+00    2.150E+00
     2.155E+00    2.161E+00    2.166E+00    2.171E+00    2.176E+00    2.181E+00    2.186E+00    2.191E+00    2.197E+00    2.202E+00
     2.207E+00    2.212E+00    2.217E+00    2.222E+00    2.227E+00    2.232E+00    2.237E+00    2.242E+00    2.247E+00    2.252E+00
     2.258E+00    2.263E+00    2.268E+00    2.273E+00    2.278E+00    2.283E+00    2.288E+00    2.293E+00    2.298E+00    2.303E+00
     2.308E+00    2.313E+00    2.318E+00    2.323E+00    2.328E+00    2.333E+00    2.338E+00    2.343E+00
 Ala      Conc. = 1.31E+02
