 LCModel (Version 6.3-1L) Copyright: S.W. Provencher.          Ref.: Magn. Reson. Med. 30:672-679 (1993).                
 Slice#3 Row#1 Col#2  PD_05_press_1_raw_act
 36 lines in following concentration table = NCONC+1
    Conc.  %SD /Cr+PCr  Metabolite                                         
  190.757  31% 108.589 Ala                                                 
    2.942 127%   1.675 Asp                                                 
    0.000 999%   0.000 Cr                                                  
    1.757 967%   1.000 PCr                                                 
    1.762 127%   1.003 GABA                                                
    1.765 127%   1.005 Glc                                                 
  736.760  19% 419.404 Gln                                                 
  666.983  23% 379.683 Glu                                                 
   17.341  38%   9.872 GPC                                                 
    0.000 999%   0.000 PCh                                                 
    0.000 999%   0.000 GSH                                                 
  239.016  35% 136.061 Ins                                                 
   53.099 125%  30.227 Lac                                                 
    0.000 999%   0.000 NAA                                                 
    4.484 489%   2.553 NAAG                                                
    0.616 122%   0.350 Scyllo                                              
    3.031 123%   1.725 Tau                                                 
    0.000 999%   0.000 -CrCH2                                              
   17.341  38%   9.872 GPC+PCh                                             
    4.484 489%   2.553 NAA+NAAG                                            
    1.757 967%   1.000 Cr+PCr                                              
 1.40E+03  18% 799.087 Glu+Gln                                             
    0.000 999%   0.000 Lip13a                                              
    0.000 999%   0.000 Lip13b                                              
    0.000 999%   0.000 Lip09                                               
  302.101  15% 171.973 MM09                                                
    0.000 999%   0.000 Lip20                                               
  468.185  16% 266.516 MM20                                                
   84.134  22%  47.894 MM12                                                
  262.149  21% 149.230 MM14                                                
  271.467  12% 154.534+MM17                                                
    0.000 999%   0.000 Lip13a+Lip13b                                       
  346.283  18% 197.123 MM14+Lip13a+Lip13b+MM12                             
  302.101  15% 171.973 MM09+Lip09                                          
  468.185  16% 266.516 MM20+Lip20                                          
   6 lines in following misc. output table
  FWHM = 0.084 ppm    S/N =   1                                            
  Data shift = 0.023 ppm                                                   
  Ph:-169 deg      15.6 deg/ppm                                            
  alphaB,S = 8.5E+01,   1.9E+02                                            
   14 spline knots.   Ns = 8(1)                                            
   2 inflections.     1 extrema                                            
  498 points on ppm-axis = NY
      4.000000     3.992357     3.984714     3.977070     3.969427     3.961784     3.954141     3.946497     3.938854     3.931211
      3.923568     3.915925     3.908281     3.900638     3.892995     3.885352     3.877708     3.870065     3.862422     3.854779
      3.847136     3.839492     3.831849     3.824206     3.816563     3.808919     3.801276     3.793633     3.785990     3.778347
      3.770703     3.763060     3.755417     3.747774     3.740130     3.732487     3.724844     3.717201     3.709558     3.701914
      3.694271     3.686628     3.678985     3.671341     3.663698     3.656055     3.648412     3.640769     3.633125     3.625482
      3.617839     3.610196     3.602552     3.594909     3.587266     3.579623     3.571980     3.564336     3.556693     3.549050
      3.541407     3.533763     3.526120     3.518477     3.510834     3.503191     3.495547     3.487904     3.480261     3.472618
      3.464974     3.457331     3.449688     3.442045     3.434402     3.426758     3.419115     3.411472     3.403829     3.396185
      3.388542     3.380899     3.373256     3.365613     3.357969     3.350326     3.342683     3.335040     3.327396     3.319753
      3.312110     3.304467     3.296824     3.289180     3.281537     3.273894     3.266251     3.258607     3.250964     3.243321
      3.235678     3.228034     3.220391     3.212748     3.205105     3.197462     3.189818     3.182175     3.174532     3.166889
      3.159245     3.151602     3.143959     3.136316     3.128673     3.121029     3.113386     3.105743     3.098100     3.090456
      3.082813     3.075170     3.067527     3.059884     3.052240     3.044597     3.036954     3.029311     3.021667     3.014024
      3.006381     2.998738     2.991095     2.983451     2.975808     2.968165     2.960522     2.952878     2.945235     2.937592
      2.929949     2.922306     2.914662     2.907019     2.899376     2.891733     2.884089     2.876446     2.868803     2.861160
      2.853517     2.845873     2.838230     2.830587     2.822944     2.815300     2.807657     2.800014     2.792371     2.784728
      2.777084     2.769441     2.761798     2.754155     2.746511     2.738868     2.731225     2.723582     2.715939     2.708295
      2.700652     2.693009     2.685366     2.677722     2.670079     2.662436     2.654793     2.647150     2.639506     2.631863
      2.624220     2.616577     2.608933     2.601290     2.593647     2.586004     2.578361     2.570717     2.563074     2.555431
      2.547788     2.540144     2.532501     2.524858     2.517215     2.509572     2.501928     2.494285     2.486642     2.478999
      2.471355     2.463712     2.456069     2.448426     2.440783     2.433139     2.425496     2.417853     2.410210     2.402566
      2.394923     2.387280     2.379637     2.371994     2.364350     2.356707     2.349064     2.341421     2.333777     2.326134
      2.318491     2.310848     2.303205     2.295561     2.287918     2.280275     2.272632     2.264988     2.257345     2.249702
      2.242059     2.234416     2.226772     2.219129     2.211486     2.203843     2.196199     2.188556     2.180913     2.173270
      2.165627     2.157983     2.150340     2.142697     2.135054     2.127410     2.119767     2.112124     2.104481     2.096838
      2.089194     2.081551     2.073908     2.066265     2.058621     2.050978     2.043335     2.035692     2.028049     2.020405
      2.012762     2.005119     1.997476     1.989833     1.982190     1.974546     1.966903     1.959260     1.951617     1.943974
      1.936331     1.928688     1.921045     1.913402     1.905759     1.898115     1.890472     1.882829     1.875186     1.867543
      1.859900     1.852257     1.844614     1.836971     1.829327     1.821684     1.814041     1.806398     1.798755     1.791112
      1.783469     1.775826     1.768183     1.760540     1.752896     1.745253     1.737610     1.729967     1.722324     1.714681
      1.707038     1.699395     1.691752     1.684108     1.676465     1.668822     1.661179     1.653536     1.645893     1.638250
      1.630607     1.622964     1.615321     1.607677     1.600034     1.592391     1.584748     1.577105     1.569462     1.561819
      1.554176     1.546533     1.538890     1.531246     1.523603     1.515960     1.508317     1.500674     1.493031     1.485388
      1.477745     1.470102     1.462458     1.454815     1.447172     1.439529     1.431886     1.424243     1.416600     1.408957
      1.401314     1.393671     1.386027     1.378384     1.370741     1.363098     1.355455     1.347812     1.340169     1.332526
      1.324883     1.317240     1.309596     1.301953     1.294310     1.286667     1.279024     1.271381     1.263738     1.256095
      1.248452     1.240808     1.233165     1.225522     1.217879     1.210236     1.202593     1.194950     1.187307     1.179664
      1.172021     1.164377     1.156734     1.149091     1.141448     1.133805     1.126162     1.118519     1.110876     1.103233
      1.095590     1.087946     1.080303     1.072660     1.065017     1.057374     1.049731     1.042088     1.034445     1.026802
      1.019158     1.011515     1.003872     0.996229     0.988586     0.980943     0.973300     0.965657     0.958014     0.950371
      0.942727     0.935084     0.927441     0.919798     0.912155     0.904512     0.896869     0.889226     0.881583     0.873940
      0.866296     0.858653     0.851010     0.843367     0.835724     0.828081     0.820438     0.812795     0.805152     0.797508
      0.789865     0.782222     0.774579     0.766936     0.759293     0.751650     0.744007     0.736364     0.728721     0.721077
      0.713434     0.705791     0.698148     0.690505     0.682862     0.675219     0.667576     0.659933     0.652290     0.644646
      0.637003     0.629360     0.621717     0.614074     0.606431     0.598788     0.591145     0.583502     0.575858     0.568215
      0.560572     0.552929     0.545286     0.537643     0.530000     0.522357     0.514714     0.507071     0.499427     0.491784
      0.484141     0.476498     0.468855     0.461212     0.453569     0.445925     0.438282     0.430639     0.422996     0.415353
      0.407710     0.400067     0.392424     0.384780     0.377137     0.369494     0.361851     0.354208     0.346565     0.338922
      0.331278     0.323635     0.315992     0.308349     0.300706     0.293063     0.285420     0.277777     0.270133     0.262490
      0.254847     0.247204     0.239561     0.231918     0.224275     0.216631     0.208988     0.201345
 NY phased data points follow
   7.16270E-01  3.30169E-01 -6.20009E-01  1.23430E+00 -1.07247E-01  6.54347E-01 -3.07562E-01 -1.25897E+00  1.92178E+00  1.01983E+00
   1.77787E+00  1.70316E+00  1.97273E+00  9.81208E-01  2.31739E-01 -1.61707E+00  1.33221E+00  1.79052E+00  9.78845E-01  7.99538E-01
  -2.82952E-01 -6.43935E-01 -2.92476E-01  1.82832E+00  3.22879E+00  8.31335E-01  2.07015E-01 -1.62012E+00  6.70700E-01 -1.39442E-01
   2.07764E+00  8.45399E-01  7.92589E-01 -1.02123E+00  7.57095E-01  1.78315E+00 -6.50710E-01  1.26014E+00 -2.12939E-01  1.44218E+00
   1.48810E-01  8.93748E-01  1.95301E+00 -1.64343E+00  1.51850E+00  9.66810E-01  1.78664E+00  1.11849E+00  6.11253E-01  2.43805E-01
  -6.63910E-01 -2.49035E-01 -9.89016E-01 -8.60418E-01  6.49373E-01  1.12703E+00  3.19721E-01  1.76703E+00  8.24331E-01  8.54516E-01
   1.06429E+00  3.70055E-01  8.93150E-02  8.18678E-01 -1.06924E+00  3.19154E-01  1.58865E+00  1.30237E+00 -1.43018E+00 -8.86269E-01
  -3.83015E-01  1.50419E+00 -5.90169E-01  6.00028E-01  4.28194E-01  9.31642E-01  3.64956E-01  4.30835E-01  8.76249E-02  5.17255E-01
  -1.98303E+00 -1.15944E+00  4.53629E-01 -1.55225E-01 -2.87644E-01 -2.09021E+00  7.97113E-01 -4.23239E-01  1.10214E-01  2.94273E-01
  -1.65869E-01  8.28969E-01 -9.05832E-01 -1.20215E+00 -1.32605E+00 -3.53915E-01  4.60752E-01  8.19931E-01 -7.12303E-03  4.19677E-01
   9.98654E-01  1.89394E-02 -9.78066E-01  4.26881E-01 -2.44799E-01  1.44604E+00 -2.34017E-01 -6.54874E-02 -5.42969E-01  4.24072E-02
   2.78533E+00  4.38638E-01  1.43573E-01 -4.68388E-01 -4.53101E-01 -9.61901E-01  3.07241E-01  1.32709E+00  1.62022E-01  2.03435E-01
  -1.04644E-01  8.07677E-01  1.27426E+00 -2.42708E+00  3.49057E-01 -3.46478E-01 -1.45480E+00 -8.62046E-01 -1.41935E+00 -1.52763E+00
  -3.80861E-01 -8.62566E-01 -1.39555E-01 -2.60435E+00  4.45840E-02  8.89626E-01 -1.51574E+00 -1.47834E+00 -7.70131E-01 -9.16038E-01
  -1.88606E+00  6.28301E-01 -6.75654E-01  9.31235E-01 -1.56820E+00 -4.62996E-01 -8.78376E-01  9.61952E-01 -3.82458E-01  1.83893E-01
  -1.81260E+00 -1.94018E-01 -6.76003E-01 -6.75373E-01 -2.19985E+00 -1.34304E+00 -3.77244E-01 -1.70080E+00 -1.69379E-01 -6.75780E-01
   8.16373E-01 -5.34278E-01 -3.31814E-01 -8.45544E-01 -1.85062E+00  1.92420E-01 -4.71145E-01 -1.02646E+00 -2.64906E-02 -1.63685E+00
  -1.50866E+00 -8.54865E-01 -1.29678E+00 -5.69019E-01 -1.66061E+00 -1.00813E+00  6.04661E-01 -1.49323E+00 -2.58154E-01 -1.19004E+00
   6.32617E-01 -6.69798E-01 -5.03688E-02  8.87290E-01 -1.42563E+00 -6.01658E-01 -1.70821E+00 -1.41125E+00 -2.19026E+00 -9.11484E-01
  -2.01231E+00 -1.83057E+00 -1.41314E+00 -1.08567E+00 -1.80362E+00 -8.40273E-01 -7.90082E-01 -1.64132E+00 -1.39766E+00 -2.67212E+00
  -4.28713E-01 -8.79253E-01 -1.05702E+00 -5.98358E-01 -5.91731E-01 -6.66879E-01 -2.34996E+00 -2.33585E+00 -5.90444E-01 -4.87137E-01
  -1.75166E+00 -1.21853E+00 -1.38510E+00  4.58076E-01 -3.05020E-01 -1.47004E+00 -7.37362E-02  1.98821E-01 -6.93560E-02 -1.32450E+00
   4.60951E-01  1.51839E-01  5.82429E-01 -6.28587E-01 -1.12245E+00  7.51717E-01  1.95997E+00  9.62011E-01  6.29195E-01 -9.34078E-01
   1.93919E+00  9.48288E-01  1.91856E+00 -5.68963E-01  1.81383E+00  8.15213E-01  1.74612E+00  1.21799E+00  8.61905E-01  1.73045E+00
   8.98034E-01  5.34086E-01  5.94910E-01  2.61031E+00  5.34011E-01  8.49380E-01  1.79347E+00  1.73776E+00  4.04616E-01  2.14167E+00
   2.76459E-01  1.51386E+00  1.59000E+00  3.75476E+00  2.98463E+00  1.95778E+00  2.10149E+00  7.28979E-01  1.57007E+00  1.70724E+00
   1.22208E+00  3.62444E-01  3.29356E+00  6.09570E-01  2.19637E-01  2.75573E-01  1.30147E+00  2.84746E+00  2.01007E+00  3.45765E+00
   1.61982E+00  2.71601E+00  2.19694E+00  3.49503E+00  1.99809E+00  1.44229E+00  1.87426E+00  3.02442E+00  2.96686E+00  2.55311E+00
   7.81721E-01  2.61835E+00  1.42827E+00  1.18861E+00  2.23137E+00  2.04590E+00  2.57663E+00  2.95625E+00  1.72947E+00  2.89080E+00
   1.45916E+00  1.72897E+00  3.38225E+00  2.04793E+00  2.20670E+00  3.28603E+00  1.56764E+00  5.44379E+00  3.75004E+00  4.80447E+00
   2.49362E+00  3.85096E+00  5.04094E+00  3.33912E+00  3.83989E+00  2.69697E+00  4.02339E+00  3.44020E+00  2.15569E+00  3.01650E+00
   2.75887E+00  2.58970E+00  1.99859E+00  2.10970E+00  1.13701E+00  2.60587E+00  3.22683E+00  4.31636E+00  2.52453E+00  8.36697E-01
   1.18738E+00  3.71649E+00  1.75144E+00  2.15445E+00  3.49154E+00  1.63505E+00  2.48277E+00  2.80886E+00  1.46678E+00 -3.02301E-01
   4.74226E-01  1.47561E-01  1.18294E-01  5.34811E-01  2.26107E+00  2.95209E+00  1.82928E+00  2.69035E+00  2.77860E+00  2.20182E+00
   3.53818E+00  1.94954E+00  2.33219E+00  1.80157E+00  2.55371E+00  9.15370E-01  8.49081E-01 -4.32489E-01  1.95123E+00  1.82818E-02
  -1.80719E-01  2.24670E-01 -1.46518E+00 -1.20313E-01 -5.62761E-02  6.27833E-01  2.71029E+00 -3.23767E-01  3.55645E-01  1.59414E+00
   1.91787E+00  1.46650E+00  9.25684E-01 -8.41483E-01  9.24777E-01  1.63666E-01  6.17930E-01  4.81901E-01 -1.41764E+00 -7.57144E-01
  -2.56046E-01  8.66173E-01 -2.03489E-02  1.44276E+00  7.23232E-01  2.03617E-01  3.43955E+00  1.75402E+00  3.61505E+00  9.92420E-01
   1.40522E+00  3.76023E-01  1.60686E+00  1.87282E+00  1.81158E+00  3.64444E-01  1.89242E+00  9.92045E-01  2.54024E+00  4.03979E-02
   1.73591E+00  6.10316E-01  1.28581E+00  7.00671E-01  1.24539E+00  2.19155E+00  6.51036E-01  2.02528E+00  1.84182E+00 -2.89561E-01
   1.91509E+00  2.90056E+00  9.19514E-01  2.23735E+00  3.22860E+00  1.20689E+00  4.81479E+00  4.95891E-01  2.50944E+00  2.17737E+00
   5.59361E-01  1.16988E+00  1.18686E+00  1.76965E+00  3.88523E+00  1.84515E+00  7.89423E-01  1.11353E+00  2.08889E+00  1.70445E+00
  -5.35622E-01  2.60004E+00  1.97183E+00  2.85139E+00  2.51672E-01  9.95421E-01  2.03256E+00 -4.34550E-01  1.68053E+00  2.11259E+00
   7.48023E-01  1.62306E+00  1.18086E-01  1.37474E+00  1.75304E+00  1.76798E+00  2.45501E+00 -7.57828E-01  9.31211E-01  6.77696E-01
   1.16379E+00 -6.43559E-02  8.70667E-01  1.05175E+00  6.61341E-01  3.90633E-01  2.03785E+00  9.56282E-01  5.09233E-01  2.82207E-01
   4.80204E-01  7.17850E-01  1.52358E+00  5.20760E-01  8.99881E-01  2.09947E+00 -3.24937E-01  1.26018E+00  1.13284E+00  2.54122E-01
  -1.14792E-01  2.14948E-01 -9.82237E-01  5.09443E-01  5.03806E-01  2.06353E+00  2.81484E+00  8.43032E-01  1.15915E+00  1.81913E+00
   3.94875E-01  1.24339E+00 -5.77269E-01  5.31122E-01  2.79809E-01 -1.13099E+00  8.73202E-01 -8.86351E-01  5.48431E-01  8.52673E-01
   5.50132E-01  6.34506E-01  2.89140E+00  1.31696E+00  1.86900E+00 -1.06692E+00  6.54732E-01  2.57350E+00  1.87065E+00  3.55665E-02
   9.64993E-02  3.22491E-01  2.07258E+00 -1.21561E+00  3.52044E-01 -2.61548E-01  9.88171E-01  1.24597E+00
 NY points of the fit to the data follow
   4.50910E-02 -7.04049E-02 -1.56969E-01 -2.09159E-01 -2.42615E-01 -2.56170E-01 -2.46909E-01 -2.27228E-01 -2.05185E-01 -1.83659E-01
  -1.69092E-01 -1.55757E-01 -1.34125E-01 -9.81610E-02 -4.20499E-02  4.40817E-02  1.80158E-01  3.92780E-01  6.26723E-01  7.44557E-01
   7.01705E-01  5.33215E-01  2.79000E-01 -3.17661E-03 -1.66202E-01 -1.16664E-01  8.78246E-02  3.39091E-01  5.75935E-01  7.64849E-01
   8.55122E-01  8.67774E-01  8.52078E-01  8.26300E-01  8.26231E-01  8.77024E-01  9.24005E-01  8.83714E-01  7.59609E-01  5.99316E-01
   4.51665E-01  3.76216E-01  4.60948E-01  7.04505E-01  1.00713E+00  1.26516E+00  1.41059E+00  1.40295E+00  1.25607E+00  1.05819E+00
   8.61626E-01  6.78704E-01  5.26954E-01  4.01734E-01  2.87443E-01  1.75842E-01  8.84670E-02  5.80645E-02  8.04448E-02  1.18115E-01
   1.41820E-01  1.46970E-01  1.35387E-01  1.14161E-01  9.77073E-02  8.80128E-02  8.01080E-02  6.82495E-02  5.49921E-02  5.32104E-02
   6.70131E-02  9.08324E-02  1.15872E-01  1.30120E-01  1.28277E-01  1.09590E-01  7.80097E-02  4.01926E-02 -4.76068E-03 -6.58778E-02
  -1.48246E-01 -2.44408E-01 -3.39534E-01 -4.30257E-01 -5.14432E-01 -5.86883E-01 -6.40377E-01 -6.72145E-01 -6.78640E-01 -6.63244E-01
  -6.36724E-01 -6.06657E-01 -5.75485E-01 -5.40266E-01 -4.82224E-01 -3.53147E-01 -1.72215E-01  6.29220E-03  1.60613E-01  2.88738E-01
   3.93733E-01  4.71303E-01  5.15087E-01  5.23846E-01  5.01603E-01  4.53985E-01  3.91174E-01  3.17196E-01  2.27028E-01  1.14233E-01
  -2.03351E-02 -1.59338E-01 -2.65662E-01 -3.04316E-01 -3.04549E-01 -2.96668E-01 -2.85701E-01 -2.73571E-01 -2.59700E-01 -2.42609E-01
  -2.22980E-01 -2.02312E-01 -1.81194E-01 -1.59985E-01 -1.39307E-01 -1.20170E-01 -1.03534E-01 -9.00867E-02 -8.03047E-02 -7.43998E-02
  -7.22114E-02 -7.30850E-02 -7.67529E-02 -8.33959E-02 -9.29667E-02 -1.04579E-01 -1.16423E-01 -1.27096E-01 -1.37562E-01 -1.48675E-01
  -1.60562E-01 -1.73205E-01 -1.86550E-01 -2.00492E-01 -2.14919E-01 -2.29646E-01 -2.44593E-01 -2.59845E-01 -2.75107E-01 -2.89935E-01
  -3.04079E-01 -3.17548E-01 -3.30745E-01 -3.43639E-01 -3.55866E-01 -3.66985E-01 -3.76811E-01 -3.85588E-01 -3.93560E-01 -4.00634E-01
  -4.06708E-01 -4.11637E-01 -4.15603E-01 -4.19005E-01 -4.21838E-01 -4.23789E-01 -4.24624E-01 -4.24389E-01 -4.23454E-01 -4.22156E-01
  -4.21115E-01 -4.20737E-01 -4.20776E-01 -4.20777E-01 -4.20528E-01 -4.19933E-01 -4.18078E-01 -4.13946E-01 -4.08087E-01 -4.00275E-01
  -3.89616E-01 -3.77547E-01 -3.65118E-01 -3.52228E-01 -3.38602E-01 -3.28050E-01 -3.40097E-01 -3.83448E-01 -4.66526E-01 -6.02480E-01
  -7.71785E-01 -9.52085E-01 -1.12159E+00 -1.23277E+00 -1.22127E+00 -1.06863E+00 -8.08732E-01 -4.45076E-01 -9.83105E-04  4.36299E-01
   8.00566E-01  9.88226E-01  8.58265E-01  4.37773E-01 -8.29474E-02 -5.85458E-01 -1.01900E+00 -1.29684E+00 -1.33919E+00 -1.21449E+00
  -9.72090E-01 -6.22518E-01 -1.97755E-01  1.78926E-01  3.76980E-01  4.45900E-01  5.09274E-01  5.81904E-01  6.21774E-01  5.45348E-01
   3.03875E-01  1.30745E-02 -1.80142E-01 -2.50089E-01 -1.74085E-01  8.26593E-02  4.79613E-01  8.85184E-01  1.19428E+00  1.38544E+00
   1.49172E+00  1.49151E+00  1.38298E+00  1.29641E+00  1.31287E+00  1.34551E+00  1.38216E+00  1.43971E+00  1.47933E+00  1.47244E+00
   1.41150E+00  1.28326E+00  1.10059E+00  9.24080E-01  8.09447E-01  7.44964E-01  6.78221E-01  6.35504E-01  6.76303E-01  7.92677E-01
   9.74291E-01  1.22795E+00  1.50361E+00  1.72721E+00  1.90646E+00  2.04252E+00  2.12557E+00  2.15725E+00  2.15260E+00  2.10003E+00
   1.99756E+00  1.87847E+00  1.77187E+00  1.68443E+00  1.61971E+00  1.58285E+00  1.56206E+00  1.52361E+00  1.45657E+00  1.37330E+00
   1.29583E+00  1.23635E+00  1.19270E+00  1.16525E+00  1.14779E+00  1.12489E+00  1.10286E+00  1.08533E+00  1.07108E+00  1.05831E+00
   1.04452E+00  1.02896E+00  1.01946E+00  1.02748E+00  1.05772E+00  1.10933E+00  1.18202E+00  1.27579E+00  1.38911E+00  1.51840E+00
   1.65916E+00  1.80937E+00  1.96655E+00  2.12669E+00  2.28512E+00  2.43679E+00  2.57623E+00  2.69780E+00  2.79648E+00  2.86876E+00
   2.91213E+00  2.92500E+00  2.90749E+00  2.86130E+00  2.78927E+00  2.69547E+00  2.58491E+00  2.46323E+00  2.33629E+00  2.20991E+00
   2.08966E+00  1.98069E+00  1.88766E+00  1.81464E+00  1.76519E+00  1.74304E+00  1.75333E+00  1.80557E+00  1.92392E+00  2.14267E+00
   2.37593E+00  2.52187E+00  2.56468E+00  2.51318E+00  2.36618E+00  2.10910E+00  1.73533E+00  1.34605E+00  1.05584E+00  8.69273E-01
   7.72109E-01  7.60156E-01  8.23322E-01  9.42316E-01  1.10675E+00  1.32686E+00  1.62208E+00  1.97607E+00  2.28946E+00  2.52656E+00
   2.68922E+00  2.74782E+00  2.67838E+00  2.47261E+00  2.16378E+00  1.85267E+00  1.59222E+00  1.38150E+00  1.22212E+00  1.10352E+00
   1.01925E+00  9.67594E-01  9.44490E-01  9.42201E-01  9.55905E-01  9.87897E-01  1.04417E+00  1.12189E+00  1.19261E+00  1.23973E+00
   1.26701E+00  1.27267E+00  1.25135E+00  1.20223E+00  1.13957E+00  1.09281E+00  1.06467E+00  1.04505E+00  1.02978E+00  1.01710E+00
   1.00620E+00  9.96691E-01  9.88493E-01  9.81680E-01  9.76443E-01  9.73047E-01  9.71811E-01  9.73095E-01  9.77290E-01  9.84804E-01
   9.96054E-01  1.01145E+00  1.03140E+00  1.05630E+00  1.08652E+00  1.12240E+00  1.16421E+00  1.21218E+00  1.26640E+00  1.32690E+00
   1.39354E+00  1.46602E+00  1.54384E+00  1.62632E+00  1.71254E+00  1.80136E+00  1.89143E+00  1.98120E+00  2.06897E+00  2.15293E+00
   2.23118E+00  2.30189E+00  2.36328E+00  2.41375E+00  2.45192E+00  2.47673E+00  2.48746E+00  2.48380E+00  2.46580E+00  2.43396E+00
   2.38910E+00  2.33242E+00  2.26535E+00  2.18955E+00  2.10679E+00  2.01892E+00  1.92774E+00  1.83498E+00  1.74222E+00  1.65087E+00
   1.56214E+00  1.47699E+00  1.39617E+00  1.32024E+00  1.24951E+00  1.18416E+00  1.12419E+00  1.06950E+00  1.01989E+00  9.75070E-01
   9.34736E-01  8.98539E-01  8.66128E-01  8.37150E-01  8.11268E-01  7.88164E-01  7.67541E-01  7.49129E-01  7.32681E-01  7.17979E-01
   7.04827E-01  6.93049E-01  6.82495E-01  6.73028E-01  6.64533E-01  6.56903E-01  6.50049E-01  6.43890E-01  6.38357E-01  6.33389E-01
   6.28932E-01  6.24936E-01  6.21360E-01  6.18166E-01  6.15321E-01  6.12795E-01  6.10561E-01  6.08596E-01  6.06879E-01  6.05391E-01
   6.04116E-01  6.03036E-01  6.02138E-01  6.01408E-01  6.00835E-01  6.00408E-01  6.00118E-01  5.99956E-01  5.99913E-01  5.99983E-01
   6.00157E-01  6.00431E-01  6.00798E-01  6.01252E-01  6.01788E-01  6.02401E-01  6.03089E-01  6.03848E-01  6.04673E-01  6.05561E-01
   6.06508E-01  6.07512E-01  6.08570E-01  6.09681E-01  6.10842E-01  6.12050E-01  6.13304E-01  6.14603E-01  6.15945E-01  6.17330E-01
   6.18756E-01  6.20221E-01  6.21725E-01  6.23269E-01  6.24854E-01  6.26478E-01  6.28142E-01  6.29847E-01
 NY background values follow
    -6.912E-01   -6.887E-01   -6.861E-01   -6.836E-01   -6.811E-01   -6.785E-01   -6.760E-01   -6.735E-01   -6.709E-01   -6.684E-01
    -6.659E-01   -6.633E-01   -6.608E-01   -6.583E-01   -6.557E-01   -6.532E-01   -6.506E-01   -6.481E-01   -6.456E-01   -6.430E-01
    -6.405E-01   -6.380E-01   -6.354E-01   -6.329E-01   -6.304E-01   -6.278E-01   -6.253E-01   -6.227E-01   -6.202E-01   -6.177E-01
    -6.151E-01   -6.126E-01   -6.101E-01   -6.075E-01   -6.050E-01   -6.025E-01   -5.999E-01   -5.974E-01   -5.949E-01   -5.923E-01
    -5.898E-01   -5.872E-01   -5.847E-01   -5.822E-01   -5.796E-01   -5.771E-01   -5.746E-01   -5.720E-01   -5.695E-01   -5.670E-01
    -5.644E-01   -5.619E-01   -5.594E-01   -5.568E-01   -5.543E-01   -5.517E-01   -5.492E-01   -5.467E-01   -5.441E-01   -5.416E-01
    -5.391E-01   -5.365E-01   -5.340E-01   -5.315E-01   -5.289E-01   -5.264E-01   -5.238E-01   -5.213E-01   -5.188E-01   -5.162E-01
    -5.137E-01   -5.112E-01   -5.086E-01   -5.061E-01   -5.036E-01   -5.010E-01   -4.985E-01   -4.959E-01   -4.934E-01   -4.909E-01
    -4.883E-01   -4.858E-01   -4.833E-01   -4.807E-01   -4.782E-01   -4.757E-01   -4.731E-01   -4.706E-01   -4.681E-01   -4.655E-01
    -4.630E-01   -4.604E-01   -4.579E-01   -4.554E-01   -4.528E-01   -4.503E-01   -4.478E-01   -4.452E-01   -4.427E-01   -4.402E-01
    -4.376E-01   -4.351E-01   -4.325E-01   -4.300E-01   -4.275E-01   -4.249E-01   -4.224E-01   -4.199E-01   -4.173E-01   -4.148E-01
    -4.123E-01   -4.097E-01   -4.072E-01   -4.047E-01   -4.021E-01   -3.996E-01   -3.970E-01   -3.945E-01   -3.920E-01   -3.894E-01
    -3.869E-01   -3.844E-01   -3.818E-01   -3.793E-01   -3.768E-01   -3.742E-01   -3.717E-01   -3.691E-01   -3.666E-01   -3.641E-01
    -3.615E-01   -3.590E-01   -3.565E-01   -3.539E-01   -3.514E-01   -3.489E-01   -3.463E-01   -3.438E-01   -3.412E-01   -3.387E-01
    -3.362E-01   -3.336E-01   -3.311E-01   -3.286E-01   -3.260E-01   -3.235E-01   -3.210E-01   -3.184E-01   -3.159E-01   -3.133E-01
    -3.108E-01   -3.083E-01   -3.057E-01   -3.032E-01   -3.007E-01   -2.981E-01   -2.956E-01   -2.931E-01   -2.905E-01   -2.880E-01
    -2.854E-01   -2.829E-01   -2.804E-01   -2.778E-01   -2.753E-01   -2.728E-01   -2.702E-01   -2.677E-01   -2.652E-01   -2.626E-01
    -2.601E-01   -2.575E-01   -2.550E-01   -2.525E-01   -2.499E-01   -2.474E-01   -2.449E-01   -2.423E-01   -2.398E-01   -2.373E-01
    -2.347E-01   -2.322E-01   -2.296E-01   -2.271E-01   -2.246E-01   -2.220E-01   -2.195E-01   -2.170E-01   -2.144E-01   -2.119E-01
    -2.094E-01   -2.068E-01   -2.043E-01   -2.017E-01   -1.992E-01   -1.967E-01   -1.941E-01   -1.916E-01   -1.891E-01   -1.865E-01
    -1.840E-01   -1.815E-01   -1.789E-01   -1.764E-01   -1.738E-01   -1.713E-01   -1.688E-01   -1.662E-01   -1.637E-01   -1.612E-01
    -1.586E-01   -1.561E-01   -1.536E-01   -1.510E-01   -1.485E-01   -1.459E-01   -1.434E-01   -1.409E-01   -1.383E-01   -1.358E-01
    -1.333E-01   -1.307E-01   -1.282E-01   -1.256E-01   -1.231E-01   -1.206E-01   -1.180E-01   -1.155E-01   -1.130E-01   -1.104E-01
    -1.079E-01   -1.054E-01   -1.028E-01   -1.003E-01   -9.774E-02   -9.521E-02   -9.267E-02   -9.013E-02   -8.760E-02   -8.506E-02
    -8.252E-02   -7.999E-02   -7.745E-02   -7.491E-02   -7.238E-02   -6.984E-02   -6.730E-02   -6.477E-02   -6.223E-02   -5.969E-02
    -5.716E-02   -5.462E-02   -5.208E-02   -4.955E-02   -4.701E-02   -4.447E-02   -4.194E-02   -3.940E-02   -3.686E-02   -3.433E-02
    -3.179E-02   -2.925E-02   -2.672E-02   -2.418E-02   -2.164E-02   -1.911E-02   -1.657E-02   -1.403E-02   -1.150E-02   -8.959E-03
    -6.423E-03   -3.886E-03   -1.349E-03    1.188E-03    3.724E-03    6.261E-03    8.798E-03    1.133E-02    1.387E-02    1.641E-02
     1.894E-02    2.148E-02    2.402E-02    2.655E-02    2.909E-02    3.163E-02    3.417E-02    3.670E-02    3.924E-02    4.178E-02
     4.431E-02    4.685E-02    4.939E-02    5.192E-02    5.446E-02    5.700E-02    5.953E-02    6.207E-02    6.461E-02    6.714E-02
     6.968E-02    7.222E-02    7.475E-02    7.729E-02    7.983E-02    8.236E-02    8.490E-02    8.744E-02    8.997E-02    9.251E-02
     9.505E-02    9.758E-02    1.001E-01    1.027E-01    1.052E-01    1.077E-01    1.103E-01    1.128E-01    1.153E-01    1.179E-01
     1.204E-01    1.230E-01    1.255E-01    1.280E-01    1.306E-01    1.331E-01    1.356E-01    1.382E-01    1.407E-01    1.432E-01
     1.458E-01    1.483E-01    1.509E-01    1.534E-01    1.559E-01    1.585E-01    1.610E-01    1.635E-01    1.661E-01    1.686E-01
     1.711E-01    1.737E-01    1.762E-01    1.788E-01    1.813E-01    1.838E-01    1.864E-01    1.889E-01    1.914E-01    1.940E-01
     1.965E-01    1.991E-01    2.016E-01    2.041E-01    2.067E-01    2.092E-01    2.117E-01    2.143E-01    2.168E-01    2.193E-01
     2.219E-01    2.244E-01    2.270E-01    2.295E-01    2.320E-01    2.346E-01    2.371E-01    2.396E-01    2.422E-01    2.447E-01
     2.473E-01    2.498E-01    2.523E-01    2.549E-01    2.574E-01    2.599E-01    2.625E-01    2.650E-01    2.675E-01    2.701E-01
     2.726E-01    2.752E-01    2.777E-01    2.802E-01    2.828E-01    2.853E-01    2.878E-01    2.904E-01    2.929E-01    2.955E-01
     2.980E-01    3.005E-01    3.031E-01    3.056E-01    3.081E-01    3.107E-01    3.132E-01    3.157E-01    3.183E-01    3.208E-01
     3.234E-01    3.259E-01    3.284E-01    3.310E-01    3.335E-01    3.360E-01    3.386E-01    3.411E-01    3.436E-01    3.462E-01
     3.487E-01    3.513E-01    3.538E-01    3.563E-01    3.589E-01    3.614E-01    3.639E-01    3.665E-01    3.690E-01    3.716E-01
     3.741E-01    3.766E-01    3.792E-01    3.817E-01    3.842E-01    3.868E-01    3.893E-01    3.918E-01    3.944E-01    3.969E-01
     3.995E-01    4.020E-01    4.045E-01    4.071E-01    4.096E-01    4.121E-01    4.147E-01    4.172E-01    4.198E-01    4.223E-01
     4.248E-01    4.274E-01    4.299E-01    4.324E-01    4.350E-01    4.375E-01    4.400E-01    4.426E-01    4.451E-01    4.477E-01
     4.502E-01    4.527E-01    4.553E-01    4.578E-01    4.603E-01    4.629E-01    4.654E-01    4.680E-01    4.705E-01    4.730E-01
     4.756E-01    4.781E-01    4.806E-01    4.832E-01    4.857E-01    4.882E-01    4.908E-01    4.933E-01    4.959E-01    4.984E-01
     5.009E-01    5.035E-01    5.060E-01    5.085E-01    5.111E-01    5.136E-01    5.162E-01    5.187E-01    5.212E-01    5.238E-01
     5.263E-01    5.288E-01    5.314E-01    5.339E-01    5.364E-01    5.390E-01    5.415E-01    5.441E-01    5.466E-01    5.491E-01
     5.517E-01    5.542E-01    5.567E-01    5.593E-01    5.618E-01    5.644E-01    5.669E-01    5.694E-01
 Ala      Conc. = 1.91E+02
