 LCModel (Version 6.3-1L) Copyright: S.W. Provencher.          Ref.: Magn. Reson. Med. 30:672-679 (1993).                
 Slice#1 Row#5 Col#5  PD_05_press_1_raw_act
 36 lines in following concentration table = NCONC+1
    Conc.  %SD /Cr+PCr  Metabolite                                         
   96.930 115%   0.137 Ala                                                 
    0.000 999%   0.000 Asp                                                 
    0.000 999%   0.000 Cr                                                  
  708.077   7%   1.000 PCr                                                 
    0.000 999%   0.000 GABA                                                
   78.732 136%   0.111 Glc                                                 
  421.742  56%   0.596 Gln                                                 
 1.23E+03  22%   1.733 Glu                                                 
  398.657   5%   0.563 GPC                                                 
    0.000 999%   0.000 PCh                                                 
  246.359  27%   0.348 GSH                                                 
 1.10E+03  21%   1.553 Ins                                                 
   24.898 503% 3.5E-02 Lac                                                 
 1.68E+03   4%   2.379 NAA                                                 
    0.000 999%   0.000 NAAG                                                
  104.649  22%   0.148 Scyllo                                              
  435.286  36%   0.615 Tau                                                 
  514.019  17%   0.726 -CrCH2                                              
  398.657   5%   0.563 GPC+PCh                                             
 1.68E+03   4%   2.379 NAA+NAAG                                            
  708.077   7%   1.000 Cr+PCr                                              
 1.65E+03  24%   2.329 Glu+Gln                                             
 1.91E+03  34%   2.700 Lip13a                                              
    0.000 999%   0.000 Lip13b                                              
  499.756  55%   0.706 Lip09                                               
 1.23E+03  26%   1.732 MM09                                                
  277.493  64%   0.392 Lip20                                               
 2.19E+03  17%   3.097 MM20                                                
  438.086  57%   0.619 MM12                                                
 1.24E+03  31%   1.755 MM14                                                
  402.516  53%   0.568 MM17                                                
 1.91E+03  34%   2.700 Lip13a+Lip13b                                       
 3.59E+03  14%   5.074 MM14+Lip13a+Lip13b+MM12                             
 1.73E+03  12%   2.438 MM09+Lip09                                          
 2.47E+03  15%   3.488 MM20+Lip20                                          
   6 lines in following misc. output table
  FWHM = 0.061 ppm    S/N =  10                                            
  Data shift =-0.015 ppm                                                   
  Ph: -54 deg     -10.4 deg/ppm                                            
  alphaB,S = 8.5E-01,   2.0E+02                                            
   14 spline knots.   Ns = 8(1)                                            
  (10) 4 infls.   ( 7) 1 extrs.                                            
  498 points on ppm-axis = NY
      4.000000     3.992357     3.984714     3.977070     3.969427     3.961784     3.954141     3.946497     3.938854     3.931211
      3.923568     3.915925     3.908281     3.900638     3.892995     3.885352     3.877708     3.870065     3.862422     3.854779
      3.847136     3.839492     3.831849     3.824206     3.816563     3.808919     3.801276     3.793633     3.785990     3.778347
      3.770703     3.763060     3.755417     3.747774     3.740130     3.732487     3.724844     3.717201     3.709558     3.701914
      3.694271     3.686628     3.678985     3.671341     3.663698     3.656055     3.648412     3.640769     3.633125     3.625482
      3.617839     3.610196     3.602552     3.594909     3.587266     3.579623     3.571980     3.564336     3.556693     3.549050
      3.541407     3.533763     3.526120     3.518477     3.510834     3.503191     3.495547     3.487904     3.480261     3.472618
      3.464974     3.457331     3.449688     3.442045     3.434402     3.426758     3.419115     3.411472     3.403829     3.396185
      3.388542     3.380899     3.373256     3.365613     3.357969     3.350326     3.342683     3.335040     3.327396     3.319753
      3.312110     3.304467     3.296824     3.289180     3.281537     3.273894     3.266251     3.258607     3.250964     3.243321
      3.235678     3.228034     3.220391     3.212748     3.205105     3.197462     3.189818     3.182175     3.174532     3.166889
      3.159245     3.151602     3.143959     3.136316     3.128673     3.121029     3.113386     3.105743     3.098100     3.090456
      3.082813     3.075170     3.067527     3.059884     3.052240     3.044597     3.036954     3.029311     3.021667     3.014024
      3.006381     2.998738     2.991095     2.983451     2.975808     2.968165     2.960522     2.952878     2.945235     2.937592
      2.929949     2.922306     2.914662     2.907019     2.899376     2.891733     2.884089     2.876446     2.868803     2.861160
      2.853517     2.845873     2.838230     2.830587     2.822944     2.815300     2.807657     2.800014     2.792371     2.784728
      2.777084     2.769441     2.761798     2.754155     2.746511     2.738868     2.731225     2.723582     2.715939     2.708295
      2.700652     2.693009     2.685366     2.677722     2.670079     2.662436     2.654793     2.647150     2.639506     2.631863
      2.624220     2.616577     2.608933     2.601290     2.593647     2.586004     2.578361     2.570717     2.563074     2.555431
      2.547788     2.540144     2.532501     2.524858     2.517215     2.509572     2.501928     2.494285     2.486642     2.478999
      2.471355     2.463712     2.456069     2.448426     2.440783     2.433139     2.425496     2.417853     2.410210     2.402566
      2.394923     2.387280     2.379637     2.371994     2.364350     2.356707     2.349064     2.341421     2.333777     2.326134
      2.318491     2.310848     2.303205     2.295561     2.287918     2.280275     2.272632     2.264988     2.257345     2.249702
      2.242059     2.234416     2.226772     2.219129     2.211486     2.203843     2.196199     2.188556     2.180913     2.173270
      2.165627     2.157983     2.150340     2.142697     2.135054     2.127410     2.119767     2.112124     2.104481     2.096838
      2.089194     2.081551     2.073908     2.066265     2.058621     2.050978     2.043335     2.035692     2.028049     2.020405
      2.012762     2.005119     1.997476     1.989833     1.982190     1.974546     1.966903     1.959260     1.951617     1.943974
      1.936331     1.928688     1.921045     1.913402     1.905759     1.898115     1.890472     1.882829     1.875186     1.867543
      1.859900     1.852257     1.844614     1.836971     1.829327     1.821684     1.814041     1.806398     1.798755     1.791112
      1.783469     1.775826     1.768183     1.760540     1.752896     1.745253     1.737610     1.729967     1.722324     1.714681
      1.707038     1.699395     1.691752     1.684108     1.676465     1.668822     1.661179     1.653536     1.645893     1.638250
      1.630607     1.622964     1.615321     1.607677     1.600034     1.592391     1.584748     1.577105     1.569462     1.561819
      1.554176     1.546533     1.538890     1.531246     1.523603     1.515960     1.508317     1.500674     1.493031     1.485388
      1.477745     1.470102     1.462458     1.454815     1.447172     1.439529     1.431886     1.424243     1.416600     1.408957
      1.401314     1.393671     1.386027     1.378384     1.370741     1.363098     1.355455     1.347812     1.340169     1.332526
      1.324883     1.317240     1.309596     1.301953     1.294310     1.286667     1.279024     1.271381     1.263738     1.256095
      1.248452     1.240808     1.233165     1.225522     1.217879     1.210236     1.202593     1.194950     1.187307     1.179664
      1.172021     1.164377     1.156734     1.149091     1.141448     1.133805     1.126162     1.118519     1.110876     1.103233
      1.095590     1.087946     1.080303     1.072660     1.065017     1.057374     1.049731     1.042088     1.034445     1.026802
      1.019158     1.011515     1.003872     0.996229     0.988586     0.980943     0.973300     0.965657     0.958014     0.950371
      0.942727     0.935084     0.927441     0.919798     0.912155     0.904512     0.896869     0.889226     0.881583     0.873940
      0.866296     0.858653     0.851010     0.843367     0.835724     0.828081     0.820438     0.812795     0.805152     0.797508
      0.789865     0.782222     0.774579     0.766936     0.759293     0.751650     0.744007     0.736364     0.728721     0.721077
      0.713434     0.705791     0.698148     0.690505     0.682862     0.675219     0.667576     0.659933     0.652290     0.644646
      0.637003     0.629360     0.621717     0.614074     0.606431     0.598788     0.591145     0.583502     0.575858     0.568215
      0.560572     0.552929     0.545286     0.537643     0.530000     0.522357     0.514714     0.507071     0.499427     0.491784
      0.484141     0.476498     0.468855     0.461212     0.453569     0.445925     0.438282     0.430639     0.422996     0.415353
      0.407710     0.400067     0.392424     0.384780     0.377137     0.369494     0.361851     0.354208     0.346565     0.338922
      0.331278     0.323635     0.315992     0.308349     0.300706     0.293063     0.285420     0.277777     0.270133     0.262490
      0.254847     0.247204     0.239561     0.231918     0.224275     0.216631     0.208988     0.201345
 NY phased data points follow
  -5.32450E+01 -5.14219E+01 -5.16365E+01 -4.12084E+01 -4.67974E+01 -4.53944E+01 -4.03831E+01 -4.32352E+01 -3.96411E+01 -3.83840E+01
  -3.63377E+01 -3.37043E+01 -3.79108E+01 -3.50877E+01 -4.32504E+01 -4.21041E+01 -4.09235E+01 -3.94227E+01 -4.04588E+01 -4.17958E+01
  -3.94727E+01 -4.02974E+01 -3.88438E+01 -3.51558E+01 -3.75878E+01 -4.08430E+01 -3.60509E+01 -3.64725E+01 -3.46569E+01 -3.47316E+01
  -3.78593E+01 -3.45272E+01 -3.19429E+01 -3.04922E+01 -3.18206E+01 -3.57329E+01 -3.47638E+01 -3.09275E+01 -3.56045E+01 -3.22495E+01
  -3.27149E+01 -3.04379E+01 -3.08003E+01 -2.83672E+01 -3.01074E+01 -2.73813E+01 -2.90788E+01 -2.59925E+01 -2.51426E+01 -2.91665E+01
  -2.93668E+01 -2.91191E+01 -3.13888E+01 -2.92234E+01 -3.12972E+01 -2.86265E+01 -3.05244E+01 -2.71268E+01 -2.84587E+01 -2.65538E+01
  -3.01197E+01 -2.87916E+01 -3.09755E+01 -3.16950E+01 -3.16296E+01 -3.23318E+01 -3.12623E+01 -3.22138E+01 -3.37162E+01 -3.09930E+01
  -2.56269E+01 -2.37874E+01 -2.78527E+01 -2.83418E+01 -2.35731E+01 -2.51845E+01 -2.76349E+01 -2.66795E+01 -2.79796E+01 -2.61304E+01
  -2.42446E+01 -2.74083E+01 -1.96477E+01 -2.65303E+01 -2.43912E+01 -2.32750E+01 -2.70812E+01 -2.33455E+01 -2.30371E+01 -2.20439E+01
  -1.93379E+01 -2.41814E+01 -2.10675E+01 -1.84255E+01 -2.45718E+01 -1.67703E+01 -1.67153E+01 -1.02026E+01 -5.63692E+00 -6.60292E-01
  -1.40023E+00  1.69826E+00  7.97390E+00  9.29812E+00  1.87751E+00 -2.41283E+00 -6.63071E+00 -9.89248E+00 -1.65571E+01 -1.43870E+01
  -1.80840E+01 -1.76555E+01 -1.84463E+01 -1.93830E+01 -1.98400E+01 -1.86675E+01 -2.11202E+01 -1.93882E+01 -1.85491E+01 -2.00596E+01
  -1.48425E+01 -1.26452E+01 -9.76461E+00 -1.35908E+01 -7.61332E+00 -6.92206E+00  2.82420E+00 -2.59078E+00 -1.63704E+00 -1.30158E+00
  -7.91036E+00 -8.21581E+00 -1.35713E+01 -1.45854E+01 -1.65741E+01 -1.58991E+01 -1.97811E+01 -1.86356E+01 -1.91235E+01 -2.24533E+01
  -1.98347E+01 -1.99017E+01 -1.73388E+01 -2.06650E+01 -1.53530E+01 -1.73718E+01 -2.06323E+01 -1.66404E+01 -1.69486E+01 -1.83849E+01
  -1.82977E+01 -2.04669E+01 -1.79668E+01 -1.95988E+01 -1.70019E+01 -1.64727E+01 -1.85378E+01 -1.69304E+01 -1.77903E+01 -1.64092E+01
  -1.70329E+01 -2.30479E+01 -1.78726E+01 -1.77161E+01 -1.96507E+01 -1.90647E+01 -1.78993E+01 -2.14711E+01 -2.08871E+01 -1.92584E+01
  -2.04327E+01 -2.02506E+01 -2.36343E+01 -2.33957E+01 -2.05486E+01 -2.24850E+01 -2.65836E+01 -2.20988E+01 -2.61806E+01 -2.21543E+01
  -2.12522E+01 -2.05228E+01 -2.13231E+01 -2.17768E+01 -1.99326E+01 -1.61832E+01 -1.97399E+01 -1.45507E+01 -1.60544E+01 -1.44885E+01
  -1.36472E+01 -1.47211E+01 -1.48226E+01 -1.50219E+01 -1.17568E+01 -1.38568E+01 -1.52225E+01 -1.93434E+01 -1.71034E+01 -1.63050E+01
  -1.49182E+01 -1.62109E+01 -1.35994E+01 -1.35937E+01 -1.20820E+01 -1.45719E+01 -1.11482E+01 -1.07136E+01 -9.20874E+00 -1.39181E+01
  -8.46792E+00 -6.15857E+00 -1.15568E+01 -9.15713E+00 -8.15426E+00 -9.58760E+00 -1.61066E+00 -1.02575E+00 -4.94865E+00 -4.08687E+00
  -7.18908E+00 -1.17138E+01 -1.12095E+01 -1.44068E+01 -1.17189E+01 -1.28662E+01 -1.16901E+01 -7.98805E+00  9.16558E-01 -3.53154E+00
  -5.13814E+00 -4.24342E+00 -5.56561E+00 -6.06629E+00 -8.71296E+00 -4.66473E+00 -2.12214E+00 -8.84920E+00 -6.90638E+00 -5.74487E+00
  -3.92852E+00 -6.08849E+00 -3.53122E+00 -6.99237E+00 -7.21803E+00 -5.51141E+00 -2.86753E+00  1.99255E+00 -3.16809E+00 -1.91943E+00
   7.46392E-01  2.64137E+00  4.18906E+00  1.16914E+01  1.45435E+01  2.00458E+01  2.21534E+01  2.94887E+01  3.01539E+01  3.70995E+01
   4.31547E+01  4.90274E+01  4.67753E+01  3.74287E+01  3.09475E+01  1.75383E+01  4.79605E+00  4.06822E+00  3.10851E+00 -2.32356E+00
   1.62623E+00 -2.22692E+00 -5.95587E+00 -6.82514E-01 -2.80416E+00 -3.24688E+00 -2.21605E+00 -1.70289E+00 -5.06228E+00 -6.03878E+00
  -3.29188E+00 -9.44744E+00 -9.33533E+00 -5.37802E+00 -7.63015E+00 -6.32024E+00 -7.36513E+00 -1.82182E+00 -6.22794E+00 -9.82534E-01
  -4.23567E+00 -6.62967E+00 -5.74486E+00 -5.54965E+00 -4.98364E+00 -6.98157E+00 -5.36391E+00 -5.58556E+00 -5.23820E+00 -4.73239E+00
  -2.76373E+00 -1.60840E+00 -5.70955E+00 -3.18796E+00 -5.37479E+00 -4.76211E+00  1.84134E+00 -2.10200E+00  1.97967E+00 -4.82960E+00
  -1.60917E+00 -2.07725E+00 -5.09886E+00 -1.29512E+00 -1.79828E-01 -2.15720E+00  8.55782E-01 -4.32670E-01  2.82979E+00 -3.05081E+00
   5.76862E-02 -7.73531E-01 -2.96087E+00  2.86705E+00  2.99582E-01  1.09876E+00  2.36488E+00  1.44876E+00 -8.38689E-01  2.95856E+00
   1.45643E+00 -8.31468E-01  3.14689E+00  3.63304E+00  1.14872E+00  2.76774E+00  5.33720E+00  1.63350E+00  4.71992E+00  2.80090E+00
   8.68230E-01  6.50137E+00  8.18763E+00  6.77860E+00  9.50810E+00  1.15367E+01  7.79525E+00  7.21878E+00  9.51198E+00  7.74878E+00
   6.54518E+00  3.67828E+00  4.58981E+00  6.97972E+00  6.70793E+00  4.91235E+00  3.57573E-01  2.59876E+00  6.75332E+00  5.40474E+00
   1.18665E+00  3.10786E+00  8.04203E+00  7.03964E+00  2.74688E+00  3.01987E+00  6.19682E+00  2.18202E+00  6.82128E+00  2.12786E+00
   3.56071E+00  1.78658E+00  1.71655E+00  4.15375E+00  4.26248E+00  5.68747E+00 -3.62077E-01  4.04735E+00  2.72183E+00  6.76681E-01
   1.89220E+00  1.38230E+00  2.80350E+00  3.51558E+00  7.78169E-01  5.79786E-01  2.56508E+00  3.16280E+00  2.66071E+00  3.42287E+00
   4.21894E+00  4.33656E+00  9.73151E-01  2.01841E+00  4.96551E+00  7.00891E+00  7.98727E+00  7.36506E+00  2.32295E+00  5.12413E+00
   1.90455E+00  4.68619E+00  7.81769E+00  3.39770E+00  8.44403E+00  5.76499E+00  4.57775E+00  1.00371E+01  8.37340E+00  6.01331E+00
   8.25172E+00  8.46436E+00  8.01597E+00  5.63937E+00  9.38195E+00  7.38958E+00  4.62873E+00  5.75263E+00  6.30344E+00  3.28920E+00
   1.90379E+00 -8.43052E-01  2.04827E+00 -3.16291E-01 -5.00737E-01 -1.89099E+00  5.78377E-01  5.65579E-01  4.98941E-01  1.51072E+00
  -3.16511E-01  2.13720E+00 -3.03144E+00 -4.10005E-01 -3.06604E-01 -4.33615E+00  1.47549E+00 -3.13647E+00 -8.56765E-01 -6.47608E+00
  -2.92319E+00 -5.14851E+00 -2.29874E+00 -2.22353E+00 -3.41951E+00 -4.47391E+00 -1.54450E+00 -1.85031E+00 -4.16569E+00 -4.77065E+00
  -4.47502E+00 -6.11305E+00 -7.96715E+00 -7.13000E-01 -5.79844E+00 -2.57975E+00 -6.16840E+00 -4.06159E+00 -3.75094E+00 -1.33247E+00
  -5.57580E-01 -5.37976E+00 -3.14570E+00 -7.32726E+00 -7.99606E+00 -2.77490E+00 -6.65017E+00 -6.93164E-01 -5.16607E+00 -5.07363E+00
  -6.94787E+00 -3.52537E+00 -7.53092E+00 -3.33070E+00  7.22131E-02 -2.47859E+00 -1.31756E+00 -4.18811E+00 -2.69099E+00 -4.29279E+00
  -6.93785E+00 -3.49989E-01  3.10838E-01 -4.16665E+00 -2.10945E+00 -2.52427E+00 -3.41226E+00 -6.36926E+00 -5.27810E+00 -3.28545E+00
  -4.79982E+00 -5.47851E+00 -4.34531E+00 -2.47480E+00 -5.99442E+00 -5.33794E+00 -6.28081E+00 -5.22023E+00
 NY points of the fit to the data follow
  -4.56832E+01 -4.58016E+01 -4.52516E+01 -4.44130E+01 -4.35832E+01 -4.28301E+01 -4.20999E+01 -4.12465E+01 -4.01145E+01 -3.88032E+01
  -3.76610E+01 -3.70355E+01 -3.70515E+01 -3.76056E+01 -3.84140E+01 -3.90922E+01 -3.94738E+01 -3.96945E+01 -3.99039E+01 -3.99346E+01
  -3.98706E+01 -3.98092E+01 -3.95428E+01 -3.90407E+01 -3.84195E+01 -3.77198E+01 -3.69472E+01 -3.60888E+01 -3.51693E+01 -3.41614E+01
  -3.31190E+01 -3.22330E+01 -3.16814E+01 -3.15049E+01 -3.17018E+01 -3.22553E+01 -3.30796E+01 -3.39617E+01 -3.46134E+01 -3.47365E+01
  -3.42222E+01 -3.32671E+01 -3.21339E+01 -3.09640E+01 -2.98236E+01 -2.87676E+01 -2.79164E+01 -2.74285E+01 -2.74803E+01 -2.81710E+01
  -2.93350E+01 -3.05680E+01 -3.15141E+01 -3.19999E+01 -3.20928E+01 -3.19347E+01 -3.16102E+01 -3.11550E+01 -3.06170E+01 -3.00733E+01
  -2.96535E+01 -2.94234E+01 -2.94182E+01 -2.95557E+01 -2.96788E+01 -2.96567E+01 -2.94603E+01 -2.90818E+01 -2.85272E+01 -2.79286E+01
  -2.74171E+01 -2.70361E+01 -2.67888E+01 -2.66354E+01 -2.65037E+01 -2.63767E+01 -2.63135E+01 -2.63688E+01 -2.64782E+01 -2.64297E+01
  -2.62742E+01 -2.60236E+01 -2.56308E+01 -2.50972E+01 -2.44712E+01 -2.38180E+01 -2.32812E+01 -2.30346E+01 -2.31315E+01 -2.35303E+01
  -2.40513E+01 -2.44389E+01 -2.45355E+01 -2.40131E+01 -2.19233E+01 -1.84620E+01 -1.47127E+01 -1.11275E+01 -7.65882E+00 -4.05646E+00
  -1.79318E-01  3.64809E+00  6.46658E+00  7.11328E+00  5.00614E+00  5.50551E-01 -5.13439E+00 -1.07170E+01 -1.51245E+01 -1.81120E+01
  -2.01490E+01 -2.15589E+01 -2.22366E+01 -2.24316E+01 -2.24792E+01 -2.24394E+01 -2.23199E+01 -2.20724E+01 -2.13529E+01 -1.95228E+01
  -1.70207E+01 -1.45206E+01 -1.22357E+01 -1.00189E+01 -7.64626E+00 -5.03252E+00 -2.47288E+00 -7.42596E-01 -6.13377E-01 -2.32068E+00
  -5.44179E+00 -9.14200E+00 -1.25257E+01 -1.50435E+01 -1.67440E+01 -1.79974E+01 -1.89129E+01 -1.93530E+01 -1.94812E+01 -1.93973E+01
  -1.91399E+01 -1.87974E+01 -1.84823E+01 -1.82680E+01 -1.81752E+01 -1.81935E+01 -1.82791E+01 -1.83815E+01 -1.84661E+01 -1.85168E+01
  -1.85348E+01 -1.85279E+01 -1.85081E+01 -1.85422E+01 -1.86297E+01 -1.87101E+01 -1.87329E+01 -1.86671E+01 -1.85863E+01 -1.85827E+01
  -1.86670E+01 -1.87762E+01 -1.88229E+01 -1.87571E+01 -1.86056E+01 -1.84637E+01 -1.84365E+01 -1.85868E+01 -1.89112E+01 -1.93070E+01
  -1.96033E+01 -1.97582E+01 -1.98264E+01 -1.99166E+01 -2.00454E+01 -2.01258E+01 -2.01000E+01 -1.99574E+01 -1.97394E+01 -1.95460E+01
  -1.93980E+01 -1.92311E+01 -1.89976E+01 -1.86655E+01 -1.82263E+01 -1.77176E+01 -1.71978E+01 -1.66445E+01 -1.59858E+01 -1.52140E+01
  -1.44708E+01 -1.39009E+01 -1.35654E+01 -1.34492E+01 -1.34755E+01 -1.35256E+01 -1.34841E+01 -1.33223E+01 -1.30213E+01 -1.25820E+01
  -1.20709E+01 -1.15414E+01 -1.11397E+01 -1.09410E+01 -1.09649E+01 -1.12926E+01 -1.18985E+01 -1.26237E+01 -1.32453E+01 -1.35186E+01
  -1.34658E+01 -1.31004E+01 -1.24028E+01 -1.13938E+01 -1.02394E+01 -9.25663E+00 -8.67470E+00 -8.57298E+00 -9.02432E+00 -1.00258E+01
  -1.13927E+01 -1.27547E+01 -1.36985E+01 -1.39515E+01 -1.34322E+01 -1.22113E+01 -1.05002E+01 -8.66198E+00 -7.14729E+00 -6.12797E+00
  -5.53378E+00 -5.22798E+00 -5.09202E+00 -5.04488E+00 -4.97674E+00 -4.85145E+00 -4.67126E+00 -4.42055E+00 -4.11901E+00 -3.86474E+00
  -3.72398E+00 -3.70005E+00 -3.75159E+00 -3.75672E+00 -3.58144E+00 -3.15592E+00 -2.50823E+00 -1.73369E+00 -9.65735E-01 -3.21955E-01
   2.08579E-01  9.48730E-01  3.42747E+00  8.43048E+00  1.42431E+01  1.96266E+01  2.44494E+01  2.91760E+01  3.42282E+01  3.95436E+01
   4.40296E+01  4.58333E+01  4.35829E+01  3.73384E+01  2.85194E+01  1.91815E+01  1.12570E+01  5.60048E+00  1.71708E+00 -1.10088E+00
  -2.79454E+00 -3.47809E+00 -3.83482E+00 -4.06804E+00 -4.21403E+00 -4.30076E+00 -4.37744E+00 -4.47072E+00 -4.59191E+00 -4.74007E+00
  -4.89824E+00 -5.04645E+00 -5.17272E+00 -5.26956E+00 -5.33076E+00 -5.35741E+00 -5.35752E+00 -5.33908E+00 -5.30568E+00 -5.25673E+00
  -5.19105E+00 -5.10951E+00 -5.01120E+00 -4.89521E+00 -4.76233E+00 -4.61439E+00 -4.45299E+00 -4.28014E+00 -4.09841E+00 -3.91092E+00
  -3.72020E+00 -3.52884E+00 -3.33943E+00 -3.15447E+00 -2.97615E+00 -2.80670E+00 -2.64776E+00 -2.50023E+00 -2.36387E+00 -2.23754E+00
  -2.11916E+00 -2.00624E+00 -1.89565E+00 -1.78364E+00 -1.66555E+00 -1.53634E+00 -1.38992E+00 -1.21844E+00 -1.00798E+00 -7.36485E-01
  -4.33214E-01 -1.55053E-01  9.18324E-02  3.25651E-01  5.58403E-01  7.80956E-01  9.62740E-01  1.09988E+00  1.22501E+00  1.34648E+00
   1.48683E+00  1.68892E+00  1.99642E+00  2.43321E+00  2.98815E+00  3.61426E+00  4.24832E+00  4.82736E+00  5.28940E+00  5.60964E+00
   5.80618E+00  5.91469E+00  5.98238E+00  6.03250E+00  6.06527E+00  6.08743E+00  6.10463E+00  6.11104E+00  6.10396E+00  6.07959E+00
   6.04346E+00  6.00874E+00  5.98895E+00  5.99148E+00  6.01244E+00  6.03570E+00  6.04133E+00  6.01271E+00  5.93611E+00  5.80623E+00
   5.63192E+00  5.42758E+00  5.20470E+00  4.96665E+00  4.71419E+00  4.45266E+00  4.18554E+00  3.91299E+00  3.63699E+00  3.36028E+00
   3.08611E+00  2.81774E+00  2.55854E+00  2.31170E+00  2.08041E+00  1.86763E+00  1.67628E+00  1.50891E+00  1.36798E+00  1.25566E+00
   1.17407E+00  1.12508E+00  1.11055E+00  1.13198E+00  1.19084E+00  1.28830E+00  1.42542E+00  1.60283E+00  1.82083E+00  2.07906E+00
   2.37658E+00  2.71160E+00  3.08150E+00  3.48252E+00  3.90981E+00  4.35722E+00  4.81753E+00  5.28233E+00  5.74235E+00  6.18745E+00
   6.60714E+00  6.99068E+00  7.32777E+00  7.60872E+00  7.82512E+00  7.96991E+00  8.03799E+00  8.02622E+00  7.93388E+00  7.76239E+00
   7.51551E+00  7.19882E+00  6.81975E+00  6.38699E+00  5.91033E+00  5.39996E+00  4.86626E+00  4.31920E+00  3.76822E+00  3.22178E+00
   2.68736E+00  2.17108E+00  1.67791E+00  1.21140E+00  7.74097E-01  3.67337E-01 -8.31841E-03 -3.53235E-01 -6.68292E-01 -9.54958E-01
  -1.21488E+00 -1.45001E+00 -1.66229E+00 -1.85383E+00 -2.02656E+00 -2.18248E+00 -2.32327E+00 -2.45063E+00 -2.56597E+00 -2.67073E+00
  -2.76605E+00 -2.85307E+00 -2.93264E+00 -3.00565E+00 -3.07275E+00 -3.13468E+00 -3.19194E+00 -3.24507E+00 -3.29442E+00 -3.34042E+00
  -3.38334E+00 -3.42357E+00 -3.46129E+00 -3.49678E+00 -3.53015E+00 -3.56167E+00 -3.59144E+00 -3.61969E+00 -3.64648E+00 -3.67198E+00
  -3.69620E+00 -3.71934E+00 -3.74142E+00 -3.76259E+00 -3.78284E+00 -3.80230E+00 -3.82093E+00 -3.83889E+00 -3.85618E+00 -3.87289E+00
  -3.88898E+00 -3.90454E+00 -3.91956E+00 -3.93414E+00 -3.94826E+00 -3.96199E+00 -3.97527E+00 -3.98820E+00 -4.00073E+00 -4.01298E+00
  -4.02488E+00 -4.03652E+00 -4.04781E+00 -4.05885E+00 -4.06959E+00 -4.08013E+00 -4.09040E+00 -4.10045E+00 -4.11022E+00 -4.11979E+00
  -4.12912E+00 -4.13829E+00 -4.14720E+00 -4.15591E+00 -4.16435E+00 -4.17262E+00 -4.18063E+00 -4.18846E+00
 NY background values follow
    -4.825E+01   -4.801E+01   -4.777E+01   -4.753E+01   -4.729E+01   -4.706E+01   -4.682E+01   -4.658E+01   -4.634E+01   -4.610E+01
    -4.587E+01   -4.563E+01   -4.539E+01   -4.515E+01   -4.492E+01   -4.468E+01   -4.444E+01   -4.421E+01   -4.397E+01   -4.373E+01
    -4.350E+01   -4.326E+01   -4.303E+01   -4.279E+01   -4.256E+01   -4.233E+01   -4.209E+01   -4.186E+01   -4.163E+01   -4.139E+01
    -4.116E+01   -4.093E+01   -4.070E+01   -4.047E+01   -4.024E+01   -4.001E+01   -3.978E+01   -3.955E+01   -3.932E+01   -3.910E+01
    -3.887E+01   -3.865E+01   -3.842E+01   -3.820E+01   -3.797E+01   -3.775E+01   -3.753E+01   -3.731E+01   -3.709E+01   -3.687E+01
    -3.665E+01   -3.643E+01   -3.621E+01   -3.600E+01   -3.578E+01   -3.556E+01   -3.535E+01   -3.514E+01   -3.493E+01   -3.471E+01
    -3.450E+01   -3.429E+01   -3.409E+01   -3.388E+01   -3.367E+01   -3.347E+01   -3.326E+01   -3.306E+01   -3.285E+01   -3.265E+01
    -3.245E+01   -3.225E+01   -3.205E+01   -3.186E+01   -3.166E+01   -3.147E+01   -3.127E+01   -3.108E+01   -3.089E+01   -3.070E+01
    -3.051E+01   -3.032E+01   -3.013E+01   -2.995E+01   -2.976E+01   -2.958E+01   -2.940E+01   -2.922E+01   -2.904E+01   -2.886E+01
    -2.868E+01   -2.851E+01   -2.833E+01   -2.816E+01   -2.799E+01   -2.782E+01   -2.765E+01   -2.748E+01   -2.731E+01   -2.715E+01
    -2.698E+01   -2.682E+01   -2.666E+01   -2.650E+01   -2.634E+01   -2.618E+01   -2.602E+01   -2.587E+01   -2.571E+01   -2.556E+01
    -2.541E+01   -2.526E+01   -2.511E+01   -2.496E+01   -2.481E+01   -2.466E+01   -2.452E+01   -2.437E+01   -2.423E+01   -2.409E+01
    -2.395E+01   -2.381E+01   -2.367E+01   -2.353E+01   -2.339E+01   -2.326E+01   -2.312E+01   -2.299E+01   -2.286E+01   -2.273E+01
    -2.260E+01   -2.247E+01   -2.234E+01   -2.221E+01   -2.208E+01   -2.196E+01   -2.183E+01   -2.171E+01   -2.159E+01   -2.146E+01
    -2.134E+01   -2.122E+01   -2.110E+01   -2.099E+01   -2.087E+01   -2.075E+01   -2.063E+01   -2.052E+01   -2.040E+01   -2.029E+01
    -2.018E+01   -2.006E+01   -1.995E+01   -1.984E+01   -1.973E+01   -1.962E+01   -1.951E+01   -1.940E+01   -1.929E+01   -1.918E+01
    -1.908E+01   -1.897E+01   -1.886E+01   -1.875E+01   -1.865E+01   -1.854E+01   -1.844E+01   -1.833E+01   -1.823E+01   -1.812E+01
    -1.802E+01   -1.791E+01   -1.781E+01   -1.771E+01   -1.760E+01   -1.750E+01   -1.740E+01   -1.730E+01   -1.719E+01   -1.709E+01
    -1.699E+01   -1.688E+01   -1.678E+01   -1.668E+01   -1.658E+01   -1.647E+01   -1.637E+01   -1.627E+01   -1.617E+01   -1.607E+01
    -1.596E+01   -1.586E+01   -1.576E+01   -1.566E+01   -1.556E+01   -1.546E+01   -1.536E+01   -1.526E+01   -1.516E+01   -1.506E+01
    -1.496E+01   -1.486E+01   -1.476E+01   -1.466E+01   -1.456E+01   -1.446E+01   -1.437E+01   -1.427E+01   -1.417E+01   -1.408E+01
    -1.398E+01   -1.388E+01   -1.379E+01   -1.369E+01   -1.360E+01   -1.351E+01   -1.341E+01   -1.332E+01   -1.323E+01   -1.314E+01
    -1.305E+01   -1.296E+01   -1.287E+01   -1.278E+01   -1.269E+01   -1.260E+01   -1.251E+01   -1.243E+01   -1.234E+01   -1.226E+01
    -1.217E+01   -1.209E+01   -1.201E+01   -1.192E+01   -1.184E+01   -1.176E+01   -1.168E+01   -1.160E+01   -1.152E+01   -1.144E+01
    -1.136E+01   -1.128E+01   -1.121E+01   -1.113E+01   -1.105E+01   -1.098E+01   -1.090E+01   -1.083E+01   -1.075E+01   -1.068E+01
    -1.061E+01   -1.053E+01   -1.046E+01   -1.039E+01   -1.032E+01   -1.025E+01   -1.018E+01   -1.011E+01   -1.004E+01   -9.969E+00
    -9.901E+00   -9.832E+00   -9.765E+00   -9.698E+00   -9.631E+00   -9.564E+00   -9.498E+00   -9.433E+00   -9.367E+00   -9.302E+00
    -9.238E+00   -9.174E+00   -9.110E+00   -9.046E+00   -8.983E+00   -8.920E+00   -8.858E+00   -8.796E+00   -8.734E+00   -8.672E+00
    -8.611E+00   -8.551E+00   -8.490E+00   -8.430E+00   -8.371E+00   -8.311E+00   -8.253E+00   -8.194E+00   -8.136E+00   -8.078E+00
    -8.021E+00   -7.964E+00   -7.907E+00   -7.851E+00   -7.795E+00   -7.739E+00   -7.684E+00   -7.629E+00   -7.575E+00   -7.521E+00
    -7.467E+00   -7.414E+00   -7.361E+00   -7.308E+00   -7.256E+00   -7.205E+00   -7.153E+00   -7.102E+00   -7.052E+00   -7.002E+00
    -6.952E+00   -6.902E+00   -6.853E+00   -6.805E+00   -6.757E+00   -6.709E+00   -6.662E+00   -6.615E+00   -6.568E+00   -6.522E+00
    -6.476E+00   -6.431E+00   -6.386E+00   -6.342E+00   -6.298E+00   -6.254E+00   -6.211E+00   -6.168E+00   -6.126E+00   -6.084E+00
    -6.042E+00   -6.001E+00   -5.960E+00   -5.920E+00   -5.880E+00   -5.841E+00   -5.802E+00   -5.764E+00   -5.725E+00   -5.688E+00
    -5.651E+00   -5.614E+00   -5.578E+00   -5.542E+00   -5.507E+00   -5.472E+00   -5.437E+00   -5.403E+00   -5.370E+00   -5.337E+00
    -5.304E+00   -5.272E+00   -5.240E+00   -5.209E+00   -5.178E+00   -5.148E+00   -5.118E+00   -5.089E+00   -5.060E+00   -5.032E+00
    -5.004E+00   -4.976E+00   -4.949E+00   -4.923E+00   -4.897E+00   -4.871E+00   -4.846E+00   -4.822E+00   -4.798E+00   -4.774E+00
    -4.751E+00   -4.728E+00   -4.706E+00   -4.684E+00   -4.663E+00   -4.642E+00   -4.622E+00   -4.602E+00   -4.582E+00   -4.563E+00
    -4.544E+00   -4.526E+00   -4.509E+00   -4.491E+00   -4.474E+00   -4.458E+00   -4.442E+00   -4.426E+00   -4.411E+00   -4.397E+00
    -4.382E+00   -4.369E+00   -4.355E+00   -4.342E+00   -4.329E+00   -4.317E+00   -4.305E+00   -4.294E+00   -4.283E+00   -4.273E+00
    -4.262E+00   -4.253E+00   -4.243E+00   -4.234E+00   -4.226E+00   -4.218E+00   -4.210E+00   -4.202E+00   -4.195E+00   -4.189E+00
    -4.182E+00   -4.176E+00   -4.171E+00   -4.166E+00   -4.161E+00   -4.156E+00   -4.152E+00   -4.148E+00   -4.144E+00   -4.141E+00
    -4.138E+00   -4.135E+00   -4.133E+00   -4.131E+00   -4.129E+00   -4.127E+00   -4.126E+00   -4.125E+00   -4.124E+00   -4.123E+00
    -4.123E+00   -4.122E+00   -4.122E+00   -4.123E+00   -4.123E+00   -4.123E+00   -4.124E+00   -4.125E+00   -4.126E+00   -4.127E+00
    -4.129E+00   -4.130E+00   -4.132E+00   -4.134E+00   -4.136E+00   -4.138E+00   -4.140E+00   -4.142E+00   -4.144E+00   -4.147E+00
    -4.149E+00   -4.152E+00   -4.154E+00   -4.157E+00   -4.160E+00   -4.162E+00   -4.165E+00   -4.168E+00   -4.171E+00   -4.174E+00
    -4.177E+00   -4.180E+00   -4.183E+00   -4.187E+00   -4.190E+00   -4.193E+00   -4.196E+00   -4.200E+00   -4.203E+00   -4.207E+00
    -4.210E+00   -4.214E+00   -4.217E+00   -4.221E+00   -4.225E+00   -4.228E+00   -4.232E+00   -4.236E+00   -4.240E+00   -4.244E+00
    -4.248E+00   -4.251E+00   -4.255E+00   -4.259E+00   -4.263E+00   -4.267E+00   -4.272E+00   -4.276E+00   -4.280E+00   -4.284E+00
    -4.288E+00   -4.292E+00   -4.297E+00   -4.301E+00   -4.305E+00   -4.310E+00   -4.314E+00   -4.318E+00
 Ala      Conc. = 9.69E+01
