 LCModel (Version 6.3-1L) Copyright: S.W. Provencher.          Ref.: Magn. Reson. Med. 30:672-679 (1993).                
 Slice#3 Row#7 Col#6  PD_05_press_2_raw_act
 36 lines in following concentration table = NCONC+1
    Conc.  %SD /Cr+PCr  Metabolite                                         
  210.979 125% 6.0E-02 Ala                                                 
  516.391  93%   0.146 Asp                                                 
 1.58E+03  35%   0.448 Cr                                                  
 1.95E+03  29%   0.552 PCr                                                 
    0.000 999%   0.000 GABA                                                
  473.770  67%   0.134 Glc                                                 
 1.59E+03  36%   0.451 Gln                                                 
 2.47E+03  25%   0.700 Glu                                                 
 1.12E+03   5%   0.318 GPC                                                 
    0.000 999%   0.000 PCh                                                 
 1.24E+03  15%   0.352 GSH                                                 
 3.68E+03  17%   1.043 Ins                                                 
    0.000 999%   0.000 Lac                                                 
 4.51E+03   6%   1.279 NAA                                                 
  106.709 273% 3.0E-02 NAAG                                                
  223.948  28% 6.4E-02 Scyllo                                              
  667.999  67%   0.189 Tau                                                 
  422.434  64%   0.120 -CrCH2                                              
 1.12E+03   5%   0.318 GPC+PCh                                             
 4.62E+03   4%   1.309 NAA+NAAG                                            
 3.53E+03   4%   1.000 Cr+PCr                                              
 4.06E+03  22%   1.151 Glu+Gln                                             
 1.34E+03  61%   0.380 Lip13a                                              
    0.000 999%   0.000 Lip13b                                              
   29.327 999% 8.3E-03 Lip09                                               
 2.28E+03  22%   0.648 MM09                                                
  184.839 141% 5.2E-02 Lip20                                               
 5.05E+03  17%   1.432 MM20                                                
  723.686  46%   0.205 MM12                                                
 2.00E+03  34%   0.567 MM14                                                
 1.27E+03  38%   0.359 MM17                                                
 1.34E+03  61%   0.380 Lip13a+Lip13b                                       
 4.06E+03  20%   1.152 MM14+Lip13a+Lip13b+MM12                             
 2.31E+03  18%   0.656 MM09+Lip09                                          
 5.23E+03  16%   1.484 MM20+Lip20                                          
   6 lines in following misc. output table
  FWHM = 0.054 ppm    S/N =  10                                            
  Data shift = 0.008 ppm                                                   
  Ph: -41 deg     -13.0 deg/ppm                                            
  alphaB,S = 1.8E+00,   5.2E+01                                            
   14 spline knots.   Ns = 7(1)                                            
  ( 9) 5 infls.   (11) 1 extrs.                                            
  498 points on ppm-axis = NY
      4.000000     3.992357     3.984714     3.977070     3.969427     3.961784     3.954141     3.946497     3.938854     3.931211
      3.923568     3.915925     3.908281     3.900638     3.892995     3.885352     3.877708     3.870065     3.862422     3.854779
      3.847136     3.839492     3.831849     3.824206     3.816563     3.808919     3.801276     3.793633     3.785990     3.778347
      3.770703     3.763060     3.755417     3.747774     3.740130     3.732487     3.724844     3.717201     3.709558     3.701914
      3.694271     3.686628     3.678985     3.671341     3.663698     3.656055     3.648412     3.640769     3.633125     3.625482
      3.617839     3.610196     3.602552     3.594909     3.587266     3.579623     3.571980     3.564336     3.556693     3.549050
      3.541407     3.533763     3.526120     3.518477     3.510834     3.503191     3.495547     3.487904     3.480261     3.472618
      3.464974     3.457331     3.449688     3.442045     3.434402     3.426758     3.419115     3.411472     3.403829     3.396185
      3.388542     3.380899     3.373256     3.365613     3.357969     3.350326     3.342683     3.335040     3.327396     3.319753
      3.312110     3.304467     3.296824     3.289180     3.281537     3.273894     3.266251     3.258607     3.250964     3.243321
      3.235678     3.228034     3.220391     3.212748     3.205105     3.197462     3.189818     3.182175     3.174532     3.166889
      3.159245     3.151602     3.143959     3.136316     3.128673     3.121029     3.113386     3.105743     3.098100     3.090456
      3.082813     3.075170     3.067527     3.059884     3.052240     3.044597     3.036954     3.029311     3.021667     3.014024
      3.006381     2.998738     2.991095     2.983451     2.975808     2.968165     2.960522     2.952878     2.945235     2.937592
      2.929949     2.922306     2.914662     2.907019     2.899376     2.891733     2.884089     2.876446     2.868803     2.861160
      2.853517     2.845873     2.838230     2.830587     2.822944     2.815300     2.807657     2.800014     2.792371     2.784728
      2.777084     2.769441     2.761798     2.754155     2.746511     2.738868     2.731225     2.723582     2.715939     2.708295
      2.700652     2.693009     2.685366     2.677722     2.670079     2.662436     2.654793     2.647150     2.639506     2.631863
      2.624220     2.616577     2.608933     2.601290     2.593647     2.586004     2.578361     2.570717     2.563074     2.555431
      2.547788     2.540144     2.532501     2.524858     2.517215     2.509572     2.501928     2.494285     2.486642     2.478999
      2.471355     2.463712     2.456069     2.448426     2.440783     2.433139     2.425496     2.417853     2.410210     2.402566
      2.394923     2.387280     2.379637     2.371994     2.364350     2.356707     2.349064     2.341421     2.333777     2.326134
      2.318491     2.310848     2.303205     2.295561     2.287918     2.280275     2.272632     2.264988     2.257345     2.249702
      2.242059     2.234416     2.226772     2.219129     2.211486     2.203843     2.196199     2.188556     2.180913     2.173270
      2.165627     2.157983     2.150340     2.142697     2.135054     2.127410     2.119767     2.112124     2.104481     2.096838
      2.089194     2.081551     2.073908     2.066265     2.058621     2.050978     2.043335     2.035692     2.028049     2.020405
      2.012762     2.005119     1.997476     1.989833     1.982190     1.974546     1.966903     1.959260     1.951617     1.943974
      1.936331     1.928688     1.921045     1.913402     1.905759     1.898115     1.890472     1.882829     1.875186     1.867543
      1.859900     1.852257     1.844614     1.836971     1.829327     1.821684     1.814041     1.806398     1.798755     1.791112
      1.783469     1.775826     1.768183     1.760540     1.752896     1.745253     1.737610     1.729967     1.722324     1.714681
      1.707038     1.699395     1.691752     1.684108     1.676465     1.668822     1.661179     1.653536     1.645893     1.638250
      1.630607     1.622964     1.615321     1.607677     1.600034     1.592391     1.584748     1.577105     1.569462     1.561819
      1.554176     1.546533     1.538890     1.531246     1.523603     1.515960     1.508317     1.500674     1.493031     1.485388
      1.477745     1.470102     1.462458     1.454815     1.447172     1.439529     1.431886     1.424243     1.416600     1.408957
      1.401314     1.393671     1.386027     1.378384     1.370741     1.363098     1.355455     1.347812     1.340169     1.332526
      1.324883     1.317240     1.309596     1.301953     1.294310     1.286667     1.279024     1.271381     1.263738     1.256095
      1.248452     1.240808     1.233165     1.225522     1.217879     1.210236     1.202593     1.194950     1.187307     1.179664
      1.172021     1.164377     1.156734     1.149091     1.141448     1.133805     1.126162     1.118519     1.110876     1.103233
      1.095590     1.087946     1.080303     1.072660     1.065017     1.057374     1.049731     1.042088     1.034445     1.026802
      1.019158     1.011515     1.003872     0.996229     0.988586     0.980943     0.973300     0.965657     0.958014     0.950371
      0.942727     0.935084     0.927441     0.919798     0.912155     0.904512     0.896869     0.889226     0.881583     0.873940
      0.866296     0.858653     0.851010     0.843367     0.835724     0.828081     0.820438     0.812795     0.805152     0.797508
      0.789865     0.782222     0.774579     0.766936     0.759293     0.751650     0.744007     0.736364     0.728721     0.721077
      0.713434     0.705791     0.698148     0.690505     0.682862     0.675219     0.667576     0.659933     0.652290     0.644646
      0.637003     0.629360     0.621717     0.614074     0.606431     0.598788     0.591145     0.583502     0.575858     0.568215
      0.560572     0.552929     0.545286     0.537643     0.530000     0.522357     0.514714     0.507071     0.499427     0.491784
      0.484141     0.476498     0.468855     0.461212     0.453569     0.445925     0.438282     0.430639     0.422996     0.415353
      0.407710     0.400067     0.392424     0.384780     0.377137     0.369494     0.361851     0.354208     0.346565     0.338922
      0.331278     0.323635     0.315992     0.308349     0.300706     0.293063     0.285420     0.277777     0.270133     0.262490
      0.254847     0.247204     0.239561     0.231918     0.224275     0.216631     0.208988     0.201345
 NY phased data points follow
  -6.69707E+01 -5.70840E+01 -6.08800E+01 -3.96455E+01 -5.67789E+01 -2.79442E+01 -4.82701E+00  2.91066E+00  1.38036E+01  1.91848E+01
   2.55917E+01  2.99838E+01  2.52565E+00 -1.44710E-01 -1.50467E+01 -2.05294E+01 -3.88229E+01 -3.64030E+01 -4.61772E+01 -3.89767E+01
  -5.30707E+01 -3.30095E+01 -3.64394E+01 -4.27111E+01 -3.70201E+01 -2.93131E+01 -2.25342E+01 -1.78036E+01 -2.37408E+01 -5.74368E+00
  -1.09557E+01 -4.02442E+00 -1.22013E+01 -1.39166E+01 -2.36751E+01 -1.38918E+01 -1.85923E+01 -7.35931E+00 -1.31942E+01 -1.06800E+01
  -2.60995E+01 -2.74556E+01 -2.33320E+01 -9.24888E+00 -1.55877E+01 -2.44820E+00 -1.28639E+01 -8.83412E+00 -1.40359E+00 -1.10568E+01
  -1.36864E+01 -2.54280E+01 -1.91711E+01 -1.24519E+01 -1.93726E+01 -1.52697E+01 -1.91162E+01 -2.00096E+01 -2.74232E+01 -2.66333E+00
  -1.06431E+01 -2.31476E+01 -3.80164E+01 -2.97480E+01 -2.95189E+01 -3.76126E+01 -2.84679E+01 -4.03583E+01 -3.00131E+01 -5.59461E+00
  -1.30003E+01 -2.53206E+01 -2.71878E+01 -2.10091E+01 -1.49374E+01 -1.79445E+01 -2.26693E+01 -1.75286E+01 -1.83219E+01 -2.13351E+01
  -2.61142E+01 -1.08259E+01 -1.90737E+01 -1.05796E+01 -1.14324E+01 -1.91248E+01 -2.74290E+01 -2.36754E+01 -1.85221E+01 -1.61845E+01
  -2.04433E+01 -1.57828E+01 -1.81359E+01 -6.04189E+00 -1.13423E+01 -1.56903E+01 -1.00584E+01 -1.62187E+01  1.27455E+01  3.39056E+01
   3.87581E+01  5.65261E+01  6.69506E+01  9.19693E+01  7.19385E+01  5.82387E+01  3.74867E+01  3.17162E+01  7.41135E+00 -7.23380E+00
   2.35776E-01  2.85782E-01 -2.33404E+00 -1.59248E+00 -1.13154E+01  2.46020E+00 -1.31417E+01 -1.26056E+01 -3.12899E+00 -9.52465E+00
   4.32431E+00  7.37441E+00  3.48541E+01  3.96473E+01  6.14428E+01  8.95481E+01  9.93568E+01  8.72452E+01  8.72205E+01  7.56947E+01
   5.83862E+01  3.57696E+01  1.50899E+01  1.78910E+01  3.58465E+00  6.76960E+00 -5.83095E+00 -1.06782E+01 -1.63462E+01  3.29103E+00
  -2.50502E+01 -1.31351E+01 -1.10408E+01 -1.26970E+01 -2.40759E+01 -1.73298E+00 -7.13590E+00 -5.18870E+00 -1.31780E+01 -3.24870E+00
  -1.14249E+01 -8.77656E+00 -1.04938E+01 -2.14415E+01 -1.48836E+01 -2.12439E+01 -1.42054E+01 -1.36047E+01 -2.12227E+01 -1.35970E+01
  -1.81453E+01 -1.74465E+01 -1.92471E+01 -2.23123E+01 -1.58591E+01 -2.61702E+01 -2.06293E+01 -6.12595E+00 -1.88057E+01 -6.73205E+00
  -2.19273E+01 -3.26044E+01 -1.53183E+01 -1.45008E+01 -1.55046E+01 -3.04508E+01 -1.96254E+01 -1.24799E+01 -3.01210E+01 -3.34404E+01
  -4.06049E+01 -1.14388E+01 -2.84045E+01 -2.75184E+01 -2.58246E+01 -2.88096E+01 -2.21708E+01 -9.63599E+00 -1.29290E+01 -1.16165E+01
   7.41303E+00  1.46329E+01  3.02948E+00  5.39829E+00  6.41227E+00 -5.66261E+00 -3.49342E+00  1.09623E+00 -1.09505E+01  6.03655E-01
   1.89814E+00  2.59150E+00 -5.58104E+00  1.99398E-01  7.42591E-01 -3.90092E+00 -4.71807E+00 -1.46986E+01 -9.67532E+00 -9.49409E+00
  -3.72250E+00 -6.11749E+00 -2.96711E+00  7.20440E+00  1.36174E+01  2.26609E+01  4.03366E+01  1.40196E+01  2.26868E+00  9.91000E+00
   6.06358E+00  8.43398E+00 -8.83187E+00  2.10439E+00  8.30129E-01  1.42271E+01  1.31832E+01  2.29548E+01  1.85678E+01  2.20149E+01
   7.27260E+00  1.12594E+01  1.27558E+01  1.08743E+01  2.33714E+01  8.61356E+00  1.12635E+01  1.85535E+01  1.85581E+01  1.22321E+01
   1.44053E+01  8.84928E+00 -8.90994E-01  1.42673E+01  2.22644E+01  2.23553E+01  8.57183E+00  2.42258E+01  1.96583E+01  3.79110E+01
   2.86898E+01  3.17025E+01  2.75985E+01  3.88323E+01  4.69606E+01  8.63523E+01  8.61467E+01  9.83671E+01  1.38274E+02  1.48002E+02
   1.71382E+02  1.61711E+02  1.51265E+02  1.12262E+02  9.08023E+01  5.30072E+01  4.82901E+01  4.88849E+01  2.77790E+01  1.37931E+01
   2.59509E+01  1.91961E+01  1.96032E+01  2.40483E+01  9.49659E+00  1.43624E+01  2.01967E+01  1.29526E+01  2.41144E+01  2.92244E+01
   8.41885E-01  8.50726E+00  1.95164E+01  2.81311E+01  1.80337E+01  2.06948E+01  9.03277E+00  1.16743E+01  9.03170E+00 -7.91132E-01
   6.42824E+00  1.42986E+01  1.60612E+01  1.83527E+01  2.53593E+01  1.64468E+01  2.64675E+01  1.41153E+01  1.37246E+01  1.24031E+01
   1.50089E+01  2.13396E+01  2.07681E+01  2.16972E+01  2.03776E+01  1.95430E+01  2.64125E+01  1.80980E+01  2.29735E+01  1.41910E+01
   2.09753E+01  1.17888E+01  9.63993E+00  1.84635E+01  1.44035E+01  7.51965E+00  1.73811E+01  8.92202E+00  8.68690E+00  2.05795E+01
   1.88100E+01  2.20103E+01  1.84009E+01  2.77109E+01  1.24593E+01  2.12056E+01  1.78358E+01  1.05322E+01  1.35709E+01  1.87270E+01
   2.45593E+01  2.16713E+01  1.94400E+01  2.62169E+01  1.87578E+01  2.17353E+01  2.90579E+01  3.56416E+01  2.36734E+01  3.16477E+01
   2.16319E+01  2.80885E+01  1.49786E+01  2.37529E+01  2.31704E+01  2.21606E+01  3.33861E+01  3.17835E+01  3.20195E+01  4.19422E+01
   3.42290E+01  2.13481E+01  3.09041E+01  3.24642E+01  1.60262E+01  2.53762E+01  2.20206E+01  2.59126E+01  2.00658E+01  1.82859E+01
   9.83476E+00  2.84189E+01  2.09719E+01  3.44482E+01  3.33953E+01  2.58648E+01  3.01549E+01  2.49493E+01  2.87794E+01  2.20825E+01
   3.34753E+01  2.24190E+01  1.29543E+01  2.22461E+01  2.29023E+01  2.14398E+01  7.96926E+00  2.52042E+01  2.55821E+01  1.52000E+01
   1.18663E+01  2.48148E+01  7.24085E+00  1.55116E+01  2.17411E+01  1.50753E+01  1.67717E+01  1.31716E+01  2.20400E+01  1.77206E+01
   1.24793E+01  1.67530E+01  2.97188E+01  2.29567E+01  2.32257E+01  1.23960E+01  2.01386E+01  2.47119E+01  3.22501E+01  2.20629E+01
   3.52293E+01  3.09538E+01  2.50355E+01  2.32966E+01  1.94887E+01  4.53536E+01  4.33421E+01  2.39364E+01  3.27029E+01  3.56814E+01
   3.54612E+01  3.83978E+01  3.24848E+01  3.72861E+01  2.92838E+01  2.84186E+01  2.43511E+01  2.49023E+01  2.38305E+01  2.71251E+01
   2.20650E+01  4.89949E+01  2.39788E+01  2.81516E+01  2.30099E+01  1.92344E+01  1.58032E+01  2.72343E+01  1.69579E+01  2.34838E+01
   1.55997E+01  2.58700E+01  1.80244E+01  3.61790E+01  2.25481E+01  1.99181E+01  1.89341E+01  1.36743E+01  1.72492E+01  2.87630E+01
   2.64175E+01  2.86829E+01  2.54771E+01  2.64652E+01  2.65888E+01  2.12100E+01  3.42380E+01  1.14700E+01  1.83606E+01  1.40458E+01
   2.14990E+01  1.58795E+01  2.04830E+01  1.99295E+01  2.19585E+01  2.00676E+01  2.29442E+01  2.54312E+01  2.20847E+01  1.65861E+01
   2.15648E+01  2.25162E+01  1.92750E+01  2.79338E+01  1.70458E+01  1.66698E+01  1.40673E+01  2.26305E+01  2.60470E+01  4.89551E+00
   2.10535E+01  1.37231E+01  1.25585E+01  2.15491E+01  1.66593E+01  1.51653E+01  2.81138E+01  1.66048E+01  1.69185E+01  1.27627E+01
   1.39685E+01  1.32855E+01  1.96581E+01  3.44580E+01  3.11324E+01  2.21187E+01  1.32553E+01  2.20575E+01  2.12883E+01  2.34275E+01
   1.63269E+01  9.29212E+00  1.64823E+01  1.10883E+01  1.25095E+01  2.84827E+01  2.48121E+01  2.78203E+01
 NY points of the fit to the data follow
  -4.68709E+01 -4.72816E+01 -4.55780E+01 -4.08585E+01 -3.26931E+01 -2.26689E+01 -1.22174E+01 -9.80200E-01  1.06085E+01  1.96239E+01
   2.28705E+01  1.93567E+01  1.06158E+01 -8.06162E-01 -1.20259E+01 -2.01827E+01 -2.46159E+01 -2.80747E+01 -3.20920E+01 -3.51600E+01
  -3.64226E+01 -3.69139E+01 -3.72878E+01 -3.71285E+01 -3.53884E+01 -3.22639E+01 -2.85349E+01 -2.37637E+01 -1.71625E+01 -9.97670E+00
  -4.65715E+00 -2.77849E+00 -4.32024E+00 -8.63111E+00 -1.47760E+01 -2.10598E+01 -2.52771E+01 -2.76431E+01 -3.00889E+01 -3.17966E+01
  -3.06512E+01 -2.71085E+01 -2.28004E+01 -1.85775E+01 -1.40047E+01 -9.41948E+00 -6.12602E+00 -5.52120E+00 -8.08649E+00 -1.26098E+01
  -1.79604E+01 -2.31824E+01 -2.64795E+01 -2.70058E+01 -2.63511E+01 -2.58953E+01 -2.49994E+01 -2.32965E+01 -2.15371E+01 -2.04724E+01
  -2.03457E+01 -2.11361E+01 -2.25826E+01 -2.43298E+01 -2.56117E+01 -2.56828E+01 -2.47330E+01 -2.35257E+01 -2.22630E+01 -2.08943E+01
  -1.94123E+01 -1.81784E+01 -1.73916E+01 -1.69100E+01 -1.67900E+01 -1.71197E+01 -1.78444E+01 -1.88172E+01 -1.96543E+01 -2.01734E+01
  -1.99878E+01 -1.91402E+01 -1.82680E+01 -1.76464E+01 -1.70922E+01 -1.68234E+01 -1.74442E+01 -1.89798E+01 -2.07764E+01 -2.22051E+01
  -2.30466E+01 -2.32154E+01 -2.26678E+01 -2.19738E+01 -2.18038E+01 -2.08905E+01 -1.55211E+01 -3.97183E+00  1.07252E+01  2.51752E+01
   4.08224E+01  5.87028E+01  7.41865E+01  8.06581E+01  7.56113E+01  6.18794E+01  4.35489E+01  2.46658E+01  1.00338E+01  2.51885E+00
  -1.99457E+00 -8.78281E+00 -1.42844E+01 -1.59681E+01 -1.64773E+01 -1.66456E+01 -1.66593E+01 -1.63967E+01 -1.55441E+01 -1.24278E+01
  -3.60889E+00  1.11222E+01  2.77437E+01  4.43926E+01  6.31829E+01  8.26752E+01  9.65641E+01  9.92002E+01  9.02216E+01  7.31411E+01
   5.25532E+01  3.32373E+01  1.98658E+01  1.26399E+01  5.40995E+00 -3.98786E+00 -1.00253E+01 -1.21818E+01 -1.24961E+01 -1.13809E+01
  -9.46303E+00 -7.84071E+00 -7.12318E+00 -6.94798E+00 -7.15840E+00 -7.74956E+00 -8.45148E+00 -9.17347E+00 -9.93907E+00 -1.06802E+01
  -1.14360E+01 -1.19567E+01 -1.22721E+01 -1.25299E+01 -1.28672E+01 -1.32910E+01 -1.37236E+01 -1.41386E+01 -1.45266E+01 -1.49230E+01
  -1.53159E+01 -1.54833E+01 -1.51226E+01 -1.43172E+01 -1.35175E+01 -1.31086E+01 -1.32289E+01 -1.38187E+01 -1.45581E+01 -1.52061E+01
  -1.58723E+01 -1.64577E+01 -1.68861E+01 -1.73947E+01 -1.79937E+01 -1.85173E+01 -1.86718E+01 -1.82249E+01 -1.75358E+01 -1.71126E+01
  -1.71091E+01 -1.72931E+01 -1.72766E+01 -1.67114E+01 -1.54617E+01 -1.38133E+01 -1.20015E+01 -9.82677E+00 -7.20834E+00 -4.35572E+00
  -1.99059E+00 -1.01291E+00 -1.67681E+00 -3.34951E+00 -4.88297E+00 -5.79439E+00 -6.13987E+00 -5.59328E+00 -3.63045E+00 -6.48373E-01
   2.56508E+00  5.40501E+00  7.28105E+00  7.46834E+00  5.78874E+00  2.86414E+00 -5.39544E-01 -4.42743E+00 -7.87437E+00 -9.22982E+00
  -7.72973E+00 -4.33110E+00 -3.12535E-01  4.08733E+00  8.44438E+00  1.13160E+01  1.16057E+01  9.61130E+00  6.28330E+00  1.98052E+00
  -2.16698E+00 -4.80513E+00 -5.05414E+00 -3.01325E+00  2.67880E-01  3.97012E+00  7.63230E+00  1.03895E+01  1.16811E+01  1.14585E+01
   1.09111E+01  1.11668E+01  1.20158E+01  1.30851E+01  1.46570E+01  1.67118E+01  1.86307E+01  1.95212E+01  1.90264E+01  1.76741E+01
   1.58701E+01  1.36773E+01  1.20344E+01  1.22052E+01  1.40860E+01  1.66009E+01  1.92063E+01  2.17608E+01  2.38757E+01  2.54326E+01
   2.68798E+01  2.85550E+01  3.09918E+01  3.72763E+01  5.18283E+01  7.22801E+01  9.22937E+01  1.11834E+02  1.34567E+02  1.56116E+02
   1.67270E+02  1.62211E+02  1.43386E+02  1.16616E+02  8.77425E+01  6.30060E+01  4.84542E+01  4.13865E+01  3.21292E+01  2.18221E+01
   1.78886E+01  1.65845E+01  1.58563E+01  1.54598E+01  1.52837E+01  1.50566E+01  1.47639E+01  1.44295E+01  1.40472E+01  1.36728E+01
   1.33955E+01  1.32127E+01  1.30838E+01  1.30210E+01  1.30443E+01  1.31404E+01  1.32802E+01  1.34506E+01  1.36700E+01  1.39520E+01
   1.42738E+01  1.46260E+01  1.50065E+01  1.54063E+01  1.58098E+01  1.62045E+01  1.65818E+01  1.69355E+01  1.72578E+01  1.75413E+01
   1.77788E+01  1.79657E+01  1.80988E+01  1.81765E+01  1.81985E+01  1.81667E+01  1.80879E+01  1.79713E+01  1.78264E+01  1.76653E+01
   1.75003E+01  1.73412E+01  1.71987E+01  1.70849E+01  1.70108E+01  1.69867E+01  1.70217E+01  1.71262E+01  1.73157E+01  1.76210E+01
   1.80918E+01  1.86650E+01  1.91754E+01  1.95709E+01  1.99253E+01  2.01760E+01  2.01431E+01  1.97580E+01  1.92415E+01  1.89548E+01
   1.90515E+01  1.94864E+01  2.03028E+01  2.15210E+01  2.28755E+01  2.41034E+01  2.51779E+01  2.59786E+01  2.64027E+01  2.65187E+01
   2.64758E+01  2.64917E+01  2.65913E+01  2.65780E+01  2.64796E+01  2.64414E+01  2.64315E+01  2.64268E+01  2.64191E+01  2.64043E+01
   2.63794E+01  2.63416E+01  2.62889E+01  2.62193E+01  2.61302E+01  2.60190E+01  2.58832E+01  2.57213E+01  2.55323E+01  2.53162E+01
   2.50734E+01  2.48046E+01  2.45116E+01  2.41974E+01  2.38658E+01  2.35208E+01  2.31666E+01  2.28075E+01  2.24485E+01  2.20944E+01
   2.17504E+01  2.14208E+01  2.11098E+01  2.08208E+01  2.05576E+01  2.03236E+01  2.01218E+01  1.99546E+01  1.98239E+01  1.97316E+01
   1.96800E+01  1.96712E+01  1.97072E+01  1.97895E+01  1.99203E+01  2.01015E+01  2.03361E+01  2.06264E+01  2.09747E+01  2.13827E+01
   2.18521E+01  2.23837E+01  2.29780E+01  2.36335E+01  2.43471E+01  2.51134E+01  2.59253E+01  2.67735E+01  2.76462E+01  2.85288E+01
   2.94047E+01  3.02555E+01  3.10619E+01  3.18043E+01  3.24635E+01  3.30210E+01  3.34606E+01  3.37692E+01  3.39376E+01  3.39609E+01
   3.38384E+01  3.35737E+01  3.31749E+01  3.26542E+01  3.20274E+01  3.13124E+01  3.05286E+01  2.96959E+01  2.88343E+01  2.79627E+01
   2.70986E+01  2.62571E+01  2.54506E+01  2.46886E+01  2.39784E+01  2.33251E+01  2.27310E+01  2.21967E+01  2.17205E+01  2.13001E+01
   2.09322E+01  2.06130E+01  2.03384E+01  2.01037E+01  1.99044E+01  1.97364E+01  1.95960E+01  1.94799E+01  1.93848E+01  1.93077E+01
   1.92461E+01  1.91979E+01  1.91614E+01  1.91352E+01  1.91177E+01  1.91075E+01  1.91036E+01  1.91054E+01  1.91124E+01  1.91237E+01
   1.91388E+01  1.91570E+01  1.91779E+01  1.92015E+01  1.92277E+01  1.92558E+01  1.92857E+01  1.93170E+01  1.93497E+01  1.93839E+01
   1.94195E+01  1.94561E+01  1.94934E+01  1.95315E+01  1.95706E+01  1.96105E+01  1.96512E+01  1.96924E+01  1.97341E+01  1.97762E+01
   1.98189E+01  1.98623E+01  1.99062E+01  1.99503E+01  1.99947E+01  2.00395E+01  2.00849E+01  2.01308E+01  2.01770E+01  2.02233E+01
   2.02699E+01  2.03169E+01  2.03646E+01  2.04126E+01  2.04608E+01  2.05092E+01  2.05580E+01  2.06074E+01  2.06574E+01  2.07077E+01
   2.07583E+01  2.08093E+01  2.08610E+01  2.09134E+01  2.09664E+01  2.10200E+01  2.10741E+01  2.11290E+01
 NY background values follow
    -5.488E+01   -5.456E+01   -5.424E+01   -5.392E+01   -5.359E+01   -5.327E+01   -5.295E+01   -5.263E+01   -5.231E+01   -5.198E+01
    -5.166E+01   -5.134E+01   -5.102E+01   -5.070E+01   -5.038E+01   -5.006E+01   -4.973E+01   -4.941E+01   -4.909E+01   -4.877E+01
    -4.845E+01   -4.814E+01   -4.782E+01   -4.750E+01   -4.718E+01   -4.686E+01   -4.655E+01   -4.623E+01   -4.591E+01   -4.560E+01
    -4.528E+01   -4.497E+01   -4.465E+01   -4.434E+01   -4.403E+01   -4.372E+01   -4.341E+01   -4.310E+01   -4.279E+01   -4.248E+01
    -4.217E+01   -4.186E+01   -4.156E+01   -4.125E+01   -4.095E+01   -4.064E+01   -4.034E+01   -4.004E+01   -3.974E+01   -3.944E+01
    -3.914E+01   -3.884E+01   -3.855E+01   -3.825E+01   -3.796E+01   -3.766E+01   -3.737E+01   -3.708E+01   -3.679E+01   -3.650E+01
    -3.621E+01   -3.592E+01   -3.564E+01   -3.535E+01   -3.507E+01   -3.479E+01   -3.451E+01   -3.423E+01   -3.395E+01   -3.367E+01
    -3.339E+01   -3.312E+01   -3.284E+01   -3.257E+01   -3.230E+01   -3.203E+01   -3.176E+01   -3.149E+01   -3.122E+01   -3.096E+01
    -3.069E+01   -3.043E+01   -3.017E+01   -2.991E+01   -2.965E+01   -2.939E+01   -2.913E+01   -2.888E+01   -2.862E+01   -2.837E+01
    -2.812E+01   -2.787E+01   -2.762E+01   -2.737E+01   -2.713E+01   -2.688E+01   -2.664E+01   -2.640E+01   -2.616E+01   -2.592E+01
    -2.568E+01   -2.545E+01   -2.521E+01   -2.498E+01   -2.474E+01   -2.451E+01   -2.428E+01   -2.405E+01   -2.382E+01   -2.360E+01
    -2.337E+01   -2.315E+01   -2.292E+01   -2.270E+01   -2.248E+01   -2.226E+01   -2.204E+01   -2.182E+01   -2.161E+01   -2.139E+01
    -2.118E+01   -2.096E+01   -2.075E+01   -2.054E+01   -2.033E+01   -2.012E+01   -1.991E+01   -1.970E+01   -1.949E+01   -1.929E+01
    -1.908E+01   -1.888E+01   -1.867E+01   -1.847E+01   -1.827E+01   -1.807E+01   -1.787E+01   -1.767E+01   -1.747E+01   -1.727E+01
    -1.707E+01   -1.688E+01   -1.668E+01   -1.649E+01   -1.629E+01   -1.610E+01   -1.591E+01   -1.572E+01   -1.552E+01   -1.533E+01
    -1.514E+01   -1.495E+01   -1.476E+01   -1.458E+01   -1.439E+01   -1.420E+01   -1.401E+01   -1.382E+01   -1.364E+01   -1.345E+01
    -1.327E+01   -1.308E+01   -1.290E+01   -1.271E+01   -1.253E+01   -1.234E+01   -1.216E+01   -1.198E+01   -1.179E+01   -1.161E+01
    -1.143E+01   -1.124E+01   -1.106E+01   -1.088E+01   -1.070E+01   -1.052E+01   -1.033E+01   -1.015E+01   -9.970E+00   -9.788E+00
    -9.606E+00   -9.424E+00   -9.242E+00   -9.060E+00   -8.879E+00   -8.697E+00   -8.515E+00   -8.334E+00   -8.152E+00   -7.971E+00
    -7.790E+00   -7.609E+00   -7.428E+00   -7.247E+00   -7.067E+00   -6.887E+00   -6.707E+00   -6.528E+00   -6.348E+00   -6.170E+00
    -5.991E+00   -5.813E+00   -5.635E+00   -5.458E+00   -5.282E+00   -5.105E+00   -4.929E+00   -4.754E+00   -4.579E+00   -4.405E+00
    -4.232E+00   -4.059E+00   -3.886E+00   -3.715E+00   -3.543E+00   -3.373E+00   -3.203E+00   -3.034E+00   -2.866E+00   -2.699E+00
    -2.532E+00   -2.366E+00   -2.201E+00   -2.037E+00   -1.874E+00   -1.711E+00   -1.550E+00   -1.389E+00   -1.229E+00   -1.071E+00
    -9.129E-01   -7.560E-01   -6.001E-01   -4.451E-01   -2.910E-01   -1.378E-01    1.450E-02    1.659E-01    3.163E-01    4.659E-01
     6.145E-01    7.622E-01    9.090E-01    1.055E+00    1.200E+00    1.344E+00    1.487E+00    1.630E+00    1.771E+00    1.912E+00
     2.051E+00    2.190E+00    2.328E+00    2.465E+00    2.601E+00    2.737E+00    2.871E+00    3.004E+00    3.137E+00    3.269E+00
     3.400E+00    3.530E+00    3.659E+00    3.787E+00    3.915E+00    4.041E+00    4.167E+00    4.292E+00    4.416E+00    4.539E+00
     4.662E+00    4.783E+00    4.904E+00    5.024E+00    5.142E+00    5.261E+00    5.378E+00    5.495E+00    5.610E+00    5.725E+00
     5.839E+00    5.953E+00    6.065E+00    6.177E+00    6.288E+00    6.399E+00    6.508E+00    6.617E+00    6.725E+00    6.832E+00
     6.939E+00    7.045E+00    7.150E+00    7.255E+00    7.359E+00    7.462E+00    7.564E+00    7.666E+00    7.767E+00    7.868E+00
     7.968E+00    8.067E+00    8.165E+00    8.263E+00    8.361E+00    8.457E+00    8.554E+00    8.649E+00    8.744E+00    8.838E+00
     8.932E+00    9.025E+00    9.118E+00    9.210E+00    9.302E+00    9.392E+00    9.483E+00    9.573E+00    9.662E+00    9.751E+00
     9.839E+00    9.927E+00    1.001E+01    1.010E+01    1.019E+01    1.027E+01    1.036E+01    1.044E+01    1.053E+01    1.061E+01
     1.070E+01    1.078E+01    1.086E+01    1.094E+01    1.103E+01    1.111E+01    1.119E+01    1.127E+01    1.135E+01    1.143E+01
     1.151E+01    1.159E+01    1.167E+01    1.175E+01    1.183E+01    1.190E+01    1.198E+01    1.206E+01    1.213E+01    1.221E+01
     1.229E+01    1.236E+01    1.244E+01    1.251E+01    1.259E+01    1.267E+01    1.274E+01    1.281E+01    1.289E+01    1.296E+01
     1.304E+01    1.311E+01    1.318E+01    1.326E+01    1.333E+01    1.340E+01    1.347E+01    1.355E+01    1.362E+01    1.369E+01
     1.376E+01    1.383E+01    1.390E+01    1.397E+01    1.404E+01    1.412E+01    1.419E+01    1.426E+01    1.433E+01    1.440E+01
     1.447E+01    1.454E+01    1.461E+01    1.468E+01    1.474E+01    1.481E+01    1.488E+01    1.495E+01    1.502E+01    1.509E+01
     1.516E+01    1.523E+01    1.529E+01    1.536E+01    1.543E+01    1.550E+01    1.557E+01    1.563E+01    1.570E+01    1.577E+01
     1.584E+01    1.590E+01    1.597E+01    1.604E+01    1.611E+01    1.617E+01    1.624E+01    1.631E+01    1.638E+01    1.644E+01
     1.651E+01    1.658E+01    1.664E+01    1.671E+01    1.678E+01    1.684E+01    1.691E+01    1.698E+01    1.704E+01    1.711E+01
     1.717E+01    1.724E+01    1.730E+01    1.737E+01    1.743E+01    1.750E+01    1.756E+01    1.763E+01    1.769E+01    1.776E+01
     1.782E+01    1.789E+01    1.795E+01    1.801E+01    1.808E+01    1.814E+01    1.820E+01    1.826E+01    1.833E+01    1.839E+01
     1.845E+01    1.851E+01    1.857E+01    1.863E+01    1.869E+01    1.875E+01    1.881E+01    1.887E+01    1.893E+01    1.899E+01
     1.905E+01    1.911E+01    1.917E+01    1.923E+01    1.928E+01    1.934E+01    1.940E+01    1.945E+01    1.951E+01    1.956E+01
     1.962E+01    1.967E+01    1.973E+01    1.978E+01    1.984E+01    1.989E+01    1.995E+01    2.000E+01    2.005E+01    2.011E+01
     2.016E+01    2.021E+01    2.026E+01    2.032E+01    2.037E+01    2.042E+01    2.047E+01    2.053E+01    2.058E+01    2.063E+01
     2.068E+01    2.073E+01    2.079E+01    2.084E+01    2.089E+01    2.094E+01    2.099E+01    2.104E+01    2.110E+01    2.115E+01
     2.120E+01    2.125E+01    2.130E+01    2.135E+01    2.141E+01    2.146E+01    2.151E+01    2.156E+01
 Ala      Conc. = 2.11E+02
