 LCModel (Version 6.3-1L) Copyright: S.W. Provencher.          Ref.: Magn. Reson. Med. 30:672-679 (1993).                
 Slice#3 Row#12 Col#9  PD_05_press_2_raw_act
 36 lines in following concentration table = NCONC+1
    Conc.  %SD /Cr+PCr  Metabolite                                         
   22.633 156%   0.289 Ala                                                 
   14.967  83%   0.191 Asp                                                 
    8.591 562%   0.110 Cr                                                  
   69.665  71%   0.890 PCr                                                 
    7.768  95% 9.9E-02 GABA                                                
    7.731  96% 9.9E-02 Glc                                                 
  110.206  64%   1.408 Gln                                                 
   88.988  85%   1.137 Glu                                                 
   20.900  35%   0.267 GPC                                                 
    0.000 999%   0.000 PCh                                                 
   41.520  63%   0.531 GSH                                                 
  159.784  50%   2.042 Ins                                                 
   13.376 280%   0.171 Lac                                                 
  122.165  19%   1.561 NAA                                                 
    0.000 999%   0.000 NAAG                                                
    3.700  66% 4.7E-02 Scyllo                                              
   12.574  97%   0.161 Tau                                                 
    6.551 225% 8.4E-02 -CrCH2                                              
   20.900  35%   0.267 GPC+PCh                                             
  122.165  19%   1.561 NAA+NAAG                                            
   78.256  26%   1.000 Cr+PCr                                              
  199.194  50%   2.545 Glu+Gln                                             
 1.51E+03  11%  19.241 Lip13a                                              
    0.000 999%   0.000 Lip13b                                              
  336.583  18%   4.301 Lip09                                               
    0.000 999%   0.000 MM09                                                
  162.403  31%   2.075 Lip20                                               
    0.000 999%   0.000 MM20                                                
 6.51E-02 999% 8.3E-04 MM12                                                
    4.128 333% 5.3E-02 MM14                                                
    0.000 999%   0.000 MM17                                                
 1.51E+03  11%  19.241 Lip13a+Lip13b                                       
 1.51E+03  11%  19.294 MM14+Lip13a+Lip13b+MM12                             
  336.583  18%   4.301 MM09+Lip09                                          
  162.403  31%   2.075 MM20+Lip20                                          
   6 lines in following misc. output table
  FWHM = 0.038 ppm    S/N =   2                                            
  Data shift = 0.015 ppm                                                   
  Ph:-180 deg      -8.9 deg/ppm                                            
  alphaB,S = 8.5E+01,   1.3E+01                                            
   14 spline knots.   Ns = 5(1)                                            
   2 inflections.     2 extrema                                            
  498 points on ppm-axis = NY
      4.000000     3.992357     3.984714     3.977070     3.969427     3.961784     3.954141     3.946497     3.938854     3.931211
      3.923568     3.915925     3.908281     3.900638     3.892995     3.885352     3.877708     3.870065     3.862422     3.854779
      3.847136     3.839492     3.831849     3.824206     3.816563     3.808919     3.801276     3.793633     3.785990     3.778347
      3.770703     3.763060     3.755417     3.747774     3.740130     3.732487     3.724844     3.717201     3.709558     3.701914
      3.694271     3.686628     3.678985     3.671341     3.663698     3.656055     3.648412     3.640769     3.633125     3.625482
      3.617839     3.610196     3.602552     3.594909     3.587266     3.579623     3.571980     3.564336     3.556693     3.549050
      3.541407     3.533763     3.526120     3.518477     3.510834     3.503191     3.495547     3.487904     3.480261     3.472618
      3.464974     3.457331     3.449688     3.442045     3.434402     3.426758     3.419115     3.411472     3.403829     3.396185
      3.388542     3.380899     3.373256     3.365613     3.357969     3.350326     3.342683     3.335040     3.327396     3.319753
      3.312110     3.304467     3.296824     3.289180     3.281537     3.273894     3.266251     3.258607     3.250964     3.243321
      3.235678     3.228034     3.220391     3.212748     3.205105     3.197462     3.189818     3.182175     3.174532     3.166889
      3.159245     3.151602     3.143959     3.136316     3.128673     3.121029     3.113386     3.105743     3.098100     3.090456
      3.082813     3.075170     3.067527     3.059884     3.052240     3.044597     3.036954     3.029311     3.021667     3.014024
      3.006381     2.998738     2.991095     2.983451     2.975808     2.968165     2.960522     2.952878     2.945235     2.937592
      2.929949     2.922306     2.914662     2.907019     2.899376     2.891733     2.884089     2.876446     2.868803     2.861160
      2.853517     2.845873     2.838230     2.830587     2.822944     2.815300     2.807657     2.800014     2.792371     2.784728
      2.777084     2.769441     2.761798     2.754155     2.746511     2.738868     2.731225     2.723582     2.715939     2.708295
      2.700652     2.693009     2.685366     2.677722     2.670079     2.662436     2.654793     2.647150     2.639506     2.631863
      2.624220     2.616577     2.608933     2.601290     2.593647     2.586004     2.578361     2.570717     2.563074     2.555431
      2.547788     2.540144     2.532501     2.524858     2.517215     2.509572     2.501928     2.494285     2.486642     2.478999
      2.471355     2.463712     2.456069     2.448426     2.440783     2.433139     2.425496     2.417853     2.410210     2.402566
      2.394923     2.387280     2.379637     2.371994     2.364350     2.356707     2.349064     2.341421     2.333777     2.326134
      2.318491     2.310848     2.303205     2.295561     2.287918     2.280275     2.272632     2.264988     2.257345     2.249702
      2.242059     2.234416     2.226772     2.219129     2.211486     2.203843     2.196199     2.188556     2.180913     2.173270
      2.165627     2.157983     2.150340     2.142697     2.135054     2.127410     2.119767     2.112124     2.104481     2.096838
      2.089194     2.081551     2.073908     2.066265     2.058621     2.050978     2.043335     2.035692     2.028049     2.020405
      2.012762     2.005119     1.997476     1.989833     1.982190     1.974546     1.966903     1.959260     1.951617     1.943974
      1.936331     1.928688     1.921045     1.913402     1.905759     1.898115     1.890472     1.882829     1.875186     1.867543
      1.859900     1.852257     1.844614     1.836971     1.829327     1.821684     1.814041     1.806398     1.798755     1.791112
      1.783469     1.775826     1.768183     1.760540     1.752896     1.745253     1.737610     1.729967     1.722324     1.714681
      1.707038     1.699395     1.691752     1.684108     1.676465     1.668822     1.661179     1.653536     1.645893     1.638250
      1.630607     1.622964     1.615321     1.607677     1.600034     1.592391     1.584748     1.577105     1.569462     1.561819
      1.554176     1.546533     1.538890     1.531246     1.523603     1.515960     1.508317     1.500674     1.493031     1.485388
      1.477745     1.470102     1.462458     1.454815     1.447172     1.439529     1.431886     1.424243     1.416600     1.408957
      1.401314     1.393671     1.386027     1.378384     1.370741     1.363098     1.355455     1.347812     1.340169     1.332526
      1.324883     1.317240     1.309596     1.301953     1.294310     1.286667     1.279024     1.271381     1.263738     1.256095
      1.248452     1.240808     1.233165     1.225522     1.217879     1.210236     1.202593     1.194950     1.187307     1.179664
      1.172021     1.164377     1.156734     1.149091     1.141448     1.133805     1.126162     1.118519     1.110876     1.103233
      1.095590     1.087946     1.080303     1.072660     1.065017     1.057374     1.049731     1.042088     1.034445     1.026802
      1.019158     1.011515     1.003872     0.996229     0.988586     0.980943     0.973300     0.965657     0.958014     0.950371
      0.942727     0.935084     0.927441     0.919798     0.912155     0.904512     0.896869     0.889226     0.881583     0.873940
      0.866296     0.858653     0.851010     0.843367     0.835724     0.828081     0.820438     0.812795     0.805152     0.797508
      0.789865     0.782222     0.774579     0.766936     0.759293     0.751650     0.744007     0.736364     0.728721     0.721077
      0.713434     0.705791     0.698148     0.690505     0.682862     0.675219     0.667576     0.659933     0.652290     0.644646
      0.637003     0.629360     0.621717     0.614074     0.606431     0.598788     0.591145     0.583502     0.575858     0.568215
      0.560572     0.552929     0.545286     0.537643     0.530000     0.522357     0.514714     0.507071     0.499427     0.491784
      0.484141     0.476498     0.468855     0.461212     0.453569     0.445925     0.438282     0.430639     0.422996     0.415353
      0.407710     0.400067     0.392424     0.384780     0.377137     0.369494     0.361851     0.354208     0.346565     0.338922
      0.331278     0.323635     0.315992     0.308349     0.300706     0.293063     0.285420     0.277777     0.270133     0.262490
      0.254847     0.247204     0.239561     0.231918     0.224275     0.216631     0.208988     0.201345
 NY phased data points follow
   4.74720E-01 -2.62132E+00 -2.64239E+00 -7.24357E-01  2.30412E-01  2.18483E+00  3.57973E-01  3.58095E-01  1.29121E+00  1.93652E+00
   3.72361E-02  4.56470E-01 -6.21584E-01  8.08155E-01 -2.26349E-01  1.33431E+00 -2.43333E-01  2.07098E+00 -6.70135E-01 -9.45455E-01
  -1.63721E+00 -1.59769E+00 -9.81793E-03  3.24401E+00 -1.86064E+00 -4.75049E-01 -5.06418E-01 -1.35863E-01 -2.80924E+00 -3.78026E-01
   3.63592E+00  9.68934E-01 -9.11085E-01  1.17249E+00  6.62182E-01  2.95028E-01  1.80516E+00 -2.13848E+00 -6.87290E-02 -2.81743E+00
  -1.36824E+00  1.11643E-01  1.77273E-01  1.53379E+00 -3.15990E-01  1.94212E+00  7.78226E-01  9.52498E-01 -1.78648E-01  7.89508E-01
   3.33146E-01 -1.82680E+00  2.11906E+00 -2.48516E+00  1.69724E-01  1.23057E+00 -1.16083E+00 -3.55007E-01 -2.64213E+00  1.01209E+00
   1.93007E+00  1.19428E+00 -2.81927E+00 -3.75938E+00 -4.18983E+00  5.65344E-02 -1.00193E+00 -4.90573E-01 -1.69840E+00 -2.12793E+00
   1.89152E-01  5.63928E-01  1.21759E+00  4.59489E-01 -2.50554E+00 -2.19575E+00 -1.37493E+00 -5.33569E-01 -1.70093E+00 -3.45426E+00
   3.53895E-01  2.13948E-01  3.26305E-01  1.08485E+00 -1.67152E+00 -1.20565E+00  2.91759E+00 -1.07725E+00  1.31613E+00 -1.77887E-01
   5.26329E-01  1.79658E+00  1.17879E-01 -9.10308E-01 -2.16125E+00 -1.01949E+00 -1.92530E+00 -4.22383E-01 -2.28085E+00 -7.13093E-01
  -2.11841E+00  1.25516E+00  1.86396E+00 -3.80139E-01  1.84121E+00  1.87950E+00 -1.64208E-01  8.49843E-02  4.69950E-02 -4.76047E+00
   4.47637E-01  1.20061E+00 -9.23499E-01 -1.41596E+00  5.30987E-01  8.30801E-01 -1.70126E+00  2.65489E+00 -8.90631E-01 -3.65201E+00
  -1.37320E+00 -3.14689E+00 -3.42449E+00 -3.26348E+00  1.99059E+00  2.62493E+00  2.21311E+00  4.31205E-01  4.61681E+00  5.47860E-01
   1.03083E-01  4.37533E-01 -3.65760E-01 -9.59034E-01  1.08476E+00 -2.56275E+00  2.82789E-02 -1.34095E+00 -1.09565E-01 -2.78216E+00
  -1.31088E+00 -3.55443E+00 -1.59729E-02 -1.85015E+00 -2.30973E+00 -1.56756E+00 -1.24459E+00 -7.36331E-01 -1.50929E+00  4.66017E-01
  -2.13892E+00 -3.19597E+00 -8.08701E-01 -2.12880E+00 -7.80271E-01 -2.33151E-01 -4.46816E+00 -1.83899E+00 -1.64800E+00 -2.90779E+00
  -9.88137E-01 -1.80525E+00 -4.27358E+00  3.20396E-01  1.64073E+00  6.32803E-01 -7.77010E-01  7.02284E-01 -3.25058E+00 -1.41044E+00
  -6.76377E-01 -8.04323E-01 -1.69219E+00 -1.80350E+00  1.72253E-02 -2.27434E-01 -2.75317E+00 -3.92321E+00  6.25704E-01  3.68091E-01
  -4.47641E-01  2.85636E-01 -8.44959E-01 -1.66104E+00 -3.07276E+00 -1.41639E+00  3.02309E+00 -1.81962E+00 -9.00083E-02 -1.62702E+00
   6.02859E-01 -4.91003E+00  5.55032E-01 -1.85758E+00 -4.81136E-02  5.22228E-01 -1.49571E+00 -2.76876E+00 -2.22783E+00 -1.87103E+00
  -1.73540E+00 -3.22263E+00 -2.70773E+00  7.71612E-01  2.76804E-01 -8.80591E-01 -1.67290E+00 -1.89066E+00 -1.80304E+00 -3.64901E+00
  -6.06412E-01  4.43026E-02 -6.24923E-01 -8.65063E-01 -1.12890E+00  2.12883E-01  3.08884E-01  3.35429E-01  4.64076E-01  3.17974E+00
   5.59281E-01 -1.78366E+00 -1.58901E+00 -1.68399E+00 -3.45403E-01  2.70195E+00 -3.06415E+00  4.21393E-02 -3.52810E-01 -5.74867E-01
  -3.76220E-01  1.56623E+00 -7.42171E-01 -4.15548E+00  4.03724E-01  2.65775E+00 -2.27400E-01 -1.32578E-01 -1.50720E-01  1.12572E+00
  -1.10978E+00 -3.88563E-01 -2.15184E+00 -2.11271E+00 -1.65369E+00  2.11315E+00 -1.54701E+00 -2.07759E+00  3.42488E-02 -1.12256E+00
  -2.10760E+00 -4.83155E-01  6.22085E-01  3.91910E-01  2.66891E-01 -3.32667E+00 -9.29319E-01  6.36474E-01  3.30928E+00  4.80690E+00
   4.91416E+00  5.60450E+00  5.71498E+00  2.91438E+00 -3.73226E-01  3.29134E+00 -2.49506E+00 -1.13722E+00 -2.38548E+00 -5.04584E+00
  -2.17160E+00 -2.30344E+00  7.66087E-01  3.41216E-02  2.41242E-01 -3.35429E-01 -8.35711E-01 -2.20481E-01 -2.51728E+00 -4.77785E+00
   2.46256E+00  3.09403E+00  2.27416E+00 -9.62075E-01 -2.62617E+00 -2.01414E+00  2.80998E-01  1.79175E-02 -1.14398E+00 -5.38690E-01
  -2.48540E+00  1.79825E+00  4.28414E-01  7.05029E-01 -1.15606E+00  2.35826E-01  9.46119E-01  2.56598E+00 -2.20847E+00 -4.83425E-01
  -1.61403E+00 -5.54521E-01 -4.39961E+00 -9.61899E-01 -2.31290E-01 -1.86092E+00 -3.00681E+00  2.02263E+00 -1.01938E+00 -2.21373E+00
  -2.35173E+00 -8.98859E-01 -1.76129E+00 -1.00377E+00 -6.23479E-01  1.13891E+00  1.45692E+00  2.46564E-01  2.66752E+00 -8.75419E-01
  -1.31406E+00  2.32031E+00  2.86024E+00  1.62713E-01 -2.79690E+00  2.76389E+00  3.80577E+00  1.20543E+00  1.25277E+00  1.58139E+00
   2.59967E+00 -6.57549E-01  4.74934E+00  2.55435E+00  2.95806E+00  3.61216E+00  6.87624E+00  1.40725E+00  5.34808E+00  3.17223E+00
   2.63554E+00  7.53691E+00  6.08180E+00  9.06947E+00  5.55586E+00  8.48794E+00  3.69353E+00  7.04910E+00  2.25049E+00  7.39218E+00
   6.79717E+00  4.75405E+00  5.70477E+00  5.10299E+00  6.14451E+00  7.08436E+00  4.70419E+00  5.65822E+00  2.05941E+00  5.07808E-01
   1.75515E+00  5.95606E+00  6.51686E+00  1.44005E+00  1.53305E+00  2.45369E+00  3.97941E+00  6.02906E+00  4.38683E+00  5.42859E+00
   4.85250E+00  2.09599E+00  2.88184E+00  2.05211E+00  3.33511E+00  6.11582E+00  1.63515E+00  2.85833E+00  2.78381E+00  2.04513E+00
   3.23005E+00 -1.22841E+00  1.79954E+00  1.43620E+00  2.02152E+00  1.02108E+00 -6.58251E-02  1.02251E+00  1.89523E+00  2.32726E-01
  -2.06967E+00  1.98518E+00  2.51609E+00  3.44964E+00  2.76598E+00  2.58229E+00 -2.10256E-01 -1.66875E+00 -2.13382E-01 -4.48265E-01
   1.08944E+00  2.34158E+00  2.29271E+00  2.73343E+00  1.22594E+00  5.38859E-01  4.14843E+00 -6.53040E-01  6.90474E-01 -2.88126E-01
   2.40506E+00 -3.39683E+00 -9.90877E-01  2.22296E+00  2.69125E-01  1.80624E+00  2.55644E-01  2.20224E-01 -1.40832E+00 -9.14998E-01
   1.23374E-03 -2.98814E-03  7.00239E-01  5.55193E-01  1.76638E+00 -7.80119E-01 -1.26866E+00  2.17971E+00  1.00773E+00 -3.12167E+00
  -1.18055E+00  1.59719E+00  4.08353E-01 -4.88773E-01  2.27099E+00 -1.38539E+00 -1.81440E-01 -1.08083E+00  8.19484E-01  4.06123E-01
   2.14527E+00  2.52401E+00  1.05482E+00  3.72737E-01  1.78052E-01  9.25342E-01  8.65315E-01 -3.92970E-01 -5.95395E-01 -2.34059E+00
   8.86688E-01  7.81925E-01  2.39186E-01  4.13147E+00  2.80738E+00  1.95192E-02 -7.70832E-01  7.09267E-01 -2.20976E+00 -1.99922E+00
   2.92590E+00  8.28134E-01  1.30992E+00 -3.91597E-01  1.40489E+00 -7.88721E-01  4.41124E+00 -1.67564E+00 -5.40762E-01 -7.75796E-01
  -4.37554E-01  1.16805E+00 -1.48954E+00  8.28127E-01  1.85201E+00  8.13453E-02 -1.66458E+00  1.77603E+00 -9.54984E-01 -2.52425E-01
  -2.38741E+00  3.28213E-01 -1.48503E+00 -1.26324E+00 -2.03135E+00 -3.89648E-01  8.91586E-01 -2.59230E+00  1.45374E+00 -1.85627E+00
  -1.68849E+00 -9.40669E-01 -5.82149E-01  7.60677E-01 -2.26912E-01 -1.10436E-01  2.77815E+00  1.47920E+00
 NY points of the fit to the data follow
  -8.97853E-01 -9.61089E-01 -9.93090E-01 -1.01878E+00 -1.05215E+00 -7.96298E-01 -2.07224E-01  4.45286E-01  9.18601E-01  1.11195E+00
   9.96697E-01  6.19767E-01  1.77075E-01 -1.75255E-01 -4.63556E-01 -6.74375E-01 -7.87175E-01 -8.53825E-01 -8.85558E-01 -8.67488E-01
  -8.16173E-01 -7.28486E-01 -6.39020E-01 -6.14599E-01 -7.28671E-01 -1.00187E+00 -1.18685E+00 -1.05446E+00 -6.14854E-01 -1.63660E-02
   5.40203E-01  8.86151E-01  8.96654E-01  6.18113E-01  2.08120E-01 -2.42938E-01 -6.29235E-01 -8.75175E-01 -9.97481E-01 -1.02431E+00
  -9.86967E-01 -9.51085E-01 -9.46575E-01 -8.18228E-01 -4.03183E-01  1.76684E-01  6.41213E-01  8.11805E-01  6.59035E-01  2.60065E-01
  -2.26447E-01 -6.39551E-01 -9.08926E-01 -1.04946E+00 -1.10017E+00 -1.05873E+00 -9.21494E-01 -7.11479E-01 -4.79184E-01 -3.00747E-01
  -2.36856E-01 -3.14079E-01 -4.96334E-01 -6.90868E-01 -8.41478E-01 -9.05540E-01 -8.94812E-01 -8.44851E-01 -7.48976E-01 -6.25213E-01
  -5.21310E-01 -4.63723E-01 -4.37514E-01 -4.33609E-01 -4.60815E-01 -5.06799E-01 -5.59317E-01 -6.25680E-01 -6.90604E-01 -7.31139E-01
  -7.50294E-01 -7.58895E-01 -7.29765E-01 -6.72055E-01 -6.65285E-01 -7.58118E-01 -9.18243E-01 -1.08229E+00 -1.19710E+00 -1.22616E+00
  -1.16491E+00 -1.06583E+00 -9.52327E-01 -8.41336E-01 -7.73381E-01 -7.64887E-01 -8.06878E-01 -9.12896E-01 -1.09591E+00 -9.17024E-01
  -1.71410E-01  7.58440E-01  1.42863E+00  1.66390E+00  1.47066E+00  9.37423E-01  3.18988E-01 -1.58315E-01 -5.17441E-01 -7.69229E-01
  -8.71787E-01 -8.93154E-01 -8.96040E-01 -8.94974E-01 -8.93016E-01 -8.87827E-01 -8.87271E-01 -8.95625E-01 -9.06056E-01 -9.14210E-01
  -9.26469E-01 -9.97478E-01 -1.05014E+00 -5.01064E-01  6.60466E-01  1.85477E+00  2.57931E+00  2.70583E+00  2.28998E+00  1.51898E+00
   7.97967E-01  3.21794E-01 -6.10559E-02 -3.78507E-01 -6.04896E-01 -8.14263E-01 -9.86759E-01 -1.06611E+00 -1.01981E+00 -8.90311E-01
  -7.34505E-01 -6.01540E-01 -5.20949E-01 -4.89942E-01 -4.99252E-01 -5.31157E-01 -5.62865E-01 -5.90727E-01 -6.14893E-01 -6.31543E-01
  -6.43328E-01 -6.57103E-01 -6.72383E-01 -6.79278E-01 -6.74568E-01 -6.59209E-01 -6.36391E-01 -6.36611E-01 -6.79240E-01 -7.44950E-01
  -8.01472E-01 -8.08207E-01 -7.65813E-01 -7.08137E-01 -6.68499E-01 -6.60923E-01 -6.78222E-01 -7.11972E-01 -7.49940E-01 -7.79033E-01
  -7.99906E-01 -8.11846E-01 -8.33937E-01 -8.94864E-01 -9.60964E-01 -9.89810E-01 -9.71038E-01 -9.42469E-01 -9.36059E-01 -9.50484E-01
  -9.65648E-01 -9.61857E-01 -9.45365E-01 -9.55429E-01 -9.99397E-01 -1.03560E+00 -1.01947E+00 -9.27723E-01 -7.67383E-01 -5.78085E-01
  -4.41501E-01 -3.96892E-01 -4.44363E-01 -5.60071E-01 -7.47061E-01 -9.62274E-01 -1.12859E+00 -1.17938E+00 -1.07374E+00 -8.25778E-01
  -5.08530E-01 -1.88881E-01  8.14878E-02  2.39898E-01  2.46137E-01  1.11960E-01 -2.65708E-01 -8.49023E-01 -1.36781E+00 -1.64075E+00
  -1.66088E+00 -1.47206E+00 -1.04411E+00 -4.85846E-01 -8.91192E-03  2.99596E-01  4.09913E-01  3.17133E-01  5.43208E-02 -3.29804E-01
  -7.14727E-01 -9.53247E-01 -9.87099E-01 -8.35011E-01 -5.72046E-01 -2.88286E-01 -5.89463E-02  7.11491E-02  7.34149E-02 -3.25865E-02
  -1.60449E-01 -2.32716E-01 -3.14243E-01 -4.13188E-01 -4.20664E-01 -3.07306E-01 -1.43433E-01  4.74634E-02  2.52018E-01  3.12166E-01
   1.64083E-01 -8.84782E-02 -3.31441E-01 -5.26106E-01 -6.14107E-01 -5.73787E-01 -4.78807E-01 -3.80727E-01 -2.71913E-01 -1.56927E-01
  -4.98260E-02  5.79940E-02  1.60037E-01  2.33043E-01  2.31401E-01  8.95025E-03  5.15186E-02  1.22125E+00  3.10723E+00  4.71657E+00
   5.47539E+00  5.33656E+00  4.40354E+00  3.06259E+00  1.90274E+00  1.05894E+00  3.98722E-01  2.09214E-02 -1.15398E-01 -1.88835E-01
  -2.37154E-01 -2.55073E-01 -2.49508E-01 -2.31060E-01 -2.07855E-01 -1.90046E-01 -1.84525E-01 -1.92492E-01 -2.10494E-01 -2.33763E-01
  -2.56143E-01 -2.73158E-01 -2.82453E-01 -2.82940E-01 -2.77267E-01 -2.69187E-01 -2.59516E-01 -2.49489E-01 -2.40905E-01 -2.33129E-01
  -2.25589E-01 -2.18432E-01 -2.11426E-01 -2.03671E-01 -1.94769E-01 -1.84859E-01 -1.73693E-01 -1.61110E-01 -1.47514E-01 -1.32935E-01
  -1.17211E-01 -1.00387E-01 -8.24228E-02 -6.32855E-02 -4.29913E-02 -2.15311E-02  1.20919E-03  2.54472E-02  5.13401E-02  7.90383E-02
   1.08721E-01  1.40573E-01  1.74832E-01  2.11818E-01  2.51850E-01  2.95284E-01  3.42542E-01  3.94167E-01  4.50828E-01  5.13322E-01
   5.82409E-01  6.57981E-01  7.46208E-01  8.99659E-01  1.10306E+00  1.25657E+00  1.30766E+00  1.28006E+00  1.22216E+00  1.17186E+00
   1.14209E+00  1.17433E+00  1.33927E+00  1.64714E+00  2.04349E+00  2.44654E+00  2.80716E+00  3.10045E+00  3.33001E+00  3.53814E+00
   3.74729E+00  3.95472E+00  4.17576E+00  4.44587E+00  4.74882E+00  5.01527E+00  5.20293E+00  5.31755E+00  5.38291E+00  5.41467E+00
   5.41868E+00  5.44068E+00  5.51147E+00  5.61552E+00  5.71423E+00  5.76518E+00  5.74379E+00  5.64155E+00  5.47340E+00  5.26907E+00
   5.03898E+00  4.78943E+00  4.53456E+00  4.27868E+00  4.02136E+00  3.76466E+00  3.51143E+00  3.26451E+00  3.02648E+00  2.79954E+00
   2.58546E+00  2.38556E+00  2.20077E+00  2.03165E+00  1.87845E+00  1.74112E+00  1.61939E+00  1.51282E+00  1.42084E+00  1.34281E+00
   1.27803E+00  1.22579E+00  1.18533E+00  1.15590E+00  1.13676E+00  1.12720E+00  1.12648E+00  1.13384E+00  1.14850E+00  1.16963E+00
   1.19640E+00  1.22789E+00  1.26313E+00  1.30108E+00  1.34064E+00  1.38067E+00  1.42000E+00  1.45746E+00  1.49187E+00  1.52207E+00
   1.54700E+00  1.56571E+00  1.57736E+00  1.58131E+00  1.57705E+00  1.56429E+00  1.54295E+00  1.51316E+00  1.47528E+00  1.42980E+00
   1.37741E+00  1.31890E+00  1.25520E+00  1.18730E+00  1.11621E+00  1.04296E+00  9.68505E-01  8.93773E-01  8.19611E-01  7.46779E-01
   6.75915E-01  6.07545E-01  5.42074E-01  4.79825E-01  4.21012E-01  3.65768E-01  3.14127E-01  2.66062E-01  2.21487E-01  1.80294E-01
   1.42337E-01  1.07449E-01  7.54303E-02  4.60853E-02  1.92148E-02 -5.35875E-03 -2.78179E-02 -4.83364E-02 -6.70936E-02 -8.42433E-02
  -9.99272E-02 -1.14262E-01 -1.27370E-01 -1.39360E-01 -1.50345E-01 -1.60410E-01 -1.69633E-01 -1.78075E-01 -1.85808E-01 -1.92897E-01
  -1.99404E-01 -2.05370E-01 -2.10835E-01 -2.15829E-01 -2.20396E-01 -2.24574E-01 -2.28399E-01 -2.31888E-01 -2.35061E-01 -2.37936E-01
  -2.40546E-01 -2.42911E-01 -2.45050E-01 -2.46965E-01 -2.48671E-01 -2.50178E-01 -2.51514E-01 -2.52688E-01 -2.53711E-01 -2.54578E-01
  -2.55301E-01 -2.55890E-01 -2.56364E-01 -2.56726E-01 -2.56978E-01 -2.57115E-01 -2.57149E-01 -2.57090E-01 -2.56953E-01 -2.56733E-01
  -2.56429E-01 -2.56038E-01 -2.55574E-01 -2.55042E-01 -2.54454E-01 -2.53799E-01 -2.53076E-01 -2.52284E-01 -2.51438E-01 -2.50541E-01
  -2.49599E-01 -2.48598E-01 -2.47539E-01 -2.46421E-01 -2.45261E-01 -2.44057E-01 -2.42810E-01 -2.41503E-01
 NY background values follow
    -1.247E+00   -1.245E+00   -1.243E+00   -1.241E+00   -1.239E+00   -1.237E+00   -1.235E+00   -1.233E+00   -1.231E+00   -1.229E+00
    -1.227E+00   -1.225E+00   -1.223E+00   -1.221E+00   -1.219E+00   -1.217E+00   -1.215E+00   -1.213E+00   -1.211E+00   -1.209E+00
    -1.207E+00   -1.205E+00   -1.203E+00   -1.201E+00   -1.199E+00   -1.197E+00   -1.195E+00   -1.193E+00   -1.191E+00   -1.189E+00
    -1.187E+00   -1.185E+00   -1.183E+00   -1.181E+00   -1.179E+00   -1.177E+00   -1.175E+00   -1.173E+00   -1.171E+00   -1.168E+00
    -1.166E+00   -1.164E+00   -1.162E+00   -1.160E+00   -1.158E+00   -1.156E+00   -1.154E+00   -1.152E+00   -1.150E+00   -1.148E+00
    -1.146E+00   -1.144E+00   -1.142E+00   -1.140E+00   -1.138E+00   -1.136E+00   -1.134E+00   -1.132E+00   -1.130E+00   -1.128E+00
    -1.126E+00   -1.124E+00   -1.122E+00   -1.120E+00   -1.118E+00   -1.116E+00   -1.114E+00   -1.112E+00   -1.110E+00   -1.108E+00
    -1.106E+00   -1.104E+00   -1.102E+00   -1.100E+00   -1.098E+00   -1.096E+00   -1.093E+00   -1.091E+00   -1.089E+00   -1.087E+00
    -1.085E+00   -1.083E+00   -1.081E+00   -1.079E+00   -1.077E+00   -1.075E+00   -1.073E+00   -1.071E+00   -1.069E+00   -1.067E+00
    -1.065E+00   -1.063E+00   -1.061E+00   -1.059E+00   -1.057E+00   -1.055E+00   -1.053E+00   -1.051E+00   -1.049E+00   -1.047E+00
    -1.045E+00   -1.043E+00   -1.041E+00   -1.039E+00   -1.037E+00   -1.035E+00   -1.033E+00   -1.031E+00   -1.029E+00   -1.027E+00
    -1.025E+00   -1.022E+00   -1.020E+00   -1.018E+00   -1.016E+00   -1.014E+00   -1.012E+00   -1.010E+00   -1.008E+00   -1.006E+00
    -1.004E+00   -1.002E+00   -1.000E+00   -9.981E-01   -9.961E-01   -9.941E-01   -9.920E-01   -9.900E-01   -9.880E-01   -9.859E-01
    -9.839E-01   -9.819E-01   -9.798E-01   -9.778E-01   -9.758E-01   -9.738E-01   -9.717E-01   -9.697E-01   -9.677E-01   -9.656E-01
    -9.636E-01   -9.616E-01   -9.595E-01   -9.575E-01   -9.555E-01   -9.534E-01   -9.514E-01   -9.494E-01   -9.474E-01   -9.453E-01
    -9.433E-01   -9.413E-01   -9.392E-01   -9.372E-01   -9.352E-01   -9.331E-01   -9.311E-01   -9.291E-01   -9.270E-01   -9.250E-01
    -9.230E-01   -9.210E-01   -9.189E-01   -9.169E-01   -9.149E-01   -9.128E-01   -9.108E-01   -9.088E-01   -9.067E-01   -9.047E-01
    -9.027E-01   -9.006E-01   -8.986E-01   -8.966E-01   -8.945E-01   -8.925E-01   -8.905E-01   -8.884E-01   -8.864E-01   -8.844E-01
    -8.824E-01   -8.803E-01   -8.783E-01   -8.763E-01   -8.742E-01   -8.722E-01   -8.702E-01   -8.681E-01   -8.661E-01   -8.641E-01
    -8.620E-01   -8.600E-01   -8.580E-01   -8.559E-01   -8.539E-01   -8.519E-01   -8.498E-01   -8.478E-01   -8.458E-01   -8.437E-01
    -8.417E-01   -8.397E-01   -8.377E-01   -8.356E-01   -8.336E-01   -8.316E-01   -8.295E-01   -8.275E-01   -8.255E-01   -8.234E-01
    -8.214E-01   -8.194E-01   -8.173E-01   -8.153E-01   -8.133E-01   -8.112E-01   -8.092E-01   -8.072E-01   -8.051E-01   -8.031E-01
    -8.011E-01   -7.990E-01   -7.970E-01   -7.950E-01   -7.929E-01   -7.909E-01   -7.889E-01   -7.868E-01   -7.848E-01   -7.828E-01
    -7.808E-01   -7.787E-01   -7.767E-01   -7.747E-01   -7.726E-01   -7.706E-01   -7.686E-01   -7.665E-01   -7.645E-01   -7.625E-01
    -7.604E-01   -7.584E-01   -7.564E-01   -7.543E-01   -7.523E-01   -7.503E-01   -7.482E-01   -7.462E-01   -7.442E-01   -7.421E-01
    -7.401E-01   -7.381E-01   -7.360E-01   -7.340E-01   -7.320E-01   -7.299E-01   -7.279E-01   -7.259E-01   -7.238E-01   -7.218E-01
    -7.198E-01   -7.178E-01   -7.157E-01   -7.137E-01   -7.117E-01   -7.096E-01   -7.076E-01   -7.056E-01   -7.035E-01   -7.015E-01
    -6.995E-01   -6.974E-01   -6.954E-01   -6.934E-01   -6.913E-01   -6.893E-01   -6.873E-01   -6.852E-01   -6.832E-01   -6.812E-01
    -6.791E-01   -6.771E-01   -6.751E-01   -6.730E-01   -6.710E-01   -6.690E-01   -6.670E-01   -6.649E-01   -6.629E-01   -6.609E-01
    -6.588E-01   -6.568E-01   -6.548E-01   -6.527E-01   -6.507E-01   -6.487E-01   -6.466E-01   -6.446E-01   -6.426E-01   -6.405E-01
    -6.385E-01   -6.365E-01   -6.344E-01   -6.324E-01   -6.304E-01   -6.284E-01   -6.263E-01   -6.243E-01   -6.223E-01   -6.202E-01
    -6.182E-01   -6.162E-01   -6.141E-01   -6.121E-01   -6.101E-01   -6.080E-01   -6.060E-01   -6.040E-01   -6.019E-01   -5.999E-01
    -5.979E-01   -5.958E-01   -5.938E-01   -5.918E-01   -5.898E-01   -5.877E-01   -5.857E-01   -5.837E-01   -5.816E-01   -5.796E-01
    -5.776E-01   -5.755E-01   -5.735E-01   -5.715E-01   -5.694E-01   -5.674E-01   -5.654E-01   -5.634E-01   -5.613E-01   -5.593E-01
    -5.573E-01   -5.552E-01   -5.532E-01   -5.512E-01   -5.491E-01   -5.471E-01   -5.451E-01   -5.431E-01   -5.410E-01   -5.390E-01
    -5.370E-01   -5.349E-01   -5.329E-01   -5.309E-01   -5.288E-01   -5.268E-01   -5.248E-01   -5.228E-01   -5.207E-01   -5.187E-01
    -5.167E-01   -5.146E-01   -5.126E-01   -5.106E-01   -5.085E-01   -5.065E-01   -5.045E-01   -5.025E-01   -5.004E-01   -4.984E-01
    -4.964E-01   -4.943E-01   -4.923E-01   -4.903E-01   -4.883E-01   -4.862E-01   -4.842E-01   -4.822E-01   -4.801E-01   -4.781E-01
    -4.761E-01   -4.741E-01   -4.720E-01   -4.700E-01   -4.680E-01   -4.659E-01   -4.639E-01   -4.619E-01   -4.599E-01   -4.578E-01
    -4.558E-01   -4.538E-01   -4.517E-01   -4.497E-01   -4.477E-01   -4.457E-01   -4.436E-01   -4.416E-01   -4.396E-01   -4.375E-01
    -4.355E-01   -4.335E-01   -4.315E-01   -4.294E-01   -4.274E-01   -4.254E-01   -4.234E-01   -4.213E-01   -4.193E-01   -4.173E-01
    -4.152E-01   -4.132E-01   -4.112E-01   -4.092E-01   -4.071E-01   -4.051E-01   -4.031E-01   -4.011E-01   -3.990E-01   -3.970E-01
    -3.950E-01   -3.930E-01   -3.909E-01   -3.889E-01   -3.869E-01   -3.849E-01   -3.828E-01   -3.808E-01   -3.788E-01   -3.767E-01
    -3.747E-01   -3.727E-01   -3.707E-01   -3.686E-01   -3.666E-01   -3.646E-01   -3.626E-01   -3.605E-01   -3.585E-01   -3.565E-01
    -3.545E-01   -3.524E-01   -3.504E-01   -3.484E-01   -3.464E-01   -3.443E-01   -3.423E-01   -3.403E-01   -3.383E-01   -3.362E-01
    -3.342E-01   -3.322E-01   -3.302E-01   -3.282E-01   -3.261E-01   -3.241E-01   -3.221E-01   -3.201E-01   -3.180E-01   -3.160E-01
    -3.140E-01   -3.120E-01   -3.099E-01   -3.079E-01   -3.059E-01   -3.039E-01   -3.018E-01   -2.998E-01   -2.978E-01   -2.958E-01
    -2.938E-01   -2.917E-01   -2.897E-01   -2.877E-01   -2.857E-01   -2.836E-01   -2.816E-01   -2.796E-01   -2.776E-01   -2.756E-01
    -2.735E-01   -2.715E-01   -2.695E-01   -2.675E-01   -2.654E-01   -2.634E-01   -2.614E-01   -2.594E-01   -2.574E-01   -2.553E-01
    -2.533E-01   -2.513E-01   -2.493E-01   -2.473E-01   -2.452E-01   -2.432E-01   -2.412E-01   -2.392E-01
 Ala      Conc. = 2.26E+01
