 LCModel (Version 6.3-1L) Copyright: S.W. Provencher.          Ref.: Magn. Reson. Med. 30:672-679 (1993).                
 Slice#3 Row#5 Col#11  PD_05_press_2_raw_act
 36 lines in following concentration table = NCONC+1
    Conc.  %SD /Cr+PCr  Metabolite                                         
   90.027 267% 9.5E-02 Ala                                                 
   10.520 999% 1.1E-02 Asp                                                 
    0.000 999%   0.000 Cr                                                  
  952.170   9%   1.000 PCr                                                 
  104.194 116%   0.109 GABA                                                
  133.522  89%   0.140 Glc                                                 
  899.115  54%   0.944 Gln                                                 
 1.65E+03  34%   1.732 Glu                                                 
  234.615  13%   0.246 GPC                                                 
    0.000 999%   0.000 PCh                                                 
  172.818  72%   0.181 GSH                                                 
  387.360  97%   0.407 Ins                                                 
 1.09E+03  44%   1.150 Lac                                                 
 2.17E+03   5%   2.277 NAA                                                 
    0.000 999%   0.000 NAAG                                                
   85.820  36% 9.0E-02 Scyllo                                              
  374.776  49%   0.394 Tau                                                 
  782.238  17%   0.822 -CrCH2                                              
  234.615  13%   0.246 GPC+PCh                                             
 2.17E+03   5%   2.277 NAA+NAAG                                            
  952.170   9%   1.000 Cr+PCr                                              
 2.55E+03  34%   2.676 Glu+Gln                                             
 1.05E+04  10%  11.011 Lip13a                                              
 1.34E+03  36%   1.409 Lip13b                                              
 2.58E+03  13%   2.713 Lip09                                               
    0.000 999%   0.000 MM09                                                
 1.95E+03  15%   2.046 Lip20                                               
  688.638  57%   0.723 MM20                                                
    0.000 999%   0.000 MM12                                                
 1.85E+03  27%   1.947 MM14                                                
   25.253 999% 2.7E-02 MM17                                                
 1.18E+04   8%  12.420 Lip13a+Lip13b                                       
 1.37E+04   5%  14.367 MM14+Lip13a+Lip13b+MM12                             
 2.58E+03  13%   2.713 MM09+Lip09                                          
 2.64E+03  16%   2.770 MM20+Lip20                                          
   6 lines in following misc. output table
  FWHM = 0.069 ppm    S/N =   6                                            
  Data shift = 0.008 ppm                                                   
  Ph: -84 deg     -31.8 deg/ppm                                            
  alphaB,S = 8.5E+01,   2.0E+02                                            
   14 spline knots.   Ns = 9(1)                                            
   2 inflections.     1 extrema                                            
  498 points on ppm-axis = NY
      4.000000     3.992357     3.984714     3.977070     3.969427     3.961784     3.954141     3.946497     3.938854     3.931211
      3.923568     3.915925     3.908281     3.900638     3.892995     3.885352     3.877708     3.870065     3.862422     3.854779
      3.847136     3.839492     3.831849     3.824206     3.816563     3.808919     3.801276     3.793633     3.785990     3.778347
      3.770703     3.763060     3.755417     3.747774     3.740130     3.732487     3.724844     3.717201     3.709558     3.701914
      3.694271     3.686628     3.678985     3.671341     3.663698     3.656055     3.648412     3.640769     3.633125     3.625482
      3.617839     3.610196     3.602552     3.594909     3.587266     3.579623     3.571980     3.564336     3.556693     3.549050
      3.541407     3.533763     3.526120     3.518477     3.510834     3.503191     3.495547     3.487904     3.480261     3.472618
      3.464974     3.457331     3.449688     3.442045     3.434402     3.426758     3.419115     3.411472     3.403829     3.396185
      3.388542     3.380899     3.373256     3.365613     3.357969     3.350326     3.342683     3.335040     3.327396     3.319753
      3.312110     3.304467     3.296824     3.289180     3.281537     3.273894     3.266251     3.258607     3.250964     3.243321
      3.235678     3.228034     3.220391     3.212748     3.205105     3.197462     3.189818     3.182175     3.174532     3.166889
      3.159245     3.151602     3.143959     3.136316     3.128673     3.121029     3.113386     3.105743     3.098100     3.090456
      3.082813     3.075170     3.067527     3.059884     3.052240     3.044597     3.036954     3.029311     3.021667     3.014024
      3.006381     2.998738     2.991095     2.983451     2.975808     2.968165     2.960522     2.952878     2.945235     2.937592
      2.929949     2.922306     2.914662     2.907019     2.899376     2.891733     2.884089     2.876446     2.868803     2.861160
      2.853517     2.845873     2.838230     2.830587     2.822944     2.815300     2.807657     2.800014     2.792371     2.784728
      2.777084     2.769441     2.761798     2.754155     2.746511     2.738868     2.731225     2.723582     2.715939     2.708295
      2.700652     2.693009     2.685366     2.677722     2.670079     2.662436     2.654793     2.647150     2.639506     2.631863
      2.624220     2.616577     2.608933     2.601290     2.593647     2.586004     2.578361     2.570717     2.563074     2.555431
      2.547788     2.540144     2.532501     2.524858     2.517215     2.509572     2.501928     2.494285     2.486642     2.478999
      2.471355     2.463712     2.456069     2.448426     2.440783     2.433139     2.425496     2.417853     2.410210     2.402566
      2.394923     2.387280     2.379637     2.371994     2.364350     2.356707     2.349064     2.341421     2.333777     2.326134
      2.318491     2.310848     2.303205     2.295561     2.287918     2.280275     2.272632     2.264988     2.257345     2.249702
      2.242059     2.234416     2.226772     2.219129     2.211486     2.203843     2.196199     2.188556     2.180913     2.173270
      2.165627     2.157983     2.150340     2.142697     2.135054     2.127410     2.119767     2.112124     2.104481     2.096838
      2.089194     2.081551     2.073908     2.066265     2.058621     2.050978     2.043335     2.035692     2.028049     2.020405
      2.012762     2.005119     1.997476     1.989833     1.982190     1.974546     1.966903     1.959260     1.951617     1.943974
      1.936331     1.928688     1.921045     1.913402     1.905759     1.898115     1.890472     1.882829     1.875186     1.867543
      1.859900     1.852257     1.844614     1.836971     1.829327     1.821684     1.814041     1.806398     1.798755     1.791112
      1.783469     1.775826     1.768183     1.760540     1.752896     1.745253     1.737610     1.729967     1.722324     1.714681
      1.707038     1.699395     1.691752     1.684108     1.676465     1.668822     1.661179     1.653536     1.645893     1.638250
      1.630607     1.622964     1.615321     1.607677     1.600034     1.592391     1.584748     1.577105     1.569462     1.561819
      1.554176     1.546533     1.538890     1.531246     1.523603     1.515960     1.508317     1.500674     1.493031     1.485388
      1.477745     1.470102     1.462458     1.454815     1.447172     1.439529     1.431886     1.424243     1.416600     1.408957
      1.401314     1.393671     1.386027     1.378384     1.370741     1.363098     1.355455     1.347812     1.340169     1.332526
      1.324883     1.317240     1.309596     1.301953     1.294310     1.286667     1.279024     1.271381     1.263738     1.256095
      1.248452     1.240808     1.233165     1.225522     1.217879     1.210236     1.202593     1.194950     1.187307     1.179664
      1.172021     1.164377     1.156734     1.149091     1.141448     1.133805     1.126162     1.118519     1.110876     1.103233
      1.095590     1.087946     1.080303     1.072660     1.065017     1.057374     1.049731     1.042088     1.034445     1.026802
      1.019158     1.011515     1.003872     0.996229     0.988586     0.980943     0.973300     0.965657     0.958014     0.950371
      0.942727     0.935084     0.927441     0.919798     0.912155     0.904512     0.896869     0.889226     0.881583     0.873940
      0.866296     0.858653     0.851010     0.843367     0.835724     0.828081     0.820438     0.812795     0.805152     0.797508
      0.789865     0.782222     0.774579     0.766936     0.759293     0.751650     0.744007     0.736364     0.728721     0.721077
      0.713434     0.705791     0.698148     0.690505     0.682862     0.675219     0.667576     0.659933     0.652290     0.644646
      0.637003     0.629360     0.621717     0.614074     0.606431     0.598788     0.591145     0.583502     0.575858     0.568215
      0.560572     0.552929     0.545286     0.537643     0.530000     0.522357     0.514714     0.507071     0.499427     0.491784
      0.484141     0.476498     0.468855     0.461212     0.453569     0.445925     0.438282     0.430639     0.422996     0.415353
      0.407710     0.400067     0.392424     0.384780     0.377137     0.369494     0.361851     0.354208     0.346565     0.338922
      0.331278     0.323635     0.315992     0.308349     0.300706     0.293063     0.285420     0.277777     0.270133     0.262490
      0.254847     0.247204     0.239561     0.231918     0.224275     0.216631     0.208988     0.201345
 NY phased data points follow
   9.90490E-01  5.79997E+00  4.85867E-01  1.81167E+00 -2.20544E+00  9.77801E-01  3.60912E+00  7.80488E+00  2.68487E+00  7.26643E+00
   2.88239E+00  6.27124E-01  9.14685E+00  7.78523E+00  2.47612E-01  3.87592E+00  2.35639E-01 -8.17205E+00 -4.38300E+00  1.98420E+00
   2.71704E+00 -7.48462E-01  2.69068E+00  6.60699E+00  9.10480E+00  3.90282E+00  1.62502E+00  2.42729E+00  8.22552E-01  5.26789E+00
   7.74744E+00  3.89294E+00  1.04970E+01  2.97834E+00  4.14767E+00  6.08737E+00  7.33525E+00  1.52718E+01  7.67908E-01  3.80840E+00
  -6.45694E+00  8.86159E+00  9.61456E+00  1.26627E+01 -3.00256E-01  1.44729E-01  1.41701E+01  1.02042E+01  2.91509E+00  8.48545E+00
  -5.24979E-02  4.70543E+00  7.22574E+00  6.27078E+00  1.19907E+01  7.41132E+00  3.43623E+00  5.15459E-01  3.82850E+00  4.93010E+00
   6.87588E+00  6.16075E+00  6.21793E+00  2.95002E+00 -2.73466E+00  4.05753E+00 -4.79475E-01  1.12037E+01  7.28162E+00  6.68352E+00
  -2.25665E+00  8.57895E+00 -1.85887E+00  4.68150E+00  6.54332E+00  7.82895E+00  7.20641E+00  6.12728E+00  4.88306E+00  6.32340E+00
  -1.10835E+00  1.30902E+01  1.37147E+01  3.31848E+00  9.90726E+00  7.49123E+00  1.25485E+01  6.53521E+00  6.78049E+00  6.60668E+00
   7.54171E+00  1.08770E+01  4.41310E+00  1.20041E+01  6.19855E+00  8.36877E+00  1.00627E+01  1.45345E+01  1.62956E+01  1.50565E+01
   2.26853E+01  1.90892E+01  1.95164E+01  1.92615E+01  1.72947E+01  2.55106E+01  1.82780E+01  1.75524E+01  6.81257E+00  1.31773E+01
   5.18994E+00  4.07412E+00  8.18230E+00  7.44737E+00  2.85023E+00  2.72865E+00  5.89614E+00  9.66503E+00  6.78682E+00  1.40331E+01
   1.15217E+01  1.48976E+01  1.34869E+01  9.31050E+00  1.74167E+01  2.65742E+01  3.28152E+01  4.06378E+01  2.66029E+01  2.87057E+01
   1.99878E+01  2.25678E+01  1.40809E+01  2.11178E+01  1.38453E+01  7.99470E+00  6.66675E+00  1.00689E+01  4.28727E+00  2.83428E+00
   4.29867E+00  1.11286E+01  1.18633E+01  1.36325E+01  1.04303E+01  9.44993E+00  1.10739E+01  1.68498E+00  5.29546E+00  6.97744E+00
   9.50601E+00  4.33685E+00  3.23502E+00  9.01044E+00  9.57070E+00  1.51648E+01  1.49285E+00  5.65117E+00  1.18207E+01  9.53582E+00
   6.25346E+00  1.40697E+01  5.65674E+00  6.13193E+00  1.05119E+01  2.60410E+00  7.27943E+00  3.29227E+00  3.54279E+00  2.98021E+00
  -6.75921E+00 -2.89451E+00 -6.76798E+00  7.42488E+00  5.38792E+00  5.67674E+00 -8.86342E+00 -4.50026E+00 -6.38617E+00 -5.42024E+00
  -6.49109E+00  2.22816E+00 -2.39729E+00  3.03099E+00  6.20252E+00 -1.85721E+00  6.70275E+00 -5.76863E+00 -5.62258E+00 -2.89047E+00
   1.03109E+01  1.88294E+00  7.90299E+00  1.11221E+01  8.94823E+00  1.33457E+01  6.39393E+00  2.74722E+00  6.83755E+00 -4.04745E+00
   1.68214E+00  2.92971E+00  1.08178E+01 -2.60111E+00  6.57750E+00  1.00055E+01  8.99804E+00  9.55804E+00  6.02753E+00  1.43372E+00
   2.05494E+00  6.36726E+00  1.61039E+01  6.88371E+00  1.65974E+01  1.83379E+01  1.12099E+01  1.55541E+01  2.06271E+01  1.24151E+01
   7.83683E+00  1.03003E+01  6.95067E+00  1.02617E+01  7.48179E+00  2.77019E+00  1.08662E+01  1.70891E+01  1.93256E+01  1.25969E+01
   9.53131E+00  1.58597E+01  1.33530E+01  7.66335E+00  2.05529E+01  1.35330E+01  1.30785E+01  8.43801E+00  2.48125E+01  1.18285E+01
   2.00396E+01  1.59908E+01  1.02290E+01  1.15200E+01  7.31217E+00  1.73764E+01  1.26137E+01  1.08310E+01  1.59006E+01  1.09412E+01
   1.58588E+01  1.52316E+01  8.51388E+00  2.07206E+01  2.32354E+01  3.80415E+01  3.33263E+01  3.51227E+01  4.81153E+01  5.07789E+01
   6.78526E+01  7.34080E+01  7.29292E+01  7.74747E+01  6.43364E+01  4.85432E+01  4.91105E+01  3.79832E+01  3.27309E+01  2.51284E+01
   2.29962E+01  1.98155E+01  2.47417E+01  1.73915E+01  1.46018E+01  8.89674E+00  1.75811E+01  1.32668E+01  2.00434E+01  1.18938E+01
   1.41434E+01  1.79555E+01  1.36492E+01  1.31160E+01  4.57639E+00  1.15395E+01  1.26487E+01  8.94005E+00  8.87774E+00  1.16034E+01
   1.05126E+01  1.41435E+01  1.69682E+01  8.85411E+00  2.27814E+01  5.89673E+00  1.92554E+01  8.99263E+00  2.85041E+00  8.17008E+00
   6.06812E+00  1.54598E+01  1.11060E+01  1.95909E+01  1.08625E+01  1.48237E+01  9.13757E+00  4.55134E+00  1.43916E+01  1.20638E+01
   1.36580E+01  1.23385E+01  1.35587E+01  1.83675E+01  1.50615E+01  1.25644E+01  1.95698E+01  1.22491E+01  2.10858E+01  1.84568E+01
   2.21816E+01  1.77661E+01  2.41444E+01  2.14822E+01  2.47260E+01  2.28837E+01  2.40556E+01  2.93634E+01  3.25927E+01  3.01445E+01
   3.73443E+01  3.57287E+01  3.23111E+01  3.73768E+01  3.50924E+01  3.74419E+01  4.57217E+01  4.39240E+01  4.03176E+01  5.03342E+01
   5.00860E+01  4.52464E+01  5.69766E+01  6.26000E+01  5.75777E+01  5.92274E+01  6.36472E+01  6.97281E+01  7.06027E+01  6.46953E+01
   6.12146E+01  5.90858E+01  6.77008E+01  5.32109E+01  6.04416E+01  5.77091E+01  6.26077E+01  5.69658E+01  5.70639E+01  4.56329E+01
   4.99571E+01  5.07694E+01  4.38863E+01  4.48978E+01  4.41623E+01  3.97049E+01  3.80173E+01  3.43944E+01  3.89894E+01  3.02432E+01
   2.68055E+01  3.00949E+01  3.30308E+01  2.99017E+01  2.41954E+01  3.14215E+01  3.33312E+01  2.89918E+01  2.92000E+01  2.44318E+01
   2.69789E+01  2.31977E+01  2.29598E+01  2.65315E+01  2.64076E+01  1.20774E+01  2.92222E+01  1.88709E+01  2.38178E+01  2.37864E+01
   2.68259E+01  1.26171E+01  1.70057E+01  2.16982E+01  2.34890E+01  1.60808E+01  2.07291E+01  2.35741E+01  1.86611E+01  1.71222E+01
   1.94739E+01  1.98002E+01  1.77411E+01  2.02802E+01  2.34731E+01  1.67467E+01  2.37308E+01  2.33275E+01  2.00793E+01  2.06470E+01
   2.58117E+01  2.00578E+01  1.86638E+01  1.94137E+01  2.31787E+01  1.33166E+01  1.33868E+01  1.90323E+01  2.41024E+01  2.11989E+01
   2.10055E+01  2.00036E+01  1.82298E+01  2.65364E+01  1.95356E+01  1.45609E+01  1.91185E+01  2.58941E+01  1.89495E+01  1.50966E+01
   1.80808E+01  2.04137E+01  6.51634E+00  1.97114E+01  1.04746E+01  1.76185E+01  9.94044E+00  1.48273E+01  1.78587E+01  1.42391E+01
   1.72048E+01  1.92195E+01  1.28387E+01  1.70529E+01  1.98326E+01  8.03516E+00  2.00931E+01  1.06084E+01  1.31550E+01  9.41094E+00
   1.48269E+01  1.67411E+01  1.63070E+01  1.26547E+01  1.17653E+01  1.37620E+01  1.85713E+01  9.60271E+00  1.58513E+01  1.98365E+01
   1.28889E+01  8.90031E+00  1.79915E+01  2.04454E+01  1.38865E+01  1.13276E+01  1.52729E+01  9.41379E+00  6.97067E+00  7.42302E+00
   1.60451E+00  9.23284E+00  1.51076E+01  1.47919E+01  8.50907E+00  5.80883E+00  1.02537E+01  2.15371E+01  1.00796E+01  1.51487E+01
   5.19092E+00  9.46958E+00  1.63248E+01  1.11002E+01  7.45729E+00  1.41521E+01  6.53190E+00  1.18044E+01  1.16064E+01  2.43697E+00
   6.64940E+00  7.38212E+00  8.57324E+00  1.50767E+01  7.01169E+00  3.60803E+00  6.88187E+00  1.37648E+01
 NY points of the fit to the data follow
   2.55496E+00  2.59983E+00  2.79803E+00  3.16707E+00  3.72652E+00  4.47747E+00  5.32459E+00  6.06573E+00  6.45446E+00  6.35929E+00
   5.87623E+00  5.21468E+00  4.58090E+00  4.10437E+00  3.78292E+00  3.55002E+00  3.36769E+00  3.26154E+00  3.29419E+00  3.52244E+00
   3.75474E+00  3.85762E+00  3.97584E+00  4.14806E+00  4.33878E+00  4.48996E+00  4.60016E+00  4.74008E+00  5.04277E+00  5.61733E+00
   6.46862E+00  7.44921E+00  8.28744E+00  8.70171E+00  8.54533E+00  7.86112E+00  6.86972E+00  5.83006E+00  4.95535E+00  4.34300E+00
   4.04895E+00  4.05843E+00  4.26743E+00  4.62316E+00  5.08358E+00  5.59340E+00  6.06935E+00  6.39568E+00  6.49360E+00  6.33236E+00
   5.96883E+00  5.50955E+00  5.04280E+00  4.63226E+00  4.29514E+00  4.01780E+00  3.81129E+00  3.69667E+00  3.68887E+00  3.77692E+00
   3.91553E+00  4.03612E+00  4.09821E+00  4.10838E+00  4.09465E+00  4.08435E+00  4.10253E+00  4.16090E+00  4.24326E+00  4.32864E+00
   4.42272E+00  4.54223E+00  4.70178E+00  4.90518E+00  5.12027E+00  5.28417E+00  5.34290E+00  5.31736E+00  5.26635E+00  5.23130E+00
   5.26726E+00  5.40250E+00  5.67042E+00  6.09752E+00  6.63146E+00  7.15032E+00  7.53193E+00  7.66652E+00  7.49729E+00  7.08674E+00
   6.56186E+00  6.02579E+00  5.57347E+00  5.41673E+00  5.73431E+00  6.51340E+00  7.69838E+00  9.28642E+00  1.12708E+01  1.36653E+01
   1.64022E+01  1.91405E+01  2.13124E+01  2.23789E+01  2.20949E+01  2.06006E+01  1.83351E+01  1.58028E+01  1.33349E+01  1.10529E+01
   8.96539E+00  7.09154E+00  5.62173E+00  4.84782E+00  4.61316E+00  4.53407E+00  4.57523E+00  4.94892E+00  5.90565E+00  7.39858E+00
   9.23163E+00  1.13032E+01  1.37386E+01  1.67918E+01  2.05096E+01  2.44768E+01  2.78669E+01  2.98161E+01  2.98742E+01  2.81650E+01
   2.52615E+01  2.18740E+01  1.84980E+01  1.53026E+01  1.22853E+01  9.51594E+00  7.27665E+00  6.01503E+00  5.67349E+00  5.67950E+00
   5.83649E+00  6.06682E+00  6.31145E+00  6.53267E+00  6.72155E+00  6.87695E+00  6.98776E+00  7.05673E+00  7.09119E+00  7.09853E+00
   7.09691E+00  7.10084E+00  7.10246E+00  7.08671E+00  7.04554E+00  6.99045E+00  6.94221E+00  6.89987E+00  6.82039E+00  6.66460E+00
   6.43920E+00  6.20169E+00  6.02871E+00  5.95670E+00  5.95263E+00  5.93122E+00  5.80447E+00  5.53087E+00  5.12567E+00  4.66370E+00
   4.22528E+00  3.83147E+00  3.42821E+00  2.96532E+00  2.48850E+00  2.08312E+00  1.83850E+00  1.76672E+00  1.78604E+00  1.82535E+00
   1.86132E+00  1.90927E+00  2.00483E+00  2.17307E+00  2.40859E+00  2.68890E+00  3.00924E+00  3.38721E+00  3.86575E+00  4.48709E+00
   5.17408E+00  5.78467E+00  6.21095E+00  6.44516E+00  6.58005E+00  6.70319E+00  6.87786E+00  7.12945E+00  7.45126E+00  7.85473E+00
   8.36750E+00  8.90252E+00  9.37433E+00  9.70290E+00  9.75972E+00  9.41234E+00  8.62930E+00  7.53262E+00  6.35541E+00  5.34063E+00
   4.72973E+00  4.72035E+00  5.38773E+00  6.61024E+00  8.09306E+00  9.52015E+00  1.06001E+01  1.10660E+01  1.07825E+01  9.80356E+00
   8.36242E+00  6.82350E+00  5.70195E+00  5.30573E+00  5.65459E+00  6.63728E+00  8.05903E+00  9.64744E+00  1.10496E+01  1.21058E+01
   1.28531E+01  1.33422E+01  1.35803E+01  1.35528E+01  1.33495E+01  1.31853E+01  1.31979E+01  1.33740E+01  1.36534E+01  1.39176E+01
   1.40337E+01  1.39276E+01  1.36303E+01  1.32843E+01  1.30654E+01  1.30549E+01  1.32245E+01  1.34995E+01  1.38779E+01  1.43588E+01
   1.49881E+01  1.60845E+01  1.83498E+01  2.18644E+01  2.61345E+01  3.07824E+01  3.58464E+01  4.18611E+01  4.92980E+01  5.77833E+01
   6.58244E+01  7.13708E+01  7.29020E+01  7.01303E+01  6.39778E+01  5.60392E+01  4.77470E+01  3.98189E+01  3.24004E+01  2.55243E+01
   1.95862E+01  1.54466E+01  1.36624E+01  1.30000E+01  1.26654E+01  1.24769E+01  1.23344E+01  1.21792E+01  1.20081E+01  1.18181E+01
   1.16132E+01  1.14033E+01  1.12016E+01  1.10192E+01  1.08740E+01  1.07771E+01  1.07225E+01  1.07010E+01  1.07050E+01  1.07260E+01
   1.07580E+01  1.07959E+01  1.08361E+01  1.08807E+01  1.09319E+01  1.09913E+01  1.10622E+01  1.11469E+01  1.12456E+01  1.13572E+01
   1.14822E+01  1.16217E+01  1.17760E+01  1.19453E+01  1.21308E+01  1.23330E+01  1.25537E+01  1.27954E+01  1.30613E+01  1.33547E+01
   1.36795E+01  1.40396E+01  1.44398E+01  1.48849E+01  1.53807E+01  1.59329E+01  1.65479E+01  1.72339E+01  1.80024E+01  1.88538E+01
   1.97762E+01  2.07603E+01  2.18052E+01  2.29135E+01  2.40795E+01  2.52778E+01  2.64790E+01  2.76668E+01  2.88384E+01  3.00086E+01
   3.12045E+01  3.24600E+01  3.38089E+01  3.52711E+01  3.68478E+01  3.85243E+01  4.02853E+01  4.21456E+01  4.41876E+01  4.64300E+01
   4.87461E+01  5.10608E+01  5.34026E+01  5.58671E+01  5.84768E+01  6.10216E+01  6.31932E+01  6.46938E+01  6.52646E+01  6.48678E+01
   6.37051E+01  6.21675E+01  6.07207E+01  5.96860E+01  5.91145E+01  5.88092E+01  5.84655E+01  5.78565E+01  5.68884E+01  5.54029E+01
   5.33179E+01  5.09266E+01  4.84296E+01  4.58669E+01  4.32316E+01  4.06103E+01  3.83151E+01  3.64666E+01  3.48789E+01  3.34518E+01
   3.21424E+01  3.09292E+01  2.98018E+01  2.87545E+01  2.77844E+01  2.68896E+01  2.60686E+01  2.53197E+01  2.46413E+01  2.40315E+01
   2.34881E+01  2.30085E+01  2.25903E+01  2.22306E+01  2.19269E+01  2.16763E+01  2.14760E+01  2.13229E+01  2.12142E+01  2.11468E+01
   2.11178E+01  2.11237E+01  2.11613E+01  2.12269E+01  2.13169E+01  2.14272E+01  2.15540E+01  2.16927E+01  2.18390E+01  2.19882E+01
   2.21357E+01  2.22768E+01  2.24070E+01  2.25219E+01  2.26173E+01  2.26893E+01  2.27347E+01  2.27504E+01  2.27344E+01  2.26848E+01
   2.26007E+01  2.24817E+01  2.23284E+01  2.21417E+01  2.19233E+01  2.16755E+01  2.14008E+01  2.11022E+01  2.07833E+01  2.04474E+01
   2.00981E+01  1.97390E+01  1.93735E+01  1.90050E+01  1.86365E+01  1.82709E+01  1.79107E+01  1.75579E+01  1.72144E+01  1.68817E+01
   1.65612E+01  1.62535E+01  1.59594E+01  1.56791E+01  1.54129E+01  1.51607E+01  1.49225E+01  1.46978E+01  1.44862E+01  1.42873E+01
   1.41006E+01  1.39254E+01  1.37614E+01  1.36077E+01  1.34639E+01  1.33293E+01  1.32035E+01  1.30858E+01  1.29758E+01  1.28729E+01
   1.27767E+01  1.26868E+01  1.26028E+01  1.25242E+01  1.24508E+01  1.23821E+01  1.23179E+01  1.22579E+01  1.22019E+01  1.21495E+01
   1.21006E+01  1.20549E+01  1.20122E+01  1.19724E+01  1.19353E+01  1.19007E+01  1.18685E+01  1.18385E+01  1.18106E+01  1.17847E+01
   1.17608E+01  1.17386E+01  1.17181E+01  1.16991E+01  1.16817E+01  1.16658E+01  1.16512E+01  1.16379E+01  1.16258E+01  1.16149E+01
   1.16051E+01  1.15963E+01  1.15887E+01  1.15819E+01  1.15760E+01  1.15711E+01  1.15670E+01  1.15637E+01  1.15612E+01  1.15594E+01
   1.15583E+01  1.15579E+01  1.15583E+01  1.15592E+01  1.15608E+01  1.15629E+01  1.15656E+01  1.15689E+01
 NY background values follow
     1.348E-01    1.558E-01    1.767E-01    1.977E-01    2.186E-01    2.396E-01    2.605E-01    2.815E-01    3.024E-01    3.234E-01
     3.443E-01    3.653E-01    3.863E-01    4.072E-01    4.282E-01    4.491E-01    4.701E-01    4.910E-01    5.120E-01    5.329E-01
     5.539E-01    5.749E-01    5.958E-01    6.168E-01    6.377E-01    6.587E-01    6.796E-01    7.006E-01    7.215E-01    7.425E-01
     7.634E-01    7.844E-01    8.054E-01    8.263E-01    8.473E-01    8.682E-01    8.892E-01    9.101E-01    9.311E-01    9.520E-01
     9.730E-01    9.939E-01    1.015E+00    1.036E+00    1.057E+00    1.078E+00    1.099E+00    1.120E+00    1.141E+00    1.162E+00
     1.183E+00    1.203E+00    1.224E+00    1.245E+00    1.266E+00    1.287E+00    1.308E+00    1.329E+00    1.350E+00    1.371E+00
     1.392E+00    1.413E+00    1.434E+00    1.455E+00    1.476E+00    1.497E+00    1.518E+00    1.539E+00    1.560E+00    1.581E+00
     1.602E+00    1.623E+00    1.644E+00    1.664E+00    1.685E+00    1.706E+00    1.727E+00    1.748E+00    1.769E+00    1.790E+00
     1.811E+00    1.832E+00    1.853E+00    1.874E+00    1.895E+00    1.916E+00    1.937E+00    1.958E+00    1.979E+00    2.000E+00
     2.021E+00    2.042E+00    2.063E+00    2.084E+00    2.105E+00    2.125E+00    2.146E+00    2.167E+00    2.188E+00    2.209E+00
     2.230E+00    2.251E+00    2.272E+00    2.293E+00    2.314E+00    2.335E+00    2.356E+00    2.377E+00    2.398E+00    2.419E+00
     2.440E+00    2.461E+00    2.482E+00    2.503E+00    2.524E+00    2.545E+00    2.565E+00    2.586E+00    2.607E+00    2.628E+00
     2.649E+00    2.670E+00    2.691E+00    2.712E+00    2.733E+00    2.754E+00    2.775E+00    2.796E+00    2.817E+00    2.838E+00
     2.859E+00    2.880E+00    2.901E+00    2.922E+00    2.943E+00    2.964E+00    2.984E+00    3.005E+00    3.026E+00    3.047E+00
     3.068E+00    3.089E+00    3.110E+00    3.131E+00    3.152E+00    3.173E+00    3.194E+00    3.215E+00    3.236E+00    3.257E+00
     3.278E+00    3.299E+00    3.320E+00    3.341E+00    3.362E+00    3.383E+00    3.403E+00    3.424E+00    3.445E+00    3.466E+00
     3.487E+00    3.508E+00    3.529E+00    3.550E+00    3.571E+00    3.592E+00    3.613E+00    3.634E+00    3.655E+00    3.676E+00
     3.697E+00    3.718E+00    3.739E+00    3.760E+00    3.781E+00    3.802E+00    3.822E+00    3.843E+00    3.864E+00    3.885E+00
     3.906E+00    3.927E+00    3.948E+00    3.969E+00    3.990E+00    4.011E+00    4.032E+00    4.053E+00    4.074E+00    4.095E+00
     4.116E+00    4.137E+00    4.158E+00    4.179E+00    4.200E+00    4.221E+00    4.241E+00    4.262E+00    4.283E+00    4.304E+00
     4.325E+00    4.346E+00    4.367E+00    4.388E+00    4.409E+00    4.430E+00    4.451E+00    4.472E+00    4.493E+00    4.514E+00
     4.535E+00    4.556E+00    4.577E+00    4.598E+00    4.619E+00    4.639E+00    4.660E+00    4.681E+00    4.702E+00    4.723E+00
     4.744E+00    4.765E+00    4.786E+00    4.807E+00    4.828E+00    4.849E+00    4.870E+00    4.891E+00    4.912E+00    4.933E+00
     4.954E+00    4.975E+00    4.996E+00    5.017E+00    5.037E+00    5.058E+00    5.079E+00    5.100E+00    5.121E+00    5.142E+00
     5.163E+00    5.184E+00    5.205E+00    5.226E+00    5.247E+00    5.268E+00    5.289E+00    5.310E+00    5.331E+00    5.352E+00
     5.373E+00    5.394E+00    5.414E+00    5.435E+00    5.456E+00    5.477E+00    5.498E+00    5.519E+00    5.540E+00    5.561E+00
     5.582E+00    5.603E+00    5.624E+00    5.645E+00    5.666E+00    5.687E+00    5.708E+00    5.729E+00    5.750E+00    5.771E+00
     5.791E+00    5.812E+00    5.833E+00    5.854E+00    5.875E+00    5.896E+00    5.917E+00    5.938E+00    5.959E+00    5.980E+00
     6.001E+00    6.022E+00    6.043E+00    6.064E+00    6.085E+00    6.106E+00    6.127E+00    6.148E+00    6.168E+00    6.189E+00
     6.210E+00    6.231E+00    6.252E+00    6.273E+00    6.294E+00    6.315E+00    6.336E+00    6.357E+00    6.378E+00    6.399E+00
     6.420E+00    6.441E+00    6.462E+00    6.483E+00    6.504E+00    6.524E+00    6.545E+00    6.566E+00    6.587E+00    6.608E+00
     6.629E+00    6.650E+00    6.671E+00    6.692E+00    6.713E+00    6.734E+00    6.755E+00    6.776E+00    6.797E+00    6.818E+00
     6.839E+00    6.860E+00    6.880E+00    6.901E+00    6.922E+00    6.943E+00    6.964E+00    6.985E+00    7.006E+00    7.027E+00
     7.048E+00    7.069E+00    7.090E+00    7.111E+00    7.132E+00    7.153E+00    7.174E+00    7.195E+00    7.215E+00    7.236E+00
     7.257E+00    7.278E+00    7.299E+00    7.320E+00    7.341E+00    7.362E+00    7.383E+00    7.404E+00    7.425E+00    7.446E+00
     7.467E+00    7.488E+00    7.509E+00    7.530E+00    7.551E+00    7.571E+00    7.592E+00    7.613E+00    7.634E+00    7.655E+00
     7.676E+00    7.697E+00    7.718E+00    7.739E+00    7.760E+00    7.781E+00    7.802E+00    7.823E+00    7.844E+00    7.865E+00
     7.886E+00    7.906E+00    7.927E+00    7.948E+00    7.969E+00    7.990E+00    8.011E+00    8.032E+00    8.053E+00    8.074E+00
     8.095E+00    8.116E+00    8.137E+00    8.158E+00    8.179E+00    8.200E+00    8.221E+00    8.241E+00    8.262E+00    8.283E+00
     8.304E+00    8.325E+00    8.346E+00    8.367E+00    8.388E+00    8.409E+00    8.430E+00    8.451E+00    8.472E+00    8.493E+00
     8.514E+00    8.535E+00    8.555E+00    8.576E+00    8.597E+00    8.618E+00    8.639E+00    8.660E+00    8.681E+00    8.702E+00
     8.723E+00    8.744E+00    8.765E+00    8.786E+00    8.807E+00    8.828E+00    8.849E+00    8.870E+00    8.890E+00    8.911E+00
     8.932E+00    8.953E+00    8.974E+00    8.995E+00    9.016E+00    9.037E+00    9.058E+00    9.079E+00    9.100E+00    9.121E+00
     9.142E+00    9.163E+00    9.184E+00    9.205E+00    9.225E+00    9.246E+00    9.267E+00    9.288E+00    9.309E+00    9.330E+00
     9.351E+00    9.372E+00    9.393E+00    9.414E+00    9.435E+00    9.456E+00    9.477E+00    9.498E+00    9.519E+00    9.539E+00
     9.560E+00    9.581E+00    9.602E+00    9.623E+00    9.644E+00    9.665E+00    9.686E+00    9.707E+00    9.728E+00    9.749E+00
     9.770E+00    9.791E+00    9.812E+00    9.833E+00    9.854E+00    9.874E+00    9.895E+00    9.916E+00    9.937E+00    9.958E+00
     9.979E+00    1.000E+01    1.002E+01    1.004E+01    1.006E+01    1.008E+01    1.010E+01    1.013E+01    1.015E+01    1.017E+01
     1.019E+01    1.021E+01    1.023E+01    1.025E+01    1.027E+01    1.029E+01    1.031E+01    1.034E+01    1.036E+01    1.038E+01
     1.040E+01    1.042E+01    1.044E+01    1.046E+01    1.048E+01    1.050E+01    1.052E+01    1.054E+01
 Ala      Conc. = 9.00E+01
