 LCModel (Version 6.3-1L) Copyright: S.W. Provencher.          Ref.: Magn. Reson. Med. 30:672-679 (1993).                
 Slice#1 Row#12 Col#3  PD_05_press_2_raw_act
 36 lines in following concentration table = NCONC+1
    Conc.  %SD /Cr+PCr  Metabolite                                         
   13.621 220%   0.527 Ala                                                 
    3.769  89%   0.146 Asp                                                 
   25.845  82%   1.000 Cr                                                  
    0.000 999%   0.000 PCr                                                 
    2.263  88% 8.8E-02 GABA                                                
    2.293  87% 8.9E-02 Glc                                                 
    0.000 999%   0.000 Gln                                                 
    0.000 999%   0.000 Glu                                                 
    3.499 484%   0.135 GPC                                                 
    0.000 999%   0.000 PCh                                                 
    0.000 999%   0.000 GSH                                                 
    0.000 999%   0.000 Ins                                                 
   19.041 177%   0.737 Lac                                                 
    0.000 999%   0.000 NAA                                                 
   39.984  76%   1.547 NAAG                                                
    0.734  91% 2.8E-02 Scyllo                                              
    3.787  88%   0.147 Tau                                                 
    2.791 111%   0.108 -CrCH2                                              
    3.499 130%   0.135 GPC+PCh                                             
   39.984  76%   1.547 NAA+NAAG                                            
   25.845  82%   1.000 Cr+PCr                                              
    0.000 999%   0.000 Glu+Gln                                             
 2.46E+03  16%  95.211 Lip13a                                              
    0.000 999%   0.000 Lip13b                                              
  550.701  29%  21.308 Lip09                                               
  293.454  44%  11.354 MM09                                                
  340.645  33%  13.180 Lip20                                               
    0.000 999%   0.000 MM20                                                
  102.254  79%   3.956 MM12                                                
 1.84E+03  10%  71.213+MM14                                                
  524.502  33%  20.294 MM17                                                
 2.46E+03  16%  95.211 Lip13a+Lip13b                                       
 4.40E+03   9% 170.381 MM14+Lip13a+Lip13b+MM12                             
  844.155  15%  32.662 MM09+Lip09                                          
  340.645  33%  13.180 MM20+Lip20                                          
   6 lines in following misc. output table
  FWHM = 0.061 ppm    S/N =   5                                            
  Data shift = 0.115 ppm                                                   
  Ph: 176 deg      -3.8 deg/ppm                                            
  alphaB,S = 8.5E+01,   4.3E+00                                            
    8 spline knots.   Ns = 9(2)                                            
   2 inflections.     5 extrema                                            
  498 points on ppm-axis = NY
      4.000000     3.992357     3.984714     3.977070     3.969427     3.961784     3.954141     3.946497     3.938854     3.931211
      3.923568     3.915925     3.908281     3.900638     3.892995     3.885352     3.877708     3.870065     3.862422     3.854779
      3.847136     3.839492     3.831849     3.824206     3.816563     3.808919     3.801276     3.793633     3.785990     3.778347
      3.770703     3.763060     3.755417     3.747774     3.740130     3.732487     3.724844     3.717201     3.709558     3.701914
      3.694271     3.686628     3.678985     3.671341     3.663698     3.656055     3.648412     3.640769     3.633125     3.625482
      3.617839     3.610196     3.602552     3.594909     3.587266     3.579623     3.571980     3.564336     3.556693     3.549050
      3.541407     3.533763     3.526120     3.518477     3.510834     3.503191     3.495547     3.487904     3.480261     3.472618
      3.464974     3.457331     3.449688     3.442045     3.434402     3.426758     3.419115     3.411472     3.403829     3.396185
      3.388542     3.380899     3.373256     3.365613     3.357969     3.350326     3.342683     3.335040     3.327396     3.319753
      3.312110     3.304467     3.296824     3.289180     3.281537     3.273894     3.266251     3.258607     3.250964     3.243321
      3.235678     3.228034     3.220391     3.212748     3.205105     3.197462     3.189818     3.182175     3.174532     3.166889
      3.159245     3.151602     3.143959     3.136316     3.128673     3.121029     3.113386     3.105743     3.098100     3.090456
      3.082813     3.075170     3.067527     3.059884     3.052240     3.044597     3.036954     3.029311     3.021667     3.014024
      3.006381     2.998738     2.991095     2.983451     2.975808     2.968165     2.960522     2.952878     2.945235     2.937592
      2.929949     2.922306     2.914662     2.907019     2.899376     2.891733     2.884089     2.876446     2.868803     2.861160
      2.853517     2.845873     2.838230     2.830587     2.822944     2.815300     2.807657     2.800014     2.792371     2.784728
      2.777084     2.769441     2.761798     2.754155     2.746511     2.738868     2.731225     2.723582     2.715939     2.708295
      2.700652     2.693009     2.685366     2.677722     2.670079     2.662436     2.654793     2.647150     2.639506     2.631863
      2.624220     2.616577     2.608933     2.601290     2.593647     2.586004     2.578361     2.570717     2.563074     2.555431
      2.547788     2.540144     2.532501     2.524858     2.517215     2.509572     2.501928     2.494285     2.486642     2.478999
      2.471355     2.463712     2.456069     2.448426     2.440783     2.433139     2.425496     2.417853     2.410210     2.402566
      2.394923     2.387280     2.379637     2.371994     2.364350     2.356707     2.349064     2.341421     2.333777     2.326134
      2.318491     2.310848     2.303205     2.295561     2.287918     2.280275     2.272632     2.264988     2.257345     2.249702
      2.242059     2.234416     2.226772     2.219129     2.211486     2.203843     2.196199     2.188556     2.180913     2.173270
      2.165627     2.157983     2.150340     2.142697     2.135054     2.127410     2.119767     2.112124     2.104481     2.096838
      2.089194     2.081551     2.073908     2.066265     2.058621     2.050978     2.043335     2.035692     2.028049     2.020405
      2.012762     2.005119     1.997476     1.989833     1.982190     1.974546     1.966903     1.959260     1.951617     1.943974
      1.936331     1.928688     1.921045     1.913402     1.905759     1.898115     1.890472     1.882829     1.875186     1.867543
      1.859900     1.852257     1.844614     1.836971     1.829327     1.821684     1.814041     1.806398     1.798755     1.791112
      1.783469     1.775826     1.768183     1.760540     1.752896     1.745253     1.737610     1.729967     1.722324     1.714681
      1.707038     1.699395     1.691752     1.684108     1.676465     1.668822     1.661179     1.653536     1.645893     1.638250
      1.630607     1.622964     1.615321     1.607677     1.600034     1.592391     1.584748     1.577105     1.569462     1.561819
      1.554176     1.546533     1.538890     1.531246     1.523603     1.515960     1.508317     1.500674     1.493031     1.485388
      1.477745     1.470102     1.462458     1.454815     1.447172     1.439529     1.431886     1.424243     1.416600     1.408957
      1.401314     1.393671     1.386027     1.378384     1.370741     1.363098     1.355455     1.347812     1.340169     1.332526
      1.324883     1.317240     1.309596     1.301953     1.294310     1.286667     1.279024     1.271381     1.263738     1.256095
      1.248452     1.240808     1.233165     1.225522     1.217879     1.210236     1.202593     1.194950     1.187307     1.179664
      1.172021     1.164377     1.156734     1.149091     1.141448     1.133805     1.126162     1.118519     1.110876     1.103233
      1.095590     1.087946     1.080303     1.072660     1.065017     1.057374     1.049731     1.042088     1.034445     1.026802
      1.019158     1.011515     1.003872     0.996229     0.988586     0.980943     0.973300     0.965657     0.958014     0.950371
      0.942727     0.935084     0.927441     0.919798     0.912155     0.904512     0.896869     0.889226     0.881583     0.873940
      0.866296     0.858653     0.851010     0.843367     0.835724     0.828081     0.820438     0.812795     0.805152     0.797508
      0.789865     0.782222     0.774579     0.766936     0.759293     0.751650     0.744007     0.736364     0.728721     0.721077
      0.713434     0.705791     0.698148     0.690505     0.682862     0.675219     0.667576     0.659933     0.652290     0.644646
      0.637003     0.629360     0.621717     0.614074     0.606431     0.598788     0.591145     0.583502     0.575858     0.568215
      0.560572     0.552929     0.545286     0.537643     0.530000     0.522357     0.514714     0.507071     0.499427     0.491784
      0.484141     0.476498     0.468855     0.461212     0.453569     0.445925     0.438282     0.430639     0.422996     0.415353
      0.407710     0.400067     0.392424     0.384780     0.377137     0.369494     0.361851     0.354208     0.346565     0.338922
      0.331278     0.323635     0.315992     0.308349     0.300706     0.293063     0.285420     0.277777     0.270133     0.262490
      0.254847     0.247204     0.239561     0.231918     0.224275     0.216631     0.208988     0.201345
 NY phased data points follow
  -2.37657E+00 -2.15774E+00 -2.20231E+00 -4.85477E+00 -5.11180E-01 -2.89709E+00 -5.57688E-01 -3.52535E+00 -9.76288E-01  8.48296E-01
   4.62246E-01 -2.28043E+00  6.63397E-01 -2.40114E+00 -2.24132E+00  1.99256E+00 -2.18017E+00 -2.98439E+00 -1.01273E+00 -2.31337E+00
   1.33607E+00  1.00956E+00  1.02681E-01 -1.58321E+00 -2.43747E+00 -1.94049E+00  1.53081E-01  5.13980E-01 -1.70989E-01 -1.63267E+00
  -2.99307E-01 -6.55873E-01 -4.17433E+00 -1.00276E+00 -2.06909E+00 -3.43228E-01 -1.10791E+00 -1.52269E+00 -3.18146E+00  1.71967E+00
  -1.16140E+00 -1.44930E+00 -7.60676E-01  2.02492E-01  5.31646E-01 -1.75362E+00 -3.21868E+00 -3.73702E+00 -4.14435E+00  2.62083E+00
  -3.82803E+00 -1.59522E+00 -2.21135E+00 -7.57014E-01  2.20009E+00 -1.20003E-01 -6.70322E-01  2.87045E+00  2.08319E+00  4.05669E-01
  -8.16786E-01 -7.45552E-01 -1.89481E+00  6.39166E-01  2.79745E+00 -6.58556E-01  8.15661E-01  2.06843E+00 -2.52266E-01 -4.11146E-01
   4.21654E-01 -1.88903E+00 -7.49301E-01 -2.62730E+00 -2.56630E+00  5.72022E-01 -2.87367E+00  1.30183E+00  1.08520E-01 -9.77814E-01
   2.10163E+00 -2.27993E-01 -9.36910E-01  2.73997E-02  1.99594E+00 -1.43689E+00 -2.34130E+00  6.29618E-01 -1.56466E+00 -2.45840E+00
  -9.71718E-01 -3.09623E+00 -1.70696E+00 -4.02392E+00  2.23763E-01 -4.16847E-01  4.39353E-02  9.99083E-01 -5.81382E-01 -8.03287E-02
  -1.77399E+00  1.42952E+00 -8.91090E-01 -1.40153E+00  2.09554E-01  5.00595E-01  1.21647E+00 -1.21706E+00  1.20457E-01  8.62393E-01
   2.01416E+00 -1.10656E+00 -4.75038E-01  4.42078E-01  4.24229E-01 -2.24137E+00  1.26629E+00 -1.37138E+00 -1.93291E+00 -8.05915E-01
   1.56829E+00 -1.03948E+00  1.30772E+00  2.02573E+00 -3.08565E-01  2.03781E+00  2.31604E-01  3.31850E-01  3.43728E-01  1.99567E+00
   1.85853E+00  3.74165E+00  7.10132E-01  3.04953E+00  1.15585E+00  1.59383E+00 -5.44201E-01  8.71565E-01 -1.00305E+00 -1.55828E+00
   2.76410E-01  1.90542E+00 -9.45455E-01  4.05966E-01  3.87971E-01  8.58990E-02 -2.14609E+00  1.04545E-01 -2.26437E+00  8.27861E-01
  -1.75384E-01  2.52812E+00  1.04920E-01  3.64502E+00  7.63478E-01  2.89037E-02  1.86519E+00  3.42456E-01  3.88147E-01  4.55296E+00
   1.26980E+00  1.05307E+00  3.67602E-01  2.78632E+00  4.48215E+00 -1.35189E-01 -1.34806E+00  1.22596E+00 -3.54857E-01  2.54950E+00
  -2.42523E+00  1.55910E+00 -1.32111E+00  1.97332E+00  2.70501E+00 -3.48481E+00  4.69780E-01  1.16987E+00 -1.61093E+00 -1.46396E-01
   2.65247E+00  1.48761E+00  4.25508E+00  1.68580E+00  1.76230E+00  1.84053E+00  8.12906E-01 -4.06508E-01 -3.72128E-01  1.84328E+00
  -1.02529E-01  1.79265E+00  5.28108E+00  2.93944E+00  1.88423E+00  3.74547E+00  2.89267E+00  2.71292E+00  2.05001E-01  1.76817E+00
   1.38611E+00  3.91922E+00  1.19508E+00  4.32216E-01  2.28527E+00 -1.13903E+00  3.34589E+00  2.98794E+00  2.16438E+00  1.10483E+00
   2.47775E+00  5.77210E-01  2.58925E+00  4.56930E+00  2.19934E+00  2.14750E-02  1.77503E+00  1.97755E+00  3.82447E-01  1.94289E+00
   1.07308E+00  1.31405E+00  5.88157E-01 -3.38466E-01  3.58999E-01  1.58124E+00  3.66406E+00 -7.17735E-01  2.54383E+00  1.06541E+00
   1.94521E+00  2.15224E+00  2.04768E+00  1.01826E+00 -4.10974E-01 -3.04258E-01  7.54259E-01  1.68861E+00  3.29819E-01  3.41470E+00
   1.06286E+00  1.02971E-01  2.55151E+00 -1.95727E+00 -5.00793E-01 -2.19132E+00 -2.63363E+00 -3.17232E+00 -4.71069E-01 -2.10973E+00
  -2.72214E+00 -2.11187E+00  9.75131E-01  9.28076E-01  5.30816E-01  1.52572E+00  4.31472E+00 -2.98877E-01  2.75501E+00  1.96648E+00
   2.87520E+00  2.92678E+00  1.03075E+00  1.11055E+00  2.26646E+00 -1.79977E-01  1.75738E+00 -4.59759E-01 -1.21062E+00 -2.18249E+00
  -4.99605E-01  3.37781E+00  2.04454E-01  1.74966E+00 -5.70601E-01  1.76689E+00 -2.38584E+00  1.29062E+00 -4.27381E+00  6.61092E-01
  -4.34165E-01 -1.86733E+00  2.63747E+00 -1.18339E+00 -7.56038E-01  7.72664E-01 -1.40345E+00 -3.91395E+00 -1.29843E+00  1.99525E+00
  -4.26263E+00 -1.21089E+00 -4.08192E+00 -8.27745E-01 -1.35039E+00 -7.72884E-01 -1.86115E+00 -2.38539E-01  2.39099E+00 -4.76067E-01
  -1.30736E+00 -1.55688E+00 -2.04452E-01  1.07418E+00  1.23643E+00  2.36074E+00  2.94019E+00  2.84219E+00  1.41240E+00  3.93126E+00
   5.94851E+00  4.48213E+00  4.23570E+00  6.76077E+00  7.55891E+00  6.15237E+00  6.17854E+00  1.10307E+01  1.06489E+01  9.23821E+00
   1.09635E+01  1.38455E+01  1.46919E+01  1.34658E+01  1.97172E+01  1.48981E+01  1.77022E+01  1.82889E+01  1.88004E+01  1.89223E+01
   2.06909E+01  1.95303E+01  1.70320E+01  1.83272E+01  1.83334E+01  1.88613E+01  1.77455E+01  1.95519E+01  1.70896E+01  1.52860E+01
   1.53717E+01  1.56595E+01  1.20705E+01  1.57793E+01  1.47918E+01  1.37044E+01  1.44340E+01  1.08685E+01  1.29511E+01  1.23741E+01
   1.21456E+01  8.55367E+00  9.71485E+00  1.02486E+01  6.18457E+00  9.98296E+00  1.08115E+01  9.66089E+00  8.44686E+00  1.12502E+01
   8.06831E+00  8.30215E+00  1.03534E+01  7.50091E+00  6.83527E+00  1.00201E+01  9.42211E+00  6.94940E+00  8.43818E+00  6.28103E+00
   6.57302E+00  6.47224E+00  6.26008E+00  5.97033E+00  4.66778E+00  4.99871E+00  9.18287E+00  7.47611E+00  7.01261E+00  6.15441E+00
   4.81758E+00  7.00146E+00  4.33611E+00  1.43816E+00  1.97232E+00  4.84797E+00  4.61375E+00  2.28851E+00  2.11940E+00  6.56159E+00
   6.85635E+00  7.12681E+00  3.79971E+00  4.80021E+00  6.19540E+00  5.22744E+00  4.54556E+00  6.47918E+00  7.06738E+00  6.48186E+00
   3.75472E+00  2.92179E+00  4.11696E+00  4.58383E+00  4.35175E+00  5.62156E+00  4.81890E+00  5.40621E+00  6.14977E+00  6.02301E+00
   5.06665E+00  4.90085E+00  5.18053E+00  3.65627E+00  4.40759E+00  4.46754E+00  6.02060E+00  6.63169E+00  4.96036E+00  2.54114E+00
   5.47976E+00  2.15328E+00  6.64912E+00  1.79788E+00  3.07152E+00  1.78766E+00  5.20009E+00  2.10890E+00  3.24994E+00  7.65406E-01
   3.45727E-01  1.79364E+00 -2.48271E-02  2.65398E+00  1.95435E+00  3.34584E+00 -1.25676E+00  4.41693E+00  1.10546E+00  1.29313E+00
   4.12610E+00  3.75760E+00  1.04318E-01  1.33966E+00  2.75852E+00 -3.35816E-01  1.38890E+00  3.50298E-01  2.59590E-01  1.01271E+00
   3.60499E+00 -2.17486E+00 -3.32383E-01  3.82513E-01  6.49335E-01 -8.23453E-01 -5.92224E-01  1.19464E+00 -1.96143E+00  2.07532E-01
   4.78696E-01  1.35623E+00 -2.48425E+00 -3.61179E-01  2.83868E+00 -1.60418E+00  1.82440E+00  2.18133E-01 -2.31678E-01  1.58140E+00
  -2.51282E+00  3.87258E-01  7.83555E-01  1.94045E-02 -3.02084E+00 -4.14397E+00 -2.61902E+00  8.66268E-01  2.93927E+00  8.45282E-01
   5.11629E-01  4.21400E+00  1.32931E-01  2.72981E+00  1.64860E+00  8.86248E-02  1.63483E+00  2.09014E+00 -2.72515E-01  6.21908E-01
   8.81135E-01  1.42552E+00 -1.96180E+00 -1.17625E+00  3.66829E+00  5.86444E-01  8.27437E-01  2.00795E+00
 NY points of the fit to the data follow
  -1.00392E+00 -1.26815E+00 -1.21733E+00 -1.33773E+00 -1.17816E+00 -1.13426E+00 -8.99990E-01 -6.71218E-01 -4.91696E-01 -2.23870E-01
  -1.54283E-01  7.69525E-02  4.66789E-02  2.45318E-01  1.43602E-01  3.04082E-01  1.46313E-01  1.76499E-01  2.28700E-02 -3.57503E-03
  -1.42033E-01 -2.32854E-01 -3.72761E-01 -5.26152E-01 -5.51818E-01 -5.26707E-01 -5.25648E-01 -4.55915E-01 -4.92783E-01 -4.75823E-01
  -5.23783E-01 -5.38701E-01 -5.52560E-01 -5.35887E-01 -5.38394E-01 -5.18018E-01 -5.10900E-01 -4.93622E-01 -4.72736E-01 -4.62438E-01
  -4.58304E-01 -4.60072E-01 -4.64010E-01 -4.78378E-01 -4.82179E-01 -5.02632E-01 -4.99880E-01 -5.01121E-01 -4.85932E-01 -4.81701E-01
  -4.61990E-01 -4.58098E-01 -4.44566E-01 -4.43780E-01 -4.39981E-01 -4.47503E-01 -4.42595E-01 -4.44611E-01 -4.33895E-01 -4.39003E-01
  -4.31092E-01 -4.43324E-01 -4.46328E-01 -4.58314E-01 -4.59855E-01 -4.59053E-01 -4.59526E-01 -4.44414E-01 -4.31412E-01 -4.13559E-01
  -4.15894E-01 -4.01552E-01 -4.19237E-01 -4.10882E-01 -4.35640E-01 -4.33262E-01 -4.54796E-01 -4.49947E-01 -4.52676E-01 -4.42632E-01
  -4.21866E-01 -4.04605E-01 -3.73297E-01 -3.48937E-01 -2.79019E-01 -1.85252E-01 -1.91719E-01 -1.79103E-01 -2.48746E-01 -3.40589E-01
  -4.18128E-01 -6.04684E-01 -6.23995E-01 -8.07403E-01 -7.32900E-01 -8.21857E-01 -6.98199E-01 -6.84360E-01 -5.37700E-01 -4.01721E-01
  -2.82986E-01 -9.32492E-02 -5.05825E-02  1.38566E-01  1.08140E-01  2.74863E-01  1.91831E-01  3.24586E-01  2.95485E-01  5.41820E-01
   3.45930E-01  3.75183E-01  5.91683E-02 -2.07224E-01 -5.11331E-01 -1.02505E+00 -1.05823E+00 -1.46484E+00 -1.23365E+00 -1.40010E+00
  -1.06562E+00 -1.03237E+00 -6.43969E-01 -3.46737E-01 -5.52986E-02  3.85158E-01  4.89385E-01  9.39957E-01  8.74638E-01  1.28339E+00
   1.06442E+00  1.35586E+00  9.97208E-01  1.06707E+00  7.26187E-01  6.92132E-01  3.98389E-01  2.62270E-01  7.37912E-02 -1.01678E-01
  -3.03030E-02  4.75302E-02  1.33717E-01  2.59850E-01  2.47496E-01  2.72978E-01  2.28365E-01  1.96611E-01  2.06263E-01  2.11393E-01
   2.32372E-01  2.31071E-01  2.45860E-01  2.59756E-01  2.91231E-01  3.09159E-01  3.30611E-01  3.27768E-01  3.28227E-01  3.21028E-01
   3.09173E-01  3.01436E-01  2.71247E-01  2.63802E-01  2.21161E-01  2.04532E-01  1.89820E-01  1.80741E-01  1.65872E-01  1.57788E-01
   1.39351E-01  1.29981E-01  1.01231E-01  1.01197E-01  5.53759E-02  4.68961E-02 -1.63580E-02 -3.70403E-02 -1.02417E-01 -1.20661E-01
  -1.53531E-01 -1.42581E-01 -1.24892E-01 -1.16618E-01 -8.42962E-02 -7.26444E-02 -2.49839E-02 -1.04227E-02  4.09834E-02  3.78904E-02
   5.23458E-02  3.55016E-02  4.20903E-02  4.39521E-02  5.28214E-02  6.96495E-02  6.92236E-02  8.58577E-02  9.09637E-02  1.12239E-01
   1.24604E-01  1.40272E-01  1.49480E-01  1.54508E-01  1.59643E-01  1.54196E-01  1.73898E-01  1.59139E-01  1.79532E-01  1.57244E-01
   1.64688E-01  1.43364E-01  1.49413E-01  1.36773E-01  1.73655E-01  1.82532E-01  2.39178E-01  2.77440E-01  3.36414E-01  3.82604E-01
   4.18032E-01  4.68563E-01  4.81248E-01  5.04549E-01  4.99628E-01  5.20660E-01  5.46787E-01  5.73288E-01  6.22662E-01  6.45296E-01
   6.96064E-01  7.06796E-01  7.44813E-01  7.44056E-01  7.67889E-01  7.76058E-01  8.08409E-01  9.67699E-01  1.31932E+00  1.28993E+00
   1.35015E+00  1.11552E+00  7.63936E-01  4.89290E-01 -1.96070E-01 -2.64615E-01 -8.81518E-01 -6.21775E-01 -8.42728E-01 -3.70799E-01
  -2.34107E-01  3.25802E-01  8.67608E-01  1.29211E+00  1.98913E+00  2.15930E+00  2.81029E+00  2.74362E+00  3.29678E+00  3.00167E+00
   3.35337E+00  2.85567E+00  2.84632E+00  2.34200E+00  2.17885E+00  1.74462E+00  1.45331E+00  1.13924E+00  7.90177E-01  7.82124E-01
   8.29347E-01  8.75098E-01  9.89222E-01  9.24493E-01  8.91519E-01  7.94404E-01  6.97411E-01  6.60962E-01  6.37230E-01  6.18709E-01
   6.00124E-01  5.79396E-01  5.64731E-01  5.48760E-01  5.39903E-01  5.34786E-01  5.38560E-01  5.44878E-01  5.63250E-01  5.76712E-01
   5.97272E-01  6.05625E-01  6.25511E-01  6.34315E-01  6.61789E-01  6.79818E-01  7.22251E-01  7.63885E-01  8.27266E-01  8.96284E-01
   9.93694E-01  1.10255E+00  1.24752E+00  1.41566E+00  1.62558E+00  1.87729E+00  2.18218E+00  2.54141E+00  2.97093E+00  3.46670E+00
   3.95209E+00  4.50934E+00  5.09610E+00  5.73548E+00  6.46112E+00  7.20092E+00  8.08241E+00  9.00815E+00  1.00554E+01  1.10590E+01
   1.21216E+01  1.30887E+01  1.40604E+01  1.49184E+01  1.56879E+01  1.63919E+01  1.69431E+01  1.74968E+01  1.78651E+01  1.82708E+01
   1.83682E+01  1.84751E+01  1.83591E+01  1.81943E+01  1.79441E+01  1.75969E+01  1.72675E+01  1.69533E+01  1.66336E+01  1.62933E+01
   1.59483E+01  1.55181E+01  1.50522E+01  1.44964E+01  1.39226E+01  1.32784E+01  1.26968E+01  1.20977E+01  1.15911E+01  1.11711E+01
   1.08036E+01  1.05540E+01  1.03193E+01  1.01465E+01  1.00041E+01  9.90092E+00  9.79207E+00  9.72594E+00  9.63823E+00  9.57349E+00
   9.49480E+00  9.41012E+00  9.23281E+00  9.02867E+00  8.75786E+00  8.42366E+00  8.09935E+00  7.69522E+00  7.35085E+00  7.04136E+00
   6.73506E+00  6.47068E+00  6.19723E+00  5.93073E+00  5.67219E+00  5.41260E+00  5.17833E+00  4.96783E+00  4.77999E+00  4.61526E+00
   4.47392E+00  4.35651E+00  4.26314E+00  4.19412E+00  4.14926E+00  4.12854E+00  4.13141E+00  4.15747E+00  4.20572E+00  4.27518E+00
   4.36424E+00  4.47118E+00  4.59360E+00  4.72901E+00  4.87415E+00  5.02574E+00  5.17981E+00  5.33247E+00  5.47935E+00  5.61641E+00
   5.73936E+00  5.84450E+00  5.92819E+00  5.98762E+00  6.02033E+00  6.02489E+00  6.00031E+00  5.94672E+00  5.86469E+00  5.75583E+00
   5.62207E+00  5.46619E+00  5.29105E+00  5.10010E+00  4.89658E+00  4.68411E+00  4.46587E+00  4.24515E+00  4.02465E+00  3.80708E+00
   3.59443E+00  3.38868E+00  3.19108E+00  3.00288E+00  2.82462E+00  2.65693E+00  2.49981E+00  2.35340E+00  2.21734E+00  2.09145E+00
   1.97510E+00  1.86796E+00  1.76929E+00  1.67868E+00  1.59538E+00  1.51898E+00  1.44874E+00  1.38430E+00  1.32501E+00  1.27055E+00
   1.22035E+00  1.17415E+00  1.13145E+00  1.09207E+00  1.05556E+00  1.02182E+00  9.90443E-01  9.61369E-01  9.34243E-01  9.09052E-01
   8.85482E-01  8.63551E-01  8.42967E-01  8.23771E-01  8.05702E-01  7.88830E-01  7.72910E-01  7.58025E-01  7.43939E-01  7.30750E-01
   7.18240E-01  7.06523E-01  6.95388E-01  6.84949E-01  6.75003E-01  6.65673E-01  6.56769E-01  6.48422E-01  6.40441E-01  6.32955E-01
   6.25780E-01  6.19055E-01  6.12602E-01  6.06562E-01  6.00753E-01  5.95316E-01  5.90076E-01  5.85181E-01  5.80460E-01  5.76059E-01
   5.71802E-01  5.67837E-01  5.63996E-01  5.60431E-01  5.56975E-01  5.53775E-01  5.50661E-01  5.47786E-01  5.44986E-01  5.42416E-01
   5.39908E-01  5.37613E-01  5.35365E-01  5.33320E-01  5.31317E-01  5.29512E-01  5.27739E-01  5.26154E-01
 NY background values follow
    -6.266E-01   -6.246E-01   -6.226E-01   -6.207E-01   -6.187E-01   -6.167E-01   -6.148E-01   -6.128E-01   -6.108E-01   -6.089E-01
    -6.069E-01   -6.049E-01   -6.029E-01   -6.010E-01   -5.990E-01   -5.970E-01   -5.951E-01   -5.931E-01   -5.911E-01   -5.892E-01
    -5.872E-01   -5.852E-01   -5.833E-01   -5.813E-01   -5.793E-01   -5.774E-01   -5.754E-01   -5.734E-01   -5.715E-01   -5.695E-01
    -5.675E-01   -5.656E-01   -5.636E-01   -5.616E-01   -5.597E-01   -5.577E-01   -5.557E-01   -5.538E-01   -5.518E-01   -5.498E-01
    -5.479E-01   -5.459E-01   -5.439E-01   -5.420E-01   -5.400E-01   -5.380E-01   -5.361E-01   -5.341E-01   -5.321E-01   -5.302E-01
    -5.282E-01   -5.262E-01   -5.243E-01   -5.223E-01   -5.204E-01   -5.184E-01   -5.164E-01   -5.145E-01   -5.125E-01   -5.105E-01
    -5.086E-01   -5.066E-01   -5.046E-01   -5.027E-01   -5.007E-01   -4.987E-01   -4.968E-01   -4.948E-01   -4.928E-01   -4.909E-01
    -4.889E-01   -4.870E-01   -4.850E-01   -4.830E-01   -4.811E-01   -4.791E-01   -4.771E-01   -4.752E-01   -4.732E-01   -4.713E-01
    -4.693E-01   -4.673E-01   -4.654E-01   -4.634E-01   -4.615E-01   -4.595E-01   -4.575E-01   -4.556E-01   -4.536E-01   -4.517E-01
    -4.497E-01   -4.477E-01   -4.458E-01   -4.438E-01   -4.419E-01   -4.399E-01   -4.379E-01   -4.360E-01   -4.340E-01   -4.321E-01
    -4.301E-01   -4.281E-01   -4.262E-01   -4.242E-01   -4.223E-01   -4.203E-01   -4.184E-01   -4.164E-01   -4.145E-01   -4.125E-01
    -4.105E-01   -4.086E-01   -4.066E-01   -4.047E-01   -4.027E-01   -4.008E-01   -3.988E-01   -3.969E-01   -3.949E-01   -3.930E-01
    -3.910E-01   -3.890E-01   -3.871E-01   -3.851E-01   -3.832E-01   -3.812E-01   -3.793E-01   -3.773E-01   -3.754E-01   -3.734E-01
    -3.715E-01   -3.695E-01   -3.676E-01   -3.656E-01   -3.637E-01   -3.617E-01   -3.598E-01   -3.578E-01   -3.559E-01   -3.539E-01
    -3.520E-01   -3.501E-01   -3.481E-01   -3.462E-01   -3.442E-01   -3.423E-01   -3.403E-01   -3.384E-01   -3.364E-01   -3.345E-01
    -3.325E-01   -3.306E-01   -3.287E-01   -3.267E-01   -3.248E-01   -3.228E-01   -3.209E-01   -3.189E-01   -3.170E-01   -3.151E-01
    -3.131E-01   -3.112E-01   -3.092E-01   -3.073E-01   -3.054E-01   -3.034E-01   -3.015E-01   -2.995E-01   -2.976E-01   -2.957E-01
    -2.937E-01   -2.918E-01   -2.898E-01   -2.879E-01   -2.860E-01   -2.840E-01   -2.821E-01   -2.802E-01   -2.782E-01   -2.763E-01
    -2.744E-01   -2.724E-01   -2.705E-01   -2.686E-01   -2.666E-01   -2.647E-01   -2.628E-01   -2.608E-01   -2.589E-01   -2.570E-01
    -2.550E-01   -2.531E-01   -2.512E-01   -2.492E-01   -2.473E-01   -2.454E-01   -2.435E-01   -2.415E-01   -2.396E-01   -2.377E-01
    -2.357E-01   -2.338E-01   -2.319E-01   -2.300E-01   -2.280E-01   -2.261E-01   -2.242E-01   -2.223E-01   -2.203E-01   -2.184E-01
    -2.165E-01   -2.146E-01   -2.126E-01   -2.107E-01   -2.088E-01   -2.069E-01   -2.050E-01   -2.030E-01   -2.011E-01   -1.992E-01
    -1.973E-01   -1.954E-01   -1.934E-01   -1.915E-01   -1.896E-01   -1.877E-01   -1.858E-01   -1.838E-01   -1.819E-01   -1.800E-01
    -1.781E-01   -1.762E-01   -1.743E-01   -1.723E-01   -1.704E-01   -1.685E-01   -1.666E-01   -1.647E-01   -1.628E-01   -1.608E-01
    -1.589E-01   -1.570E-01   -1.551E-01   -1.532E-01   -1.513E-01   -1.494E-01   -1.474E-01   -1.455E-01   -1.436E-01   -1.417E-01
    -1.398E-01   -1.379E-01   -1.360E-01   -1.341E-01   -1.321E-01   -1.302E-01   -1.283E-01   -1.264E-01   -1.245E-01   -1.226E-01
    -1.207E-01   -1.188E-01   -1.169E-01   -1.149E-01   -1.130E-01   -1.111E-01   -1.092E-01   -1.073E-01   -1.054E-01   -1.035E-01
    -1.016E-01   -9.967E-02   -9.776E-02   -9.585E-02   -9.394E-02   -9.204E-02   -9.013E-02   -8.822E-02   -8.631E-02   -8.440E-02
    -8.249E-02   -8.059E-02   -7.868E-02   -7.677E-02   -7.486E-02   -7.295E-02   -7.105E-02   -6.914E-02   -6.723E-02   -6.532E-02
    -6.342E-02   -6.151E-02   -5.960E-02   -5.769E-02   -5.579E-02   -5.388E-02   -5.197E-02   -5.006E-02   -4.816E-02   -4.625E-02
    -4.434E-02   -4.243E-02   -4.053E-02   -3.862E-02   -3.671E-02   -3.481E-02   -3.290E-02   -3.099E-02   -2.909E-02   -2.718E-02
    -2.527E-02   -2.336E-02   -2.146E-02   -1.955E-02   -1.764E-02   -1.574E-02   -1.383E-02   -1.192E-02   -1.002E-02   -8.110E-03
    -6.203E-03   -4.297E-03   -2.390E-03   -4.836E-04    1.423E-03    3.330E-03    5.236E-03    7.143E-03    9.049E-03    1.096E-02
     1.286E-02    1.477E-02    1.667E-02    1.858E-02    2.049E-02    2.239E-02    2.430E-02    2.621E-02    2.811E-02    3.002E-02
     3.192E-02    3.383E-02    3.574E-02    3.764E-02    3.955E-02    4.145E-02    4.336E-02    4.527E-02    4.717E-02    4.908E-02
     5.098E-02    5.289E-02    5.479E-02    5.670E-02    5.861E-02    6.051E-02    6.242E-02    6.432E-02    6.623E-02    6.813E-02
     7.004E-02    7.194E-02    7.385E-02    7.575E-02    7.766E-02    7.956E-02    8.147E-02    8.337E-02    8.528E-02    8.718E-02
     8.909E-02    9.099E-02    9.290E-02    9.480E-02    9.671E-02    9.861E-02    1.005E-01    1.024E-01    1.043E-01    1.062E-01
     1.081E-01    1.100E-01    1.119E-01    1.139E-01    1.158E-01    1.177E-01    1.196E-01    1.215E-01    1.234E-01    1.253E-01
     1.272E-01    1.291E-01    1.310E-01    1.329E-01    1.348E-01    1.367E-01    1.386E-01    1.405E-01    1.424E-01    1.443E-01
     1.462E-01    1.481E-01    1.500E-01    1.519E-01    1.538E-01    1.557E-01    1.576E-01    1.595E-01    1.614E-01    1.633E-01
     1.653E-01    1.672E-01    1.691E-01    1.710E-01    1.729E-01    1.748E-01    1.767E-01    1.786E-01    1.805E-01    1.824E-01
     1.843E-01    1.862E-01    1.881E-01    1.900E-01    1.919E-01    1.938E-01    1.957E-01    1.976E-01    1.995E-01    2.014E-01
     2.033E-01    2.052E-01    2.071E-01    2.090E-01    2.109E-01    2.128E-01    2.147E-01    2.166E-01    2.185E-01    2.204E-01
     2.223E-01    2.242E-01    2.261E-01    2.280E-01    2.299E-01    2.318E-01    2.337E-01    2.357E-01    2.376E-01    2.395E-01
     2.414E-01    2.433E-01    2.452E-01    2.471E-01    2.490E-01    2.509E-01    2.528E-01    2.547E-01    2.566E-01    2.585E-01
     2.604E-01    2.623E-01    2.642E-01    2.661E-01    2.680E-01    2.699E-01    2.718E-01    2.737E-01    2.756E-01    2.775E-01
     2.794E-01    2.813E-01    2.832E-01    2.851E-01    2.870E-01    2.889E-01    2.908E-01    2.927E-01    2.946E-01    2.965E-01
     2.984E-01    3.003E-01    3.022E-01    3.041E-01    3.060E-01    3.079E-01    3.098E-01    3.117E-01    3.136E-01    3.155E-01
     3.174E-01    3.193E-01    3.212E-01    3.232E-01    3.251E-01    3.270E-01    3.289E-01    3.308E-01
 Ala      Conc. = 1.36E+01
