 LCModel (Version 6.3-1L) Copyright: S.W. Provencher.          Ref.: Magn. Reson. Med. 30:672-679 (1993).                
 Slice#3 Row#8 Col#9  PD_05_press_2_raw_act
 36 lines in following concentration table = NCONC+1
    Conc.  %SD /Cr+PCr  Metabolite                                         
  385.507  52%   0.124 Ala                                                 
    0.000 999%   0.000 Asp                                                 
    0.000 999%   0.000 Cr                                                  
 3.11E+03   3%   1.000 PCr                                                 
    0.000 999%   0.000 GABA                                                
    0.000 999%   0.000 Glc                                                 
 1.32E+03  32%   0.424 Gln                                                 
 3.52E+03  14%   1.133 Glu                                                 
 1.30E+03   3%   0.418 GPC                                                 
    0.000 999%   0.000 PCh                                                 
 1.10E+03  12%   0.354 GSH                                                 
 2.86E+03  17%   0.919 Ins                                                 
    0.000 999%   0.000 Lac                                                 
 4.87E+03   3%   1.567 NAA                                                 
    0.000 999%   0.000 NAAG                                                
  365.453  14%   0.118 Scyllo                                              
    0.000 999%   0.000 Tau                                                 
  550.300  34%   0.177 -CrCH2                                              
 1.30E+03   3%   0.418 GPC+PCh                                             
 4.87E+03   3%   1.567 NAA+NAAG                                            
 3.11E+03   3%   1.000 Cr+PCr                                              
 4.84E+03  14%   1.558 Glu+Gln                                             
 2.06E+03  27%   0.661 Lip13a                                              
    0.000 999%   0.000 Lip13b                                              
    0.000 999%   0.000 Lip09                                               
 1.59E+03  18%   0.513 MM09                                                
  384.269  80%   0.124 Lip20                                               
 3.93E+03  14%   1.263 MM20                                                
  506.392  39%   0.163 MM12                                                
    0.000 999%   0.000 MM14                                                
  979.581  36%   0.315 MM17                                                
 2.06E+03  27%   0.661 Lip13a+Lip13b                                       
 2.56E+03  22%   0.824 MM14+Lip13a+Lip13b+MM12                             
 1.59E+03  18%   0.513 MM09+Lip09                                          
 4.31E+03  14%   1.387 MM20+Lip20                                          
   6 lines in following misc. output table
  FWHM = 0.054 ppm    S/N =  14                                            
  Data shift = 0.015 ppm                                                   
  Ph: -43 deg     -16.4 deg/ppm                                            
  alphaB,S = 9.6E-01,   1.2E+02                                            
   14 spline knots.   Ns = 7(1)                                            
  ( 9) 3 infls.   ( 3) 1 extrs.                                            
  498 points on ppm-axis = NY
      4.000000     3.992357     3.984714     3.977070     3.969427     3.961784     3.954141     3.946497     3.938854     3.931211
      3.923568     3.915925     3.908281     3.900638     3.892995     3.885352     3.877708     3.870065     3.862422     3.854779
      3.847136     3.839492     3.831849     3.824206     3.816563     3.808919     3.801276     3.793633     3.785990     3.778347
      3.770703     3.763060     3.755417     3.747774     3.740130     3.732487     3.724844     3.717201     3.709558     3.701914
      3.694271     3.686628     3.678985     3.671341     3.663698     3.656055     3.648412     3.640769     3.633125     3.625482
      3.617839     3.610196     3.602552     3.594909     3.587266     3.579623     3.571980     3.564336     3.556693     3.549050
      3.541407     3.533763     3.526120     3.518477     3.510834     3.503191     3.495547     3.487904     3.480261     3.472618
      3.464974     3.457331     3.449688     3.442045     3.434402     3.426758     3.419115     3.411472     3.403829     3.396185
      3.388542     3.380899     3.373256     3.365613     3.357969     3.350326     3.342683     3.335040     3.327396     3.319753
      3.312110     3.304467     3.296824     3.289180     3.281537     3.273894     3.266251     3.258607     3.250964     3.243321
      3.235678     3.228034     3.220391     3.212748     3.205105     3.197462     3.189818     3.182175     3.174532     3.166889
      3.159245     3.151602     3.143959     3.136316     3.128673     3.121029     3.113386     3.105743     3.098100     3.090456
      3.082813     3.075170     3.067527     3.059884     3.052240     3.044597     3.036954     3.029311     3.021667     3.014024
      3.006381     2.998738     2.991095     2.983451     2.975808     2.968165     2.960522     2.952878     2.945235     2.937592
      2.929949     2.922306     2.914662     2.907019     2.899376     2.891733     2.884089     2.876446     2.868803     2.861160
      2.853517     2.845873     2.838230     2.830587     2.822944     2.815300     2.807657     2.800014     2.792371     2.784728
      2.777084     2.769441     2.761798     2.754155     2.746511     2.738868     2.731225     2.723582     2.715939     2.708295
      2.700652     2.693009     2.685366     2.677722     2.670079     2.662436     2.654793     2.647150     2.639506     2.631863
      2.624220     2.616577     2.608933     2.601290     2.593647     2.586004     2.578361     2.570717     2.563074     2.555431
      2.547788     2.540144     2.532501     2.524858     2.517215     2.509572     2.501928     2.494285     2.486642     2.478999
      2.471355     2.463712     2.456069     2.448426     2.440783     2.433139     2.425496     2.417853     2.410210     2.402566
      2.394923     2.387280     2.379637     2.371994     2.364350     2.356707     2.349064     2.341421     2.333777     2.326134
      2.318491     2.310848     2.303205     2.295561     2.287918     2.280275     2.272632     2.264988     2.257345     2.249702
      2.242059     2.234416     2.226772     2.219129     2.211486     2.203843     2.196199     2.188556     2.180913     2.173270
      2.165627     2.157983     2.150340     2.142697     2.135054     2.127410     2.119767     2.112124     2.104481     2.096838
      2.089194     2.081551     2.073908     2.066265     2.058621     2.050978     2.043335     2.035692     2.028049     2.020405
      2.012762     2.005119     1.997476     1.989833     1.982190     1.974546     1.966903     1.959260     1.951617     1.943974
      1.936331     1.928688     1.921045     1.913402     1.905759     1.898115     1.890472     1.882829     1.875186     1.867543
      1.859900     1.852257     1.844614     1.836971     1.829327     1.821684     1.814041     1.806398     1.798755     1.791112
      1.783469     1.775826     1.768183     1.760540     1.752896     1.745253     1.737610     1.729967     1.722324     1.714681
      1.707038     1.699395     1.691752     1.684108     1.676465     1.668822     1.661179     1.653536     1.645893     1.638250
      1.630607     1.622964     1.615321     1.607677     1.600034     1.592391     1.584748     1.577105     1.569462     1.561819
      1.554176     1.546533     1.538890     1.531246     1.523603     1.515960     1.508317     1.500674     1.493031     1.485388
      1.477745     1.470102     1.462458     1.454815     1.447172     1.439529     1.431886     1.424243     1.416600     1.408957
      1.401314     1.393671     1.386027     1.378384     1.370741     1.363098     1.355455     1.347812     1.340169     1.332526
      1.324883     1.317240     1.309596     1.301953     1.294310     1.286667     1.279024     1.271381     1.263738     1.256095
      1.248452     1.240808     1.233165     1.225522     1.217879     1.210236     1.202593     1.194950     1.187307     1.179664
      1.172021     1.164377     1.156734     1.149091     1.141448     1.133805     1.126162     1.118519     1.110876     1.103233
      1.095590     1.087946     1.080303     1.072660     1.065017     1.057374     1.049731     1.042088     1.034445     1.026802
      1.019158     1.011515     1.003872     0.996229     0.988586     0.980943     0.973300     0.965657     0.958014     0.950371
      0.942727     0.935084     0.927441     0.919798     0.912155     0.904512     0.896869     0.889226     0.881583     0.873940
      0.866296     0.858653     0.851010     0.843367     0.835724     0.828081     0.820438     0.812795     0.805152     0.797508
      0.789865     0.782222     0.774579     0.766936     0.759293     0.751650     0.744007     0.736364     0.728721     0.721077
      0.713434     0.705791     0.698148     0.690505     0.682862     0.675219     0.667576     0.659933     0.652290     0.644646
      0.637003     0.629360     0.621717     0.614074     0.606431     0.598788     0.591145     0.583502     0.575858     0.568215
      0.560572     0.552929     0.545286     0.537643     0.530000     0.522357     0.514714     0.507071     0.499427     0.491784
      0.484141     0.476498     0.468855     0.461212     0.453569     0.445925     0.438282     0.430639     0.422996     0.415353
      0.407710     0.400067     0.392424     0.384780     0.377137     0.369494     0.361851     0.354208     0.346565     0.338922
      0.331278     0.323635     0.315992     0.308349     0.300706     0.293063     0.285420     0.277777     0.270133     0.262490
      0.254847     0.247204     0.239561     0.231918     0.224275     0.216631     0.208988     0.201345
 NY phased data points follow
  -6.31251E+01 -5.77010E+01 -4.42175E+01 -4.46096E+01 -3.67565E+01 -2.71179E+01 -1.67106E+01 -8.44811E+00  7.40831E-01  8.51884E+00
   4.78706E+00 -9.77990E+00 -2.04679E+01 -2.80176E+01 -3.14364E+01 -4.10351E+01 -4.16695E+01 -4.87541E+01 -5.14988E+01 -5.03729E+01
  -5.11387E+01 -5.11902E+01 -4.30009E+01 -4.20749E+01 -4.42373E+01 -3.86208E+01 -3.69660E+01 -3.34813E+01 -2.21543E+01 -2.72032E+01
  -3.02040E+01 -3.37614E+01 -2.95790E+01 -2.93935E+01 -2.84422E+01 -3.76771E+01 -3.61713E+01 -3.32415E+01 -3.16308E+01 -3.94682E+01
  -3.64796E+01 -3.89273E+01 -3.23851E+01 -2.62258E+01 -2.16195E+01 -1.74850E+01 -2.06078E+01 -1.64352E+01 -1.63095E+01 -2.74708E+01
  -2.93559E+01 -2.91060E+01 -3.35665E+01 -3.88884E+01 -3.12364E+01 -2.65878E+01 -2.20563E+01 -3.72453E+01 -3.12773E+01 -4.13438E+01
  -3.85289E+01 -4.70791E+01 -4.40474E+01 -5.63455E+01 -5.56936E+01 -5.30433E+01 -5.66868E+01 -4.52682E+01 -4.35977E+01 -3.93440E+01
  -3.56509E+01 -4.39459E+01 -4.04338E+01 -3.59847E+01 -4.17657E+01 -3.87276E+01 -4.14093E+01 -3.78337E+01 -3.93237E+01 -3.46743E+01
  -3.35717E+01 -2.81370E+01 -2.52394E+01 -3.13913E+01 -2.56604E+01 -2.70010E+01 -2.21132E+01 -2.21201E+01 -2.49739E+01 -1.70362E+01
  -1.89822E+01 -2.33620E+01 -1.99243E+01 -2.35043E+01 -1.23998E+01 -1.07439E+01 -8.46529E+00 -3.46481E+00  1.49937E+01  2.34480E+01
   4.63673E+01  5.33467E+01  7.46648E+01  7.20708E+01  6.84137E+01  4.86349E+01  2.81352E+01  1.72617E+01  7.37437E+00 -1.27424E+01
  -1.93523E+01 -2.15256E+01 -2.20108E+01 -1.73242E+01 -2.12983E+01 -2.22893E+01 -2.59105E+01 -2.60089E+01 -2.37996E+01 -1.33867E+01
  -9.43601E+00  1.74453E+00  7.94657E+00  1.90754E+01  3.76328E+01  5.04654E+01  5.94939E+01  7.03841E+01  6.78603E+01  5.45876E+01
   3.45286E+01  1.82332E+01 -5.51276E+00 -1.42749E+01 -1.40210E+01 -2.23101E+01 -2.06114E+01 -2.65008E+01 -2.22992E+01 -2.60584E+01
  -2.46807E+01 -2.45574E+01 -2.75789E+01 -2.19612E+01 -1.74250E+01 -2.95383E+01 -2.46553E+01 -1.60312E+01 -1.87904E+01 -2.62959E+01
  -3.05111E+01 -2.16444E+01 -2.15118E+01 -2.15951E+01 -1.65552E+01 -2.94357E+01 -2.33483E+01 -2.64679E+01 -2.69700E+01 -3.47031E+01
  -4.00822E+01 -2.80389E+01 -2.58262E+01 -2.51199E+01 -2.16658E+01 -2.57877E+01 -2.18371E+01 -2.26823E+01 -3.16115E+01 -3.57306E+01
  -3.32233E+01 -3.88257E+01 -4.16883E+01 -3.85172E+01 -4.67572E+01 -4.43147E+01 -4.47906E+01 -3.42382E+01 -3.69678E+01 -3.88663E+01
  -3.19940E+01 -3.63408E+01 -3.39565E+01 -2.76964E+01 -3.21648E+01 -2.97432E+01 -3.51957E+01 -3.04761E+01 -2.02040E+01 -1.45678E+01
  -1.32818E+01 -3.02502E+00 -5.72521E+00  1.61481E-01 -9.49271E+00 -1.47246E+01 -1.54130E+01 -1.92943E+01 -2.18857E+01 -1.56247E+01
  -1.10263E+01 -8.16119E+00 -2.58022E+00 -8.00274E+00 -7.49133E+00 -6.26809E+00 -1.12968E+01 -7.64749E+00 -2.01087E+01 -1.49247E+01
  -1.01613E+01 -1.55569E+01 -2.32113E+00  1.34399E+00  1.07052E+01  1.43269E+01  1.01834E+01  1.15220E+01  4.62887E+00 -2.13793E+00
  -7.63145E+00 -1.98675E+01 -5.81533E+00 -1.95185E+01 -6.50660E+00 -2.56783E+00  8.32408E+00  1.95238E-01  9.55475E+00  4.54629E+00
   8.55101E+00  9.53146E+00  4.16243E+00  5.71815E+00  1.03120E+01  1.19724E+01  4.24575E+00  6.80867E+00  3.12004E+00  5.29405E+00
  -6.25775E+00 -9.98906E-02 -5.71917E+00 -1.14359E+00  2.80421E+00 -4.74712E-01  1.58146E+01  1.97928E+01  1.41064E+01  9.41868E+00
   1.72391E+01  1.80567E+01  2.46041E+01  3.91223E+01  4.03527E+01  5.95331E+01  7.63034E+01  1.03518E+02  1.22729E+02  1.49073E+02
   1.64469E+02  1.58151E+02  1.41004E+02  1.11356E+02  8.10251E+01  6.52942E+01  4.94728E+01  3.06440E+01  1.81005E+01  1.45457E+01
   1.10554E+01  6.71077E+00  8.74727E+00  1.44142E+01  9.26781E+00  1.42199E+01  6.50169E+00  1.55730E+01  1.44217E+01  9.29417E+00
   6.58493E+00  6.83965E+00  8.02599E+00  9.06348E+00  4.06684E+00  7.28308E+00 -6.20249E+00  6.18033E+00  1.51888E+01 -1.77177E+00
   3.49818E+00  5.39246E+00  1.28622E+01 -1.05441E+00  1.38692E+01  6.15440E-01  4.46472E+00  3.67497E+00  1.14608E+00  1.20862E+01
   7.70280E+00  9.59751E+00  5.02052E+00  1.91620E+00  1.55469E+01  7.25856E+00  8.02281E+00  8.24894E+00  1.40021E+01  2.04064E+01
   8.10503E+00  9.89003E+00  5.31917E+00  1.70233E+01  6.64528E+00  1.59488E+01  1.25177E+01  1.01786E+01  3.58106E+00  1.08900E+01
   8.56887E+00  1.31006E+01  2.26566E+00  1.41825E+01  7.97031E+00  8.75803E+00  6.90898E+00  4.56411E+00  3.87622E+00 -2.63746E-01
   2.11812E+00  5.04151E+00 -1.53651E+00  1.85153E+00  3.50835E+00  7.46026E+00  5.56025E+00  2.70932E+00  4.28753E+00  6.41046E+00
   1.12954E+01  1.06211E+01  7.87102E+00  1.56592E+01  1.61963E+01  2.19311E+01  2.10883E+01  1.87462E+01  1.88979E+01  1.78046E+01
   2.38548E+01  1.75560E+01  2.11428E+01  1.41919E+01  2.07040E+01  2.34954E+01  1.55670E+01  1.76658E+01  1.48021E+01  2.03696E+01
   1.85254E+01  1.34613E+01  2.05649E+01  1.08202E+01  2.32038E+01  1.26246E+01  2.33895E+01  1.84215E+01  1.86173E+01  2.41224E+01
   1.31768E+01  1.28953E+01  1.62091E+01  1.52153E+01  1.18929E+01  1.62067E+01  1.13354E+01  1.92041E+01  1.67662E+01  1.67221E+01
   1.09689E+01  1.24026E+01  5.86461E+00  1.17648E+01  3.15909E+00  1.34306E+01  1.05312E+01  8.52800E+00  8.36759E+00  1.56364E+01
   1.59544E+01  1.56738E+01  1.72407E+01  1.92530E+01  1.88040E+01  1.63334E+01  2.46333E+01  1.74327E+01  1.83145E+01  1.98825E+01
   1.79198E+01  1.10882E+01  1.73956E+01  1.47834E+01  1.60745E+01  1.73313E+01  2.28329E+01  1.93550E+01  1.42345E+01  2.04716E+01
   1.28470E+01  1.94236E+01  1.57011E+01  2.21136E+01  2.27441E+01  2.06912E+01  1.42844E+01  1.57476E+01  1.86695E+01  1.92961E+01
   1.38143E+01  1.78595E+01  1.49031E+01  1.26065E+01  4.52991E+00  1.03758E+01  1.57058E+01  1.26544E+01  3.77193E+00  1.07537E+01
   1.00135E+01  8.72036E+00  1.15470E+01  1.24940E+01  4.97770E+00  8.50630E+00  1.45608E+01  1.51677E+01  8.60804E+00  1.12327E+01
   1.01819E+01  1.29019E+01  7.01007E+00  1.60559E+01  1.09167E+01  1.12742E+01  8.76506E+00  1.61583E+01  1.30428E+01  1.56103E+01
   1.15728E+01  1.25839E+01  1.10719E+01  1.86058E+01  1.21843E+01  1.12843E+01  8.63329E+00  9.35654E+00  1.76140E+01  6.71561E+00
   1.83339E+01  1.50576E+01  6.49111E+00  1.59105E+01  9.20526E+00  1.56823E+01  1.90717E+01  7.88843E+00  1.79053E+01  6.17073E+00
   1.08347E+01  1.17525E+01  1.00947E+01  8.52480E+00  1.30512E+01  1.35500E+01  8.85643E+00  1.55840E+01  1.48454E+01  8.91943E+00
   8.85561E+00  1.28506E+01  9.82154E+00  1.01704E+01  1.29590E+01  1.42528E+01  1.45847E+01  1.10563E+01  7.13461E+00  1.46588E+01
   1.10469E+01  1.31290E+01  7.51645E+00  1.25293E+01  1.44775E+01  4.19725E+00  1.69341E+01  9.43639E+00
 NY points of the fit to the data follow
  -5.38978E+01 -5.19783E+01 -4.66999E+01 -4.02828E+01 -3.34594E+01 -2.53929E+01 -1.61773E+01 -7.10930E+00 -1.00916E-01  2.69724E+00
   1.84647E-02 -7.38018E+00 -1.67681E+01 -2.53207E+01 -3.19737E+01 -3.71629E+01 -4.15945E+01 -4.50588E+01 -4.63984E+01 -4.67258E+01
  -4.68980E+01 -4.71354E+01 -4.65905E+01 -4.50446E+01 -4.34687E+01 -4.13981E+01 -3.83277E+01 -3.43091E+01 -2.98662E+01 -2.58213E+01
  -2.29821E+01 -2.22024E+01 -2.36499E+01 -2.64797E+01 -2.99624E+01 -3.37678E+01 -3.75490E+01 -4.11322E+01 -4.33637E+01 -4.31488E+01
  -4.10641E+01 -3.80767E+01 -3.48064E+01 -3.12455E+01 -2.76255E+01 -2.45147E+01 -2.25348E+01 -2.24589E+01 -2.46333E+01 -2.84739E+01
  -3.28489E+01 -3.64576E+01 -3.86989E+01 -3.99941E+01 -4.06051E+01 -4.04289E+01 -3.94288E+01 -3.80768E+01 -3.69207E+01 -3.62295E+01
  -3.62203E+01 -3.69748E+01 -3.82506E+01 -3.95747E+01 -4.03334E+01 -4.03975E+01 -3.99686E+01 -3.91723E+01 -3.81014E+01 -3.69758E+01
  -3.59578E+01 -3.52347E+01 -3.49132E+01 -3.49839E+01 -3.53172E+01 -3.56878E+01 -3.59266E+01 -3.60028E+01 -3.59470E+01 -3.57205E+01
  -3.44957E+01 -3.26911E+01 -3.10032E+01 -2.91336E+01 -2.68445E+01 -2.43344E+01 -2.20650E+01 -2.06917E+01 -2.07228E+01 -2.21073E+01
  -2.42429E+01 -2.61558E+01 -2.72781E+01 -2.76039E+01 -2.68818E+01 -2.27421E+01 -1.29437E+01 -1.46889E+00  1.09955E+01  2.61259E+01
   4.36508E+01  6.07252E+01  7.30501E+01  7.61758E+01  6.81659E+01  5.14403E+01  3.15998E+01  1.37244E+01 -5.50457E-01 -1.20642E+01
  -2.16505E+01 -2.82193E+01 -3.04881E+01 -3.08494E+01 -3.06834E+01 -3.02906E+01 -2.97127E+01 -2.88496E+01 -2.73201E+01 -2.30727E+01
  -1.35307E+01 -2.73955E+00  8.52444E+00  2.19692E+01  3.76215E+01  5.32634E+01  6.53834E+01  6.97288E+01  6.39487E+01  4.99090E+01
   3.26453E+01  1.68566E+01  4.09730E+00 -6.71578E+00 -1.64437E+01 -2.40376E+01 -2.71996E+01 -2.77161E+01 -2.69516E+01 -2.55302E+01
  -2.40271E+01 -2.28246E+01 -2.20511E+01 -2.17968E+01 -2.20089E+01 -2.24420E+01 -2.29521E+01 -2.35063E+01 -2.39992E+01 -2.44094E+01
  -2.46647E+01 -2.47932E+01 -2.48234E+01 -2.48316E+01 -2.49891E+01 -2.51474E+01 -2.52468E+01 -2.53238E+01 -2.53992E+01 -2.56918E+01
  -2.60489E+01 -2.61361E+01 -2.58108E+01 -2.52236E+01 -2.47254E+01 -2.46606E+01 -2.51324E+01 -2.59467E+01 -2.68118E+01 -2.76576E+01
  -2.84413E+01 -2.90238E+01 -2.95596E+01 -3.00998E+01 -3.05703E+01 -3.07572E+01 -3.04743E+01 -2.98408E+01 -2.91661E+01 -2.87368E+01
  -2.87290E+01 -2.86840E+01 -2.81894E+01 -2.72279E+01 -2.59442E+01 -2.44575E+01 -2.26197E+01 -2.01285E+01 -1.70919E+01 -1.41390E+01
  -1.20819E+01 -1.12918E+01 -1.14863E+01 -1.23288E+01 -1.33644E+01 -1.42018E+01 -1.45275E+01 -1.39227E+01 -1.23575E+01 -1.00350E+01
  -7.36069E+00 -4.87034E+00 -3.13297E+00 -2.75532E+00 -3.48908E+00 -5.43810E+00 -8.72253E+00 -1.25047E+01 -1.56223E+01 -1.69262E+01
  -1.62803E+01 -1.40853E+01 -1.03340E+01 -5.44946E+00 -5.74733E-01  2.78836E+00  3.51041E+00  1.50870E+00 -2.67998E+00 -8.43128E+00
  -1.39962E+01 -1.79510E+01 -1.96648E+01 -1.87184E+01 -1.53629E+01 -1.02190E+01 -4.69383E+00 -3.44908E-01  2.34181E+00  3.77849E+00
   4.72545E+00  5.16686E+00  5.19510E+00  5.46281E+00  6.27261E+00  7.12596E+00  7.52488E+00  7.53513E+00  7.21144E+00  6.37087E+00
   4.99379E+00  3.73676E+00  3.26090E+00  3.77272E+00  5.12167E+00  7.03120E+00  9.27102E+00  1.12710E+01  1.27107E+01  1.37643E+01
   1.48459E+01  1.62869E+01  1.97480E+01  3.07242E+01  4.68484E+01  6.30556E+01  8.11790E+01  1.03097E+02  1.27016E+02  1.48154E+02
   1.60295E+02  1.58052E+02  1.40960E+02  1.14778E+02  8.78668E+01  6.52385E+01  4.70530E+01  3.15740E+01  1.85502E+01  1.11900E+01
   8.69682E+00  7.58150E+00  7.01663E+00  6.82791E+00  6.82636E+00  6.79598E+00  6.68601E+00  6.46484E+00  6.15826E+00  5.81784E+00
   5.48077E+00  5.15607E+00  4.88486E+00  4.71637E+00  4.64266E+00  4.62433E+00  4.64240E+00  4.69628E+00  4.78956E+00  4.91813E+00
   5.07165E+00  5.25779E+00  5.48067E+00  5.73822E+00  6.02716E+00  6.34209E+00  6.67770E+00  7.02617E+00  7.37884E+00  7.72983E+00
   8.07235E+00  8.39726E+00  8.69714E+00  8.96457E+00  9.19293E+00  9.37623E+00  9.51087E+00  9.59528E+00  9.63081E+00  9.62023E+00
   9.56820E+00  9.48014E+00  9.36376E+00  9.22766E+00  9.08173E+00  8.93727E+00  8.80818E+00  8.71138E+00  8.67279E+00  8.74446E+00
   9.02170E+00  9.34383E+00  9.49051E+00  9.57689E+00  9.61573E+00  9.45375E+00  8.89461E+00  7.79495E+00  6.33637E+00  4.97623E+00
   3.91148E+00  3.39143E+00  3.57892E+00  4.43374E+00  5.82053E+00  7.57406E+00  9.46298E+00  1.10761E+01  1.20858E+01  1.26109E+01
   1.29203E+01  1.31873E+01  1.34392E+01  1.36345E+01  1.38506E+01  1.42489E+01  1.47664E+01  1.53411E+01  1.59411E+01  1.65435E+01
   1.71298E+01  1.76830E+01  1.81880E+01  1.86311E+01  1.90013E+01  1.92894E+01  1.94890E+01  1.95959E+01  1.96090E+01  1.95301E+01
   1.93641E+01  1.91176E+01  1.87995E+01  1.84200E+01  1.79907E+01  1.75235E+01  1.70310E+01  1.65248E+01  1.60162E+01  1.55149E+01
   1.50304E+01  1.45702E+01  1.41412E+01  1.37484E+01  1.33960E+01  1.30867E+01  1.28232E+01  1.26069E+01  1.24392E+01  1.23205E+01
   1.22515E+01  1.22321E+01  1.22632E+01  1.23449E+01  1.24775E+01  1.26607E+01  1.28943E+01  1.31776E+01  1.35098E+01  1.38886E+01
   1.43113E+01  1.47734E+01  1.52698E+01  1.57936E+01  1.63371E+01  1.68904E+01  1.74430E+01  1.79829E+01  1.84981E+01  1.89761E+01
   1.94049E+01  1.97729E+01  2.00702E+01  2.02882E+01  2.04211E+01  2.04655E+01  2.04207E+01  2.02882E+01  2.00726E+01  1.97806E+01
   1.94212E+01  1.90048E+01  1.85428E+01  1.80469E+01  1.75288E+01  1.70000E+01  1.64712E+01  1.59515E+01  1.54489E+01  1.49696E+01
   1.45185E+01  1.40989E+01  1.37133E+01  1.33623E+01  1.30458E+01  1.27625E+01  1.25112E+01  1.22898E+01  1.20963E+01  1.19280E+01
   1.17826E+01  1.16575E+01  1.15508E+01  1.14603E+01  1.13843E+01  1.13206E+01  1.12680E+01  1.12248E+01  1.11902E+01  1.11630E+01
   1.11425E+01  1.11274E+01  1.11174E+01  1.11117E+01  1.11101E+01  1.11119E+01  1.11169E+01  1.11244E+01  1.11344E+01  1.11464E+01
   1.11606E+01  1.11765E+01  1.11939E+01  1.12125E+01  1.12325E+01  1.12536E+01  1.12759E+01  1.12991E+01  1.13232E+01  1.13478E+01
   1.13732E+01  1.13993E+01  1.14262E+01  1.14535E+01  1.14812E+01  1.15093E+01  1.15380E+01  1.15670E+01  1.15965E+01  1.16262E+01
   1.16562E+01  1.16864E+01  1.17171E+01  1.17479E+01  1.17791E+01  1.18103E+01  1.18418E+01  1.18734E+01  1.19055E+01  1.19376E+01
   1.19699E+01  1.20022E+01  1.20347E+01  1.20673E+01  1.21003E+01  1.21333E+01  1.21665E+01  1.21996E+01  1.22330E+01  1.22665E+01
   1.23003E+01  1.23341E+01  1.23681E+01  1.24020E+01  1.24363E+01  1.24708E+01  1.25055E+01  1.25402E+01
 NY background values follow
    -6.578E+01   -6.548E+01   -6.519E+01   -6.489E+01   -6.459E+01   -6.429E+01   -6.399E+01   -6.369E+01   -6.340E+01   -6.310E+01
    -6.280E+01   -6.250E+01   -6.221E+01   -6.191E+01   -6.161E+01   -6.131E+01   -6.102E+01   -6.072E+01   -6.042E+01   -6.013E+01
    -5.983E+01   -5.954E+01   -5.924E+01   -5.894E+01   -5.865E+01   -5.835E+01   -5.806E+01   -5.777E+01   -5.747E+01   -5.718E+01
    -5.688E+01   -5.659E+01   -5.630E+01   -5.601E+01   -5.572E+01   -5.542E+01   -5.513E+01   -5.484E+01   -5.455E+01   -5.426E+01
    -5.397E+01   -5.369E+01   -5.340E+01   -5.311E+01   -5.282E+01   -5.254E+01   -5.225E+01   -5.197E+01   -5.168E+01   -5.140E+01
    -5.111E+01   -5.083E+01   -5.055E+01   -5.026E+01   -4.998E+01   -4.970E+01   -4.942E+01   -4.914E+01   -4.886E+01   -4.859E+01
    -4.831E+01   -4.803E+01   -4.776E+01   -4.748E+01   -4.721E+01   -4.693E+01   -4.666E+01   -4.639E+01   -4.612E+01   -4.585E+01
    -4.558E+01   -4.531E+01   -4.504E+01   -4.477E+01   -4.451E+01   -4.424E+01   -4.398E+01   -4.371E+01   -4.345E+01   -4.319E+01
    -4.292E+01   -4.266E+01   -4.241E+01   -4.215E+01   -4.189E+01   -4.163E+01   -4.138E+01   -4.112E+01   -4.087E+01   -4.062E+01
    -4.036E+01   -4.011E+01   -3.986E+01   -3.962E+01   -3.937E+01   -3.912E+01   -3.888E+01   -3.863E+01   -3.839E+01   -3.814E+01
    -3.790E+01   -3.766E+01   -3.742E+01   -3.718E+01   -3.694E+01   -3.671E+01   -3.647E+01   -3.624E+01   -3.600E+01   -3.577E+01
    -3.553E+01   -3.530E+01   -3.507E+01   -3.484E+01   -3.461E+01   -3.438E+01   -3.415E+01   -3.392E+01   -3.370E+01   -3.347E+01
    -3.325E+01   -3.302E+01   -3.280E+01   -3.257E+01   -3.235E+01   -3.213E+01   -3.191E+01   -3.169E+01   -3.147E+01   -3.125E+01
    -3.103E+01   -3.081E+01   -3.059E+01   -3.038E+01   -3.016E+01   -2.995E+01   -2.973E+01   -2.952E+01   -2.930E+01   -2.909E+01
    -2.887E+01   -2.866E+01   -2.845E+01   -2.824E+01   -2.803E+01   -2.781E+01   -2.760E+01   -2.739E+01   -2.718E+01   -2.697E+01
    -2.676E+01   -2.655E+01   -2.634E+01   -2.613E+01   -2.592E+01   -2.571E+01   -2.550E+01   -2.529E+01   -2.508E+01   -2.486E+01
    -2.465E+01   -2.444E+01   -2.423E+01   -2.402E+01   -2.381E+01   -2.359E+01   -2.338E+01   -2.317E+01   -2.295E+01   -2.274E+01
    -2.253E+01   -2.231E+01   -2.209E+01   -2.188E+01   -2.166E+01   -2.144E+01   -2.123E+01   -2.101E+01   -2.079E+01   -2.057E+01
    -2.034E+01   -2.012E+01   -1.990E+01   -1.968E+01   -1.945E+01   -1.923E+01   -1.900E+01   -1.877E+01   -1.855E+01   -1.832E+01
    -1.809E+01   -1.786E+01   -1.763E+01   -1.740E+01   -1.717E+01   -1.695E+01   -1.672E+01   -1.649E+01   -1.626E+01   -1.603E+01
    -1.580E+01   -1.557E+01   -1.534E+01   -1.511E+01   -1.488E+01   -1.466E+01   -1.443E+01   -1.420E+01   -1.397E+01   -1.375E+01
    -1.352E+01   -1.330E+01   -1.308E+01   -1.285E+01   -1.263E+01   -1.241E+01   -1.219E+01   -1.197E+01   -1.175E+01   -1.154E+01
    -1.132E+01   -1.111E+01   -1.089E+01   -1.068E+01   -1.047E+01   -1.026E+01   -1.006E+01   -9.850E+00   -9.646E+00   -9.443E+00
    -9.242E+00   -9.043E+00   -8.845E+00   -8.649E+00   -8.454E+00   -8.261E+00   -8.069E+00   -7.879E+00   -7.691E+00   -7.504E+00
    -7.318E+00   -7.135E+00   -6.952E+00   -6.772E+00   -6.593E+00   -6.415E+00   -6.239E+00   -6.064E+00   -5.891E+00   -5.720E+00
    -5.550E+00   -5.382E+00   -5.215E+00   -5.050E+00   -4.886E+00   -4.724E+00   -4.563E+00   -4.404E+00   -4.247E+00   -4.091E+00
    -3.936E+00   -3.783E+00   -3.632E+00   -3.482E+00   -3.333E+00   -3.187E+00   -3.041E+00   -2.897E+00   -2.755E+00   -2.614E+00
    -2.475E+00   -2.337E+00   -2.201E+00   -2.066E+00   -1.933E+00   -1.801E+00   -1.671E+00   -1.542E+00   -1.414E+00   -1.288E+00
    -1.164E+00   -1.040E+00   -9.185E-01   -7.979E-01   -6.787E-01   -5.607E-01   -4.441E-01   -3.288E-01   -2.147E-01   -1.019E-01
     9.702E-03    1.201E-01    2.292E-01    3.371E-01    4.439E-01    5.495E-01    6.540E-01    7.573E-01    8.595E-01    9.606E-01
     1.061E+00    1.160E+00    1.257E+00    1.354E+00    1.450E+00    1.545E+00    1.639E+00    1.732E+00    1.823E+00    1.914E+00
     2.004E+00    2.093E+00    2.182E+00    2.269E+00    2.355E+00    2.441E+00    2.526E+00    2.609E+00    2.693E+00    2.775E+00
     2.856E+00    2.937E+00    3.017E+00    3.096E+00    3.174E+00    3.252E+00    3.329E+00    3.405E+00    3.481E+00    3.555E+00
     3.630E+00    3.703E+00    3.776E+00    3.848E+00    3.919E+00    3.990E+00    4.060E+00    4.130E+00    4.199E+00    4.267E+00
     4.335E+00    4.402E+00    4.468E+00    4.534E+00    4.600E+00    4.665E+00    4.729E+00    4.793E+00    4.857E+00    4.920E+00
     4.982E+00    5.044E+00    5.105E+00    5.166E+00    5.227E+00    5.287E+00    5.347E+00    5.406E+00    5.465E+00    5.524E+00
     5.582E+00    5.639E+00    5.697E+00    5.754E+00    5.811E+00    5.867E+00    5.923E+00    5.979E+00    6.034E+00    6.089E+00
     6.144E+00    6.198E+00    6.253E+00    6.306E+00    6.360E+00    6.414E+00    6.467E+00    6.520E+00    6.572E+00    6.625E+00
     6.677E+00    6.729E+00    6.781E+00    6.833E+00    6.884E+00    6.935E+00    6.986E+00    7.037E+00    7.088E+00    7.139E+00
     7.189E+00    7.240E+00    7.290E+00    7.340E+00    7.390E+00    7.440E+00    7.490E+00    7.540E+00    7.590E+00    7.639E+00
     7.689E+00    7.738E+00    7.788E+00    7.837E+00    7.887E+00    7.936E+00    7.986E+00    8.035E+00    8.085E+00    8.134E+00
     8.183E+00    8.233E+00    8.282E+00    8.332E+00    8.381E+00    8.430E+00    8.479E+00    8.529E+00    8.578E+00    8.627E+00
     8.676E+00    8.725E+00    8.774E+00    8.823E+00    8.872E+00    8.920E+00    8.969E+00    9.018E+00    9.066E+00    9.114E+00
     9.163E+00    9.211E+00    9.259E+00    9.306E+00    9.354E+00    9.402E+00    9.449E+00    9.497E+00    9.544E+00    9.591E+00
     9.638E+00    9.684E+00    9.731E+00    9.777E+00    9.823E+00    9.869E+00    9.915E+00    9.960E+00    1.001E+01    1.005E+01
     1.010E+01    1.014E+01    1.019E+01    1.023E+01    1.027E+01    1.032E+01    1.036E+01    1.040E+01    1.045E+01    1.049E+01
     1.053E+01    1.058E+01    1.062E+01    1.066E+01    1.070E+01    1.074E+01    1.079E+01    1.083E+01    1.087E+01    1.091E+01
     1.095E+01    1.099E+01    1.103E+01    1.107E+01    1.112E+01    1.116E+01    1.120E+01    1.124E+01    1.128E+01    1.132E+01
     1.136E+01    1.140E+01    1.144E+01    1.148E+01    1.152E+01    1.156E+01    1.160E+01    1.164E+01    1.167E+01    1.171E+01
     1.175E+01    1.179E+01    1.183E+01    1.187E+01    1.191E+01    1.195E+01    1.199E+01    1.203E+01
 Ala      Conc. = 3.86E+02
