 LCModel (Version 6.3-1L) Copyright: S.W. Provencher.          Ref.: Magn. Reson. Med. 30:672-679 (1993).                
 Slice#1 Row#3 Col#2  PD_05_press_2_raw_act
 36 lines in following concentration table = NCONC+1
    Conc.  %SD /Cr+PCr  Metabolite                                         
    0.000 999%   0.000 Ala                                                 
   29.032  64%   0.142 Asp                                                 
  112.731  44%   0.551 Cr                                                  
   91.908  55%   0.449 PCr                                                 
   17.897  62% 8.7E-02 GABA                                                
   18.748  59% 9.2E-02 Glc                                                 
   20.962 539%   0.102 Gln                                                 
  265.484  52%   1.297 Glu                                                 
   52.668  36%   0.257 GPC                                                 
    0.000 999%   0.000 PCh                                                 
   94.277  54%   0.461 GSH                                                 
  168.402  95%   0.823 Ins                                                 
  101.379  66%   0.495 Lac                                                 
  233.601  28%   1.142 NAA                                                 
    0.000 999%   0.000 NAAG                                                
    5.506  67% 2.7E-02 Scyllo                                              
   27.060  68%   0.132 Tau                                                 
   11.726 216% 5.7E-02 -CrCH2                                              
   52.668  36%   0.257 GPC+PCh                                             
  233.601  28%   1.142 NAA+NAAG                                            
  204.639  30%   1.000 Cr+PCr                                              
  286.447  58%   1.400 Glu+Gln                                             
 1.98E+04   9%  96.892 Lip13a                                              
    0.000 999%   0.000 Lip13b                                              
 3.02E+03  21%  14.751 Lip09                                               
 3.82E+03  10%  18.646 MM09                                                
 1.46E+03  44%   7.129 Lip20                                               
 5.19E+03  12%  25.374 MM20                                                
 1.15E+03  13%   5.632 MM12                                                
 4.44E+03   9%  21.721+MM14                                                
 2.14E+03  12%  10.475 MM17                                                
 1.98E+04   9%  96.892 Lip13a+Lip13b                                       
 2.54E+04   6% 124.244 MM14+Lip13a+Lip13b+MM12                             
 6.83E+03  10%  33.397 MM09+Lip09                                          
 6.65E+03   9%  32.503 MM20+Lip20                                          
   6 lines in following misc. output table
  FWHM = 0.023 ppm    S/N =   5                                            
  Data shift = 0.015 ppm                                                   
  Ph:  58 deg      10.5 deg/ppm                                            
  alphaB,S = 1.3E+00,   5.1E+00                                            
   14 spline knots.   Ns = 5(1)                                            
  ( 3) 2 infls.   ( 3) 2 extrs.                                            
  498 points on ppm-axis = NY
      4.000000     3.992357     3.984714     3.977070     3.969427     3.961784     3.954141     3.946497     3.938854     3.931211
      3.923568     3.915925     3.908281     3.900638     3.892995     3.885352     3.877708     3.870065     3.862422     3.854779
      3.847136     3.839492     3.831849     3.824206     3.816563     3.808919     3.801276     3.793633     3.785990     3.778347
      3.770703     3.763060     3.755417     3.747774     3.740130     3.732487     3.724844     3.717201     3.709558     3.701914
      3.694271     3.686628     3.678985     3.671341     3.663698     3.656055     3.648412     3.640769     3.633125     3.625482
      3.617839     3.610196     3.602552     3.594909     3.587266     3.579623     3.571980     3.564336     3.556693     3.549050
      3.541407     3.533763     3.526120     3.518477     3.510834     3.503191     3.495547     3.487904     3.480261     3.472618
      3.464974     3.457331     3.449688     3.442045     3.434402     3.426758     3.419115     3.411472     3.403829     3.396185
      3.388542     3.380899     3.373256     3.365613     3.357969     3.350326     3.342683     3.335040     3.327396     3.319753
      3.312110     3.304467     3.296824     3.289180     3.281537     3.273894     3.266251     3.258607     3.250964     3.243321
      3.235678     3.228034     3.220391     3.212748     3.205105     3.197462     3.189818     3.182175     3.174532     3.166889
      3.159245     3.151602     3.143959     3.136316     3.128673     3.121029     3.113386     3.105743     3.098100     3.090456
      3.082813     3.075170     3.067527     3.059884     3.052240     3.044597     3.036954     3.029311     3.021667     3.014024
      3.006381     2.998738     2.991095     2.983451     2.975808     2.968165     2.960522     2.952878     2.945235     2.937592
      2.929949     2.922306     2.914662     2.907019     2.899376     2.891733     2.884089     2.876446     2.868803     2.861160
      2.853517     2.845873     2.838230     2.830587     2.822944     2.815300     2.807657     2.800014     2.792371     2.784728
      2.777084     2.769441     2.761798     2.754155     2.746511     2.738868     2.731225     2.723582     2.715939     2.708295
      2.700652     2.693009     2.685366     2.677722     2.670079     2.662436     2.654793     2.647150     2.639506     2.631863
      2.624220     2.616577     2.608933     2.601290     2.593647     2.586004     2.578361     2.570717     2.563074     2.555431
      2.547788     2.540144     2.532501     2.524858     2.517215     2.509572     2.501928     2.494285     2.486642     2.478999
      2.471355     2.463712     2.456069     2.448426     2.440783     2.433139     2.425496     2.417853     2.410210     2.402566
      2.394923     2.387280     2.379637     2.371994     2.364350     2.356707     2.349064     2.341421     2.333777     2.326134
      2.318491     2.310848     2.303205     2.295561     2.287918     2.280275     2.272632     2.264988     2.257345     2.249702
      2.242059     2.234416     2.226772     2.219129     2.211486     2.203843     2.196199     2.188556     2.180913     2.173270
      2.165627     2.157983     2.150340     2.142697     2.135054     2.127410     2.119767     2.112124     2.104481     2.096838
      2.089194     2.081551     2.073908     2.066265     2.058621     2.050978     2.043335     2.035692     2.028049     2.020405
      2.012762     2.005119     1.997476     1.989833     1.982190     1.974546     1.966903     1.959260     1.951617     1.943974
      1.936331     1.928688     1.921045     1.913402     1.905759     1.898115     1.890472     1.882829     1.875186     1.867543
      1.859900     1.852257     1.844614     1.836971     1.829327     1.821684     1.814041     1.806398     1.798755     1.791112
      1.783469     1.775826     1.768183     1.760540     1.752896     1.745253     1.737610     1.729967     1.722324     1.714681
      1.707038     1.699395     1.691752     1.684108     1.676465     1.668822     1.661179     1.653536     1.645893     1.638250
      1.630607     1.622964     1.615321     1.607677     1.600034     1.592391     1.584748     1.577105     1.569462     1.561819
      1.554176     1.546533     1.538890     1.531246     1.523603     1.515960     1.508317     1.500674     1.493031     1.485388
      1.477745     1.470102     1.462458     1.454815     1.447172     1.439529     1.431886     1.424243     1.416600     1.408957
      1.401314     1.393671     1.386027     1.378384     1.370741     1.363098     1.355455     1.347812     1.340169     1.332526
      1.324883     1.317240     1.309596     1.301953     1.294310     1.286667     1.279024     1.271381     1.263738     1.256095
      1.248452     1.240808     1.233165     1.225522     1.217879     1.210236     1.202593     1.194950     1.187307     1.179664
      1.172021     1.164377     1.156734     1.149091     1.141448     1.133805     1.126162     1.118519     1.110876     1.103233
      1.095590     1.087946     1.080303     1.072660     1.065017     1.057374     1.049731     1.042088     1.034445     1.026802
      1.019158     1.011515     1.003872     0.996229     0.988586     0.980943     0.973300     0.965657     0.958014     0.950371
      0.942727     0.935084     0.927441     0.919798     0.912155     0.904512     0.896869     0.889226     0.881583     0.873940
      0.866296     0.858653     0.851010     0.843367     0.835724     0.828081     0.820438     0.812795     0.805152     0.797508
      0.789865     0.782222     0.774579     0.766936     0.759293     0.751650     0.744007     0.736364     0.728721     0.721077
      0.713434     0.705791     0.698148     0.690505     0.682862     0.675219     0.667576     0.659933     0.652290     0.644646
      0.637003     0.629360     0.621717     0.614074     0.606431     0.598788     0.591145     0.583502     0.575858     0.568215
      0.560572     0.552929     0.545286     0.537643     0.530000     0.522357     0.514714     0.507071     0.499427     0.491784
      0.484141     0.476498     0.468855     0.461212     0.453569     0.445925     0.438282     0.430639     0.422996     0.415353
      0.407710     0.400067     0.392424     0.384780     0.377137     0.369494     0.361851     0.354208     0.346565     0.338922
      0.331278     0.323635     0.315992     0.308349     0.300706     0.293063     0.285420     0.277777     0.270133     0.262490
      0.254847     0.247204     0.239561     0.231918     0.224275     0.216631     0.208988     0.201345
 NY phased data points follow
   2.50541E+01  2.33682E+01  3.00921E+01  2.76383E+01  1.84929E+01  1.91814E+01  3.47802E+01  3.18697E+01  4.56589E+01  2.13168E+01
   3.93681E+01  3.33612E+01  2.40008E+01  3.94607E+01  4.00502E+01  2.41743E+01  2.77730E+01  2.70982E+01  2.59927E+01  2.66961E+01
   2.38867E+01  2.61339E+01  2.44101E+01  2.29582E+01  2.67665E+01  2.49360E+01  2.00394E+01  2.90198E+01  2.20814E+01  3.09697E+01
   3.13340E+01  2.83052E+01  1.81495E+01  1.55579E+01  2.60133E+01  2.44297E+01  2.79695E+01  1.55776E+01  2.98002E+01  2.29469E+01
   8.20770E+00  1.17182E+01  2.04750E+01  1.98248E+01  2.24995E+01  2.37358E+01  1.64599E+01  1.85595E+01  1.54167E+01  9.01791E+00
   3.44563E+01  1.53769E+01  2.54526E+01  2.30405E+01  2.04868E+01  2.42483E+01  1.25784E+01  1.00226E+01  1.48565E+01  1.51808E+01
   2.16397E+01  1.71587E+01  2.47757E+01  1.28419E+01  8.25095E+00  8.64484E+00  1.11416E+01  1.45500E+00  9.52824E-01  9.91209E+00
   8.97108E+00  1.20241E+01  1.36268E+01  1.24916E+01  2.18728E+01  1.05718E+01  1.88710E+01  7.88616E+00  6.53172E+00  2.36497E+01
   1.19661E+01  1.42970E+01  1.18495E+01  4.31118E+00  4.05239E+00  9.35551E+00  1.24662E+01  2.19511E+00  2.48124E+00  9.87898E+00
   1.41463E+01  3.24116E+00  8.23187E+00  1.30786E+01  5.05956E+00  7.91009E+00  5.92330E+00  6.82860E+00  1.63694E+01  4.63690E+00
  -3.13665E+00 -3.57282E+00  4.12526E+00  2.57167E+01  2.70513E+01  1.82228E+01  7.80911E+00  9.48095E+00  5.65784E+00  5.99626E+00
   1.01572E+01 -2.61481E+00  1.32738E+01  2.29297E+01  4.74027E+00  1.01254E+00  6.31938E+00  9.03755E+00  6.41769E+00 -8.90135E+00
  -6.30305E+00 -2.96443E+00  1.96600E-01 -1.51889E+00  6.79426E+00  3.18281E+00  7.21455E+00  1.58803E+01  3.40811E+01  2.00095E+01
   1.80227E+01  1.87804E+01  5.09635E+00 -2.52849E+00  9.91970E+00  6.60074E+00  1.48652E+01  1.94876E+00  7.34885E+00  1.46169E+01
   7.96901E+00  8.86008E+00  6.70776E+00  9.38218E+00  1.02737E+01  8.76185E+00  3.87053E+00  5.77424E+00  7.43051E+00  2.38460E+01
   4.80905E+00  1.16438E+01  1.08831E+01  1.30548E+01  6.20678E+00  2.47244E+00  9.10797E+00  9.86447E-01  1.64592E+01  9.80591E+00
   1.50891E+00  1.30841E+01 -2.99704E+00 -2.72857E+00 -3.32070E+00  1.11940E+01  3.29208E+00  1.48920E+01  5.38369E+00  9.60485E+00
   1.17670E+00  9.29998E+00  7.21018E+00 -1.93147E+00  2.70531E+00 -8.48867E+00  1.03708E+00  1.73292E+00 -2.10664E+00  4.45998E+00
   5.33789E+00 -3.21459E+00 -6.13035E-01 -1.03838E+01 -5.30275E+00 -5.01306E+00 -6.06171E+00 -1.20718E+00 -1.04498E+00 -5.68809E+00
  -4.16468E+00 -9.85037E+00  3.97936E+00  1.27681E+00  5.65774E-01  3.88286E+00 -6.68115E-01  3.58579E+00 -4.74632E+00 -7.72102E+00
  -1.24883E+01 -8.86338E+00  4.12768E+00  5.46042E+00  1.11793E+01 -3.98281E-01  7.64629E+00  7.49296E+00  3.28615E+00 -6.16078E-01
  -8.01254E-01 -2.37739E+00 -8.07147E+00  7.68173E+00  1.82005E+00  1.31517E+01  9.81422E+00  1.01081E+01  1.52909E+01  7.53256E+00
   3.23748E+00  5.76409E+00  1.01275E+01  7.87558E+00  3.96424E+00  1.64777E+00  8.07413E+00  1.86034E+01  1.21384E+01  1.65074E+01
   1.23789E+01  1.51925E+01 -4.94702E+00 -4.00061E+00  1.22321E+01  2.01760E+01  1.22192E+01  2.12625E+01  2.12198E+01  1.83253E+01
   1.72290E+01  1.56067E+01  1.68824E+01  2.54718E+01  2.17315E+01  2.05087E+01  1.22460E+01  2.89602E+01  2.54923E+01  2.69490E+01
   1.99259E+01  1.30076E+01  2.64786E+00  1.66612E+01  1.15056E+01  1.33624E+01  9.22878E+00  1.07963E+01  9.49935E+00  2.81192E+01
   4.17361E+01  3.50030E+01  4.18718E+01  1.47998E+01  1.20172E+01  1.01680E+01  4.55362E+00  2.99368E-01  7.57905E-01  9.29609E+00
   9.62877E+00  2.11344E+00  1.01352E+01  1.16015E+01  1.46654E+01  1.09571E+01  1.27853E+01  8.76492E+00  3.92937E+00 -2.23924E-01
   6.42721E+00 -1.33821E+00 -2.52412E+00  1.49114E+00  6.12654E+00 -3.85496E+00  5.69753E+00  2.06797E+00  5.82893E+00 -3.21652E+00
  -2.58170E+00 -4.75220E+00 -7.30318E-01  2.32363E+00  4.49442E+00  5.02314E+00  7.77252E+00  5.18694E+00  1.49524E+01  1.06799E+01
   1.20497E+01  1.05117E+01  7.38047E+00  7.54089E+00  1.16854E+01  1.19419E+01  2.14280E+01  1.44321E+01  1.69890E+01  4.74679E+00
   1.13016E+01  1.60545E+01  1.80577E+01  4.21236E+01  2.80812E+01  2.35946E+01  4.34658E+01  3.62763E+01  3.69711E+01  4.79463E+01
   4.87453E+01  5.29492E+01  6.15892E+01  6.10036E+01  6.25607E+01  6.87505E+01  8.21859E+01  8.10581E+01  8.31640E+01  8.87998E+01
   8.27577E+01  8.85429E+01  9.56195E+01  9.93471E+01  9.17644E+01  9.50470E+01  9.30569E+01  8.48036E+01  8.30345E+01  8.42029E+01
   7.82228E+01  7.53806E+01  7.05544E+01  7.47531E+01  6.68571E+01  6.51209E+01  7.41988E+01  7.15397E+01  7.29547E+01  5.92474E+01
   6.24972E+01  6.10729E+01  5.17648E+01  4.64834E+01  6.44610E+01  6.49357E+01  6.28497E+01  5.36759E+01  5.15044E+01  4.71095E+01
   6.10949E+01  5.31863E+01  6.24710E+01  5.02175E+01  5.12137E+01  4.39298E+01  3.54300E+01  4.20880E+01  4.83333E+01  3.43213E+01
   5.57703E+01  3.97636E+01  4.51376E+01  3.82705E+01  5.04018E+01  4.06912E+01  3.91811E+01  4.38639E+01  4.44359E+01  4.57487E+01
   3.84076E+01  3.05110E+01  3.20920E+01  2.48780E+01  3.10881E+01  2.45725E+01  3.04771E+01  2.44273E+01  1.85650E+01  2.18953E+01
   3.94567E+01  3.00381E+01  3.57523E+01  2.77302E+01  1.83513E+01  3.70578E+01  2.32683E+01  2.23815E+01  1.23753E+01  2.24443E+01
   2.43016E+01  2.04719E+01  2.50037E+01  2.08431E+01  1.33145E+01  1.34469E+01  1.49589E+01  8.19350E+00  2.13822E+01  1.67361E+01
   1.72687E+01  1.20005E+01  7.57227E+00  2.00306E+01  1.25140E+01  1.38394E+01  1.03692E+01  1.76752E+01  9.02392E+00  1.15623E+01
   2.44613E+01  1.45138E+01  1.11798E+01  8.81804E+00  9.55205E+00  9.43800E+00  1.43430E+01  2.48746E+00  1.41012E+01  1.00515E+01
   9.90387E+00  1.30193E+01  1.06409E+01  9.34767E+00  2.38511E+01  1.27811E+01  7.78326E-01  1.31385E+01  1.04746E+01 -4.75893E+00
   4.97432E+00  7.11468E+00  1.16922E+01  5.44313E+00  6.79957E+00  9.80236E+00  9.79339E+00  8.10990E+00  2.17167E+01  4.13820E+00
   4.97079E+00  1.01674E+01  4.68674E+00  9.71292E+00  1.17433E+01  7.61121E+00  8.02348E+00 -1.67165E-01  4.40019E+00 -5.88510E+00
   1.66730E+00  9.51189E+00 -7.57762E+00 -5.70976E+00  6.42454E+00  1.03473E+01  1.00941E+01 -7.37397E-01  2.14623E+00 -2.94061E+00
  -1.02177E-01  1.17453E+01  1.99964E+00  1.16571E+01  4.94272E+00  3.44541E+00  1.62690E+00  4.24787E+00  1.09926E+01 -6.17092E+00
  -3.83260E+00  4.54899E+00 -6.07989E+00  1.43135E+00  6.94679E+00  4.44810E+00  2.80966E+00  5.78130E+00  2.51658E+00  2.41321E+00
   9.55113E+00 -8.40513E+00 -3.72036E-01  8.03761E+00 -2.33700E+00  3.80902E+00  9.79982E+00 -2.84609E+00
 NY points of the fit to the data follow
   2.45022E+01  2.42719E+01  2.40608E+01  2.35210E+01  2.25608E+01  2.19576E+01  2.24059E+01  2.36690E+01  2.51368E+01  2.64253E+01
   2.77680E+01  2.93695E+01  3.06514E+01  3.05647E+01  2.85071E+01  2.54180E+01  2.29647E+01  2.19224E+01  2.17712E+01  2.16603E+01
   2.14959E+01  2.14294E+01  2.12715E+01  2.09892E+01  2.04486E+01  1.93842E+01  1.84034E+01  1.83727E+01  1.99058E+01  2.25232E+01
   2.46994E+01  2.53475E+01  2.43086E+01  2.26982E+01  2.15658E+01  2.07539E+01  1.98141E+01  1.85341E+01  1.75168E+01  1.70898E+01
   1.71360E+01  1.74214E+01  1.74957E+01  1.70966E+01  1.65460E+01  1.65991E+01  1.77508E+01  1.95357E+01  2.07867E+01  2.05967E+01
   1.90372E+01  1.70680E+01  1.56651E+01  1.50980E+01  1.50084E+01  1.49494E+01  1.47977E+01  1.46640E+01  1.47747E+01  1.52173E+01
   1.57938E+01  1.61055E+01  1.58273E+01  1.50391E+01  1.41058E+01  1.34294E+01  1.31755E+01  1.31789E+01  1.32545E+01  1.32772E+01
   1.32541E+01  1.32386E+01  1.32534E+01  1.32966E+01  1.33183E+01  1.32744E+01  1.31177E+01  1.27893E+01  1.23205E+01  1.18371E+01
   1.14984E+01  1.13079E+01  1.12491E+01  1.13692E+01  1.16872E+01  1.20168E+01  1.19978E+01  1.14164E+01  1.04571E+01  9.61319E+00
   9.31322E+00  9.51242E+00  9.84783E+00  1.00034E+01  9.96090E+00  9.88436E+00  9.80728E+00  9.41741E+00  7.67665E+00  4.87209E+00
   3.63350E+00  6.62024E+00  1.40203E+01  2.20025E+01  2.56351E+01  2.29589E+01  1.63722E+01  1.06452E+01  8.19782E+00  8.27209E+00
   8.84231E+00  8.95873E+00  9.00416E+00  9.05522E+00  9.12288E+00  9.21311E+00  9.31408E+00  9.37693E+00  9.35155E+00  9.20501E+00
   8.86854E+00  7.89001E+00  5.96492E+00  3.78553E+00  3.73526E+00  8.11258E+00  1.64535E+01  2.49617E+01  2.87754E+01  2.60424E+01
   1.94157E+01  1.33916E+01  1.06927E+01  1.04229E+01  1.02891E+01  9.05861E+00  7.26076E+00  6.04218E+00  5.95833E+00  6.81702E+00
   8.00303E+00  8.83825E+00  9.01596E+00  8.62453E+00  7.99139E+00  7.49125E+00  7.19408E+00  7.01910E+00  6.84290E+00  6.62106E+00
   6.38820E+00  6.13391E+00  5.86230E+00  5.60037E+00  5.39728E+00  5.31676E+00  5.37788E+00  5.45418E+00  5.33299E+00  4.86902E+00
   4.14687E+00  3.54187E+00  3.37207E+00  3.65452E+00  4.06241E+00  4.18598E+00  3.91348E+00  3.41426E+00  2.97818E+00  2.73528E+00
   2.63685E+00  2.62682E+00  2.56655E+00  2.32087E+00  1.84139E+00  1.28835E+00  1.01035E+00  1.14307E+00  1.45704E+00  1.56296E+00
   1.29666E+00  9.12662E-01  7.62586E-01  8.22889E-01  7.31254E-01  2.23244E-01 -4.47560E-01 -7.11792E-01 -1.56510E-01  1.05443E+00
   2.31679E+00  3.01162E+00  2.98502E+00  2.48297E+00  1.77721E+00  1.02624E+00  3.27224E-01 -1.36243E-01 -1.64509E-01  2.37842E-01
   9.09977E-01  1.57457E+00  2.15627E+00  2.77245E+00  3.35813E+00  3.83305E+00  3.97795E+00  3.77229E+00  3.32422E+00  2.62477E+00
   1.75555E+00  7.87149E-01  2.15188E-01  9.26174E-01  3.25480E+00  6.68044E+00  9.69522E+00  1.10463E+01  1.05085E+01  8.56437E+00
   5.99136E+00  3.39322E+00  1.47382E+00  1.14649E+00  2.85720E+00  6.04634E+00  9.28482E+00  1.13799E+01  1.20522E+01  1.17230E+01
   1.09295E+01  1.01992E+01  9.96296E+00  1.05760E+01  1.20379E+01  1.39439E+01  1.58084E+01  1.70937E+01  1.75385E+01  1.71640E+01
   1.62538E+01  1.53877E+01  1.51078E+01  1.57416E+01  1.72623E+01  1.93143E+01  2.13310E+01  2.26835E+01  2.30926E+01  2.26614E+01
   2.17888E+01  2.09006E+01  2.03714E+01  2.03361E+01  2.01896E+01  1.79134E+01  1.38823E+01  1.20314E+01  1.64045E+01  2.70815E+01
   3.80885E+01  4.22712E+01  3.70209E+01  2.63046E+01  1.72142E+01  1.29865E+01  1.23527E+01  1.22532E+01  1.15434E+01  1.07253E+01
   9.85065E+00  8.99932E+00  8.31293E+00  7.90902E+00  7.70830E+00  7.55825E+00  7.32842E+00  6.97574E+00  6.53909E+00  6.08880E+00
   5.67110E+00  5.31155E+00  5.03483E+00  4.85890E+00  4.77386E+00  4.74756E+00  4.75194E+00  4.76921E+00  4.80046E+00  4.85220E+00
   4.93177E+00  5.04303E+00  5.18270E+00  5.34811E+00  5.54299E+00  5.77115E+00  6.03455E+00  6.33396E+00  6.67073E+00  7.04826E+00
   7.47147E+00  7.94926E+00  8.49230E+00  9.11244E+00  9.82263E+00  1.06380E+01  1.15768E+01  1.26615E+01  1.39173E+01  1.53702E+01
   1.70460E+01  1.89684E+01  2.11591E+01  2.36354E+01  2.64088E+01  2.94829E+01  3.28509E+01  3.64943E+01  4.03813E+01  4.44674E+01
   4.86962E+01  5.30004E+01  5.73040E+01  6.15246E+01  6.55775E+01  6.93805E+01  7.28578E+01  7.59435E+01  7.85849E+01  8.07447E+01
   8.24032E+01  8.35593E+01  8.42296E+01  8.44464E+01  8.42543E+01  8.37075E+01  8.28663E+01  8.17938E+01  8.05507E+01  7.91891E+01
   7.77407E+01  7.61841E+01  7.44971E+01  7.32451E+01  7.30679E+01  7.38794E+01  7.46157E+01  7.38162E+01  7.10342E+01  6.71257E+01
   6.32300E+01  6.02884E+01  5.85405E+01  5.81633E+01  5.91583E+01  6.08967E+01  6.20756E+01  6.15033E+01  5.92790E+01  5.65841E+01
   5.42950E+01  5.25939E+01  5.10561E+01  4.95097E+01  4.79907E+01  4.65180E+01  4.51052E+01  4.37651E+01  4.25095E+01  4.13491E+01
   4.02920E+01  3.93440E+01  3.85086E+01  3.77865E+01  3.71757E+01  3.66707E+01  3.62631E+01  3.59413E+01  3.56914E+01  3.54976E+01
   3.53423E+01  3.52068E+01  3.50720E+01  3.49193E+01  3.47314E+01  3.44932E+01  3.41919E+01  3.38178E+01  3.33645E+01  3.28293E+01
   3.22136E+01  3.15218E+01  3.07616E+01  2.99434E+01  2.90793E+01  2.81829E+01  2.72685E+01  2.63504E+01  2.54418E+01  2.45549E+01
   2.37000E+01  2.28853E+01  2.21169E+01  2.13987E+01  2.07320E+01  2.01162E+01  1.95485E+01  1.90250E+01  1.85403E+01  1.80883E+01
   1.76621E+01  1.72548E+01  1.68595E+01  1.64699E+01  1.60804E+01  1.56858E+01  1.52823E+01  1.48666E+01  1.44369E+01  1.39922E+01
   1.35325E+01  1.30586E+01  1.25721E+01  1.20752E+01  1.15705E+01  1.10612E+01  1.05504E+01  1.00415E+01  9.53773E+00  9.04209E+00
   8.55752E+00  8.08664E+00  7.63167E+00  7.19447E+00  6.77649E+00  6.37891E+00  6.00252E+00  5.64782E+00  5.31491E+00  5.00367E+00
   4.71375E+00  4.44470E+00  4.19586E+00  3.96649E+00  3.75567E+00  3.56250E+00  3.38601E+00  3.22530E+00  3.07942E+00  2.94745E+00
   2.82842E+00  2.72146E+00  2.62576E+00  2.54057E+00  2.46514E+00  2.39880E+00  2.34084E+00  2.29069E+00  2.24779E+00  2.21167E+00
   2.18182E+00  2.15778E+00  2.13912E+00  2.12549E+00  2.11656E+00  2.11204E+00  2.11159E+00  2.11493E+00  2.12177E+00  2.13194E+00
   2.14521E+00  2.16141E+00  2.18032E+00  2.20176E+00  2.22556E+00  2.25163E+00  2.27983E+00  2.31003E+00  2.34207E+00  2.37585E+00
   2.41127E+00  2.44828E+00  2.48677E+00  2.52668E+00  2.56787E+00  2.61030E+00  2.65390E+00  2.69866E+00  2.74449E+00  2.79133E+00
   2.83908E+00  2.88775E+00  2.93728E+00  2.98768E+00  3.03886E+00  3.09078E+00  3.14339E+00  3.19669E+00
 NY background values follow
     2.344E+01    2.326E+01    2.309E+01    2.291E+01    2.273E+01    2.255E+01    2.237E+01    2.220E+01    2.202E+01    2.184E+01
     2.166E+01    2.148E+01    2.130E+01    2.113E+01    2.095E+01    2.077E+01    2.059E+01    2.041E+01    2.024E+01    2.006E+01
     1.988E+01    1.970E+01    1.953E+01    1.935E+01    1.917E+01    1.899E+01    1.882E+01    1.864E+01    1.846E+01    1.828E+01
     1.811E+01    1.793E+01    1.775E+01    1.758E+01    1.740E+01    1.723E+01    1.705E+01    1.687E+01    1.670E+01    1.652E+01
     1.635E+01    1.617E+01    1.600E+01    1.582E+01    1.565E+01    1.547E+01    1.530E+01    1.513E+01    1.495E+01    1.478E+01
     1.460E+01    1.443E+01    1.426E+01    1.409E+01    1.391E+01    1.374E+01    1.357E+01    1.340E+01    1.323E+01    1.306E+01
     1.289E+01    1.272E+01    1.255E+01    1.238E+01    1.221E+01    1.204E+01    1.187E+01    1.171E+01    1.154E+01    1.137E+01
     1.121E+01    1.104E+01    1.088E+01    1.071E+01    1.055E+01    1.038E+01    1.022E+01    1.006E+01    9.896E+00    9.734E+00
     9.573E+00    9.413E+00    9.253E+00    9.093E+00    8.935E+00    8.777E+00    8.619E+00    8.462E+00    8.306E+00    8.150E+00
     7.996E+00    7.841E+00    7.688E+00    7.535E+00    7.383E+00    7.231E+00    7.080E+00    6.930E+00    6.781E+00    6.632E+00
     6.484E+00    6.337E+00    6.190E+00    6.044E+00    5.899E+00    5.754E+00    5.611E+00    5.468E+00    5.325E+00    5.184E+00
     5.043E+00    4.903E+00    4.763E+00    4.625E+00    4.487E+00    4.350E+00    4.214E+00    4.078E+00    3.943E+00    3.809E+00
     3.676E+00    3.543E+00    3.412E+00    3.281E+00    3.151E+00    3.021E+00    2.893E+00    2.765E+00    2.638E+00    2.512E+00
     2.386E+00    2.262E+00    2.138E+00    2.015E+00    1.893E+00    1.772E+00    1.651E+00    1.531E+00    1.413E+00    1.295E+00
     1.178E+00    1.061E+00    9.457E-01    8.310E-01    7.172E-01    6.042E-01    4.921E-01    3.808E-01    2.703E-01    1.607E-01
     5.194E-02   -5.599E-02   -1.631E-01   -2.693E-01   -3.747E-01   -4.792E-01   -5.829E-01   -6.857E-01   -7.877E-01   -8.888E-01
    -9.891E-01   -1.088E+00   -1.187E+00   -1.285E+00   -1.382E+00   -1.478E+00   -1.573E+00   -1.667E+00   -1.760E+00   -1.853E+00
    -1.944E+00   -2.035E+00   -2.125E+00   -2.214E+00   -2.302E+00   -2.389E+00   -2.476E+00   -2.561E+00   -2.646E+00   -2.730E+00
    -2.812E+00   -2.894E+00   -2.976E+00   -3.056E+00   -3.135E+00   -3.213E+00   -3.291E+00   -3.368E+00   -3.444E+00   -3.518E+00
    -3.592E+00   -3.666E+00   -3.738E+00   -3.809E+00   -3.880E+00   -3.949E+00   -4.018E+00   -4.086E+00   -4.153E+00   -4.219E+00
    -4.284E+00   -4.348E+00   -4.412E+00   -4.474E+00   -4.536E+00   -4.597E+00   -4.656E+00   -4.715E+00   -4.774E+00   -4.831E+00
    -4.887E+00   -4.943E+00   -4.997E+00   -5.051E+00   -5.104E+00   -5.156E+00   -5.207E+00   -5.257E+00   -5.306E+00   -5.354E+00
    -5.402E+00   -5.448E+00   -5.494E+00   -5.539E+00   -5.583E+00   -5.626E+00   -5.668E+00   -5.710E+00   -5.750E+00   -5.789E+00
    -5.828E+00   -5.866E+00   -5.903E+00   -5.939E+00   -5.974E+00   -6.008E+00   -6.042E+00   -6.074E+00   -6.106E+00   -6.137E+00
    -6.167E+00   -6.196E+00   -6.224E+00   -6.251E+00   -6.278E+00   -6.303E+00   -6.328E+00   -6.352E+00   -6.375E+00   -6.397E+00
    -6.418E+00   -6.439E+00   -6.458E+00   -6.477E+00   -6.495E+00   -6.512E+00   -6.528E+00   -6.544E+00   -6.558E+00   -6.572E+00
    -6.585E+00   -6.597E+00   -6.608E+00   -6.618E+00   -6.628E+00   -6.636E+00   -6.644E+00   -6.651E+00   -6.657E+00   -6.662E+00
    -6.667E+00   -6.670E+00   -6.673E+00   -6.675E+00   -6.676E+00   -6.677E+00   -6.676E+00   -6.675E+00   -6.673E+00   -6.670E+00
    -6.667E+00   -6.662E+00   -6.657E+00   -6.651E+00   -6.645E+00   -6.637E+00   -6.629E+00   -6.620E+00   -6.611E+00   -6.601E+00
    -6.590E+00   -6.578E+00   -6.566E+00   -6.553E+00   -6.539E+00   -6.525E+00   -6.510E+00   -6.494E+00   -6.478E+00   -6.461E+00
    -6.444E+00   -6.426E+00   -6.407E+00   -6.388E+00   -6.368E+00   -6.347E+00   -6.326E+00   -6.304E+00   -6.282E+00   -6.259E+00
    -6.236E+00   -6.212E+00   -6.187E+00   -6.162E+00   -6.137E+00   -6.111E+00   -6.084E+00   -6.057E+00   -6.029E+00   -6.001E+00
    -5.973E+00   -5.943E+00   -5.914E+00   -5.884E+00   -5.853E+00   -5.822E+00   -5.791E+00   -5.759E+00   -5.726E+00   -5.693E+00
    -5.660E+00   -5.626E+00   -5.592E+00   -5.557E+00   -5.522E+00   -5.486E+00   -5.450E+00   -5.414E+00   -5.377E+00   -5.339E+00
    -5.302E+00   -5.263E+00   -5.225E+00   -5.185E+00   -5.146E+00   -5.106E+00   -5.066E+00   -5.025E+00   -4.984E+00   -4.942E+00
    -4.900E+00   -4.858E+00   -4.815E+00   -4.772E+00   -4.728E+00   -4.684E+00   -4.640E+00   -4.595E+00   -4.550E+00   -4.504E+00
    -4.458E+00   -4.412E+00   -4.366E+00   -4.319E+00   -4.271E+00   -4.224E+00   -4.176E+00   -4.127E+00   -4.079E+00   -4.029E+00
    -3.980E+00   -3.930E+00   -3.880E+00   -3.830E+00   -3.779E+00   -3.728E+00   -3.676E+00   -3.625E+00   -3.572E+00   -3.520E+00
    -3.467E+00   -3.414E+00   -3.361E+00   -3.307E+00   -3.253E+00   -3.199E+00   -3.144E+00   -3.089E+00   -3.034E+00   -2.979E+00
    -2.923E+00   -2.867E+00   -2.810E+00   -2.753E+00   -2.696E+00   -2.639E+00   -2.582E+00   -2.524E+00   -2.466E+00   -2.407E+00
    -2.349E+00   -2.290E+00   -2.230E+00   -2.171E+00   -2.111E+00   -2.051E+00   -1.991E+00   -1.930E+00   -1.870E+00   -1.809E+00
    -1.747E+00   -1.686E+00   -1.624E+00   -1.562E+00   -1.500E+00   -1.438E+00   -1.375E+00   -1.312E+00   -1.249E+00   -1.186E+00
    -1.123E+00   -1.059E+00   -9.955E-01   -9.316E-01   -8.676E-01   -8.035E-01   -7.392E-01   -6.747E-01   -6.102E-01   -5.455E-01
    -4.807E-01   -4.158E-01   -3.507E-01   -2.856E-01   -2.204E-01   -1.551E-01   -8.967E-02   -2.420E-02    4.135E-02    1.070E-01
     1.726E-01    2.383E-01    3.041E-01    3.699E-01    4.357E-01    5.016E-01    5.675E-01    6.334E-01    6.993E-01    7.652E-01
     8.311E-01    8.970E-01    9.629E-01    1.029E+00    1.095E+00    1.161E+00    1.226E+00    1.292E+00    1.358E+00    1.424E+00
     1.489E+00    1.555E+00    1.621E+00    1.687E+00    1.752E+00    1.818E+00    1.884E+00    1.949E+00    2.015E+00    2.080E+00
     2.146E+00    2.212E+00    2.277E+00    2.343E+00    2.408E+00    2.474E+00    2.539E+00    2.605E+00    2.670E+00    2.736E+00
     2.801E+00    2.867E+00    2.932E+00    2.998E+00    3.063E+00    3.129E+00    3.194E+00    3.260E+00    3.325E+00    3.390E+00
     3.456E+00    3.521E+00    3.587E+00    3.652E+00    3.717E+00    3.783E+00    3.848E+00    3.914E+00
 Asp      Conc. = 2.90E+01
