 LCModel (Version 6.3-1L) Copyright: S.W. Provencher.          Ref.: Magn. Reson. Med. 30:672-679 (1993).                
 Slice#1 Row#3 Col#1  PD_05_press_2_raw_act
 36 lines in following concentration table = NCONC+1
    Conc.  %SD /Cr+PCr  Metabolite                                         
    0.000 999%   0.000 Ala                                                 
   35.593  37%   0.115 Asp                                                 
  150.823 154%   0.487 Cr                                                  
  158.889 146%   0.513 PCr                                                 
   21.543  37% 7.0E-02 GABA                                                
   21.589  37% 7.0E-02 Glc                                                 
  344.546  92%   1.112 Gln                                                 
  260.378 134%   0.841 Glu                                                 
   56.298  52%   0.182 GPC                                                 
    0.000 999%   0.000 PCh                                                 
  195.845  56%   0.632 GSH                                                 
 1.15E+03  32%   3.701 Ins                                                 
    0.000 999%   0.000 Lac                                                 
  236.475  38%   0.764 NAA                                                 
    0.000 999%   0.000 NAAG                                                
    7.123  37% 2.3E-02 Scyllo                                              
   34.857  38%   0.113 Tau                                                 
   26.231  60% 8.5E-02 -CrCH2                                              
   56.298  52%   0.182 GPC+PCh                                             
  236.475  38%   0.764 NAA+NAAG                                            
  309.711  25%   1.000 Cr+PCr                                              
  604.924  78%   1.953 Glu+Gln                                             
 1.64E+03  33%   5.307 Lip13a                                              
    0.000 999%   0.000 Lip13b                                              
    0.000 999%   0.000 Lip09                                               
 2.33E+03  12%   7.513 MM09                                                
  148.713 200%   0.480 Lip20                                               
 3.31E+03  13%  10.696 MM20                                                
  715.537  17%   2.310 MM12                                                
 3.58E+03   7%  11.544+MM14                                                
  763.032  32%   2.464 MM17                                                
 1.64E+03  33%   5.307 Lip13a+Lip13b                                       
 5.93E+03   9%  19.161 MM14+Lip13a+Lip13b+MM12                             
 2.33E+03  12%   7.513 MM09+Lip09                                          
 3.46E+03  13%  11.177 MM20+Lip20                                          
   6 lines in following misc. output table
  FWHM = 0.054 ppm    S/N =   2                                            
  Data shift = 0.031 ppm                                                   
  Ph:  98 deg      11.3 deg/ppm                                            
  alphaB,S = 1.0E+00,   2.1E+01                                            
   14 spline knots.   Ns = 5(1)                                            
  ( 4) 2 infls.   ( 6) 1 extrs.                                            
  498 points on ppm-axis = NY
      4.000000     3.992357     3.984714     3.977070     3.969427     3.961784     3.954141     3.946497     3.938854     3.931211
      3.923568     3.915925     3.908281     3.900638     3.892995     3.885352     3.877708     3.870065     3.862422     3.854779
      3.847136     3.839492     3.831849     3.824206     3.816563     3.808919     3.801276     3.793633     3.785990     3.778347
      3.770703     3.763060     3.755417     3.747774     3.740130     3.732487     3.724844     3.717201     3.709558     3.701914
      3.694271     3.686628     3.678985     3.671341     3.663698     3.656055     3.648412     3.640769     3.633125     3.625482
      3.617839     3.610196     3.602552     3.594909     3.587266     3.579623     3.571980     3.564336     3.556693     3.549050
      3.541407     3.533763     3.526120     3.518477     3.510834     3.503191     3.495547     3.487904     3.480261     3.472618
      3.464974     3.457331     3.449688     3.442045     3.434402     3.426758     3.419115     3.411472     3.403829     3.396185
      3.388542     3.380899     3.373256     3.365613     3.357969     3.350326     3.342683     3.335040     3.327396     3.319753
      3.312110     3.304467     3.296824     3.289180     3.281537     3.273894     3.266251     3.258607     3.250964     3.243321
      3.235678     3.228034     3.220391     3.212748     3.205105     3.197462     3.189818     3.182175     3.174532     3.166889
      3.159245     3.151602     3.143959     3.136316     3.128673     3.121029     3.113386     3.105743     3.098100     3.090456
      3.082813     3.075170     3.067527     3.059884     3.052240     3.044597     3.036954     3.029311     3.021667     3.014024
      3.006381     2.998738     2.991095     2.983451     2.975808     2.968165     2.960522     2.952878     2.945235     2.937592
      2.929949     2.922306     2.914662     2.907019     2.899376     2.891733     2.884089     2.876446     2.868803     2.861160
      2.853517     2.845873     2.838230     2.830587     2.822944     2.815300     2.807657     2.800014     2.792371     2.784728
      2.777084     2.769441     2.761798     2.754155     2.746511     2.738868     2.731225     2.723582     2.715939     2.708295
      2.700652     2.693009     2.685366     2.677722     2.670079     2.662436     2.654793     2.647150     2.639506     2.631863
      2.624220     2.616577     2.608933     2.601290     2.593647     2.586004     2.578361     2.570717     2.563074     2.555431
      2.547788     2.540144     2.532501     2.524858     2.517215     2.509572     2.501928     2.494285     2.486642     2.478999
      2.471355     2.463712     2.456069     2.448426     2.440783     2.433139     2.425496     2.417853     2.410210     2.402566
      2.394923     2.387280     2.379637     2.371994     2.364350     2.356707     2.349064     2.341421     2.333777     2.326134
      2.318491     2.310848     2.303205     2.295561     2.287918     2.280275     2.272632     2.264988     2.257345     2.249702
      2.242059     2.234416     2.226772     2.219129     2.211486     2.203843     2.196199     2.188556     2.180913     2.173270
      2.165627     2.157983     2.150340     2.142697     2.135054     2.127410     2.119767     2.112124     2.104481     2.096838
      2.089194     2.081551     2.073908     2.066265     2.058621     2.050978     2.043335     2.035692     2.028049     2.020405
      2.012762     2.005119     1.997476     1.989833     1.982190     1.974546     1.966903     1.959260     1.951617     1.943974
      1.936331     1.928688     1.921045     1.913402     1.905759     1.898115     1.890472     1.882829     1.875186     1.867543
      1.859900     1.852257     1.844614     1.836971     1.829327     1.821684     1.814041     1.806398     1.798755     1.791112
      1.783469     1.775826     1.768183     1.760540     1.752896     1.745253     1.737610     1.729967     1.722324     1.714681
      1.707038     1.699395     1.691752     1.684108     1.676465     1.668822     1.661179     1.653536     1.645893     1.638250
      1.630607     1.622964     1.615321     1.607677     1.600034     1.592391     1.584748     1.577105     1.569462     1.561819
      1.554176     1.546533     1.538890     1.531246     1.523603     1.515960     1.508317     1.500674     1.493031     1.485388
      1.477745     1.470102     1.462458     1.454815     1.447172     1.439529     1.431886     1.424243     1.416600     1.408957
      1.401314     1.393671     1.386027     1.378384     1.370741     1.363098     1.355455     1.347812     1.340169     1.332526
      1.324883     1.317240     1.309596     1.301953     1.294310     1.286667     1.279024     1.271381     1.263738     1.256095
      1.248452     1.240808     1.233165     1.225522     1.217879     1.210236     1.202593     1.194950     1.187307     1.179664
      1.172021     1.164377     1.156734     1.149091     1.141448     1.133805     1.126162     1.118519     1.110876     1.103233
      1.095590     1.087946     1.080303     1.072660     1.065017     1.057374     1.049731     1.042088     1.034445     1.026802
      1.019158     1.011515     1.003872     0.996229     0.988586     0.980943     0.973300     0.965657     0.958014     0.950371
      0.942727     0.935084     0.927441     0.919798     0.912155     0.904512     0.896869     0.889226     0.881583     0.873940
      0.866296     0.858653     0.851010     0.843367     0.835724     0.828081     0.820438     0.812795     0.805152     0.797508
      0.789865     0.782222     0.774579     0.766936     0.759293     0.751650     0.744007     0.736364     0.728721     0.721077
      0.713434     0.705791     0.698148     0.690505     0.682862     0.675219     0.667576     0.659933     0.652290     0.644646
      0.637003     0.629360     0.621717     0.614074     0.606431     0.598788     0.591145     0.583502     0.575858     0.568215
      0.560572     0.552929     0.545286     0.537643     0.530000     0.522357     0.514714     0.507071     0.499427     0.491784
      0.484141     0.476498     0.468855     0.461212     0.453569     0.445925     0.438282     0.430639     0.422996     0.415353
      0.407710     0.400067     0.392424     0.384780     0.377137     0.369494     0.361851     0.354208     0.346565     0.338922
      0.331278     0.323635     0.315992     0.308349     0.300706     0.293063     0.285420     0.277777     0.270133     0.262490
      0.254847     0.247204     0.239561     0.231918     0.224275     0.216631     0.208988     0.201345
 NY phased data points follow
   3.43550E+01  2.29433E+01  3.36001E+01  2.79806E+01  2.61822E+01  2.37048E+01  3.79258E+01  3.51914E+01  2.84867E+01  3.82134E+01
   3.06805E+01  3.29429E+01  4.05539E+01  3.36878E+01  2.66768E+01  3.53173E+01  2.97541E+01  2.95570E+01  2.34942E+01  1.95807E+01
   2.92968E+01  2.85641E+01  2.95324E+01  2.55604E+01  2.53345E+01  3.40213E+01  3.13142E+01  2.62259E+01  2.76026E+01  2.19881E+01
   2.94450E+01  1.59622E+01  2.71958E+01  2.48946E+01  2.20220E+01  2.78293E+01  1.86656E+01  3.37592E+01  2.19028E+01  1.51101E+01
   2.27250E+01  1.06130E+01  1.92379E+01  1.67704E+01  2.03679E+01  2.40871E+01  2.78433E+01  1.85755E+01  1.99738E+01  2.27025E+01
   1.91073E+01  2.71832E+01  2.44671E+01  3.12002E+01  1.79521E+01  2.03830E+01  1.54127E+01  1.63849E+01  2.28346E+01  2.75426E+01
   2.20943E+01  2.33052E+01  1.81524E+01  1.88156E+01  2.16645E+01  1.68404E+01  8.08019E+00  1.55095E+01  8.00133E+00  1.82038E+01
   2.05571E+01  1.61589E+01  1.57961E+01  1.90674E+01  1.08774E+01  1.87151E+01  1.21343E+01  1.53123E+01  2.09868E+01  8.67147E+00
   1.95574E+01  1.74724E+01  2.39358E+01  9.99995E+00  1.13050E+01  1.69069E+01  4.09116E+00  1.25874E+01  1.31778E+01  2.15428E+01
   8.91410E+00  5.88656E+00  7.67299E+00  4.88343E+00  1.49606E+01  6.57848E+00  1.51683E+01  1.46477E+01  6.48241E+00  4.03634E+00
   9.73946E+00  1.54486E+01  2.32460E+01  2.33676E+01  1.68353E+01  1.40851E+01  9.26928E+00  4.46626E+00  1.50125E+01  9.74861E-01
   1.03391E+01  8.07903E-01  1.61180E+01  1.27559E+01  6.32727E+00  1.30649E+01  1.99571E+01  1.20515E+01 -4.58324E-01  1.63591E+01
   1.08533E+01  6.48709E+00  1.02269E+01  1.37081E+01  1.18191E+01  9.17994E+00  2.07208E+01  2.47667E+01  1.63148E+01  1.80872E+01
   2.32073E+01  2.35245E+01  2.78964E+00  9.90127E+00  1.30086E+01  1.39815E+01  5.33955E+00  1.18350E+01  1.76026E+01  1.02227E+01
   9.54234E+00  1.56087E+01  1.18668E+01  1.31458E+01  1.20968E+01  8.20575E+00  8.41987E+00  1.99771E+01  2.01373E+01  1.35606E+01
   1.41565E+01  8.16309E+00  7.71628E+00  2.73748E+00  5.42123E+00  1.18984E+01  1.11351E+01  1.83045E+01  1.06107E+01  1.15297E+01
   2.10282E+00  8.93410E-01  8.27831E-01  1.19038E+01  8.63567E+00  7.90341E+00  1.34999E+01  1.02130E+01 -3.10390E-01  9.65845E+00
   7.87643E+00  8.17631E+00  4.76096E+00  6.96985E+00 -7.48999E+00  6.07308E+00  1.12677E+01  2.07409E+00 -5.13355E-02  6.86965E+00
   5.95029E+00  4.44522E+00  2.32979E+00  6.38904E+00  5.77817E-01  3.24822E+00 -1.01622E+00  7.46901E+00  2.71458E+00 -4.64987E+00
   1.92117E+00  7.46559E+00  7.57230E+00  1.19121E+01  4.23169E+00  3.68113E+00  4.83455E+00 -3.60249E+00 -2.98553E+00 -4.43028E+00
  -6.39385E+00 -2.85901E+00  1.20919E+01  3.22537E+00  6.69746E+00  3.40009E+00  5.61980E-01  1.02273E+01  8.72106E-01  6.34489E+00
   2.32592E+00  5.83711E+00  7.26421E+00  1.07392E+01  7.89577E+00  1.35481E+01  6.95962E+00  1.24583E+01  1.47221E+01  6.05480E+00
   1.44990E+01  1.44886E+01  9.75614E+00  7.15916E+00  3.97707E+00  1.21578E+01  2.21008E+01  2.00247E+01  1.41901E+01  1.21076E+01
   1.04868E+01  1.10760E+01  6.88634E+00  3.27590E+00  1.21435E+01  1.20495E+01  1.71184E+01  2.09643E+01  1.04080E+01  1.67298E+01
   1.33342E+01  2.36437E+01  1.46820E+01  2.48994E+01  1.85770E+01  2.34547E+01  2.17608E+01  2.10802E+01  1.79589E+01  2.52437E+01
   1.66924E+01  1.04813E+01  1.42493E+01  5.03556E+00  1.92080E+01  1.47348E+01  1.42724E+01  1.55126E+01  2.31380E+01  2.38000E+01
   3.25213E+01  2.54639E+01  1.76493E+01  1.81429E+01  1.17933E+01  1.38725E+01  3.75073E+00  4.59959E+00  1.02640E+01  5.88692E+00
   6.73662E+00  1.27944E+01  6.83254E+00  1.13750E+01  1.28576E+01  4.16738E+00  8.50651E+00  1.09475E+01  2.07863E+00  1.03437E+01
   4.19423E+00  2.20003E+00  1.15605E+01  8.24795E+00  5.63702E+00  4.40566E+00  1.03651E+01  2.07118E+00  8.85101E+00  4.84010E+00
   2.95490E+00  1.05034E+00  8.80217E+00  7.66838E+00  9.66712E+00  1.05817E+01  3.96399E+00  5.47308E+00  1.22716E+01  8.07258E+00
   9.89447E+00  1.09706E+01  2.07831E+01  1.19521E+01  1.03648E+01  9.93012E+00  1.15437E+01  6.57429E+00  1.27092E+01  6.47294E+00
   7.94065E+00  1.01213E+01  1.98862E+01 -4.66391E+00  8.10442E+00  1.60629E+01  1.08415E+01  1.17004E+01  1.87263E+01  1.40978E+01
   2.16342E+01  2.70837E+01  2.76690E+01  2.52305E+01  3.39024E+01  3.62939E+01  4.34590E+01  3.80894E+01  3.84242E+01  3.36850E+01
   3.86162E+01  4.80260E+01  4.66317E+01  3.84652E+01  3.69010E+01  3.71323E+01  3.18164E+01  2.69832E+01  2.58076E+01  3.30469E+01
   6.78851E+00  2.00389E+01  1.45217E+01  1.28402E+01  8.36928E+00  1.15490E+01  1.76847E+01  2.31241E+01  1.18246E+01  1.47761E+01
   1.64164E+01  1.34799E+01  1.69169E+01  1.55204E+01  1.19061E+01  1.02203E+01  1.53063E+01  1.13436E+01  1.11977E+01  6.70621E+00
   1.60093E+01  1.72192E+01  8.62782E+00  1.76706E+01  1.34252E+01  6.13557E+00  1.14347E+01  1.38254E+01  8.38501E+00  1.28669E+01
   1.60684E+01  2.15140E+01  1.12030E+01  2.07190E+01  1.67172E+01  1.69493E+01  2.41251E+01  2.90185E+01  2.72701E+01  1.82185E+01
   1.75857E+01  2.52060E+01  1.85543E+01  1.44431E+01  1.63307E+01  1.44790E+01  8.17467E+00  1.55109E+01  8.00391E+00  1.10157E+01
   1.55220E+01  1.52521E+01  1.46437E+01  6.50578E+00  2.04828E+01  9.24606E+00  8.90023E+00  2.40455E+00  3.30924E+00  2.81344E+00
   9.79020E+00  1.14089E+01  1.39022E+01  6.54312E+00  7.02959E+00  8.06389E+00  2.96222E+00  1.13127E+01  1.61327E+01  8.43718E+00
   1.56496E+01  1.19878E+01  4.23808E+00  7.14806E+00  8.93209E-02  9.71888E+00 -1.99740E-01  7.36646E+00  1.55197E+01  7.00344E+00
   7.01409E+00  1.49647E+00  1.19076E+01  1.94065E+00  8.51223E+00  6.98276E+00  3.16731E-01  1.78899E+00  3.50003E+00  8.45762E+00
   4.88712E+00 -1.57132E+00  1.05330E+01  5.96713E+00  6.56271E-01  2.26877E+00  1.23630E+01  9.30215E+00 -2.90425E+00 -2.49722E+00
   2.85310E+00  1.03366E+01  1.89113E+00 -3.57635E-01  4.92931E+00  4.06051E-01  1.43019E+01  9.89100E+00  1.15991E+01  1.08503E+01
   3.42171E+00  7.39960E+00  9.62700E+00 -1.67891E-01  5.86204E+00 -2.44036E-01  2.80484E+00  1.17344E+01  4.66702E+00  1.51056E+00
   5.76143E+00  2.81276E+00  5.30228E+00  9.56673E+00  6.83095E+00  3.72781E+00 -2.08329E+00  1.34535E+01  3.01914E+00  1.63460E+00
   1.47026E+01  8.11856E+00  9.95503E+00  5.35207E+00  7.50308E-01  7.06193E+00  6.91000E+00  3.44326E+00 -2.37594E+00  8.13652E-01
   8.31334E+00  1.86295E+00  2.96814E+00  7.07957E+00  9.00404E+00  8.15856E+00  7.08354E+00  6.20769E+00  2.12428E+00  8.38969E+00
   1.79761E+00  3.28446E+00  3.64826E+00  9.59556E-01  6.07911E+00  1.38471E+00 -8.13540E+00  4.87529E+00
 NY points of the fit to the data follow
   2.56476E+01  2.47985E+01  2.40737E+01  2.36822E+01  2.36504E+01  2.39412E+01  2.45910E+01  2.55903E+01  2.67727E+01  2.78441E+01
   2.85348E+01  2.87139E+01  2.83286E+01  2.74445E+01  2.62275E+01  2.48663E+01  2.36183E+01  2.26236E+01  2.20596E+01  2.18876E+01
   2.18204E+01  2.17544E+01  2.16505E+01  2.14936E+01  2.13257E+01  2.13027E+01  2.15857E+01  2.23199E+01  2.34930E+01  2.48057E+01
   2.58154E+01  2.63214E+01  2.64253E+01  2.60492E+01  2.50289E+01  2.35435E+01  2.20872E+01  2.10452E+01  2.02230E+01  1.95954E+01
   1.92546E+01  1.91267E+01  1.92233E+01  1.97566E+01  2.10154E+01  2.29780E+01  2.51296E+01  2.66870E+01  2.70921E+01  2.63718E+01
   2.49365E+01  2.30132E+01  2.06483E+01  1.82147E+01  1.65411E+01  1.61706E+01  1.67752E+01  1.77852E+01  1.88833E+01  1.98612E+01
   2.04517E+01  2.05187E+01  2.01350E+01  1.94516E+01  1.85922E+01  1.76776E+01  1.69616E+01  1.66788E+01  1.68264E+01  1.73121E+01
   1.79160E+01  1.84398E+01  1.87197E+01  1.86911E+01  1.84589E+01  1.81276E+01  1.77046E+01  1.71998E+01  1.66931E+01  1.63330E+01
   1.60914E+01  1.58953E+01  1.56922E+01  1.54047E+01  1.49324E+01  1.42260E+01  1.33374E+01  1.24418E+01  1.17546E+01  1.13907E+01
   1.13451E+01  1.16124E+01  1.22068E+01  1.30223E+01  1.37522E+01  1.41533E+01  1.41686E+01  1.39695E+01  1.38881E+01  1.41626E+01
   1.48290E+01  1.57058E+01  1.64623E+01  1.68177E+01  1.67840E+01  1.64905E+01  1.58818E+01  1.48314E+01  1.35835E+01  1.26938E+01
   1.24690E+01  1.24887E+01  1.25352E+01  1.26020E+01  1.26683E+01  1.27256E+01  1.27628E+01  1.27815E+01  1.27937E+01  1.28279E+01
   1.29305E+01  1.32129E+01  1.39828E+01  1.54945E+01  1.77477E+01  2.03663E+01  2.26452E+01  2.38498E+01  2.38345E+01  2.30742E+01
   2.17694E+01  1.96820E+01  1.69415E+01  1.43762E+01  1.28673E+01  1.20821E+01  1.15150E+01  1.11105E+01  1.08755E+01  1.08463E+01
   1.10314E+01  1.13238E+01  1.15328E+01  1.15771E+01  1.14467E+01  1.11496E+01  1.07605E+01  1.03668E+01  1.00284E+01  9.76203E+00
   9.51847E+00  9.28935E+00  9.08026E+00  8.89648E+00  8.73924E+00  8.60894E+00  8.49433E+00  8.37027E+00  8.22985E+00  8.08535E+00
   7.95470E+00  7.84771E+00  7.76356E+00  7.69698E+00  7.64004E+00  7.58865E+00  7.54050E+00  7.48130E+00  7.39007E+00  7.27609E+00
   7.16104E+00  7.05608E+00  6.95680E+00  6.84128E+00  6.71835E+00  6.61201E+00  6.53125E+00  6.46533E+00  6.39370E+00  6.32090E+00
   6.26979E+00  6.24037E+00  6.19349E+00  6.09900E+00  5.99751E+00  5.97805E+00  6.09245E+00  6.33802E+00  6.66107E+00  6.99940E+00
   7.28172E+00  7.42594E+00  7.34498E+00  7.01213E+00  6.48280E+00  5.88189E+00  5.38136E+00  5.17611E+00  5.38370E+00  5.94720E+00
   6.71371E+00  7.55787E+00  8.35723E+00  8.93125E+00  9.10579E+00  8.80145E+00  8.08501E+00  7.10555E+00  6.11026E+00  5.38163E+00
   5.13180E+00  5.43472E+00  6.18244E+00  7.22128E+00  8.41095E+00  9.53455E+00  1.02455E+01  1.03134E+01  9.93072E+00  9.37449E+00
   8.74265E+00  8.22735E+00  8.07343E+00  8.37773E+00  8.94210E+00  9.58849E+00  1.02542E+01  1.08570E+01  1.12541E+01  1.13622E+01
   1.13020E+01  1.12819E+01  1.14062E+01  1.16620E+01  1.20467E+01  1.25909E+01  1.33002E+01  1.40479E+01  1.46020E+01  1.49207E+01
   1.51303E+01  1.52625E+01  1.52847E+01  1.52832E+01  1.54509E+01  1.57861E+01  1.61453E+01  1.65507E+01  1.70556E+01  1.75605E+01
   1.78963E+01  1.80955E+01  1.82084E+01  1.82373E+01  1.82099E+01  1.83387E+01  1.88620E+01  1.98571E+01  2.11872E+01  2.24102E+01
   2.29533E+01  2.25519E+01  2.15022E+01  2.00596E+01  1.80676E+01  1.55401E+01  1.30952E+01  1.15465E+01  1.08040E+01  1.02662E+01
   9.81312E+00  9.43565E+00  9.11075E+00  8.82343E+00  8.57208E+00  8.34350E+00  8.12532E+00  7.90658E+00  7.68236E+00  7.45732E+00
   7.25014E+00  7.07775E+00  6.94566E+00  6.85666E+00  6.81193E+00  6.80792E+00  6.83892E+00  6.89893E+00  6.98362E+00  7.09149E+00
   7.21918E+00  7.36397E+00  7.52576E+00  7.70326E+00  7.89240E+00  8.08908E+00  8.29049E+00  8.49358E+00  8.69446E+00  8.89039E+00
   9.08014E+00  9.26298E+00  9.44010E+00  9.61460E+00  9.79162E+00  9.97855E+00  1.01849E+01  1.04219E+01  1.07029E+01  1.10422E+01
   1.14551E+01  1.19568E+01  1.25615E+01  1.32816E+01  1.41270E+01  1.51036E+01  1.62125E+01  1.74495E+01  1.88040E+01  2.02590E+01
   2.17911E+01  2.33703E+01  2.49616E+01  2.65255E+01  2.80197E+01  2.94010E+01  3.06273E+01  3.16594E+01  3.24633E+01  3.30120E+01
   3.32873E+01  3.32801E+01  3.29918E+01  3.24336E+01  3.16266E+01  3.06000E+01  2.93900E+01  2.80379E+01  2.65876E+01  2.50837E+01
   2.35698E+01  2.20859E+01  2.06674E+01  1.93440E+01  1.81383E+01  1.70665E+01  1.61376E+01  1.53543E+01  1.47138E+01  1.42083E+01
   1.38262E+01  1.35534E+01  1.33740E+01  1.32713E+01  1.32289E+01  1.32310E+01  1.32633E+01  1.33131E+01  1.33700E+01  1.34252E+01
   1.34726E+01  1.35079E+01  1.35286E+01  1.35345E+01  1.35266E+01  1.35075E+01  1.34806E+01  1.34506E+01  1.34223E+01  1.34014E+01
   1.33932E+01  1.34031E+01  1.34358E+01  1.34957E+01  1.35861E+01  1.37091E+01  1.38659E+01  1.40559E+01  1.42774E+01  1.45269E+01
   1.47996E+01  1.50892E+01  1.53883E+01  1.56880E+01  1.59790E+01  1.62514E+01  1.64952E+01  1.67004E+01  1.68578E+01  1.69593E+01
   1.69979E+01  1.69685E+01  1.68677E+01  1.66941E+01  1.64483E+01  1.61329E+01  1.57525E+01  1.53132E+01  1.48224E+01  1.42887E+01
   1.37211E+01  1.31292E+01  1.25223E+01  1.19095E+01  1.12991E+01  1.06988E+01  1.01150E+01  9.55330E+00  9.01795E+00  8.51222E+00
   8.03828E+00  7.59736E+00  7.18987E+00  6.81553E+00  6.47347E+00  6.16239E+00  5.88062E+00  5.62632E+00  5.39751E+00  5.19220E+00
   5.00839E+00  4.84411E+00  4.69750E+00  4.56683E+00  4.45052E+00  4.34708E+00  4.25520E+00  4.17363E+00  4.10130E+00  4.03723E+00
   3.98058E+00  3.93059E+00  3.88657E+00  3.84789E+00  3.81402E+00  3.78449E+00  3.75890E+00  3.73687E+00  3.71804E+00  3.70211E+00
   3.68882E+00  3.67794E+00  3.66927E+00  3.66261E+00  3.65778E+00  3.65461E+00  3.65297E+00  3.65275E+00  3.65385E+00  3.65612E+00
   3.65949E+00  3.66385E+00  3.66915E+00  3.67532E+00  3.68230E+00  3.69001E+00  3.69840E+00  3.70742E+00  3.71704E+00  3.72723E+00
   3.73794E+00  3.74911E+00  3.76072E+00  3.77275E+00  3.78519E+00  3.79801E+00  3.81116E+00  3.82462E+00  3.83839E+00  3.85244E+00
   3.86677E+00  3.88136E+00  3.89617E+00  3.91119E+00  3.92643E+00  3.94188E+00  3.95754E+00  3.97336E+00  3.98935E+00  4.00548E+00
   4.02179E+00  4.03825E+00  4.05486E+00  4.07159E+00  4.08845E+00  4.10543E+00  4.12255E+00  4.13980E+00  4.15717E+00  4.17463E+00
   4.19221E+00  4.20990E+00  4.22773E+00  4.24568E+00  4.26374E+00  4.28191E+00  4.30021E+00  4.31866E+00
 NY background values follow
     2.221E+01    2.210E+01    2.199E+01    2.187E+01    2.176E+01    2.165E+01    2.154E+01    2.143E+01    2.132E+01    2.121E+01
     2.110E+01    2.099E+01    2.088E+01    2.077E+01    2.066E+01    2.055E+01    2.044E+01    2.033E+01    2.022E+01    2.011E+01
     2.000E+01    1.989E+01    1.978E+01    1.967E+01    1.956E+01    1.945E+01    1.934E+01    1.923E+01    1.912E+01    1.901E+01
     1.890E+01    1.879E+01    1.868E+01    1.857E+01    1.846E+01    1.835E+01    1.824E+01    1.814E+01    1.803E+01    1.792E+01
     1.781E+01    1.770E+01    1.759E+01    1.749E+01    1.738E+01    1.727E+01    1.716E+01    1.705E+01    1.695E+01    1.684E+01
     1.673E+01    1.663E+01    1.652E+01    1.641E+01    1.631E+01    1.620E+01    1.610E+01    1.599E+01    1.588E+01    1.578E+01
     1.567E+01    1.557E+01    1.546E+01    1.536E+01    1.526E+01    1.515E+01    1.505E+01    1.495E+01    1.484E+01    1.474E+01
     1.464E+01    1.454E+01    1.443E+01    1.433E+01    1.423E+01    1.413E+01    1.403E+01    1.393E+01    1.383E+01    1.373E+01
     1.363E+01    1.353E+01    1.343E+01    1.333E+01    1.324E+01    1.314E+01    1.304E+01    1.294E+01    1.285E+01    1.275E+01
     1.266E+01    1.256E+01    1.247E+01    1.237E+01    1.228E+01    1.218E+01    1.209E+01    1.200E+01    1.190E+01    1.181E+01
     1.172E+01    1.163E+01    1.154E+01    1.145E+01    1.136E+01    1.127E+01    1.118E+01    1.109E+01    1.100E+01    1.091E+01
     1.083E+01    1.074E+01    1.065E+01    1.057E+01    1.048E+01    1.040E+01    1.031E+01    1.023E+01    1.014E+01    1.006E+01
     9.975E+00    9.893E+00    9.811E+00    9.729E+00    9.648E+00    9.567E+00    9.486E+00    9.407E+00    9.327E+00    9.248E+00
     9.170E+00    9.092E+00    9.014E+00    8.937E+00    8.861E+00    8.784E+00    8.709E+00    8.634E+00    8.559E+00    8.485E+00
     8.411E+00    8.338E+00    8.265E+00    8.193E+00    8.121E+00    8.050E+00    7.980E+00    7.909E+00    7.840E+00    7.770E+00
     7.702E+00    7.633E+00    7.566E+00    7.498E+00    7.432E+00    7.365E+00    7.300E+00    7.234E+00    7.170E+00    7.105E+00
     7.041E+00    6.978E+00    6.916E+00    6.853E+00    6.792E+00    6.730E+00    6.670E+00    6.609E+00    6.550E+00    6.491E+00
     6.432E+00    6.374E+00    6.316E+00    6.259E+00    6.202E+00    6.146E+00    6.091E+00    6.035E+00    5.981E+00    5.927E+00
     5.873E+00    5.820E+00    5.768E+00    5.716E+00    5.664E+00    5.614E+00    5.563E+00    5.513E+00    5.464E+00    5.415E+00
     5.367E+00    5.319E+00    5.271E+00    5.224E+00    5.178E+00    5.132E+00    5.087E+00    5.042E+00    4.997E+00    4.953E+00
     4.910E+00    4.867E+00    4.825E+00    4.783E+00    4.741E+00    4.700E+00    4.659E+00    4.619E+00    4.580E+00    4.541E+00
     4.502E+00    4.464E+00    4.426E+00    4.389E+00    4.352E+00    4.315E+00    4.279E+00    4.244E+00    4.209E+00    4.174E+00
     4.140E+00    4.106E+00    4.073E+00    4.040E+00    4.008E+00    3.976E+00    3.945E+00    3.914E+00    3.883E+00    3.853E+00
     3.823E+00    3.794E+00    3.765E+00    3.736E+00    3.708E+00    3.681E+00    3.653E+00    3.627E+00    3.600E+00    3.574E+00
     3.549E+00    3.524E+00    3.499E+00    3.475E+00    3.451E+00    3.427E+00    3.404E+00    3.381E+00    3.359E+00    3.337E+00
     3.315E+00    3.294E+00    3.274E+00    3.253E+00    3.233E+00    3.214E+00    3.194E+00    3.176E+00    3.157E+00    3.139E+00
     3.121E+00    3.104E+00    3.087E+00    3.071E+00    3.054E+00    3.039E+00    3.023E+00    3.008E+00    2.993E+00    2.979E+00
     2.965E+00    2.951E+00    2.938E+00    2.925E+00    2.913E+00    2.900E+00    2.888E+00    2.877E+00    2.866E+00    2.855E+00
     2.844E+00    2.834E+00    2.824E+00    2.815E+00    2.806E+00    2.797E+00    2.788E+00    2.780E+00    2.772E+00    2.764E+00
     2.757E+00    2.750E+00    2.743E+00    2.737E+00    2.731E+00    2.725E+00    2.719E+00    2.714E+00    2.709E+00    2.704E+00
     2.700E+00    2.696E+00    2.692E+00    2.689E+00    2.685E+00    2.682E+00    2.680E+00    2.677E+00    2.675E+00    2.673E+00
     2.671E+00    2.670E+00    2.668E+00    2.667E+00    2.667E+00    2.666E+00    2.666E+00    2.666E+00    2.666E+00    2.667E+00
     2.667E+00    2.668E+00    2.670E+00    2.671E+00    2.672E+00    2.674E+00    2.676E+00    2.679E+00    2.681E+00    2.684E+00
     2.687E+00    2.690E+00    2.693E+00    2.697E+00    2.700E+00    2.704E+00    2.708E+00    2.713E+00    2.717E+00    2.722E+00
     2.727E+00    2.732E+00    2.737E+00    2.743E+00    2.748E+00    2.754E+00    2.760E+00    2.766E+00    2.773E+00    2.779E+00
     2.786E+00    2.793E+00    2.800E+00    2.807E+00    2.815E+00    2.822E+00    2.830E+00    2.838E+00    2.846E+00    2.854E+00
     2.863E+00    2.871E+00    2.880E+00    2.889E+00    2.898E+00    2.907E+00    2.916E+00    2.926E+00    2.935E+00    2.945E+00
     2.955E+00    2.965E+00    2.975E+00    2.985E+00    2.996E+00    3.006E+00    3.017E+00    3.028E+00    3.039E+00    3.050E+00
     3.061E+00    3.072E+00    3.084E+00    3.095E+00    3.107E+00    3.119E+00    3.131E+00    3.143E+00    3.155E+00    3.168E+00
     3.180E+00    3.193E+00    3.206E+00    3.218E+00    3.231E+00    3.244E+00    3.258E+00    3.271E+00    3.284E+00    3.298E+00
     3.312E+00    3.325E+00    3.339E+00    3.353E+00    3.367E+00    3.381E+00    3.396E+00    3.410E+00    3.425E+00    3.439E+00
     3.454E+00    3.469E+00    3.484E+00    3.499E+00    3.514E+00    3.529E+00    3.544E+00    3.559E+00    3.575E+00    3.590E+00
     3.606E+00    3.621E+00    3.637E+00    3.653E+00    3.669E+00    3.685E+00    3.701E+00    3.717E+00    3.733E+00    3.749E+00
     3.765E+00    3.781E+00    3.797E+00    3.814E+00    3.830E+00    3.846E+00    3.863E+00    3.879E+00    3.895E+00    3.912E+00
     3.928E+00    3.945E+00    3.962E+00    3.978E+00    3.995E+00    4.011E+00    4.028E+00    4.045E+00    4.061E+00    4.078E+00
     4.095E+00    4.111E+00    4.128E+00    4.144E+00    4.161E+00    4.178E+00    4.194E+00    4.211E+00    4.228E+00    4.244E+00
     4.261E+00    4.277E+00    4.294E+00    4.311E+00    4.327E+00    4.344E+00    4.360E+00    4.377E+00    4.393E+00    4.410E+00
     4.426E+00    4.443E+00    4.460E+00    4.476E+00    4.493E+00    4.509E+00    4.526E+00    4.542E+00    4.559E+00    4.575E+00
     4.592E+00    4.608E+00    4.624E+00    4.641E+00    4.657E+00    4.674E+00    4.690E+00    4.707E+00    4.723E+00    4.740E+00
     4.756E+00    4.772E+00    4.789E+00    4.805E+00    4.822E+00    4.838E+00    4.854E+00    4.871E+00
 Asp      Conc. = 3.56E+01
