 LCModel (Version 6.3-1L) Copyright: S.W. Provencher.          Ref.: Magn. Reson. Med. 30:672-679 (1993).                
 Slice#3 Row#5 Col#10  PD_05_press_2_raw_act
 36 lines in following concentration table = NCONC+1
    Conc.  %SD /Cr+PCr  Metabolite                                         
  788.236  40%   0.270 Ala                                                 
    0.000 999%   0.000 Asp                                                 
  769.829  76%   0.264 Cr                                                  
 2.15E+03  27%   0.736 PCr                                                 
    0.000 999%   0.000 GABA                                                
  103.024 306% 3.5E-02 Glc                                                 
 2.21E+03  29%   0.759 Gln                                                 
 2.31E+03  30%   0.793 Glu                                                 
  961.701   5%   0.330 GPC                                                 
    0.000 999%   0.000 PCh                                                 
  941.455  20%   0.323 GSH                                                 
 3.04E+03  21%   1.044 Ins                                                 
  121.840 282% 4.2E-02 Lac                                                 
 4.17E+03   4%   1.432 NAA                                                 
    0.000 999%   0.000 NAAG                                                
  284.770  22% 9.8E-02 Scyllo                                              
    0.000 999%   0.000 Tau                                                 
 1.39E+03  18%   0.477 -CrCH2                                              
  961.701   5%   0.330 GPC+PCh                                             
 4.17E+03   4%   1.432 NAA+NAAG                                            
 2.92E+03   5%   1.000 Cr+PCr                                              
 4.52E+03  23%   1.551 Glu+Gln                                             
 1.47E+04  11%   5.025 Lip13a                                              
    0.000 999%   0.000 Lip13b                                              
    0.000 999%   0.000-Lip09                                               
 2.11E+03  18%   0.723 MM09                                                
 1.43E+03  45%   0.490 Lip20                                               
 3.23E+03  20%   1.107 MM20                                                
  644.262  26%   0.221 MM12                                                
 3.03E+03  18%   1.038 MM14                                                
 1.40E+03  25%   0.482 MM17                                                
 1.47E+04  11%   5.025 Lip13a+Lip13b                                       
 1.83E+04   7%   6.284 MM14+Lip13a+Lip13b+MM12                             
 2.11E+03  18%   0.723 MM09+Lip09                                          
 4.66E+03  16%   1.597 MM20+Lip20                                          
   6 lines in following misc. output table
  FWHM = 0.061 ppm    S/N =   8                                            
  Data shift = 0.023 ppm                                                   
  Ph: -43 deg     -13.7 deg/ppm                                            
  alphaB,S = 1.7E+00,   5.6E+01                                            
   14 spline knots.   Ns = 7(1)                                            
  (12) 5 infls.   ( 9) 1 extrs.                                            
  498 points on ppm-axis = NY
      4.000000     3.992357     3.984714     3.977070     3.969427     3.961784     3.954141     3.946497     3.938854     3.931211
      3.923568     3.915925     3.908281     3.900638     3.892995     3.885352     3.877708     3.870065     3.862422     3.854779
      3.847136     3.839492     3.831849     3.824206     3.816563     3.808919     3.801276     3.793633     3.785990     3.778347
      3.770703     3.763060     3.755417     3.747774     3.740130     3.732487     3.724844     3.717201     3.709558     3.701914
      3.694271     3.686628     3.678985     3.671341     3.663698     3.656055     3.648412     3.640769     3.633125     3.625482
      3.617839     3.610196     3.602552     3.594909     3.587266     3.579623     3.571980     3.564336     3.556693     3.549050
      3.541407     3.533763     3.526120     3.518477     3.510834     3.503191     3.495547     3.487904     3.480261     3.472618
      3.464974     3.457331     3.449688     3.442045     3.434402     3.426758     3.419115     3.411472     3.403829     3.396185
      3.388542     3.380899     3.373256     3.365613     3.357969     3.350326     3.342683     3.335040     3.327396     3.319753
      3.312110     3.304467     3.296824     3.289180     3.281537     3.273894     3.266251     3.258607     3.250964     3.243321
      3.235678     3.228034     3.220391     3.212748     3.205105     3.197462     3.189818     3.182175     3.174532     3.166889
      3.159245     3.151602     3.143959     3.136316     3.128673     3.121029     3.113386     3.105743     3.098100     3.090456
      3.082813     3.075170     3.067527     3.059884     3.052240     3.044597     3.036954     3.029311     3.021667     3.014024
      3.006381     2.998738     2.991095     2.983451     2.975808     2.968165     2.960522     2.952878     2.945235     2.937592
      2.929949     2.922306     2.914662     2.907019     2.899376     2.891733     2.884089     2.876446     2.868803     2.861160
      2.853517     2.845873     2.838230     2.830587     2.822944     2.815300     2.807657     2.800014     2.792371     2.784728
      2.777084     2.769441     2.761798     2.754155     2.746511     2.738868     2.731225     2.723582     2.715939     2.708295
      2.700652     2.693009     2.685366     2.677722     2.670079     2.662436     2.654793     2.647150     2.639506     2.631863
      2.624220     2.616577     2.608933     2.601290     2.593647     2.586004     2.578361     2.570717     2.563074     2.555431
      2.547788     2.540144     2.532501     2.524858     2.517215     2.509572     2.501928     2.494285     2.486642     2.478999
      2.471355     2.463712     2.456069     2.448426     2.440783     2.433139     2.425496     2.417853     2.410210     2.402566
      2.394923     2.387280     2.379637     2.371994     2.364350     2.356707     2.349064     2.341421     2.333777     2.326134
      2.318491     2.310848     2.303205     2.295561     2.287918     2.280275     2.272632     2.264988     2.257345     2.249702
      2.242059     2.234416     2.226772     2.219129     2.211486     2.203843     2.196199     2.188556     2.180913     2.173270
      2.165627     2.157983     2.150340     2.142697     2.135054     2.127410     2.119767     2.112124     2.104481     2.096838
      2.089194     2.081551     2.073908     2.066265     2.058621     2.050978     2.043335     2.035692     2.028049     2.020405
      2.012762     2.005119     1.997476     1.989833     1.982190     1.974546     1.966903     1.959260     1.951617     1.943974
      1.936331     1.928688     1.921045     1.913402     1.905759     1.898115     1.890472     1.882829     1.875186     1.867543
      1.859900     1.852257     1.844614     1.836971     1.829327     1.821684     1.814041     1.806398     1.798755     1.791112
      1.783469     1.775826     1.768183     1.760540     1.752896     1.745253     1.737610     1.729967     1.722324     1.714681
      1.707038     1.699395     1.691752     1.684108     1.676465     1.668822     1.661179     1.653536     1.645893     1.638250
      1.630607     1.622964     1.615321     1.607677     1.600034     1.592391     1.584748     1.577105     1.569462     1.561819
      1.554176     1.546533     1.538890     1.531246     1.523603     1.515960     1.508317     1.500674     1.493031     1.485388
      1.477745     1.470102     1.462458     1.454815     1.447172     1.439529     1.431886     1.424243     1.416600     1.408957
      1.401314     1.393671     1.386027     1.378384     1.370741     1.363098     1.355455     1.347812     1.340169     1.332526
      1.324883     1.317240     1.309596     1.301953     1.294310     1.286667     1.279024     1.271381     1.263738     1.256095
      1.248452     1.240808     1.233165     1.225522     1.217879     1.210236     1.202593     1.194950     1.187307     1.179664
      1.172021     1.164377     1.156734     1.149091     1.141448     1.133805     1.126162     1.118519     1.110876     1.103233
      1.095590     1.087946     1.080303     1.072660     1.065017     1.057374     1.049731     1.042088     1.034445     1.026802
      1.019158     1.011515     1.003872     0.996229     0.988586     0.980943     0.973300     0.965657     0.958014     0.950371
      0.942727     0.935084     0.927441     0.919798     0.912155     0.904512     0.896869     0.889226     0.881583     0.873940
      0.866296     0.858653     0.851010     0.843367     0.835724     0.828081     0.820438     0.812795     0.805152     0.797508
      0.789865     0.782222     0.774579     0.766936     0.759293     0.751650     0.744007     0.736364     0.728721     0.721077
      0.713434     0.705791     0.698148     0.690505     0.682862     0.675219     0.667576     0.659933     0.652290     0.644646
      0.637003     0.629360     0.621717     0.614074     0.606431     0.598788     0.591145     0.583502     0.575858     0.568215
      0.560572     0.552929     0.545286     0.537643     0.530000     0.522357     0.514714     0.507071     0.499427     0.491784
      0.484141     0.476498     0.468855     0.461212     0.453569     0.445925     0.438282     0.430639     0.422996     0.415353
      0.407710     0.400067     0.392424     0.384780     0.377137     0.369494     0.361851     0.354208     0.346565     0.338922
      0.331278     0.323635     0.315992     0.308349     0.300706     0.293063     0.285420     0.277777     0.270133     0.262490
      0.254847     0.247204     0.239561     0.231918     0.224275     0.216631     0.208988     0.201345
 NY phased data points follow
   3.32863E+01  4.36417E+01  4.04845E+01  3.39782E+01  3.77678E+01  4.42628E+01  3.94251E+01  4.04061E+01  4.25320E+01  3.96121E+01
   4.43921E+01  5.66763E+01  3.28470E+01  4.62639E+01  4.69028E+01  3.95573E+01  2.92845E+01  2.89078E+01  2.57529E+01  2.63548E+01
   1.87254E+01  3.35850E+01  2.64601E+01  3.07700E+01  1.90129E+01  2.62892E+01  2.39435E+01  2.91202E+01  2.73015E+01  2.36903E+01
   3.08637E+01  3.58879E+01  4.40728E+01  3.18310E+01  4.31079E+01  4.60256E+01  2.79569E+01  2.76489E+01  2.22460E+01  2.29242E+01
   3.32655E+01  3.97350E+01  3.49564E+01  3.19639E+01  2.49236E+01  4.02543E+01  3.46261E+01  4.23002E+01  3.51121E+01  3.63639E+01
   3.20866E+01  3.39290E+01  3.13232E+01  3.77943E+01  3.43055E+01  2.84338E+01  3.31923E+01  3.60576E+01  1.66730E+01  1.96179E+01
   2.37428E+01  1.05832E+01  1.21457E+01  6.36485E+00  1.32723E+01  9.17597E+00  1.04606E+01  5.25447E+00  1.20634E+01  1.52637E+01
   1.01926E+01  1.07954E+01  6.19480E+00  1.70363E+01  1.94632E+01  2.32757E+01  1.17739E+01  8.41139E+00  1.31276E+01  2.39958E+01
   2.01243E+01  1.19632E+01  1.15135E+01  1.99690E+01  2.53103E+01  1.16352E+01  2.18457E+01  2.61421E+01  2.39064E+01  2.63510E+01
   2.53386E+01  2.53987E+01  2.31770E+01  2.49015E+01  2.55031E+01  3.10678E+01  3.15308E+01  2.31622E+01  4.06905E+01  4.48008E+01
   5.89089E+01  8.12093E+01  7.36351E+01  8.26258E+01  8.80232E+01  7.69540E+01  6.24388E+01  6.50902E+01  3.97767E+01  2.74684E+01
   2.51289E+01  2.23456E+01  1.21125E+01  6.76674E+00  1.07829E+01  1.34552E+01  2.23005E+01  1.29295E+01  1.68271E+01  1.17853E+01
   2.68591E+01  2.98738E+01  3.42512E+01  3.78821E+01  6.55055E+01  7.29516E+01  8.42740E+01  9.60358E+01  9.30015E+01  9.89738E+01
   7.75281E+01  5.33214E+01  4.80073E+01  3.15606E+01  2.48160E+01  2.30242E+01  2.72860E+01  1.02406E+01  7.64241E+00  1.44903E+01
   1.71222E+01  2.59816E+01  1.89051E+01  1.01292E+01  5.63687E+00  1.14713E+01  1.06686E+01  1.03578E+01  4.61664E+00 -2.17664E+00
   1.45983E+00  5.53521E+00  8.25299E+00  9.42265E+00  1.89617E+00  5.60894E+00  3.55471E+00  6.44525E+00  1.33404E-01  9.84333E+00
   4.51766E+00  3.61143E-02  7.11075E+00 -9.14802E+00  9.90030E+00  3.76837E+00  6.47782E+00  1.23873E+01 -1.08283E+01 -5.47812E+00
  -4.05018E+00 -1.91297E+01 -1.28229E+01 -1.34824E+01 -2.60378E+01 -1.85645E+01 -1.90764E+01 -3.02304E+01 -1.69680E+01 -6.57056E+00
  -1.89337E+01 -9.61399E+00 -4.40775E+00 -5.75010E+00 -1.04082E+01 -1.86213E+01 -2.02246E+01  1.19668E+00 -1.58915E+00 -1.11894E+00
  -1.36674E+00  4.60784E+00  1.34141E+01  9.69769E+00  1.23090E+01  6.74448E+00  3.13991E+00 -3.27556E+00 -3.44510E+00 -2.92885E+00
   3.87187E+00 -1.89169E+00  1.11988E+01  8.24741E+00  1.46851E+01  2.55349E+00  4.35755E+00  1.25385E+01  5.13854E+00  9.28770E+00
   2.47360E+01  9.47580E+00  8.99358E+00  1.69384E+01  1.57572E+01  2.72169E+01  3.47722E+01  2.50807E+01  2.59492E+01  2.29533E+01
   1.27771E+01  2.24964E+01  7.99790E+00  1.44971E+01  1.10625E+01  2.27576E+01  1.18373E+01  2.10680E+01  2.99213E+01  2.90492E+01
   1.87919E+01  1.88442E+01  2.01150E+01  1.68955E+01  1.28791E+01  1.96214E+01  3.06889E+01  2.61981E+01  2.01904E+01  1.74637E+01
   1.95757E+01  2.10809E+01  2.41316E+00  1.86413E+01  1.03602E+01  1.44880E+01  1.70066E+01  1.88338E+01  1.02555E+01  1.64631E+01
   2.83466E+01  3.01891E+01  3.06093E+01  4.88772E+01  4.77372E+01  5.41905E+01  7.00019E+01  1.01359E+02  1.17049E+02  1.25858E+02
   1.47390E+02  1.50567E+02  1.33214E+02  1.05464E+02  8.67244E+01  5.72078E+01  4.81456E+01  3.71449E+01  3.26526E+01  3.40798E+01
   2.38717E+01  1.64063E+01  1.76560E+01  2.67671E+01  2.19095E+01  1.69007E+01  1.93953E+01  1.03413E+01  1.80480E+01  1.80452E+01
   5.05704E+00  4.20882E+00  3.89179E+00  1.76812E+01  1.21036E+01  2.27283E+00  9.35772E+00  7.53495E+00  1.25594E+01  8.21270E+00
   1.51938E+01  1.59016E+00  2.08016E+01  1.21822E+01  1.27884E+01  1.44416E+01  7.28016E+00  9.24715E+00  1.28194E+01  1.30839E+01
   1.82982E+01  1.84874E+01  1.68865E+01  2.37750E+01  1.80681E+01  1.50422E+01  3.03111E+01  2.51689E+01  2.22625E+01  1.97916E+01
   3.62035E+01  2.30462E+01  2.74844E+01  3.25911E+01  3.05685E+01  3.50370E+01  3.98423E+01  4.01008E+01  3.29606E+01  3.95021E+01
   4.83110E+01  3.52537E+01  3.22859E+01  3.66454E+01  4.65602E+01  4.65455E+01  5.36980E+01  4.76571E+01  5.15290E+01  4.30869E+01
   5.53214E+01  3.24272E+01  4.34501E+01  5.15542E+01  4.87594E+01  5.10774E+01  4.44956E+01  6.23354E+01  4.34101E+01  5.33257E+01
   6.06794E+01  6.66277E+01  5.90065E+01  6.78657E+01  6.29712E+01  7.33196E+01  6.83447E+01  7.14405E+01  6.54413E+01  5.79390E+01
   6.22214E+01  5.16381E+01  6.32864E+01  5.83869E+01  6.08359E+01  5.89285E+01  6.00756E+01  4.61820E+01  4.94359E+01  5.19221E+01
   4.09557E+01  4.26426E+01  4.44911E+01  5.02718E+01  3.97865E+01  3.90033E+01  5.31038E+01  3.41266E+01  4.04560E+01  3.88739E+01
   4.10256E+01  3.00185E+01  3.82789E+01  2.78009E+01  3.23669E+01  2.84572E+01  2.39778E+01  2.41217E+01  1.55128E+01  2.53152E+01
   2.52625E+01  2.71329E+01  9.50682E+00  9.72375E+00  1.89190E+01  1.49543E+01  2.91229E+01  8.96918E+00  1.86058E+01  1.30219E+01
   1.75894E+01  1.18060E+01  1.12417E+01  1.48021E+01  1.91825E+01  1.30457E+01  1.46778E+01  1.81291E+01  1.43975E+01  1.52905E+01
   2.06422E+01  1.35349E+01  1.53357E+01  1.09866E+01  2.18067E+01  1.52677E+01  1.82425E+01  1.98386E+01  1.72364E+01  1.31484E+01
   1.82765E+01  9.86960E+00  1.29879E+01  1.29787E+00  1.39929E+01  1.99130E+01  1.76727E+01  1.42503E+01  9.11337E+00  1.00669E+01
   1.41607E+01  8.43891E+00  8.49411E+00  2.10282E+00  1.62791E+01  2.02732E+01  8.22157E+00  1.67331E+00  1.10709E+01  6.15708E+00
   6.29548E-03  9.63244E+00  8.13232E+00  1.17592E+01 -5.67509E+00  7.20329E+00  9.29577E-01  1.31693E+01  6.61625E+00  5.49169E+00
  -3.30761E+00  7.02817E+00  2.36099E+00  9.16657E+00  5.20483E+00  1.64791E+00  3.78351E+00  2.44170E+00  1.75678E+00  8.48548E+00
   1.27966E+01  1.25374E+01 -1.15840E+00  1.17729E+01  1.22091E+01  3.48782E+00  7.15339E+00  6.76684E-01  8.61776E+00  1.39157E+01
   5.09464E+00  4.88912E+00  6.77364E+00  6.16848E+00  1.36814E+01  4.48224E+00  4.77085E+00 -9.64240E-01  5.91040E+00  2.67136E+00
   4.56567E+00  5.96338E+00  1.08376E-01  2.88350E+00  1.17446E+01  1.33585E+01  8.73344E+00  4.11581E+00  1.87462E+00  6.25804E+00
   8.49760E+00  3.35985E+00  1.38525E+01  6.70856E+00  3.77376E+00  2.04622E+00  3.93070E+00 -9.10047E-01  8.45793E+00  4.45134E+00
   5.65559E+00  8.07859E-01 -2.23000E+00  1.32011E+01  3.14439E+00  3.05714E+00  1.47419E+01  4.88725E+00
 NY points of the fit to the data follow
   2.59913E+01  2.56648E+01  2.69098E+01  2.73727E+01  2.94277E+01  3.41152E+01  3.84803E+01  4.18198E+01  4.54354E+01  4.87420E+01
   4.98797E+01  4.85199E+01  4.61423E+01  4.36809E+01  4.06208E+01  3.69983E+01  3.25686E+01  2.89057E+01  2.79790E+01  2.65092E+01
   2.45065E+01  2.35107E+01  2.33305E+01  2.38079E+01  2.43554E+01  2.41754E+01  2.46236E+01  2.66732E+01  2.98847E+01  3.35958E+01
   3.78485E+01  4.19253E+01  4.40673E+01  4.29443E+01  3.94023E+01  3.52560E+01  3.16125E+01  2.80447E+01  2.43605E+01  2.20170E+01
   2.20329E+01  2.31323E+01  2.43398E+01  2.63055E+01  2.94976E+01  3.29744E+01  3.56628E+01  3.72685E+01  3.77428E+01  3.66278E+01
   3.33795E+01  2.87669E+01  2.47756E+01  2.20782E+01  2.01355E+01  1.86407E+01  1.78589E+01  1.82742E+01  1.94354E+01  2.06164E+01
   2.14303E+01  2.16226E+01  2.10174E+01  1.96874E+01  1.81244E+01  1.70279E+01  1.64987E+01  1.62673E+01  1.64844E+01  1.71798E+01
   1.79763E+01  1.87346E+01  1.93122E+01  1.96071E+01  1.95230E+01  1.90112E+01  1.83432E+01  1.77258E+01  1.73390E+01  1.73204E+01
   1.78991E+01  1.82358E+01  1.84581E+01  1.95413E+01  2.11854E+01  2.24276E+01  2.30717E+01  2.33068E+01  2.28088E+01  2.12895E+01
   1.91693E+01  1.73204E+01  1.64103E+01  1.64450E+01  1.69660E+01  1.92308E+01  2.60166E+01  3.13806E+01  3.67175E+01  4.68571E+01
   6.03080E+01  7.25455E+01  8.20056E+01  8.83417E+01  8.87187E+01  8.08546E+01  6.70445E+01  5.25216E+01  4.07803E+01  3.22886E+01
   2.38966E+01  1.45286E+01  1.05953E+01  1.00064E+01  1.00479E+01  1.03318E+01  1.07648E+01  1.14085E+01  1.26684E+01  1.63136E+01
   2.36126E+01  3.00829E+01  3.66607E+01  4.77074E+01  6.22727E+01  7.59504E+01  8.67129E+01  9.40254E+01  9.52168E+01  8.79571E+01
   7.43549E+01  5.93791E+01  4.66194E+01  3.68677E+01  2.72505E+01  1.67774E+01  1.04903E+01  8.06591E+00  7.27628E+00  7.53156E+00
   8.44299E+00  9.47250E+00  1.02766E+01  1.09419E+01  1.13304E+01  1.12391E+01  1.09251E+01  1.04809E+01  9.87433E+00  9.31958E+00
   8.73299E+00  8.29033E+00  7.97439E+00  7.63310E+00  7.18697E+00  6.93060E+00  6.76337E+00  6.48869E+00  6.14337E+00  5.59168E+00
   5.11174E+00  4.88611E+00  4.85160E+00  4.93662E+00  5.07459E+00  5.03176E+00  4.56730E+00  3.61719E+00  2.54483E+00  1.62810E+00
   9.18905E-01  3.68468E-01 -4.94544E-01 -1.53604E+00 -2.16450E+00 -2.29628E+00 -2.26253E+00 -2.21629E+00 -2.05789E+00 -1.84642E+00
  -1.77435E+00 -1.68235E+00 -1.64091E+00 -1.41765E+00 -6.60289E-01  2.48417E-01  1.15985E+00  2.33905E+00  4.24968E+00  6.66310E+00
   8.62568E+00  9.47776E+00  9.61143E+00  9.29909E+00  8.55465E+00  7.45791E+00  6.41815E+00  6.19725E+00  6.93860E+00  8.47543E+00
   1.06988E+01  1.34664E+01  1.58205E+01  1.64621E+01  1.61283E+01  1.44247E+01  1.09979E+01  6.74755E+00  2.94160E+00  4.84032E-01
  -8.00795E-01 -1.46457E-01  3.16990E+00  8.00808E+00  1.25588E+01  1.58063E+01  1.76617E+01  1.84509E+01  1.76138E+01  1.40522E+01
   1.01393E+01  7.66435E+00  6.39537E+00  6.30470E+00  7.31966E+00  9.99190E+00  1.35161E+01  1.64382E+01  1.79167E+01  1.83024E+01
   1.88891E+01  1.92425E+01  1.84897E+01  1.75709E+01  1.78993E+01  1.88376E+01  1.96617E+01  2.07870E+01  2.20042E+01  2.26968E+01
   2.23312E+01  2.09216E+01  1.90294E+01  1.75918E+01  1.71081E+01  1.71872E+01  1.80442E+01  1.97283E+01  2.17974E+01  2.37198E+01
   2.59863E+01  2.88504E+01  3.36865E+01  4.50168E+01  5.49716E+01  6.24067E+01  7.60157E+01  9.61561E+01  1.15450E+02  1.30100E+02
   1.40413E+02  1.43145E+02  1.33585E+02  1.12998E+02  8.92902E+01  6.90203E+01  5.43609E+01  4.14164E+01  2.55535E+01  1.60490E+01
   1.36968E+01  1.28280E+01  1.23059E+01  1.20603E+01  1.19902E+01  1.19050E+01  1.17952E+01  1.16085E+01  1.13657E+01  1.11236E+01
   1.09139E+01  1.06871E+01  1.04715E+01  1.03362E+01  1.02847E+01  1.02834E+01  1.03209E+01  1.03927E+01  1.05140E+01  1.06789E+01
   1.08755E+01  1.11135E+01  1.14032E+01  1.17448E+01  1.21450E+01  1.26039E+01  1.31290E+01  1.37139E+01  1.43583E+01  1.50630E+01
   1.58287E+01  1.66460E+01  1.75120E+01  1.84163E+01  1.93540E+01  2.03125E+01  2.12853E+01  2.22611E+01  2.32359E+01  2.42019E+01
   2.51599E+01  2.61067E+01  2.70496E+01  2.79933E+01  2.89510E+01  2.99353E+01  3.09694E+01  3.20779E+01  3.33063E+01  3.47361E+01
   3.65347E+01  3.83294E+01  3.96143E+01  4.11937E+01  4.30384E+01  4.43272E+01  4.46529E+01  4.41790E+01  4.32657E+01  4.22871E+01
   4.07625E+01  3.95653E+01  4.00062E+01  4.21375E+01  4.50689E+01  4.81451E+01  5.17872E+01  5.59442E+01  5.90222E+01  6.06868E+01
   6.14824E+01  6.19155E+01  6.23594E+01  6.25662E+01  6.21167E+01  6.18490E+01  6.17309E+01  6.15758E+01  6.13841E+01  6.10289E+01
   6.04862E+01  5.99647E+01  5.95844E+01  5.92503E+01  5.88192E+01  5.82308E+01  5.75625E+01  5.67116E+01  5.54904E+01  5.39471E+01
   5.21998E+01  5.03476E+01  4.84123E+01  4.63169E+01  4.41812E+01  4.21017E+01  4.00613E+01  3.80589E+01  3.61080E+01  3.42181E+01
   3.24035E+01  3.06719E+01  2.90343E+01  2.74952E+01  2.60617E+01  2.47347E+01  2.35186E+01  2.24118E+01  2.14166E+01  2.05296E+01
   1.97514E+01  1.90773E+01  1.85071E+01  1.80358E+01  1.76625E+01  1.73812E+01  1.71902E+01  1.70828E+01  1.70562E+01  1.71026E+01
   1.72176E+01  1.73913E+01  1.76171E+01  1.78831E+01  1.81807E+01  1.84959E+01  1.88182E+01  1.91320E+01  1.94259E+01  1.96843E+01
   1.98969E+01  2.00498E+01  2.01347E+01  2.01412E+01  2.00655E+01  1.99019E+01  1.96521E+01  1.93156E+01  1.88989E+01  1.84066E+01
   1.78497E+01  1.72364E+01  1.65802E+01  1.58908E+01  1.51823E+01  1.44640E+01  1.37490E+01  1.30451E+01  1.23626E+01  1.17064E+01
   1.10839E+01  1.04971E+01  9.95070E+00  9.44393E+00  8.97906E+00  8.55323E+00  8.16711E+00  7.81676E+00  7.50201E+00  7.21825E+00
   6.96483E+00  6.73702E+00  6.53432E+00  6.35233E+00  6.19086E+00  6.04574E+00  5.91700E+00  5.80088E+00  5.69795E+00  5.60490E+00
   5.52254E+00  5.44774E+00  5.38151E+00  5.32106E+00  5.26776E+00  5.21903E+00  5.17625E+00  5.13690E+00  5.10249E+00  5.07073E+00
   5.04333E+00  5.01805E+00  4.99650E+00  4.97646E+00  4.95966E+00  4.94407E+00  4.93149E+00  4.91983E+00  4.91079E+00  4.90230E+00
   4.89619E+00  4.89055E+00  4.88719E+00  4.88409E+00  4.88300E+00  4.88196E+00  4.88284E+00  4.88379E+00  4.88658E+00  4.88924E+00
   4.89354E+00  4.89762E+00  4.90338E+00  4.90894E+00  4.91609E+00  4.92288E+00  4.93112E+00  4.93901E+00  4.94841E+00  4.95748E+00
   4.96794E+00  4.97793E+00  4.98927E+00  5.00021E+00  5.01258E+00  5.02453E+00  5.03778E+00  5.05054E+00  5.06464E+00  5.07837E+00
   5.09350E+00  5.10823E+00  5.12426E+00  5.13989E+00  5.15696E+00  5.17379E+00  5.19212E+00  5.21021E+00
 NY background values follow
     1.326E+01    1.319E+01    1.313E+01    1.306E+01    1.299E+01    1.292E+01    1.286E+01    1.279E+01    1.272E+01    1.265E+01
     1.259E+01    1.252E+01    1.245E+01    1.238E+01    1.232E+01    1.225E+01    1.218E+01    1.211E+01    1.205E+01    1.198E+01
     1.191E+01    1.184E+01    1.178E+01    1.171E+01    1.164E+01    1.158E+01    1.151E+01    1.144E+01    1.138E+01    1.131E+01
     1.124E+01    1.118E+01    1.111E+01    1.104E+01    1.098E+01    1.091E+01    1.084E+01    1.078E+01    1.071E+01    1.064E+01
     1.058E+01    1.051E+01    1.045E+01    1.038E+01    1.031E+01    1.025E+01    1.018E+01    1.012E+01    1.005E+01    9.986E+00
     9.921E+00    9.856E+00    9.791E+00    9.726E+00    9.661E+00    9.597E+00    9.532E+00    9.468E+00    9.403E+00    9.339E+00
     9.275E+00    9.211E+00    9.148E+00    9.084E+00    9.020E+00    8.957E+00    8.894E+00    8.831E+00    8.768E+00    8.705E+00
     8.643E+00    8.581E+00    8.518E+00    8.456E+00    8.395E+00    8.333E+00    8.271E+00    8.210E+00    8.149E+00    8.088E+00
     8.027E+00    7.967E+00    7.907E+00    7.847E+00    7.787E+00    7.727E+00    7.668E+00    7.608E+00    7.549E+00    7.491E+00
     7.432E+00    7.374E+00    7.316E+00    7.258E+00    7.200E+00    7.143E+00    7.086E+00    7.029E+00    6.972E+00    6.916E+00
     6.860E+00    6.804E+00    6.748E+00    6.693E+00    6.638E+00    6.583E+00    6.529E+00    6.475E+00    6.421E+00    6.367E+00
     6.314E+00    6.261E+00    6.208E+00    6.156E+00    6.104E+00    6.052E+00    6.001E+00    5.950E+00    5.899E+00    5.849E+00
     5.798E+00    5.749E+00    5.699E+00    5.650E+00    5.601E+00    5.553E+00    5.505E+00    5.457E+00    5.410E+00    5.363E+00
     5.316E+00    5.270E+00    5.224E+00    5.179E+00    5.133E+00    5.089E+00    5.044E+00    5.000E+00    4.957E+00    4.914E+00
     4.871E+00    4.829E+00    4.787E+00    4.745E+00    4.704E+00    4.663E+00    4.623E+00    4.583E+00    4.544E+00    4.505E+00
     4.466E+00    4.428E+00    4.391E+00    4.354E+00    4.317E+00    4.281E+00    4.245E+00    4.210E+00    4.175E+00    4.140E+00
     4.107E+00    4.073E+00    4.040E+00    4.008E+00    3.976E+00    3.945E+00    3.914E+00    3.884E+00    3.854E+00    3.825E+00
     3.796E+00    3.768E+00    3.740E+00    3.713E+00    3.687E+00    3.660E+00    3.635E+00    3.610E+00    3.586E+00    3.562E+00
     3.539E+00    3.516E+00    3.494E+00    3.473E+00    3.452E+00    3.431E+00    3.412E+00    3.392E+00    3.374E+00    3.355E+00
     3.338E+00    3.320E+00    3.304E+00    3.288E+00    3.272E+00    3.257E+00    3.242E+00    3.228E+00    3.214E+00    3.201E+00
     3.188E+00    3.176E+00    3.164E+00    3.152E+00    3.141E+00    3.130E+00    3.120E+00    3.110E+00    3.101E+00    3.092E+00
     3.083E+00    3.075E+00    3.067E+00    3.059E+00    3.052E+00    3.045E+00    3.039E+00    3.032E+00    3.027E+00    3.021E+00
     3.016E+00    3.011E+00    3.006E+00    3.002E+00    2.998E+00    2.994E+00    2.991E+00    2.988E+00    2.985E+00    2.982E+00
     2.980E+00    2.977E+00    2.976E+00    2.974E+00    2.973E+00    2.971E+00    2.970E+00    2.970E+00    2.969E+00    2.969E+00
     2.969E+00    2.969E+00    2.970E+00    2.971E+00    2.972E+00    2.973E+00    2.974E+00    2.976E+00    2.977E+00    2.979E+00
     2.981E+00    2.984E+00    2.986E+00    2.989E+00    2.992E+00    2.995E+00    2.998E+00    3.002E+00    3.006E+00    3.009E+00
     3.013E+00    3.018E+00    3.022E+00    3.026E+00    3.031E+00    3.036E+00    3.041E+00    3.046E+00    3.051E+00    3.056E+00
     3.062E+00    3.068E+00    3.073E+00    3.079E+00    3.085E+00    3.091E+00    3.098E+00    3.104E+00    3.111E+00    3.117E+00
     3.124E+00    3.131E+00    3.138E+00    3.145E+00    3.152E+00    3.159E+00    3.167E+00    3.174E+00    3.182E+00    3.189E+00
     3.197E+00    3.205E+00    3.213E+00    3.221E+00    3.229E+00    3.237E+00    3.245E+00    3.253E+00    3.262E+00    3.270E+00
     3.279E+00    3.287E+00    3.296E+00    3.304E+00    3.313E+00    3.321E+00    3.330E+00    3.339E+00    3.348E+00    3.357E+00
     3.365E+00    3.374E+00    3.383E+00    3.392E+00    3.401E+00    3.410E+00    3.419E+00    3.428E+00    3.437E+00    3.446E+00
     3.455E+00    3.464E+00    3.473E+00    3.482E+00    3.492E+00    3.501E+00    3.510E+00    3.519E+00    3.528E+00    3.537E+00
     3.547E+00    3.556E+00    3.565E+00    3.574E+00    3.584E+00    3.593E+00    3.602E+00    3.612E+00    3.621E+00    3.630E+00
     3.640E+00    3.649E+00    3.659E+00    3.668E+00    3.678E+00    3.688E+00    3.697E+00    3.707E+00    3.716E+00    3.726E+00
     3.736E+00    3.746E+00    3.755E+00    3.765E+00    3.775E+00    3.785E+00    3.795E+00    3.805E+00    3.815E+00    3.825E+00
     3.835E+00    3.845E+00    3.855E+00    3.866E+00    3.876E+00    3.886E+00    3.897E+00    3.907E+00    3.917E+00    3.928E+00
     3.938E+00    3.949E+00    3.960E+00    3.970E+00    3.981E+00    3.992E+00    4.003E+00    4.013E+00    4.024E+00    4.035E+00
     4.047E+00    4.058E+00    4.069E+00    4.080E+00    4.091E+00    4.103E+00    4.114E+00    4.126E+00    4.138E+00    4.149E+00
     4.161E+00    4.173E+00    4.185E+00    4.197E+00    4.209E+00    4.221E+00    4.233E+00    4.245E+00    4.258E+00    4.270E+00
     4.283E+00    4.296E+00    4.308E+00    4.321E+00    4.334E+00    4.347E+00    4.360E+00    4.373E+00    4.387E+00    4.400E+00
     4.414E+00    4.427E+00    4.441E+00    4.454E+00    4.468E+00    4.482E+00    4.496E+00    4.510E+00    4.524E+00    4.539E+00
     4.553E+00    4.567E+00    4.582E+00    4.596E+00    4.611E+00    4.626E+00    4.640E+00    4.655E+00    4.670E+00    4.685E+00
     4.700E+00    4.715E+00    4.730E+00    4.745E+00    4.760E+00    4.775E+00    4.790E+00    4.806E+00    4.821E+00    4.837E+00
     4.852E+00    4.867E+00    4.883E+00    4.898E+00    4.914E+00    4.930E+00    4.945E+00    4.961E+00    4.977E+00    4.992E+00
     5.008E+00    5.024E+00    5.040E+00    5.055E+00    5.071E+00    5.087E+00    5.103E+00    5.119E+00    5.135E+00    5.150E+00
     5.166E+00    5.182E+00    5.198E+00    5.214E+00    5.230E+00    5.246E+00    5.262E+00    5.278E+00    5.294E+00    5.310E+00
     5.326E+00    5.342E+00    5.358E+00    5.374E+00    5.390E+00    5.406E+00    5.422E+00    5.438E+00    5.454E+00    5.471E+00
     5.487E+00    5.503E+00    5.519E+00    5.535E+00    5.551E+00    5.567E+00    5.583E+00    5.599E+00    5.615E+00    5.631E+00
     5.647E+00    5.664E+00    5.680E+00    5.696E+00    5.712E+00    5.728E+00    5.744E+00    5.760E+00
 Ala      Conc. = 7.88E+02
