 LCModel (Version 6.3-1L) Copyright: S.W. Provencher.          Ref.: Magn. Reson. Med. 30:672-679 (1993).                
 Slice#1 Row#6 Col#12  PD_05_press_2_raw_act
 36 lines in following concentration table = NCONC+1
    Conc.  %SD /Cr+PCr  Metabolite                                         
  127.545 137%   0.000 Ala                                                 
   63.247 116%   0.000 Asp                                                 
    0.000 999%   0.000 Cr                                                  
    0.000 999%   0.000 PCr                                                 
   29.001 154%   0.000 GABA                                                
   36.145 122%   0.000 Glc                                                 
    0.000 999%   0.000 Gln                                                 
  240.390 160%   0.000 Glu                                                 
    0.000 999%   0.000 GPC                                                 
    0.000 999%   0.000 PCh                                                 
    0.000 999%   0.000 GSH                                                 
    0.000 999%   0.000 Ins                                                 
    0.000 999%   0.000 Lac                                                 
 1.41E+03   7%   0.000 NAA                                                 
    0.000 999%   0.000 NAAG                                                
   11.565 117%   0.000 Scyllo                                              
   39.079 183%   0.000 Tau                                                 
 2.51E-03 999%   0.000 -CrCH2                                              
    0.000 999%   0.000 GPC+PCh                                             
 1.41E+03   7%   0.000 NAA+NAAG                                            
    0.000 999%   0.000 Cr+PCr                                              
  240.390 160%   0.000 Glu+Gln                                             
 2.48E+03  24%   0.000 Lip13a                                              
    0.000 999%   0.000 Lip13b                                              
  622.122  43%   0.000 Lip09                                               
  976.157  30%   0.000 MM09                                                
  446.017  40%   0.000 Lip20                                               
 1.62E+03  25%   0.000 MM20                                                
  229.820  81%   0.000 MM12                                                
  696.997  62%   0.000 MM14                                                
  622.579  33%   0.000 MM17                                                
 2.48E+03  24%   0.000 Lip13a+Lip13b                                       
 3.41E+03  11%   0.000 MM14+Lip13a+Lip13b+MM12                             
 1.60E+03  11%   0.000 MM09+Lip09                                          
 2.06E+03  18%   0.000 MM20+Lip20                                          
   6 lines in following misc. output table
  FWHM = 0.061 ppm    S/N =   5                                            
  Data shift =-0.038 ppm                                                   
  Ph: -39 deg     -10.1 deg/ppm                                            
  alphaB,S = 8.5E+01,   1.0E+02                                            
   14 spline knots.   Ns = 9(1)                                            
   2 inflections.     1 extrema                                            
  498 points on ppm-axis = NY
      4.000000     3.992357     3.984714     3.977070     3.969427     3.961784     3.954141     3.946497     3.938854     3.931211
      3.923568     3.915925     3.908281     3.900638     3.892995     3.885352     3.877708     3.870065     3.862422     3.854779
      3.847136     3.839492     3.831849     3.824206     3.816563     3.808919     3.801276     3.793633     3.785990     3.778347
      3.770703     3.763060     3.755417     3.747774     3.740130     3.732487     3.724844     3.717201     3.709558     3.701914
      3.694271     3.686628     3.678985     3.671341     3.663698     3.656055     3.648412     3.640769     3.633125     3.625482
      3.617839     3.610196     3.602552     3.594909     3.587266     3.579623     3.571980     3.564336     3.556693     3.549050
      3.541407     3.533763     3.526120     3.518477     3.510834     3.503191     3.495547     3.487904     3.480261     3.472618
      3.464974     3.457331     3.449688     3.442045     3.434402     3.426758     3.419115     3.411472     3.403829     3.396185
      3.388542     3.380899     3.373256     3.365613     3.357969     3.350326     3.342683     3.335040     3.327396     3.319753
      3.312110     3.304467     3.296824     3.289180     3.281537     3.273894     3.266251     3.258607     3.250964     3.243321
      3.235678     3.228034     3.220391     3.212748     3.205105     3.197462     3.189818     3.182175     3.174532     3.166889
      3.159245     3.151602     3.143959     3.136316     3.128673     3.121029     3.113386     3.105743     3.098100     3.090456
      3.082813     3.075170     3.067527     3.059884     3.052240     3.044597     3.036954     3.029311     3.021667     3.014024
      3.006381     2.998738     2.991095     2.983451     2.975808     2.968165     2.960522     2.952878     2.945235     2.937592
      2.929949     2.922306     2.914662     2.907019     2.899376     2.891733     2.884089     2.876446     2.868803     2.861160
      2.853517     2.845873     2.838230     2.830587     2.822944     2.815300     2.807657     2.800014     2.792371     2.784728
      2.777084     2.769441     2.761798     2.754155     2.746511     2.738868     2.731225     2.723582     2.715939     2.708295
      2.700652     2.693009     2.685366     2.677722     2.670079     2.662436     2.654793     2.647150     2.639506     2.631863
      2.624220     2.616577     2.608933     2.601290     2.593647     2.586004     2.578361     2.570717     2.563074     2.555431
      2.547788     2.540144     2.532501     2.524858     2.517215     2.509572     2.501928     2.494285     2.486642     2.478999
      2.471355     2.463712     2.456069     2.448426     2.440783     2.433139     2.425496     2.417853     2.410210     2.402566
      2.394923     2.387280     2.379637     2.371994     2.364350     2.356707     2.349064     2.341421     2.333777     2.326134
      2.318491     2.310848     2.303205     2.295561     2.287918     2.280275     2.272632     2.264988     2.257345     2.249702
      2.242059     2.234416     2.226772     2.219129     2.211486     2.203843     2.196199     2.188556     2.180913     2.173270
      2.165627     2.157983     2.150340     2.142697     2.135054     2.127410     2.119767     2.112124     2.104481     2.096838
      2.089194     2.081551     2.073908     2.066265     2.058621     2.050978     2.043335     2.035692     2.028049     2.020405
      2.012762     2.005119     1.997476     1.989833     1.982190     1.974546     1.966903     1.959260     1.951617     1.943974
      1.936331     1.928688     1.921045     1.913402     1.905759     1.898115     1.890472     1.882829     1.875186     1.867543
      1.859900     1.852257     1.844614     1.836971     1.829327     1.821684     1.814041     1.806398     1.798755     1.791112
      1.783469     1.775826     1.768183     1.760540     1.752896     1.745253     1.737610     1.729967     1.722324     1.714681
      1.707038     1.699395     1.691752     1.684108     1.676465     1.668822     1.661179     1.653536     1.645893     1.638250
      1.630607     1.622964     1.615321     1.607677     1.600034     1.592391     1.584748     1.577105     1.569462     1.561819
      1.554176     1.546533     1.538890     1.531246     1.523603     1.515960     1.508317     1.500674     1.493031     1.485388
      1.477745     1.470102     1.462458     1.454815     1.447172     1.439529     1.431886     1.424243     1.416600     1.408957
      1.401314     1.393671     1.386027     1.378384     1.370741     1.363098     1.355455     1.347812     1.340169     1.332526
      1.324883     1.317240     1.309596     1.301953     1.294310     1.286667     1.279024     1.271381     1.263738     1.256095
      1.248452     1.240808     1.233165     1.225522     1.217879     1.210236     1.202593     1.194950     1.187307     1.179664
      1.172021     1.164377     1.156734     1.149091     1.141448     1.133805     1.126162     1.118519     1.110876     1.103233
      1.095590     1.087946     1.080303     1.072660     1.065017     1.057374     1.049731     1.042088     1.034445     1.026802
      1.019158     1.011515     1.003872     0.996229     0.988586     0.980943     0.973300     0.965657     0.958014     0.950371
      0.942727     0.935084     0.927441     0.919798     0.912155     0.904512     0.896869     0.889226     0.881583     0.873940
      0.866296     0.858653     0.851010     0.843367     0.835724     0.828081     0.820438     0.812795     0.805152     0.797508
      0.789865     0.782222     0.774579     0.766936     0.759293     0.751650     0.744007     0.736364     0.728721     0.721077
      0.713434     0.705791     0.698148     0.690505     0.682862     0.675219     0.667576     0.659933     0.652290     0.644646
      0.637003     0.629360     0.621717     0.614074     0.606431     0.598788     0.591145     0.583502     0.575858     0.568215
      0.560572     0.552929     0.545286     0.537643     0.530000     0.522357     0.514714     0.507071     0.499427     0.491784
      0.484141     0.476498     0.468855     0.461212     0.453569     0.445925     0.438282     0.430639     0.422996     0.415353
      0.407710     0.400067     0.392424     0.384780     0.377137     0.369494     0.361851     0.354208     0.346565     0.338922
      0.331278     0.323635     0.315992     0.308349     0.300706     0.293063     0.285420     0.277777     0.270133     0.262490
      0.254847     0.247204     0.239561     0.231918     0.224275     0.216631     0.208988     0.201345
 NY phased data points follow
  -9.69647E-01  1.77882E-01 -4.63371E+00 -3.83424E+00 -3.28586E+00  1.08606E+00 -2.63734E+00 -3.15772E+00 -6.72847E+00 -7.34566E+00
   1.98457E-01 -3.27476E+00  1.78400E+00 -3.13625E+00 -3.16931E+00 -2.47267E+00 -8.35306E-01 -4.26462E+00  1.14641E+00 -8.50143E+00
   2.16279E+00 -5.40543E+00 -1.02756E+01 -5.39827E+00  3.92013E+00  1.03992E+00 -7.22571E+00 -8.61614E-01  1.44943E+00 -4.65921E+00
  -7.72527E-01 -5.10458E+00 -4.26373E+00 -5.16275E+00 -6.09838E+00 -2.88118E-01 -1.96801E+00 -4.14310E+00 -7.07505E+00 -4.28104E+00
   1.17879E+00 -3.32266E-01 -1.19000E+01 -2.36259E+00 -1.49448E+00 -4.01336E+00 -2.81122E+00 -5.72515E+00 -3.59024E+00  6.18334E+00
   1.42247E+00 -5.75038E+00  5.83802E-01 -7.12496E+00  2.75165E+00 -5.06619E+00 -3.05273E+00 -7.25049E-01 -7.38157E+00 -5.47549E+00
   1.74752E+00 -5.85468E+00 -1.50638E+00 -2.03607E+00 -1.52727E+00  3.37192E+00  1.73730E+00 -4.53956E+00  6.00962E+00 -4.13469E+00
  -1.81374E+00 -3.11452E+00 -6.45747E+00 -6.23773E+00 -1.61812E+00 -2.70123E+00  9.60597E-01 -4.60127E+00  1.52590E+00 -2.66670E+00
   4.52670E+00 -1.07814E+01 -6.86274E+00 -3.06718E-01 -3.40955E+00 -3.01342E+00  4.57469E-01 -3.07800E+00 -3.17183E+00  2.08682E+00
   2.25133E+00 -1.50820E+00  1.15327E+00 -3.64154E+00  1.23961E-01 -6.33045E+00 -3.21305E+00 -2.97964E+00  1.80552E+00 -1.00436E+00
  -7.13918E-01 -5.08768E+00  3.39140E+00  7.90764E-01 -4.93514E+00 -6.45561E+00 -1.74739E+00 -8.06290E+00 -3.88905E+00  3.38273E+00
  -1.22407E+01 -1.04330E+01 -2.92788E+00 -4.85712E+00 -4.57128E-01 -7.21017E-01  1.25483E+00 -1.77906E+00  2.19736E+00 -8.00829E-01
   1.25614E+00 -1.64427E+00 -1.15929E+00  2.23256E+00 -1.25999E+00  1.76398E+00 -1.76842E+00  1.41405E-01 -6.49022E+00 -4.26562E+00
   3.35389E+00 -3.59974E+00 -4.17956E+00  3.48694E-01  4.73083E+00  4.89229E+00  2.38696E+00 -3.81129E+00  1.57676E+00  6.71088E+00
   1.44740E+00  5.76552E+00  1.55507E+00  2.95946E+00  1.21972E+00  7.91155E+00 -3.51547E+00 -4.51512E+00 -3.45947E+00  1.89592E+00
   8.55693E-01 -1.28879E+00 -3.49941E-01  4.25135E+00 -5.59548E+00  4.34156E+00 -4.37950E+00 -3.70517E+00 -9.65585E-01  6.89025E+00
   2.44995E+00 -1.51630E-01  5.28991E+00 -2.51221E-01 -3.86360E+00 -2.20364E+00 -3.62204E+00 -4.26939E+00  1.65466E+00 -7.78826E-01
   1.23610E+00  2.32074E+00 -2.20944E+00 -3.34673E+00 -3.95337E+00 -1.85912E+00 -2.94958E-01 -1.35090E-01  7.56761E+00  4.10722E+00
   3.76901E+00 -3.13368E+00 -1.70762E+00  1.12852E+00  3.71232E-01 -4.98846E+00 -1.25779E+00 -3.78159E-01  2.43841E+00 -2.95588E+00
   1.01622E+00 -1.06478E+00  4.15519E+00  6.96656E-02  5.94791E+00  1.86768E+00  5.60652E+00 -3.45451E+00  7.71069E-01 -1.01330E+00
   1.43798E+00  3.27576E-01  1.88176E+00 -5.33407E+00  3.61845E-01 -3.19317E+00  4.75354E+00  2.41304E+00 -4.11857E+00  4.08610E-01
  -1.66951E+00 -8.42630E+00  4.33074E+00  3.65926E+00 -3.50629E-01  4.15980E+00  1.11934E+01 -9.57037E-01  6.28877E+00  6.27044E+00
   5.48331E+00  2.66424E+00 -2.64493E-01 -5.94016E+00 -3.23091E-02 -3.61739E+00  1.68841E+00  5.75800E-01  4.55621E+00  3.69030E+00
   1.72751E+00 -5.24809E-01 -1.13255E+00  5.54090E+00 -1.12552E+00 -1.26309E+00  9.16397E-01  7.64980E+00  9.31937E+00  7.99905E+00
   6.09723E+00  7.26755E+00 -3.06016E+00  8.02984E+00  7.82649E+00  1.02594E+01  1.14167E+01  1.03115E+01  7.39463E+00  5.72634E+00
   7.52337E+00  5.41824E+00  1.93953E+01  1.33546E+01  1.67028E+01  1.81582E+01  2.40147E+01  3.28718E+01  4.00357E+01  4.48986E+01
   5.09425E+01  4.64592E+01  3.38443E+01  3.77612E+01  2.36322E+01  2.53992E+01  1.96612E+01  1.95866E+01  3.73353E+00  2.04751E+01
   4.35378E+00  1.19297E+01  7.21842E+00 -1.12378E+00  2.72544E+00  3.30658E+00 -2.67452E+00  1.64108E+00 -1.14292E+00  2.81906E+00
   3.35780E+00  8.20829E+00  7.04872E+00  3.05561E+00  4.05878E+00 -6.58250E+00  9.21947E+00  1.48575E-01  1.44537E+00 -2.48540E+00
   6.88024E+00  2.14589E+00 -1.77728E+00  3.11975E+00 -7.19519E-01  4.16743E+00 -1.25427E+00  9.38471E-01  6.00428E+00  4.16554E+00
   9.10817E+00 -1.09914E+00 -1.07232E+00  9.98439E+00  1.14214E+01  6.63594E+00  6.39228E+00  1.26092E+01  1.08386E+01  1.53879E+01
   4.02299E+00  5.86720E+00  5.34788E+00  7.11726E-01  9.00591E+00  2.27970E+00 -2.33294E-03  1.38602E+00  6.29007E+00  1.97505E+00
   1.39539E+00  6.18588E+00  5.01710E-01  4.51257E+00  6.57288E+00  2.31330E+00  2.37683E+00 -4.21847E+00  3.35409E+00  9.40974E+00
   6.92925E+00  3.31312E+00  4.08996E+00  3.61495E+00  4.56657E+00  8.23629E+00  1.42908E+01  3.46475E+00  1.40670E+01  9.45662E+00
   1.87935E+01  1.22684E+01  1.42726E+01  1.68041E+01  1.49115E+01  1.47469E+01  1.53361E+01  1.49299E+01  1.53150E+01  1.50783E+01
   1.51217E+01  2.26905E+01  1.94592E+01  2.00425E+01  1.46740E+01  2.02999E+01  8.80846E+00  1.17248E+01  1.41937E+01  1.51538E+01
   5.31265E+00  7.47308E+00  1.20685E+01  1.11796E+01  1.44362E+01  1.21869E+01  1.55797E+01  1.10864E+01  1.67624E+01  5.96071E+00
   8.78509E+00  9.00432E+00  2.14638E+00  1.33767E+01  1.36361E+01 -1.57283E+00  6.95337E+00  1.08423E+00  6.85309E+00  1.56823E+00
   6.97391E+00 -6.91313E-01  5.54160E-01  5.00161E+00  1.74639E+00  1.12304E+01  3.65803E+00  2.69401E+00  3.73489E-02 -2.59882E+00
   1.45180E+01  8.52088E+00  1.29635E+01  8.59324E+00  1.55224E+01  8.10872E+00  1.26356E+01  8.22715E+00  1.62030E+01  1.25538E+01
   1.34014E+01  1.53299E+01  7.66167E+00  1.04422E+01  2.01299E+01  1.24607E+01  1.54557E+01  2.25264E+01  1.28199E+01  1.54958E+01
   2.21827E+01  1.16493E+01  1.28227E+01  1.27023E+01  8.25327E+00  1.07440E+01  5.76935E+00  4.76690E+00  6.91568E+00  6.76067E+00
   2.78832E+00  2.11096E+00  8.16185E+00  5.96827E+00  3.20111E+00  1.12310E+01  5.81080E+00  1.10469E+01  4.96847E+00  4.42648E+00
   1.74898E+00  1.24125E+00  4.05565E+00 -1.12873E+00  4.67479E+00  5.95016E+00  6.05235E+00 -8.20750E-01 -3.39256E+00  3.62623E+00
   6.34779E+00 -1.35034E+00  4.57993E+00  5.30960E+00  9.20897E-01 -7.67487E-01  1.86129E+00  3.63713E+00  7.67821E+00  4.79160E+00
   8.61441E-01  6.25946E+00 -3.50428E+00  6.06322E+00  8.82346E+00  1.85951E+00  8.51605E+00  1.55939E+00  9.18226E-01  1.63655E+00
   3.38877E+00  1.05624E+00 -1.99972E-01  9.55090E+00  2.52072E+00  2.54511E+00  4.87915E+00  5.40506E+00  8.15272E+00  3.97060E+00
   3.87409E-01  2.58892E+00  1.00066E+00  7.80575E+00 -3.09952E-02  3.05578E+00 -5.34373E+00  3.13896E+00  2.09723E+00  5.58986E-01
   4.24240E+00  9.01741E+00  2.03092E+00 -4.43939E+00  1.98966E+00  3.49763E+00 -2.06638E+00  4.84775E+00  7.46739E+00  3.48760E-01
   3.86732E+00 -6.65658E-02 -3.34288E+00 -1.60843E+00  7.46134E+00 -2.74118E+00  6.69910E+00 -1.18626E+00
 NY points of the fit to the data follow
  -2.93708E+00 -2.91848E+00 -2.89997E+00 -2.88412E+00 -2.87712E+00 -2.88191E+00 -2.89462E+00 -2.90625E+00 -2.91050E+00 -2.90839E+00
  -2.90206E+00 -2.89502E+00 -2.89010E+00 -2.88884E+00 -2.89137E+00 -2.89256E+00 -2.88004E+00 -2.84371E+00 -2.77836E+00 -2.69024E+00
  -2.58573E+00 -2.47907E+00 -2.39607E+00 -2.36160E+00 -2.38514E+00 -2.46031E+00 -2.56857E+00 -2.67251E+00 -2.72561E+00 -2.69778E+00
  -2.59048E+00 -2.43426E+00 -2.28043E+00 -2.18100E+00 -2.16498E+00 -2.21963E+00 -2.30318E+00 -2.37721E+00 -2.42185E+00 -2.44134E+00
  -2.44430E+00 -2.44070E+00 -2.44058E+00 -2.44711E+00 -2.44846E+00 -2.43458E+00 -2.41030E+00 -2.38407E+00 -2.35863E+00 -2.33899E+00
  -2.32752E+00 -2.31803E+00 -2.30933E+00 -2.30163E+00 -2.29512E+00 -2.28944E+00 -2.28333E+00 -2.27475E+00 -2.26299E+00 -2.24901E+00
  -2.23155E+00 -2.21149E+00 -2.19017E+00 -2.16778E+00 -2.14586E+00 -2.12713E+00 -2.11046E+00 -2.09305E+00 -2.07554E+00 -2.05598E+00
  -2.02848E+00 -1.98862E+00 -1.93829E+00 -1.88547E+00 -1.84155E+00 -1.81720E+00 -1.81377E+00 -1.81359E+00 -1.80309E+00 -1.78084E+00
  -1.73796E+00 -1.66740E+00 -1.57015E+00 -1.45734E+00 -1.35294E+00 -1.28415E+00 -1.26400E+00 -1.28999E+00 -1.34973E+00 -1.42465E+00
  -1.50075E+00 -1.57483E+00 -1.64353E+00 -1.69594E+00 -1.72224E+00 -1.72301E+00 -1.70294E+00 -1.66256E+00 -1.61522E+00 -1.57694E+00
  -1.54959E+00 -1.52830E+00 -1.50652E+00 -1.47859E+00 -1.44408E+00 -1.40623E+00 -1.36679E+00 -1.32654E+00 -1.28656E+00 -1.24382E+00
  -1.19494E+00 -1.14360E+00 -1.09029E+00 -1.03347E+00 -9.76005E-01 -9.19748E-01 -8.63135E-01 -8.05823E-01 -7.47407E-01 -6.86260E-01
  -6.22510E-01 -5.54606E-01 -4.80894E-01 -4.01612E-01 -3.18678E-01 -2.35600E-01 -1.56624E-01 -8.52761E-02 -2.61395E-02  1.76259E-02
   4.59071E-02  5.96341E-02  6.28543E-02  5.93009E-02  5.20972E-02  4.54482E-02  4.05671E-02  3.66914E-02  3.13648E-02  2.20028E-02
   1.02301E-02  1.40566E-03 -1.02179E-03  1.36358E-03  3.28050E-03 -1.41254E-03 -1.51239E-02 -3.42690E-02 -5.42275E-02 -7.07819E-02
  -8.13957E-02 -9.15982E-02 -1.22760E-01 -1.75088E-01 -2.35862E-01 -3.08054E-01 -4.00585E-01 -5.39285E-01 -7.22455E-01 -8.97160E-01
  -9.99330E-01 -9.98014E-01 -9.20264E-01 -8.39235E-01 -8.26674E-01 -9.17566E-01 -1.09939E+00 -1.33596E+00 -1.58730E+00 -1.81219E+00
  -2.01189E+00 -2.21997E+00 -2.47327E+00 -2.72605E+00 -2.90251E+00 -2.96365E+00 -2.91017E+00 -2.81397E+00 -2.75092E+00 -2.71744E+00
  -2.66641E+00 -2.57858E+00 -2.45788E+00 -2.31499E+00 -2.14440E+00 -1.91230E+00 -1.58947E+00 -1.18995E+00 -7.44854E-01 -3.05758E-01
   7.82715E-02  4.03279E-01  6.68756E-01  8.86782E-01  1.06230E+00  1.18070E+00  1.21307E+00  1.15119E+00  1.02914E+00  9.43341E-01
   9.65384E-01  1.07832E+00  1.22453E+00  1.32690E+00  1.31323E+00  1.18471E+00  9.84255E-01  7.60325E-01  5.39734E-01  3.18091E-01
   1.35654E-01  6.24488E-02  1.36408E-01  3.29156E-01  5.80425E-01  8.26229E-01  9.88215E-01  1.02907E+00  9.73235E-01  8.90138E-01
   8.55749E-01  9.19278E-01  1.10808E+00  1.40422E+00  1.74276E+00  2.07647E+00  2.38321E+00  2.66425E+00  2.91686E+00  3.14154E+00
   3.35295E+00  3.56300E+00  3.77513E+00  3.97977E+00  4.16681E+00  4.35086E+00  4.54523E+00  4.74517E+00  4.95021E+00  5.16982E+00
   5.41649E+00  5.69562E+00  6.00241E+00  6.32980E+00  6.66771E+00  6.99586E+00  7.29633E+00  7.56465E+00  7.81355E+00  8.07633E+00
   8.48231E+00  9.55802E+00  1.15469E+01  1.39494E+01  1.68364E+01  2.08222E+01  2.62951E+01  3.28488E+01  3.92531E+01  4.39336E+01
   4.56114E+01  4.39393E+01  3.97623E+01  3.44380E+01  2.90083E+01  2.40230E+01  1.95884E+01  1.56544E+01  1.22628E+01  9.32444E+00
   6.75301E+00  5.08267E+00  4.42379E+00  4.07415E+00  3.81025E+00  3.58624E+00  3.38310E+00  3.19146E+00  3.01302E+00  2.85061E+00
   2.70693E+00  2.58514E+00  2.48836E+00  2.41710E+00  2.37274E+00  2.35672E+00  2.36868E+00  2.40843E+00  2.47621E+00  2.57154E+00
   2.69415E+00  2.84359E+00  3.01839E+00  3.21729E+00  3.43812E+00  3.67735E+00  3.93062E+00  4.19278E+00  4.45737E+00  4.71716E+00
   4.96491E+00  5.19360E+00  5.39632E+00  5.56697E+00  5.70080E+00  5.79434E+00  5.84604E+00  5.85622E+00  5.82703E+00  5.76235E+00
   5.66763E+00  5.54971E+00  5.41650E+00  5.27668E+00  5.13951E+00  5.01475E+00  4.91323E+00  4.84953E+00  4.84230E+00  4.87711E+00
   4.93586E+00  5.03318E+00  5.17737E+00  5.34240E+00  5.47137E+00  5.50474E+00  5.43626E+00  5.30703E+00  5.16504E+00  5.08445E+00
   5.14326E+00  5.39652E+00  5.86171E+00  6.51003E+00  7.27778E+00  8.08116E+00  8.83822E+00  9.52260E+00  1.01625E+01  1.07609E+01
   1.13187E+01  1.18536E+01  1.23723E+01  1.28797E+01  1.33708E+01  1.38303E+01  1.42752E+01  1.47209E+01  1.51427E+01  1.55211E+01
   1.58417E+01  1.60930E+01  1.62655E+01  1.63520E+01  1.63477E+01  1.62503E+01  1.60602E+01  1.57806E+01  1.54171E+01  1.49777E+01
   1.44720E+01  1.39112E+01  1.33076E+01  1.26737E+01  1.20220E+01  1.13645E+01  1.07123E+01  1.00754E+01  9.46238E+00  8.88049E+00
   8.33544E+00  7.83154E+00  7.37188E+00  6.95848E+00  6.59250E+00  6.27443E+00  6.00430E+00  5.78191E+00  5.60705E+00  5.47961E+00
   5.39972E+00  5.36783E+00  5.38472E+00  5.45153E+00  5.56970E+00  5.74088E+00  5.96669E+00  6.24851E+00  6.58725E+00  6.98303E+00
   7.43486E+00  7.94028E+00  8.49507E+00  9.09298E+00  9.72562E+00  1.03824E+01  1.10505E+01  1.17155E+01  1.23611E+01  1.29706E+01
   1.35267E+01  1.40128E+01  1.44138E+01  1.47166E+01  1.49110E+01  1.49902E+01  1.49513E+01  1.47953E+01  1.45269E+01  1.41547E+01
   1.36901E+01  1.31470E+01  1.25409E+01  1.18882E+01  1.12055E+01  1.05086E+01  9.81190E+00  9.12841E+00  8.46891E+00  7.84201E+00
   7.25410E+00  6.70944E+00  6.21034E+00  5.75748E+00  5.35014E+00  4.98651E+00  4.66401E+00  4.37953E+00  4.12967E+00  3.91097E+00
   3.72000E+00  3.55348E+00  3.40837E+00  3.28187E+00  3.17153E+00  3.07514E+00  2.99082E+00  2.91688E+00  2.85191E+00  2.79469E+00
   2.74418E+00  2.69952E+00  2.65996E+00  2.62486E+00  2.59366E+00  2.56592E+00  2.54124E+00  2.51929E+00  2.49977E+00  2.48242E+00
   2.46702E+00  2.45339E+00  2.44137E+00  2.43080E+00  2.42156E+00  2.41352E+00  2.40657E+00  2.40064E+00  2.39566E+00  2.39153E+00
   2.38820E+00  2.38558E+00  2.38365E+00  2.38236E+00  2.38166E+00  2.38151E+00  2.38186E+00  2.38268E+00  2.38395E+00  2.38565E+00
   2.38774E+00  2.39020E+00  2.39300E+00  2.39612E+00  2.39956E+00  2.40330E+00  2.40731E+00  2.41157E+00  2.41608E+00  2.42082E+00
   2.42579E+00  2.43097E+00  2.43635E+00  2.44192E+00  2.44766E+00  2.45358E+00  2.45967E+00  2.46593E+00  2.47233E+00  2.47887E+00
   2.48554E+00  2.49236E+00  2.49932E+00  2.50639E+00  2.51359E+00  2.52089E+00  2.52832E+00  2.53586E+00
 NY background values follow
    -3.071E+00   -3.060E+00   -3.049E+00   -3.038E+00   -3.027E+00   -3.016E+00   -3.006E+00   -2.995E+00   -2.984E+00   -2.973E+00
    -2.962E+00   -2.951E+00   -2.940E+00   -2.929E+00   -2.919E+00   -2.908E+00   -2.897E+00   -2.886E+00   -2.875E+00   -2.864E+00
    -2.853E+00   -2.842E+00   -2.831E+00   -2.821E+00   -2.810E+00   -2.799E+00   -2.788E+00   -2.777E+00   -2.766E+00   -2.755E+00
    -2.744E+00   -2.734E+00   -2.723E+00   -2.712E+00   -2.701E+00   -2.690E+00   -2.679E+00   -2.668E+00   -2.657E+00   -2.647E+00
    -2.636E+00   -2.625E+00   -2.614E+00   -2.603E+00   -2.592E+00   -2.581E+00   -2.570E+00   -2.560E+00   -2.549E+00   -2.538E+00
    -2.527E+00   -2.516E+00   -2.505E+00   -2.494E+00   -2.483E+00   -2.472E+00   -2.462E+00   -2.451E+00   -2.440E+00   -2.429E+00
    -2.418E+00   -2.407E+00   -2.396E+00   -2.385E+00   -2.375E+00   -2.364E+00   -2.353E+00   -2.342E+00   -2.331E+00   -2.320E+00
    -2.309E+00   -2.298E+00   -2.288E+00   -2.277E+00   -2.266E+00   -2.255E+00   -2.244E+00   -2.233E+00   -2.222E+00   -2.211E+00
    -2.201E+00   -2.190E+00   -2.179E+00   -2.168E+00   -2.157E+00   -2.146E+00   -2.135E+00   -2.124E+00   -2.114E+00   -2.103E+00
    -2.092E+00   -2.081E+00   -2.070E+00   -2.059E+00   -2.048E+00   -2.037E+00   -2.026E+00   -2.016E+00   -2.005E+00   -1.994E+00
    -1.983E+00   -1.972E+00   -1.961E+00   -1.950E+00   -1.939E+00   -1.929E+00   -1.918E+00   -1.907E+00   -1.896E+00   -1.885E+00
    -1.874E+00   -1.863E+00   -1.852E+00   -1.842E+00   -1.831E+00   -1.820E+00   -1.809E+00   -1.798E+00   -1.787E+00   -1.776E+00
    -1.765E+00   -1.755E+00   -1.744E+00   -1.733E+00   -1.722E+00   -1.711E+00   -1.700E+00   -1.689E+00   -1.678E+00   -1.667E+00
    -1.657E+00   -1.646E+00   -1.635E+00   -1.624E+00   -1.613E+00   -1.602E+00   -1.591E+00   -1.580E+00   -1.570E+00   -1.559E+00
    -1.548E+00   -1.537E+00   -1.526E+00   -1.515E+00   -1.504E+00   -1.493E+00   -1.483E+00   -1.472E+00   -1.461E+00   -1.450E+00
    -1.439E+00   -1.428E+00   -1.417E+00   -1.406E+00   -1.396E+00   -1.385E+00   -1.374E+00   -1.363E+00   -1.352E+00   -1.341E+00
    -1.330E+00   -1.319E+00   -1.309E+00   -1.298E+00   -1.287E+00   -1.276E+00   -1.265E+00   -1.254E+00   -1.243E+00   -1.232E+00
    -1.221E+00   -1.211E+00   -1.200E+00   -1.189E+00   -1.178E+00   -1.167E+00   -1.156E+00   -1.145E+00   -1.134E+00   -1.124E+00
    -1.113E+00   -1.102E+00   -1.091E+00   -1.080E+00   -1.069E+00   -1.058E+00   -1.047E+00   -1.037E+00   -1.026E+00   -1.015E+00
    -1.004E+00   -9.931E-01   -9.822E-01   -9.713E-01   -9.604E-01   -9.495E-01   -9.387E-01   -9.278E-01   -9.169E-01   -9.060E-01
    -8.952E-01   -8.843E-01   -8.734E-01   -8.625E-01   -8.516E-01   -8.408E-01   -8.299E-01   -8.190E-01   -8.081E-01   -7.973E-01
    -7.864E-01   -7.755E-01   -7.646E-01   -7.537E-01   -7.429E-01   -7.320E-01   -7.211E-01   -7.102E-01   -6.994E-01   -6.885E-01
    -6.776E-01   -6.667E-01   -6.558E-01   -6.450E-01   -6.341E-01   -6.232E-01   -6.123E-01   -6.015E-01   -5.906E-01   -5.797E-01
    -5.688E-01   -5.579E-01   -5.471E-01   -5.362E-01   -5.253E-01   -5.144E-01   -5.036E-01   -4.927E-01   -4.818E-01   -4.709E-01
    -4.600E-01   -4.492E-01   -4.383E-01   -4.274E-01   -4.165E-01   -4.057E-01   -3.948E-01   -3.839E-01   -3.730E-01   -3.621E-01
    -3.513E-01   -3.404E-01   -3.295E-01   -3.186E-01   -3.078E-01   -2.969E-01   -2.860E-01   -2.751E-01   -2.643E-01   -2.534E-01
    -2.425E-01   -2.316E-01   -2.207E-01   -2.099E-01   -1.990E-01   -1.881E-01   -1.772E-01   -1.664E-01   -1.555E-01   -1.446E-01
    -1.337E-01   -1.228E-01   -1.120E-01   -1.011E-01   -9.021E-02   -7.933E-02   -6.846E-02   -5.758E-02   -4.670E-02   -3.582E-02
    -2.495E-02   -1.407E-02   -3.191E-03    7.686E-03    1.856E-02    2.944E-02    4.032E-02    5.120E-02    6.207E-02    7.295E-02
     8.383E-02    9.471E-02    1.056E-01    1.165E-01    1.273E-01    1.382E-01    1.491E-01    1.600E-01    1.708E-01    1.817E-01
     1.926E-01    2.035E-01    2.144E-01    2.252E-01    2.361E-01    2.470E-01    2.579E-01    2.687E-01    2.796E-01    2.905E-01
     3.014E-01    3.123E-01    3.231E-01    3.340E-01    3.449E-01    3.558E-01    3.666E-01    3.775E-01    3.884E-01    3.993E-01
     4.102E-01    4.210E-01    4.319E-01    4.428E-01    4.537E-01    4.645E-01    4.754E-01    4.863E-01    4.972E-01    5.080E-01
     5.189E-01    5.298E-01    5.407E-01    5.516E-01    5.624E-01    5.733E-01    5.842E-01    5.951E-01    6.059E-01    6.168E-01
     6.277E-01    6.386E-01    6.495E-01    6.603E-01    6.712E-01    6.821E-01    6.930E-01    7.038E-01    7.147E-01    7.256E-01
     7.365E-01    7.474E-01    7.582E-01    7.691E-01    7.800E-01    7.909E-01    8.017E-01    8.126E-01    8.235E-01    8.344E-01
     8.452E-01    8.561E-01    8.670E-01    8.779E-01    8.888E-01    8.996E-01    9.105E-01    9.214E-01    9.323E-01    9.431E-01
     9.540E-01    9.649E-01    9.758E-01    9.867E-01    9.975E-01    1.008E+00    1.019E+00    1.030E+00    1.041E+00    1.052E+00
     1.063E+00    1.074E+00    1.085E+00    1.095E+00    1.106E+00    1.117E+00    1.128E+00    1.139E+00    1.150E+00    1.161E+00
     1.172E+00    1.182E+00    1.193E+00    1.204E+00    1.215E+00    1.226E+00    1.237E+00    1.248E+00    1.259E+00    1.269E+00
     1.280E+00    1.291E+00    1.302E+00    1.313E+00    1.324E+00    1.335E+00    1.346E+00    1.356E+00    1.367E+00    1.378E+00
     1.389E+00    1.400E+00    1.411E+00    1.422E+00    1.433E+00    1.444E+00    1.454E+00    1.465E+00    1.476E+00    1.487E+00
     1.498E+00    1.509E+00    1.520E+00    1.531E+00    1.541E+00    1.552E+00    1.563E+00    1.574E+00    1.585E+00    1.596E+00
     1.607E+00    1.618E+00    1.628E+00    1.639E+00    1.650E+00    1.661E+00    1.672E+00    1.683E+00    1.694E+00    1.705E+00
     1.715E+00    1.726E+00    1.737E+00    1.748E+00    1.759E+00    1.770E+00    1.781E+00    1.792E+00    1.802E+00    1.813E+00
     1.824E+00    1.835E+00    1.846E+00    1.857E+00    1.868E+00    1.879E+00    1.889E+00    1.900E+00    1.911E+00    1.922E+00
     1.933E+00    1.944E+00    1.955E+00    1.966E+00    1.977E+00    1.987E+00    1.998E+00    2.009E+00    2.020E+00    2.031E+00
     2.042E+00    2.053E+00    2.064E+00    2.074E+00    2.085E+00    2.096E+00    2.107E+00    2.118E+00    2.129E+00    2.140E+00
     2.151E+00    2.161E+00    2.172E+00    2.183E+00    2.194E+00    2.205E+00    2.216E+00    2.227E+00    2.238E+00    2.248E+00
     2.259E+00    2.270E+00    2.281E+00    2.292E+00    2.303E+00    2.314E+00    2.325E+00    2.335E+00
 Ala      Conc. = 1.28E+02
