 LCModel (Version 6.3-1L) Copyright: S.W. Provencher.          Ref.: Magn. Reson. Med. 30:672-679 (1993).                
 Slice#3 Row#7 Col#8  PD_05_press_2_raw_act
 36 lines in following concentration table = NCONC+1
    Conc.  %SD /Cr+PCr  Metabolite                                         
  867.520  27%   0.265 Ala                                                 
    0.000 999%   0.000 Asp                                                 
 1.04E+03  51%   0.318 Cr                                                  
 2.23E+03  25%   0.682 PCr                                                 
  248.820 129% 7.6E-02 GABA                                                
  217.534 144% 6.6E-02 Glc                                                 
 1.79E+03  28%   0.547 Gln                                                 
 2.97E+03  20%   0.906 Glu                                                 
 1.19E+03   4%   0.365 GPC                                                 
    0.000 999%   0.000 PCh                                                 
  961.600  17%   0.294 GSH                                                 
 2.62E+03  22%   0.800 Ins                                                 
    0.000 999%   0.000 Lac                                                 
 4.45E+03   5%   1.360 NAA                                                 
  319.093  77% 9.8E-02 NAAG                                                
  225.265  27% 6.9E-02 Scyllo                                              
    0.000 999%   0.000 Tau                                                 
  732.310  37%   0.224 -CrCH2                                              
 1.19E+03   4%   0.365 GPC+PCh                                             
 4.77E+03   4%   1.458 NAA+NAAG                                            
 3.27E+03   4%   1.000 Cr+PCr                                              
 4.75E+03  17%   1.453 Glu+Gln                                             
    0.000 999%   0.000 Lip13a                                              
  208.481 129% 6.4E-02 Lip13b                                              
   49.020 181% 1.5E-02 Lip09                                               
 1.42E+03  23%   0.434 MM09                                                
   32.247 168% 9.9E-03 Lip20                                               
 3.17E+03  19%   0.969 MM20                                                
  363.976  53%   0.111 MM12                                                
    0.000 999%   0.000 MM14                                                
  800.881  45%   0.245 MM17                                                
  208.481 129% 6.4E-02 Lip13a+Lip13b                                       
  572.457  54%   0.175 MM14+Lip13a+Lip13b+MM12                             
 1.47E+03  22%   0.449 MM09+Lip09                                          
 3.20E+03  19%   0.979 MM20+Lip20                                          
   6 lines in following misc. output table
  FWHM = 0.054 ppm    S/N =  10                                            
  Data shift = 0.015 ppm                                                   
  Ph: -53 deg     -14.3 deg/ppm                                            
  alphaB,S = 1.5E+00,   9.4E+01                                            
   14 spline knots.   Ns = 7(1)                                            
  (10) 3 infls.   ( 5) 1 extrs.                                            
  498 points on ppm-axis = NY
      4.000000     3.992357     3.984714     3.977070     3.969427     3.961784     3.954141     3.946497     3.938854     3.931211
      3.923568     3.915925     3.908281     3.900638     3.892995     3.885352     3.877708     3.870065     3.862422     3.854779
      3.847136     3.839492     3.831849     3.824206     3.816563     3.808919     3.801276     3.793633     3.785990     3.778347
      3.770703     3.763060     3.755417     3.747774     3.740130     3.732487     3.724844     3.717201     3.709558     3.701914
      3.694271     3.686628     3.678985     3.671341     3.663698     3.656055     3.648412     3.640769     3.633125     3.625482
      3.617839     3.610196     3.602552     3.594909     3.587266     3.579623     3.571980     3.564336     3.556693     3.549050
      3.541407     3.533763     3.526120     3.518477     3.510834     3.503191     3.495547     3.487904     3.480261     3.472618
      3.464974     3.457331     3.449688     3.442045     3.434402     3.426758     3.419115     3.411472     3.403829     3.396185
      3.388542     3.380899     3.373256     3.365613     3.357969     3.350326     3.342683     3.335040     3.327396     3.319753
      3.312110     3.304467     3.296824     3.289180     3.281537     3.273894     3.266251     3.258607     3.250964     3.243321
      3.235678     3.228034     3.220391     3.212748     3.205105     3.197462     3.189818     3.182175     3.174532     3.166889
      3.159245     3.151602     3.143959     3.136316     3.128673     3.121029     3.113386     3.105743     3.098100     3.090456
      3.082813     3.075170     3.067527     3.059884     3.052240     3.044597     3.036954     3.029311     3.021667     3.014024
      3.006381     2.998738     2.991095     2.983451     2.975808     2.968165     2.960522     2.952878     2.945235     2.937592
      2.929949     2.922306     2.914662     2.907019     2.899376     2.891733     2.884089     2.876446     2.868803     2.861160
      2.853517     2.845873     2.838230     2.830587     2.822944     2.815300     2.807657     2.800014     2.792371     2.784728
      2.777084     2.769441     2.761798     2.754155     2.746511     2.738868     2.731225     2.723582     2.715939     2.708295
      2.700652     2.693009     2.685366     2.677722     2.670079     2.662436     2.654793     2.647150     2.639506     2.631863
      2.624220     2.616577     2.608933     2.601290     2.593647     2.586004     2.578361     2.570717     2.563074     2.555431
      2.547788     2.540144     2.532501     2.524858     2.517215     2.509572     2.501928     2.494285     2.486642     2.478999
      2.471355     2.463712     2.456069     2.448426     2.440783     2.433139     2.425496     2.417853     2.410210     2.402566
      2.394923     2.387280     2.379637     2.371994     2.364350     2.356707     2.349064     2.341421     2.333777     2.326134
      2.318491     2.310848     2.303205     2.295561     2.287918     2.280275     2.272632     2.264988     2.257345     2.249702
      2.242059     2.234416     2.226772     2.219129     2.211486     2.203843     2.196199     2.188556     2.180913     2.173270
      2.165627     2.157983     2.150340     2.142697     2.135054     2.127410     2.119767     2.112124     2.104481     2.096838
      2.089194     2.081551     2.073908     2.066265     2.058621     2.050978     2.043335     2.035692     2.028049     2.020405
      2.012762     2.005119     1.997476     1.989833     1.982190     1.974546     1.966903     1.959260     1.951617     1.943974
      1.936331     1.928688     1.921045     1.913402     1.905759     1.898115     1.890472     1.882829     1.875186     1.867543
      1.859900     1.852257     1.844614     1.836971     1.829327     1.821684     1.814041     1.806398     1.798755     1.791112
      1.783469     1.775826     1.768183     1.760540     1.752896     1.745253     1.737610     1.729967     1.722324     1.714681
      1.707038     1.699395     1.691752     1.684108     1.676465     1.668822     1.661179     1.653536     1.645893     1.638250
      1.630607     1.622964     1.615321     1.607677     1.600034     1.592391     1.584748     1.577105     1.569462     1.561819
      1.554176     1.546533     1.538890     1.531246     1.523603     1.515960     1.508317     1.500674     1.493031     1.485388
      1.477745     1.470102     1.462458     1.454815     1.447172     1.439529     1.431886     1.424243     1.416600     1.408957
      1.401314     1.393671     1.386027     1.378384     1.370741     1.363098     1.355455     1.347812     1.340169     1.332526
      1.324883     1.317240     1.309596     1.301953     1.294310     1.286667     1.279024     1.271381     1.263738     1.256095
      1.248452     1.240808     1.233165     1.225522     1.217879     1.210236     1.202593     1.194950     1.187307     1.179664
      1.172021     1.164377     1.156734     1.149091     1.141448     1.133805     1.126162     1.118519     1.110876     1.103233
      1.095590     1.087946     1.080303     1.072660     1.065017     1.057374     1.049731     1.042088     1.034445     1.026802
      1.019158     1.011515     1.003872     0.996229     0.988586     0.980943     0.973300     0.965657     0.958014     0.950371
      0.942727     0.935084     0.927441     0.919798     0.912155     0.904512     0.896869     0.889226     0.881583     0.873940
      0.866296     0.858653     0.851010     0.843367     0.835724     0.828081     0.820438     0.812795     0.805152     0.797508
      0.789865     0.782222     0.774579     0.766936     0.759293     0.751650     0.744007     0.736364     0.728721     0.721077
      0.713434     0.705791     0.698148     0.690505     0.682862     0.675219     0.667576     0.659933     0.652290     0.644646
      0.637003     0.629360     0.621717     0.614074     0.606431     0.598788     0.591145     0.583502     0.575858     0.568215
      0.560572     0.552929     0.545286     0.537643     0.530000     0.522357     0.514714     0.507071     0.499427     0.491784
      0.484141     0.476498     0.468855     0.461212     0.453569     0.445925     0.438282     0.430639     0.422996     0.415353
      0.407710     0.400067     0.392424     0.384780     0.377137     0.369494     0.361851     0.354208     0.346565     0.338922
      0.331278     0.323635     0.315992     0.308349     0.300706     0.293063     0.285420     0.277777     0.270133     0.262490
      0.254847     0.247204     0.239561     0.231918     0.224275     0.216631     0.208988     0.201345
 NY phased data points follow
  -1.00926E+02 -8.11432E+01 -8.87541E+01 -8.36977E+01 -8.07558E+01 -6.34578E+01 -4.93196E+01 -2.85688E+01 -1.57359E+01 -7.55561E+00
  -1.10703E+01  4.89444E-01 -1.87659E+01 -2.68585E+01 -3.40791E+01 -3.82695E+01 -4.70366E+01 -5.08924E+01 -6.05414E+01 -6.16791E+01
  -5.37874E+01 -4.58041E+01 -6.34325E+01 -5.76598E+01 -4.98109E+01 -5.03365E+01 -5.06040E+01 -3.71000E+01 -2.44387E+01 -2.95719E+01
  -4.25676E+01 -4.15815E+01 -3.66615E+01 -3.88804E+01 -3.42160E+01 -4.63307E+01 -3.05598E+01 -4.04374E+01 -4.31979E+01 -4.75244E+01
  -3.91111E+01 -3.63439E+01 -3.67167E+01 -2.21661E+01 -3.48899E+01 -2.29279E+01 -2.74140E+01 -2.63621E+01 -1.77564E+01 -2.37391E+01
  -3.80004E+01 -2.20359E+01 -2.07250E+01 -3.19727E+01 -3.10538E+01 -2.60922E+01 -2.50618E+01 -2.15246E+01 -2.65330E+01 -2.98551E+01
  -2.42550E+01 -4.37066E+01 -4.97698E+01 -4.22368E+01 -5.55122E+01 -4.84690E+01 -4.42162E+01 -4.14069E+01 -4.78387E+01 -3.42573E+01
  -3.74812E+01 -4.73390E+01 -4.50482E+01 -3.10320E+01 -3.58753E+01 -3.53492E+01 -4.07425E+01 -2.55712E+01 -3.59890E+01 -2.26305E+01
  -3.46797E+01 -2.97486E+01 -3.02860E+01 -2.32421E+01 -1.48103E+01 -3.68419E+01 -2.02920E+01 -2.64046E+01 -3.19631E+01 -2.55854E+01
  -2.66099E+01 -2.10435E+01 -2.71427E+01 -1.99226E+01 -1.76263E+01 -1.77523E+01 -9.76144E+00 -1.38544E+01 -9.51086E+00  2.44250E+01
   3.22720E+01  5.75637E+01  8.89122E+01  7.94869E+01  6.74679E+01  5.96972E+01  4.50242E+01  1.45643E+01  1.34816E+01  5.81718E+00
   1.03020E+00  5.36475E+00 -2.04979E+01 -8.82901E-01 -1.58368E+01 -1.70240E+01 -6.35764E+00 -1.38542E+01 -1.20980E+01 -1.99161E+01
  -1.19632E+01 -2.51949E+00  9.27951E+00  2.65632E+01  4.73561E+01  7.48955E+01  8.60051E+01  9.22372E+01  8.77725E+01  7.41604E+01
   4.35879E+01  4.30002E+01  1.24754E+01 -8.97270E+00 -1.80024E+00 -3.41689E+00 -1.16623E+01 -2.30022E+00 -9.31378E+00 -7.30539E+00
  -2.16303E+01 -1.15937E+01 -2.03947E+01 -7.15665E+00 -1.55341E+01 -1.47617E+01 -1.71499E+01 -1.35836E+01 -1.21210E+01 -6.44839E+00
  -7.40037E+00 -1.30495E+01 -9.91906E+00 -1.45679E+01 -1.80425E+01 -1.27538E+01 -5.28841E+00 -1.00057E+01 -1.13689E+01 -8.35302E+00
  -2.26508E+01 -1.85915E+01 -2.91522E+01 -1.71394E+01 -9.12743E+00 -1.15450E+01 -4.50711E+00 -9.59795E+00 -1.04990E+01 -2.82286E+01
  -1.89182E+01 -2.85952E+01 -2.61691E+01 -2.69480E+01 -3.36608E+01 -2.39195E+01 -1.72436E+01 -1.57752E+01 -3.36178E+01 -2.28431E+01
  -1.79930E+01 -2.40666E+01 -2.06031E+01 -1.13982E+01 -2.18525E+01 -3.01074E+01 -2.37021E+01 -1.18890E+01 -1.30185E+01  1.12285E+01
   7.08042E+00  2.12561E+00  1.03549E+01  8.91513E+00  7.53774E-01  1.06962E+01 -1.97853E+00 -5.93961E+00 -1.90360E+00  9.82403E+00
   7.67635E+00  5.14321E+00  1.01030E+01  8.76348E+00 -1.15356E+01  5.43769E+00 -8.31855E+00 -1.75546E+01 -1.00896E+01 -1.39648E+01
  -1.57571E+01 -1.41808E+01 -7.74444E+00  7.56860E+00  1.71503E+01  1.91320E+01  2.10317E+01  1.64908E+01  1.03311E+01  5.13911E+00
   1.15762E+00 -1.01628E+01  8.77090E+00 -7.16498E-01 -4.88768E+00  1.39351E+01  9.70716E+00  1.74040E+01  9.32802E+00  6.79175E+00
   1.90453E+01  1.62494E+01  2.69118E+01  1.38356E+01  1.84686E+01  1.48847E+01  1.93589E+01  1.49821E+01  2.38464E+01  5.24508E+00
   1.26023E+01  8.02436E+00  8.78137E+00  8.22319E+00  1.41410E+01  2.59944E+01  2.91678E+01  2.85614E+01  2.11665E+01  2.57747E+01
   2.64603E+01  3.78848E+01  3.63960E+01  4.89227E+01  4.26031E+01  5.69283E+01  8.86373E+01  1.13256E+02  1.50279E+02  1.66948E+02
   1.65674E+02  1.54361E+02  1.32671E+02  1.12935E+02  8.91870E+01  6.43363E+01  5.49968E+01  4.29539E+01  3.02607E+01  2.53588E+01
   1.42768E+01  2.41839E+01  1.43382E+01  1.57927E+01  3.01275E+01  1.39415E+01  1.05597E+01  2.00074E+01  1.23086E+01  1.64878E+01
   1.64984E+01  1.49141E+01  1.77066E+01  1.01987E+01  2.00785E+01  2.14660E+01  1.94255E+01  1.98124E+01  2.26656E+01  2.09241E+01
   1.86532E+01  2.60720E+00  2.13680E+01  1.29809E+01  2.05190E+01  1.35363E+01  1.12911E+01  1.55747E+01  1.75150E+01  2.09174E+01
   1.35308E+01  1.55701E+01  1.33500E+01  1.76751E+01  2.16156E+01  1.69778E+01  2.17441E+01  2.02692E+01  2.35249E+01  1.88868E+01
   1.54335E+01  1.59206E+01  2.31354E+01  2.07805E+01  2.00084E+01  1.84121E+01  1.88376E+01  2.39818E+01  1.81147E+01  1.98701E+01
   1.26309E+01  2.96435E+01  2.34176E+01  1.45213E+01  1.39720E+01  8.33230E+00  2.71897E+01  1.59815E+01  1.52728E+01  1.22609E+01
   8.92598E+00 -6.65668E+00  8.81561E-01  9.22384E+00  2.56479E+00  8.89499E+00  8.24803E+00  2.45554E+01  1.20282E+01  2.32485E+01
   1.20800E+01  2.63034E+01  1.78512E+01  1.92778E+01  2.81213E+01  2.98995E+01  2.50878E+01  2.57322E+01  1.99109E+01  1.48221E+01
   2.07856E+01  2.53554E+01  2.79422E+01  1.69622E+01  2.24441E+01  1.19357E+01  2.57614E+01  1.80386E+01  2.48000E+01  1.69573E+01
   1.17326E+01  2.05268E+01  1.44126E+01  2.32773E+01  1.73471E+01  1.66272E+01  1.35459E+01  1.58620E+01  2.43017E+01  2.16481E+01
   1.99691E+01  1.28632E+01  1.20936E+01  2.28204E+01  2.10260E+01  2.16462E+01  1.46769E+01  5.94811E+00  2.47131E+01  8.36248E+00
   2.37076E+01  1.66291E+01  1.73263E+01  1.74620E+01  1.57096E+01  4.20249E+00  2.72337E+01  2.63666E+01  1.99596E+01  2.15854E+01
   2.53707E+01  2.47751E+01  2.30107E+01  2.26376E+01  1.46259E+01  2.65083E+01  3.48309E+01  2.71644E+01  2.26769E+01  1.73243E+01
   2.34682E+01  2.05066E+01  1.81615E+01  3.06707E+01  2.56249E+01  2.77860E+01  3.57662E+01  4.56370E+01  2.72549E+01  2.31420E+01
   2.23887E+01  4.58193E+01  2.70518E+01  2.65305E+01  2.66250E+01  2.83942E+01  2.34692E+01  2.72074E+01  2.02617E+01  3.09856E+01
   2.83623E+01  3.22891E+01  3.34311E+01  3.38965E+01  1.77406E+01  2.70527E+01  2.23113E+01  1.89445E+01  2.43410E+01  2.70903E+01
   3.53988E+01  1.87721E+01  1.23371E+01  3.41056E+01  1.64488E+01  2.11407E+01  2.01102E+01  2.56288E+01  2.22124E+01  2.97358E+01
   3.11717E+01  3.05482E+01  1.76056E+01  3.01910E+01  2.59358E+01  2.09661E+01  3.07865E+01  2.34611E+01  2.72212E+01  1.63676E+01
   3.13753E+01  2.37152E+01  1.86894E+01  2.30722E+01  3.49487E+01  2.99325E+01  2.11885E+01  1.72988E+01  2.65874E+01  2.06342E+01
   2.54809E+01  2.24477E+01  1.88108E+01  1.88055E+01  2.48651E+01  2.80604E+01  1.98310E+01  1.92471E+01  1.30032E+01  2.17608E+01
   2.21314E+01  3.08661E+01  1.69701E+01  1.84664E+01  2.61101E+01  2.68595E+01  2.93148E+01  2.96226E+01  2.63572E+01  2.96433E+01
   1.96173E+01  1.23706E+01  2.11108E+01  1.17758E+01  1.66633E+01  2.71140E+01  1.79628E+01  1.78351E+01  1.52555E+01  2.45472E+01
   2.64802E+01  1.36268E+01  2.57249E+01  1.94409E+01  2.36639E+01  1.97316E+01  2.11968E+01  2.55335E+01
 NY points of the fit to the data follow
  -7.35891E+01 -7.38464E+01 -7.32977E+01 -7.12827E+01 -6.69916E+01 -5.91486E+01 -4.73889E+01 -3.30243E+01 -1.94245E+01 -1.03386E+01
  -7.39052E+00 -9.98738E+00 -1.65030E+01 -2.48277E+01 -3.28087E+01 -3.89930E+01 -4.32543E+01 -4.71955E+01 -5.11791E+01 -5.34352E+01
  -5.42311E+01 -5.44059E+01 -5.43203E+01 -5.38205E+01 -5.27386E+01 -5.04565E+01 -4.67846E+01 -4.21329E+01 -3.76202E+01 -3.42102E+01
  -3.21752E+01 -3.15429E+01 -3.24088E+01 -3.44844E+01 -3.72075E+01 -4.00667E+01 -4.27190E+01 -4.52588E+01 -4.70795E+01 -4.73089E+01
  -4.61985E+01 -4.37667E+01 -4.02383E+01 -3.57388E+01 -3.08347E+01 -2.69239E+01 -2.51050E+01 -2.55513E+01 -2.77895E+01 -3.09344E+01
  -3.42356E+01 -3.70823E+01 -3.88429E+01 -3.95028E+01 -3.96506E+01 -3.93956E+01 -3.82684E+01 -3.65601E+01 -3.52132E+01 -3.47440E+01
  -3.51271E+01 -3.61515E+01 -3.74121E+01 -3.85097E+01 -3.90379E+01 -3.88107E+01 -3.80501E+01 -3.70018E+01 -3.57667E+01 -3.45365E+01
  -3.34758E+01 -3.27124E+01 -3.22604E+01 -3.20357E+01 -3.19893E+01 -3.20444E+01 -3.20848E+01 -3.20731E+01 -3.19745E+01 -3.16976E+01
  -3.09868E+01 -2.97083E+01 -2.78913E+01 -2.59145E+01 -2.44145E+01 -2.39603E+01 -2.46263E+01 -2.59430E+01 -2.73605E+01 -2.84493E+01
  -2.89673E+01 -2.88899E+01 -2.84981E+01 -2.82422E+01 -2.83447E+01 -2.80083E+01 -2.50526E+01 -1.76475E+01 -4.36164E+00  1.58108E+01
   4.04552E+01  6.37680E+01  7.88474E+01  8.20459E+01  7.46270E+01  6.01899E+01  4.25865E+01  2.57093E+01  1.22945E+01  2.75609E+00
  -4.88107E+00 -1.26491E+01 -1.83558E+01 -2.01921E+01 -2.06850E+01 -2.08432E+01 -2.08773E+01 -2.07791E+01 -2.04135E+01 -1.92220E+01
  -1.53464E+01 -6.92061E+00  7.33237E+00  2.80357E+01  5.24329E+01  7.46930E+01  8.83938E+01  9.06119E+01  8.29845E+01  6.88868E+01
   5.17737E+01  3.50290E+01  2.09936E+01  1.00605E+01  7.52482E-01 -8.09966E+00 -1.36258E+01 -1.43807E+01 -1.33121E+01 -1.18721E+01
  -1.07609E+01 -1.02213E+01 -1.00413E+01 -1.01013E+01 -1.03759E+01 -1.06886E+01 -1.10235E+01 -1.14507E+01 -1.18979E+01 -1.23772E+01
  -1.27459E+01 -1.29625E+01 -1.30196E+01 -1.29036E+01 -1.27094E+01 -1.25883E+01 -1.26889E+01 -1.30957E+01 -1.36967E+01 -1.42455E+01
  -1.44270E+01 -1.40778E+01 -1.33939E+01 -1.27717E+01 -1.25431E+01 -1.27866E+01 -1.33913E+01 -1.41526E+01 -1.48298E+01 -1.52972E+01
  -1.57675E+01 -1.64212E+01 -1.72707E+01 -1.81272E+01 -1.85844E+01 -1.84594E+01 -1.79391E+01 -1.73399E+01 -1.68922E+01 -1.66215E+01
  -1.64800E+01 -1.63881E+01 -1.62179E+01 -1.57664E+01 -1.47059E+01 -1.28854E+01 -1.03896E+01 -7.31615E+00 -4.19129E+00 -1.70694E+00
  -4.49657E-01 -6.39764E-01 -1.83541E+00 -3.38326E+00 -4.57877E+00 -4.84308E+00 -4.08576E+00 -2.37161E+00  2.20563E-01  3.31471E+00
   6.46270E+00  9.12306E+00  1.05974E+01  1.02543E+01  7.99357E+00  4.02535E+00 -8.86622E-01 -5.56274E+00 -8.80593E+00 -9.83822E+00
  -8.32510E+00 -4.59749E+00  8.00515E-01  6.93260E+00  1.22969E+01  1.54022E+01  1.55535E+01  1.29291E+01  8.14587E+00  2.15245E+00
  -3.05282E+00 -5.75392E+00 -5.52995E+00 -3.02788E+00  6.05176E-01  4.46266E+00  8.03386E+00  1.03364E+01  1.12360E+01  1.13883E+01
   1.16947E+01  1.24245E+01  1.33259E+01  1.44976E+01  1.61945E+01  1.79559E+01  1.90473E+01  1.91191E+01  1.81808E+01  1.63958E+01
   1.41703E+01  1.23616E+01  1.18148E+01  1.26790E+01  1.43386E+01  1.62335E+01  1.82680E+01  2.00791E+01  2.15004E+01  2.30767E+01
   2.53829E+01  2.86141E+01  3.28054E+01  3.91606E+01  5.00222E+01  6.63626E+01  8.97814E+01  1.18483E+02  1.46324E+02  1.64740E+02
   1.68138E+02  1.57432E+02  1.37071E+02  1.11855E+02  8.69147E+01  6.66466E+01  5.21176E+01  4.09790E+01  2.98743E+01  2.04471E+01
   1.69462E+01  1.60797E+01  1.59093E+01  1.60282E+01  1.62461E+01  1.63135E+01  1.61823E+01  1.59045E+01  1.55253E+01  1.51203E+01
   1.47896E+01  1.45581E+01  1.44052E+01  1.43449E+01  1.43783E+01  1.44763E+01  1.46077E+01  1.47536E+01  1.49196E+01  1.51188E+01
   1.53322E+01  1.55516E+01  1.57796E+01  1.60100E+01  1.62384E+01  1.64706E+01  1.67063E+01  1.69450E+01  1.71855E+01  1.74230E+01
   1.76464E+01  1.78529E+01  1.80365E+01  1.81869E+01  1.82981E+01  1.83697E+01  1.84039E+01  1.84042E+01  1.83716E+01  1.83126E+01
   1.82341E+01  1.81430E+01  1.80470E+01  1.79565E+01  1.78813E+01  1.78333E+01  1.78258E+01  1.78779E+01  1.80171E+01  1.82924E+01
   1.88080E+01  1.97021E+01  2.08543E+01  2.20913E+01  2.29626E+01  2.27996E+01  2.10794E+01  1.78081E+01  1.36383E+01  9.58857E+00
   6.44477E+00  4.89019E+00  5.44418E+00  8.00992E+00  1.17548E+01  1.54587E+01  1.84437E+01  2.07506E+01  2.19859E+01  2.21203E+01
   2.16386E+01  2.10348E+01  2.05799E+01  2.01396E+01  1.94243E+01  1.88326E+01  1.86282E+01  1.86428E+01  1.87927E+01  1.90369E+01
   1.93433E+01  1.96807E+01  2.00159E+01  2.03161E+01  2.05515E+01  2.07003E+01  2.07506E+01  2.07037E+01  2.05718E+01  2.03769E+01
   2.01448E+01  1.99029E+01  1.96740E+01  1.94757E+01  1.93171E+01  1.92015E+01  1.91260E+01  1.90854E+01  1.90722E+01  1.90799E+01
   1.91022E+01  1.91352E+01  1.91758E+01  1.92233E+01  1.92772E+01  1.93387E+01  1.94086E+01  1.94890E+01  1.95812E+01  1.96877E+01
   1.98101E+01  1.99509E+01  2.01118E+01  2.02954E+01  2.05034E+01  2.07386E+01  2.10027E+01  2.12980E+01  2.16260E+01  2.19884E+01
   2.23859E+01  2.28192E+01  2.32873E+01  2.37888E+01  2.43205E+01  2.48784E+01  2.54564E+01  2.60474E+01  2.66421E+01  2.72309E+01
   2.78018E+01  2.83433E+01  2.88427E+01  2.92882E+01  2.96681E+01  2.99727E+01  3.01935E+01  3.03249E+01  3.03635E+01  3.03093E+01
   3.01642E+01  2.99341E+01  2.96262E+01  2.92510E+01  2.88194E+01  2.83443E+01  2.78383E+01  2.73144E+01  2.67846E+01  2.62603E+01
   2.57506E+01  2.52642E+01  2.48068E+01  2.43834E+01  2.39968E+01  2.36488E+01  2.33391E+01  2.30673E+01  2.28313E+01  2.26293E+01
   2.24583E+01  2.23157E+01  2.21983E+01  2.21034E+01  2.20281E+01  2.19700E+01  2.19266E+01  2.18960E+01  2.18761E+01  2.18655E+01
   2.18625E+01  2.18662E+01  2.18753E+01  2.18891E+01  2.19066E+01  2.19273E+01  2.19505E+01  2.19760E+01  2.20030E+01  2.20315E+01
   2.20609E+01  2.20911E+01  2.21218E+01  2.21529E+01  2.21842E+01  2.22156E+01  2.22469E+01  2.22784E+01  2.23095E+01  2.23407E+01
   2.23715E+01  2.24022E+01  2.24324E+01  2.24626E+01  2.24924E+01  2.25220E+01  2.25512E+01  2.25801E+01  2.26087E+01  2.26371E+01
   2.26651E+01  2.26931E+01  2.27206E+01  2.27480E+01  2.27751E+01  2.28023E+01  2.28291E+01  2.28559E+01  2.28825E+01  2.29092E+01
   2.29357E+01  2.29623E+01  2.29889E+01  2.30156E+01  2.30423E+01  2.30694E+01  2.30965E+01  2.31240E+01  2.31516E+01  2.31797E+01
   2.32081E+01  2.32372E+01  2.32666E+01  2.32968E+01  2.33276E+01  2.33592E+01  2.33916E+01  2.34252E+01
 NY background values follow
    -7.822E+01   -7.766E+01   -7.710E+01   -7.654E+01   -7.597E+01   -7.541E+01   -7.485E+01   -7.429E+01   -7.373E+01   -7.316E+01
    -7.260E+01   -7.204E+01   -7.148E+01   -7.092E+01   -7.036E+01   -6.980E+01   -6.925E+01   -6.869E+01   -6.813E+01   -6.758E+01
    -6.702E+01   -6.647E+01   -6.592E+01   -6.537E+01   -6.481E+01   -6.427E+01   -6.372E+01   -6.317E+01   -6.263E+01   -6.208E+01
    -6.154E+01   -6.100E+01   -6.046E+01   -5.992E+01   -5.939E+01   -5.885E+01   -5.832E+01   -5.779E+01   -5.726E+01   -5.674E+01
    -5.621E+01   -5.569E+01   -5.517E+01   -5.465E+01   -5.414E+01   -5.363E+01   -5.312E+01   -5.261E+01   -5.210E+01   -5.160E+01
    -5.110E+01   -5.060E+01   -5.011E+01   -4.962E+01   -4.913E+01   -4.864E+01   -4.816E+01   -4.767E+01   -4.719E+01   -4.672E+01
    -4.624E+01   -4.577E+01   -4.530E+01   -4.484E+01   -4.438E+01   -4.392E+01   -4.346E+01   -4.300E+01   -4.255E+01   -4.210E+01
    -4.166E+01   -4.121E+01   -4.077E+01   -4.034E+01   -3.990E+01   -3.947E+01   -3.904E+01   -3.861E+01   -3.819E+01   -3.777E+01
    -3.735E+01   -3.694E+01   -3.653E+01   -3.612E+01   -3.572E+01   -3.532E+01   -3.492E+01   -3.452E+01   -3.413E+01   -3.374E+01
    -3.335E+01   -3.297E+01   -3.259E+01   -3.221E+01   -3.184E+01   -3.147E+01   -3.110E+01   -3.074E+01   -3.038E+01   -3.002E+01
    -2.966E+01   -2.931E+01   -2.896E+01   -2.861E+01   -2.827E+01   -2.793E+01   -2.759E+01   -2.726E+01   -2.692E+01   -2.659E+01
    -2.626E+01   -2.594E+01   -2.562E+01   -2.530E+01   -2.498E+01   -2.466E+01   -2.435E+01   -2.404E+01   -2.373E+01   -2.343E+01
    -2.313E+01   -2.283E+01   -2.253E+01   -2.223E+01   -2.194E+01   -2.165E+01   -2.136E+01   -2.107E+01   -2.079E+01   -2.050E+01
    -2.022E+01   -1.994E+01   -1.967E+01   -1.939E+01   -1.912E+01   -1.885E+01   -1.858E+01   -1.832E+01   -1.805E+01   -1.779E+01
    -1.753E+01   -1.727E+01   -1.701E+01   -1.675E+01   -1.650E+01   -1.624E+01   -1.599E+01   -1.574E+01   -1.549E+01   -1.524E+01
    -1.500E+01   -1.475E+01   -1.451E+01   -1.426E+01   -1.402E+01   -1.378E+01   -1.354E+01   -1.330E+01   -1.306E+01   -1.283E+01
    -1.259E+01   -1.235E+01   -1.212E+01   -1.189E+01   -1.165E+01   -1.142E+01   -1.119E+01   -1.095E+01   -1.072E+01   -1.049E+01
    -1.026E+01   -1.003E+01   -9.797E+00   -9.567E+00   -9.336E+00   -9.106E+00   -8.876E+00   -8.646E+00   -8.415E+00   -8.185E+00
    -7.954E+00   -7.724E+00   -7.493E+00   -7.262E+00   -7.030E+00   -6.799E+00   -6.568E+00   -6.336E+00   -6.105E+00   -5.873E+00
    -5.642E+00   -5.411E+00   -5.180E+00   -4.949E+00   -4.719E+00   -4.488E+00   -4.259E+00   -4.029E+00   -3.800E+00   -3.571E+00
    -3.343E+00   -3.115E+00   -2.888E+00   -2.662E+00   -2.436E+00   -2.211E+00   -1.986E+00   -1.763E+00   -1.540E+00   -1.318E+00
    -1.096E+00   -8.761E-01   -6.568E-01   -4.384E-01   -2.212E-01   -4.933E-03    2.102E-01    4.241E-01    6.369E-01    8.484E-01
     1.059E+00    1.268E+00    1.475E+00    1.682E+00    1.886E+00    2.090E+00    2.291E+00    2.492E+00    2.691E+00    2.888E+00
     3.083E+00    3.277E+00    3.470E+00    3.661E+00    3.850E+00    4.038E+00    4.224E+00    4.408E+00    4.591E+00    4.772E+00
     4.952E+00    5.129E+00    5.306E+00    5.480E+00    5.653E+00    5.824E+00    5.993E+00    6.161E+00    6.327E+00    6.491E+00
     6.653E+00    6.814E+00    6.973E+00    7.130E+00    7.286E+00    7.439E+00    7.591E+00    7.741E+00    7.889E+00    8.036E+00
     8.180E+00    8.323E+00    8.464E+00    8.603E+00    8.740E+00    8.875E+00    9.008E+00    9.140E+00    9.269E+00    9.397E+00
     9.523E+00    9.647E+00    9.768E+00    9.888E+00    1.001E+01    1.012E+01    1.024E+01    1.035E+01    1.046E+01    1.057E+01
     1.068E+01    1.078E+01    1.089E+01    1.099E+01    1.109E+01    1.119E+01    1.129E+01    1.138E+01    1.148E+01    1.157E+01
     1.166E+01    1.175E+01    1.184E+01    1.193E+01    1.202E+01    1.210E+01    1.219E+01    1.227E+01    1.235E+01    1.243E+01
     1.251E+01    1.259E+01    1.267E+01    1.274E+01    1.282E+01    1.289E+01    1.297E+01    1.304E+01    1.311E+01    1.318E+01
     1.325E+01    1.332E+01    1.339E+01    1.346E+01    1.352E+01    1.359E+01    1.366E+01    1.372E+01    1.379E+01    1.385E+01
     1.391E+01    1.398E+01    1.404E+01    1.410E+01    1.416E+01    1.422E+01    1.428E+01    1.434E+01    1.440E+01    1.446E+01
     1.452E+01    1.458E+01    1.464E+01    1.470E+01    1.476E+01    1.482E+01    1.488E+01    1.493E+01    1.499E+01    1.505E+01
     1.511E+01    1.517E+01    1.523E+01    1.528E+01    1.534E+01    1.540E+01    1.546E+01    1.552E+01    1.558E+01    1.564E+01
     1.570E+01    1.576E+01    1.582E+01    1.588E+01    1.594E+01    1.600E+01    1.606E+01    1.612E+01    1.619E+01    1.625E+01
     1.631E+01    1.638E+01    1.644E+01    1.651E+01    1.657E+01    1.664E+01    1.671E+01    1.678E+01    1.684E+01    1.691E+01
     1.698E+01    1.705E+01    1.712E+01    1.719E+01    1.726E+01    1.734E+01    1.741E+01    1.748E+01    1.755E+01    1.762E+01
     1.770E+01    1.777E+01    1.785E+01    1.792E+01    1.799E+01    1.807E+01    1.814E+01    1.822E+01    1.829E+01    1.837E+01
     1.845E+01    1.852E+01    1.860E+01    1.867E+01    1.875E+01    1.883E+01    1.890E+01    1.898E+01    1.906E+01    1.913E+01
     1.921E+01    1.929E+01    1.936E+01    1.944E+01    1.952E+01    1.959E+01    1.967E+01    1.974E+01    1.982E+01    1.990E+01
     1.997E+01    2.005E+01    2.013E+01    2.020E+01    2.028E+01    2.035E+01    2.043E+01    2.050E+01    2.057E+01    2.065E+01
     2.072E+01    2.079E+01    2.087E+01    2.094E+01    2.101E+01    2.108E+01    2.115E+01    2.122E+01    2.129E+01    2.136E+01
     2.143E+01    2.149E+01    2.156E+01    2.163E+01    2.169E+01    2.176E+01    2.182E+01    2.188E+01    2.194E+01    2.200E+01
     2.207E+01    2.212E+01    2.218E+01    2.224E+01    2.230E+01    2.235E+01    2.241E+01    2.246E+01    2.251E+01    2.256E+01
     2.261E+01    2.266E+01    2.271E+01    2.276E+01    2.280E+01    2.285E+01    2.289E+01    2.293E+01    2.297E+01    2.301E+01
     2.305E+01    2.309E+01    2.313E+01    2.316E+01    2.320E+01    2.323E+01    2.327E+01    2.330E+01    2.333E+01    2.336E+01
     2.339E+01    2.342E+01    2.345E+01    2.348E+01    2.351E+01    2.354E+01    2.357E+01    2.360E+01    2.362E+01    2.365E+01
     2.368E+01    2.370E+01    2.373E+01    2.375E+01    2.378E+01    2.380E+01    2.383E+01    2.385E+01    2.388E+01    2.390E+01
     2.393E+01    2.395E+01    2.398E+01    2.400E+01    2.403E+01    2.405E+01    2.408E+01    2.410E+01
 Ala      Conc. = 8.68E+02
