 LCModel (Version 6.3-1L) Copyright: S.W. Provencher.          Ref.: Magn. Reson. Med. 30:672-679 (1993).                
 Slice#3 Row#7 Col#4  PD_05_press_2_raw_act
 36 lines in following concentration table = NCONC+1
    Conc.  %SD /Cr+PCr  Metabolite                                         
  299.840  94% 9.5E-02 Ala                                                 
    0.000 999%   0.000 Asp                                                 
    0.000 999%   0.000 Cr                                                  
 3.15E+03   4%   1.000 PCr                                                 
    0.000 999%   0.000 GABA                                                
  235.806 152% 7.5E-02 Glc                                                 
  480.230 122%   0.152 Gln                                                 
 2.25E+03  29%   0.714 Glu                                                 
 1.05E+03  15%   0.334 GPC                                                 
  444.330  35%   0.141 PCh                                                 
  973.773  19%   0.309 GSH                                                 
 2.14E+03  29%   0.680 Ins                                                 
    0.000 999%   0.000 Lac                                                 
 5.12E+03   3%   1.622 NAA                                                 
    0.000 999%   0.000 NAAG                                                
  452.834  15%   0.144 Scyllo                                              
 1.12E+03  44%   0.355 Tau                                                 
  966.934  25%   0.306 -CrCH2                                              
 1.50E+03   4%   0.475 GPC+PCh                                             
 5.12E+03   3%   1.622 NAA+NAAG                                            
 3.15E+03   4%   1.000 Cr+PCr                                              
 2.73E+03  35%   0.866 Glu+Gln                                             
    0.000 999%   0.000 Lip13a                                              
 1.13E+03  19%   0.357 Lip13b                                              
  230.051  90% 7.3E-02 Lip09                                               
 1.68E+03  22%   0.533 MM09                                                
  189.592  76% 6.0E-02 Lip20                                               
 3.61E+03  20%   1.143 MM20                                                
  421.554  66%   0.134 MM12                                                
 2.80E+03  18%   0.888 MM14                                                
  742.198  54%   0.235 MM17                                                
 1.13E+03  19%   0.357 Lip13a+Lip13b                                       
 4.35E+03  13%   1.378 MM14+Lip13a+Lip13b+MM12                             
 1.91E+03  17%   0.606 MM09+Lip09                                          
 3.80E+03  19%   1.203 MM20+Lip20                                          
   6 lines in following misc. output table
  FWHM = 0.061 ppm    S/N =  11                                            
  Data shift = 0.000 ppm                                                   
  Ph: -71 deg     -28.2 deg/ppm                                            
  alphaB,S = 1.8E+00,   1.3E+01                                            
   14 spline knots.   Ns = 8(1)                                            
  (15) 9 infls.   (13) 3 extrs.                                            
  498 points on ppm-axis = NY
      4.000000     3.992357     3.984714     3.977070     3.969427     3.961784     3.954141     3.946497     3.938854     3.931211
      3.923568     3.915925     3.908281     3.900638     3.892995     3.885352     3.877708     3.870065     3.862422     3.854779
      3.847136     3.839492     3.831849     3.824206     3.816563     3.808919     3.801276     3.793633     3.785990     3.778347
      3.770703     3.763060     3.755417     3.747774     3.740130     3.732487     3.724844     3.717201     3.709558     3.701914
      3.694271     3.686628     3.678985     3.671341     3.663698     3.656055     3.648412     3.640769     3.633125     3.625482
      3.617839     3.610196     3.602552     3.594909     3.587266     3.579623     3.571980     3.564336     3.556693     3.549050
      3.541407     3.533763     3.526120     3.518477     3.510834     3.503191     3.495547     3.487904     3.480261     3.472618
      3.464974     3.457331     3.449688     3.442045     3.434402     3.426758     3.419115     3.411472     3.403829     3.396185
      3.388542     3.380899     3.373256     3.365613     3.357969     3.350326     3.342683     3.335040     3.327396     3.319753
      3.312110     3.304467     3.296824     3.289180     3.281537     3.273894     3.266251     3.258607     3.250964     3.243321
      3.235678     3.228034     3.220391     3.212748     3.205105     3.197462     3.189818     3.182175     3.174532     3.166889
      3.159245     3.151602     3.143959     3.136316     3.128673     3.121029     3.113386     3.105743     3.098100     3.090456
      3.082813     3.075170     3.067527     3.059884     3.052240     3.044597     3.036954     3.029311     3.021667     3.014024
      3.006381     2.998738     2.991095     2.983451     2.975808     2.968165     2.960522     2.952878     2.945235     2.937592
      2.929949     2.922306     2.914662     2.907019     2.899376     2.891733     2.884089     2.876446     2.868803     2.861160
      2.853517     2.845873     2.838230     2.830587     2.822944     2.815300     2.807657     2.800014     2.792371     2.784728
      2.777084     2.769441     2.761798     2.754155     2.746511     2.738868     2.731225     2.723582     2.715939     2.708295
      2.700652     2.693009     2.685366     2.677722     2.670079     2.662436     2.654793     2.647150     2.639506     2.631863
      2.624220     2.616577     2.608933     2.601290     2.593647     2.586004     2.578361     2.570717     2.563074     2.555431
      2.547788     2.540144     2.532501     2.524858     2.517215     2.509572     2.501928     2.494285     2.486642     2.478999
      2.471355     2.463712     2.456069     2.448426     2.440783     2.433139     2.425496     2.417853     2.410210     2.402566
      2.394923     2.387280     2.379637     2.371994     2.364350     2.356707     2.349064     2.341421     2.333777     2.326134
      2.318491     2.310848     2.303205     2.295561     2.287918     2.280275     2.272632     2.264988     2.257345     2.249702
      2.242059     2.234416     2.226772     2.219129     2.211486     2.203843     2.196199     2.188556     2.180913     2.173270
      2.165627     2.157983     2.150340     2.142697     2.135054     2.127410     2.119767     2.112124     2.104481     2.096838
      2.089194     2.081551     2.073908     2.066265     2.058621     2.050978     2.043335     2.035692     2.028049     2.020405
      2.012762     2.005119     1.997476     1.989833     1.982190     1.974546     1.966903     1.959260     1.951617     1.943974
      1.936331     1.928688     1.921045     1.913402     1.905759     1.898115     1.890472     1.882829     1.875186     1.867543
      1.859900     1.852257     1.844614     1.836971     1.829327     1.821684     1.814041     1.806398     1.798755     1.791112
      1.783469     1.775826     1.768183     1.760540     1.752896     1.745253     1.737610     1.729967     1.722324     1.714681
      1.707038     1.699395     1.691752     1.684108     1.676465     1.668822     1.661179     1.653536     1.645893     1.638250
      1.630607     1.622964     1.615321     1.607677     1.600034     1.592391     1.584748     1.577105     1.569462     1.561819
      1.554176     1.546533     1.538890     1.531246     1.523603     1.515960     1.508317     1.500674     1.493031     1.485388
      1.477745     1.470102     1.462458     1.454815     1.447172     1.439529     1.431886     1.424243     1.416600     1.408957
      1.401314     1.393671     1.386027     1.378384     1.370741     1.363098     1.355455     1.347812     1.340169     1.332526
      1.324883     1.317240     1.309596     1.301953     1.294310     1.286667     1.279024     1.271381     1.263738     1.256095
      1.248452     1.240808     1.233165     1.225522     1.217879     1.210236     1.202593     1.194950     1.187307     1.179664
      1.172021     1.164377     1.156734     1.149091     1.141448     1.133805     1.126162     1.118519     1.110876     1.103233
      1.095590     1.087946     1.080303     1.072660     1.065017     1.057374     1.049731     1.042088     1.034445     1.026802
      1.019158     1.011515     1.003872     0.996229     0.988586     0.980943     0.973300     0.965657     0.958014     0.950371
      0.942727     0.935084     0.927441     0.919798     0.912155     0.904512     0.896869     0.889226     0.881583     0.873940
      0.866296     0.858653     0.851010     0.843367     0.835724     0.828081     0.820438     0.812795     0.805152     0.797508
      0.789865     0.782222     0.774579     0.766936     0.759293     0.751650     0.744007     0.736364     0.728721     0.721077
      0.713434     0.705791     0.698148     0.690505     0.682862     0.675219     0.667576     0.659933     0.652290     0.644646
      0.637003     0.629360     0.621717     0.614074     0.606431     0.598788     0.591145     0.583502     0.575858     0.568215
      0.560572     0.552929     0.545286     0.537643     0.530000     0.522357     0.514714     0.507071     0.499427     0.491784
      0.484141     0.476498     0.468855     0.461212     0.453569     0.445925     0.438282     0.430639     0.422996     0.415353
      0.407710     0.400067     0.392424     0.384780     0.377137     0.369494     0.361851     0.354208     0.346565     0.338922
      0.331278     0.323635     0.315992     0.308349     0.300706     0.293063     0.285420     0.277777     0.270133     0.262490
      0.254847     0.247204     0.239561     0.231918     0.224275     0.216631     0.208988     0.201345
 NY phased data points follow
  -1.30551E+02 -1.18325E+02 -1.09357E+02 -1.04830E+02 -9.32597E+01 -8.09347E+01 -6.16647E+01 -6.48181E+01 -5.98283E+01 -6.44552E+01
  -6.34772E+01 -7.77424E+01 -8.55640E+01 -8.92277E+01 -1.02901E+02 -1.03230E+02 -1.08962E+02 -1.12134E+02 -1.07957E+02 -1.13856E+02
  -1.05136E+02 -1.00663E+02 -9.55644E+01 -9.54318E+01 -1.03000E+02 -9.92709E+01 -9.14957E+01 -7.24192E+01 -8.23388E+01 -7.96009E+01
  -6.62178E+01 -7.20689E+01 -9.09396E+01 -9.53159E+01 -8.58269E+01 -9.81551E+01 -8.50881E+01 -7.67483E+01 -8.11751E+01 -8.50061E+01
  -8.63586E+01 -8.30337E+01 -6.87354E+01 -7.48888E+01 -6.81757E+01 -7.50775E+01 -6.60764E+01 -5.57380E+01 -6.21528E+01 -6.70572E+01
  -7.98636E+01 -7.65041E+01 -8.83116E+01 -7.23971E+01 -7.97796E+01 -8.38875E+01 -6.98601E+01 -8.50549E+01 -8.39871E+01 -7.72196E+01
  -8.21560E+01 -8.21534E+01 -8.05275E+01 -8.89340E+01 -7.19567E+01 -8.00707E+01 -8.56237E+01 -7.84722E+01 -7.99718E+01 -7.24689E+01
  -7.94145E+01 -7.27793E+01 -7.21062E+01 -6.47705E+01 -7.26102E+01 -5.11227E+01 -5.25505E+01 -7.29185E+01 -5.62999E+01 -5.83394E+01
  -6.39907E+01 -5.82106E+01 -5.65656E+01 -5.55069E+01 -5.43813E+01 -4.83769E+01 -4.62082E+01 -4.14323E+01 -3.52078E+01 -5.35623E+01
  -4.99459E+01 -4.41847E+01 -4.19652E+01 -3.33325E+01 -2.05132E+01 -2.87917E+01 -2.22369E+01 -1.32265E+01  4.30223E+00  1.00035E+01
   3.02894E+01  4.96380E+01  6.85743E+01  6.21877E+01  6.51720E+01  3.40946E+01  7.13729E+00 -6.86118E+00 -1.77114E+01 -2.98359E+01
  -2.87117E+01 -4.16977E+01 -3.85182E+01 -3.69459E+01 -4.41474E+01 -4.43101E+01 -4.56087E+01 -3.40690E+01 -3.49031E+01 -2.68317E+01
  -1.86983E+01 -1.02389E+01 -4.41981E+00  1.85177E+01  1.48929E+01  3.84089E+01  3.75269E+01  5.72214E+01  2.67760E+01  2.75134E+01
   9.76744E+00 -6.55517E+00 -2.21656E+01 -2.19018E+01 -3.50491E+01 -2.23626E+01 -3.76373E+01 -3.73250E+01 -4.57321E+01 -4.32826E+01
  -4.20744E+01 -4.31868E+01 -3.63926E+01 -4.37138E+01 -3.78894E+01 -2.83807E+01 -2.59101E+01 -3.22248E+01 -2.95654E+01 -3.75439E+01
  -3.89205E+01 -2.48630E+01 -2.35756E+01 -3.47668E+01 -3.90470E+01 -3.29573E+01 -3.72387E+01 -2.97751E+01 -3.92366E+01 -3.67659E+01
  -3.83049E+01 -3.85409E+01 -3.38742E+01 -3.69072E+01 -2.99309E+01 -3.32995E+01 -3.16025E+01 -4.19770E+01 -3.36898E+01 -4.02602E+01
  -4.21221E+01 -4.66504E+01 -3.95158E+01 -4.37850E+01 -5.60915E+01 -4.01823E+01 -4.22656E+01 -4.32346E+01 -3.09264E+01 -4.20666E+01
  -4.07961E+01 -4.04440E+01 -4.20231E+01 -4.01829E+01 -3.12257E+01 -4.13903E+01 -3.58535E+01 -1.83058E+01 -1.19243E+01 -8.22809E+00
  -7.26944E+00 -5.69836E+00  3.49318E+00  5.40783E-01 -3.66378E+00 -1.43345E+01 -2.68273E+00 -1.98227E+01 -2.26532E+01 -8.09593E+00
  -1.79015E+01 -1.50776E+01 -8.23414E+00 -1.96736E+01 -5.73028E+00 -1.08601E+01 -1.44460E+01 -1.71667E+01 -1.42931E+01 -1.50911E+01
  -1.56873E+01 -1.12692E+01 -1.44269E+00  4.46209E+00 -4.53569E+00 -2.87598E+00  6.63427E+00  9.42975E+00  1.16517E+01 -8.13002E+00
   1.57280E+00 -1.18515E+01 -2.35877E+01 -1.09735E+01  1.06674E+00 -9.91884E+00 -4.41718E+00  7.82751E+00  4.24763E+00  7.50060E+00
   3.56039E+00  7.45452E+00  2.46258E+00  1.95322E+01  5.70937E+00  1.04677E+01  3.61643E+00  1.11569E+01 -1.18187E+00  6.65871E+00
   1.22707E+01  6.09902E+00 -8.24381E+00 -7.31109E+00  6.91949E+00  2.18062E+00 -2.42800E-01  9.70736E+00  9.32278E+00  9.68331E+00
   1.65430E+01  2.88163E+01  2.14035E+01  4.04039E+01  4.47608E+01  7.40996E+01  7.17698E+01  1.05492E+02  1.10848E+02  1.53922E+02
   1.59989E+02  1.60288E+02  1.41589E+02  1.33661E+02  9.65618E+01  7.88104E+01  5.70950E+01  3.31222E+01  2.77461E+01  2.04854E+01
   2.93341E+01  2.11701E+01  2.29097E+01  2.06100E+01  2.13667E+01  1.93156E+01  2.16452E+01  1.11161E+01  7.96426E+00  7.97268E+00
   7.39307E+00  2.17824E+01  1.95866E+01  1.25211E+00  2.47203E+01  1.51680E+01  1.00332E+01 -4.68533E-01  1.40229E+01  1.19768E+01
   1.25599E+01  1.15898E+01  2.17216E+01  1.51972E+01  1.79644E+01  1.13722E+01  1.46264E+01  1.43864E+01  2.36078E+01  1.39369E+01
   1.39347E+01  1.21556E+01  1.51730E+01  1.69500E+01  2.23143E+01  2.14420E+01  1.47053E+01  2.28316E+01  3.20617E+01  2.46214E+01
   2.39079E+01  1.96069E+01  9.52736E+00  7.03312E+00  6.50195E+00  2.21557E+01  1.48278E+01  2.57075E+01  2.43405E+01  2.22245E+01
   2.22136E+01  2.94872E+01  2.80544E+01  3.38834E+01  1.80739E+01  2.64455E+01  2.42835E+01  2.53285E+01  2.14965E+01  3.04840E+01
   1.57857E+01  2.68372E+01  2.56389E+01  3.73983E+01  3.24870E+01  3.35946E+01  3.53943E+01  3.23587E+01  3.04111E+01  4.63017E+01
   2.71014E+01  3.17538E+01  4.20859E+01  3.79281E+01  2.50183E+01  3.46819E+01  3.78090E+01  4.00463E+01  4.59242E+01  4.22953E+01
   3.71144E+01  4.19652E+01  4.81413E+01  3.71757E+01  4.16799E+01  4.82835E+01  5.14667E+01  3.66905E+01  3.49718E+01  3.25306E+01
   3.09146E+01  3.42759E+01  2.94481E+01  2.24208E+01  2.94169E+01  3.32006E+01  1.85451E+01  2.61530E+01  2.52494E+01  2.85170E+01
   2.60350E+01  2.58479E+01  2.87904E+01  2.34632E+01  2.96954E+01  2.07852E+01  3.52307E+01  2.14448E+01  1.98881E+01  3.44451E+01
   2.89673E+01  1.95364E+01  2.30124E+01  2.30866E+01  2.96592E+01  2.64137E+01  1.77755E+01  2.53819E+01  3.07399E+01  2.39028E+01
   2.36980E+01  3.15543E+01  2.57476E+01  3.96587E+01  3.54545E+01  2.99717E+01  3.74448E+01  3.37815E+01  3.64676E+01  3.22498E+01
   3.42368E+01  3.33965E+01  3.87381E+01  3.67491E+01  3.74765E+01  3.76029E+01  4.04405E+01  3.22357E+01  4.33892E+01  4.10545E+01
   3.77707E+01  3.39714E+01  3.60593E+01  4.35423E+01  4.65152E+01  3.82285E+01  2.91595E+01  3.45148E+01  4.34333E+01  4.60179E+01
   3.16777E+01  3.21319E+01  4.03551E+01  2.84644E+01  4.04550E+01  3.39607E+01  2.93279E+01  3.04269E+01  3.82642E+01  4.03670E+01
   2.90492E+01  3.08878E+01  3.61875E+01  2.59339E+01  2.97311E+01  2.85366E+01  2.87075E+01  3.56226E+01  3.06320E+01  3.44740E+01
   2.11292E+01  3.01183E+01  2.94396E+01  3.04275E+01  2.96719E+01  2.86834E+01  2.87402E+01  3.00353E+01  3.40538E+01  3.19822E+01
   3.68670E+01  2.92468E+01  3.39724E+01  3.26485E+01  3.53599E+01  2.31253E+01  2.57545E+01  4.39445E+01  3.07897E+01  4.56828E+01
   2.41286E+01  2.35400E+01  3.68397E+01  3.57174E+01  3.47441E+01  2.63316E+01  3.03897E+01  3.40077E+01  3.16010E+01  1.95241E+01
   1.98445E+01  2.99121E+01  3.12875E+01  3.95615E+01  2.50608E+01  3.38300E+01  2.41438E+01  2.88652E+01  2.96240E+01  3.43838E+01
   3.15691E+01  2.06025E+01  2.96264E+01  2.77236E+01  2.99917E+01  2.69482E+01  3.26417E+01  3.30088E+01  2.08322E+01  3.75311E+01
   3.63568E+01  2.77169E+01  3.02392E+01  4.43251E+01  3.74946E+01  3.10309E+01  1.95847E+01  2.01944E+01
 NY points of the fit to the data follow
  -1.07382E+02 -1.02300E+02 -1.00725E+02 -9.53345E+01 -8.97610E+01 -8.29279E+01 -7.66776E+01 -6.82746E+01 -6.30693E+01 -6.36695E+01
  -6.90492E+01 -7.48446E+01 -8.29599E+01 -8.90930E+01 -9.34979E+01 -9.70414E+01 -9.83594E+01 -9.82024E+01 -1.00608E+02 -1.00839E+02
  -1.00918E+02 -9.95648E+01 -9.68508E+01 -9.62318E+01 -9.43644E+01 -9.20165E+01 -8.88706E+01 -8.60361E+01 -8.21464E+01 -7.76423E+01
  -7.50305E+01 -7.54186E+01 -7.61704E+01 -7.77838E+01 -8.01211E+01 -8.26282E+01 -8.52489E+01 -8.65665E+01 -8.65205E+01 -8.67339E+01
  -8.58074E+01 -8.38771E+01 -8.21484E+01 -7.99385E+01 -7.78305E+01 -7.51809E+01 -7.29177E+01 -7.17235E+01 -7.22930E+01 -7.39853E+01
  -7.62480E+01 -7.84039E+01 -8.01847E+01 -8.07514E+01 -8.08013E+01 -8.01010E+01 -7.92589E+01 -7.83222E+01 -7.71479E+01 -7.57531E+01
  -7.51465E+01 -7.45910E+01 -7.48323E+01 -7.50503E+01 -7.50118E+01 -7.46212E+01 -7.40302E+01 -7.27015E+01 -7.11060E+01 -7.00504E+01
  -6.92729E+01 -6.83918E+01 -6.75155E+01 -6.70159E+01 -6.60199E+01 -6.49358E+01 -6.47857E+01 -6.50967E+01 -6.48051E+01 -6.27904E+01
  -6.24723E+01 -6.07745E+01 -5.83221E+01 -5.47035E+01 -5.11723E+01 -4.71756E+01 -4.39157E+01 -4.25713E+01 -4.43690E+01 -4.70233E+01
  -5.01521E+01 -5.25637E+01 -5.38796E+01 -5.16060E+01 -4.13479E+01 -3.40322E+01 -2.34584E+01 -1.38659E+01  1.86913E+00  1.66243E+01
   3.62090E+01  5.43857E+01  6.63213E+01  6.42298E+01  5.48490E+01  3.56484E+01  1.47517E+01 -4.17988E+00 -2.02106E+01 -3.21888E+01
  -3.67601E+01 -4.25210E+01 -4.61262E+01 -4.85332E+01 -4.96844E+01 -4.97775E+01 -4.90453E+01 -4.67410E+01 -3.77078E+01 -2.81378E+01
  -2.42746E+01 -1.51634E+01 -4.96115E+00  7.86906E+00  2.05118E+01  3.74800E+01  4.87376E+01  4.79451E+01  3.73764E+01  2.44278E+01
   7.01650E+00 -7.07965E+00 -1.78886E+01 -2.67093E+01 -3.09468E+01 -3.29752E+01 -3.85035E+01 -4.04674E+01 -4.02289E+01 -3.90403E+01
  -3.75117E+01 -3.58957E+01 -3.49212E+01 -3.47857E+01 -3.48180E+01 -3.50429E+01 -3.53876E+01 -3.54954E+01 -3.55269E+01 -3.54994E+01
  -3.54042E+01 -3.53633E+01 -3.52823E+01 -3.55413E+01 -3.54995E+01 -3.52261E+01 -3.48807E+01 -3.44053E+01 -3.44139E+01 -3.46780E+01
  -3.50228E+01 -3.51454E+01 -3.47665E+01 -3.40365E+01 -3.31324E+01 -3.26046E+01 -3.29101E+01 -3.35359E+01 -3.44527E+01 -3.55373E+01
  -3.56822E+01 -3.59242E+01 -3.61670E+01 -3.66234E+01 -3.69074E+01 -3.71777E+01 -3.69374E+01 -3.62752E+01 -3.52940E+01 -3.49669E+01
  -3.44227E+01 -3.36793E+01 -3.27919E+01 -3.16540E+01 -3.05698E+01 -2.93122E+01 -2.75584E+01 -2.52957E+01 -2.23421E+01 -1.94155E+01
  -1.72486E+01 -1.50817E+01 -1.43986E+01 -1.45233E+01 -1.51461E+01 -1.56600E+01 -1.56843E+01 -1.53632E+01 -1.47157E+01 -1.34948E+01
  -1.21753E+01 -1.06725E+01 -9.61460E+00 -8.30300E+00 -7.84346E+00 -8.57781E+00 -9.90045E+00 -1.10397E+01 -1.20585E+01 -1.28264E+01
  -1.38764E+01 -1.33190E+01 -1.22381E+01 -1.03448E+01 -8.26705E+00 -6.07790E+00 -4.50009E+00 -4.06641E+00 -6.06578E+00 -8.41440E+00
  -1.11170E+01 -1.36565E+01 -1.50610E+01 -1.46274E+01 -1.21350E+01 -8.46504E+00 -5.34689E+00 -2.32287E+00 -1.35229E-01  1.55366E+00
   2.10977E+00  1.85098E+00  2.31628E+00  3.38719E+00  4.23943E+00  4.83110E+00  5.75759E+00  6.39773E+00  6.21829E+00  5.15925E+00
   4.28336E+00  3.75934E+00  3.70150E+00  4.24119E+00  5.81449E+00  8.19768E+00  1.03364E+01  1.18614E+01  1.30622E+01  1.37962E+01
   1.44738E+01  1.67948E+01  2.94389E+01  4.61240E+01  5.18933E+01  6.56812E+01  8.07674E+01  1.00623E+02  1.18749E+02  1.44543E+02
   1.63128E+02  1.64393E+02  1.47848E+02  1.27314E+02  9.84971E+01  7.35410E+01  5.39935E+01  3.82234E+01  3.03639E+01  2.85906E+01
   2.02551E+01  1.63691E+01  1.51342E+01  1.46163E+01  1.42524E+01  1.40921E+01  1.39484E+01  1.37459E+01  1.35126E+01  1.32777E+01
   1.30242E+01  1.28224E+01  1.27326E+01  1.26999E+01  1.27002E+01  1.27602E+01  1.28594E+01  1.29958E+01  1.31561E+01  1.33363E+01
   1.35563E+01  1.38130E+01  1.40887E+01  1.43939E+01  1.47131E+01  1.50529E+01  1.53993E+01  1.57501E+01  1.60973E+01  1.64427E+01
   1.67708E+01  1.70884E+01  1.73847E+01  1.76645E+01  1.79165E+01  1.81488E+01  1.83550E+01  1.85470E+01  1.87207E+01  1.88914E+01
   1.90567E+01  1.92343E+01  1.94249E+01  1.96462E+01  1.99006E+01  2.02103E+01  2.05834E+01  2.10587E+01  2.17006E+01  2.25531E+01
   2.30476E+01  2.36408E+01  2.43560E+01  2.50998E+01  2.56955E+01  2.62327E+01  2.65161E+01  2.66988E+01  2.65044E+01  2.62511E+01
   2.62370E+01  2.65664E+01  2.73469E+01  2.84275E+01  3.00049E+01  3.18763E+01  3.31639E+01  3.39735E+01  3.45529E+01  3.46383E+01
   3.45148E+01  3.43083E+01  3.40372E+01  3.40563E+01  3.43069E+01  3.46099E+01  3.52313E+01  3.61805E+01  3.74030E+01  3.88298E+01
   4.03301E+01  4.17536E+01  4.29145E+01  4.36552E+01  4.38404E+01  4.34169E+01  4.23904E+01  4.08580E+01  3.89555E+01  3.68651E+01
   3.47513E+01  3.27704E+01  3.10189E+01  2.95631E+01  2.84075E+01  2.75408E+01  2.69136E+01  2.64857E+01  2.62004E+01  2.60245E+01
   2.59167E+01  2.58620E+01  2.58360E+01  2.58380E+01  2.58542E+01  2.58910E+01  2.59394E+01  2.60086E+01  2.60917E+01  2.61995E+01
   2.63257E+01  2.64814E+01  2.66609E+01  2.68756E+01  2.71202E+01  2.74065E+01  2.77290E+01  2.80994E+01  2.85116E+01  2.89767E+01
   2.94876E+01  3.00535E+01  3.06653E+01  3.13293E+01  3.20331E+01  3.27794E+01  3.35520E+01  3.43495E+01  3.51514E+01  3.59525E+01
   3.67293E+01  3.74743E+01  3.81631E+01  3.87882E+01  3.93264E+01  3.97733E+01  4.01100E+01  4.03378E+01  4.04443E+01  4.04374E+01
   4.03120E+01  4.00829E+01  3.97516E+01  3.93387E+01  3.88498E+01  3.83082E+01  3.77213E+01  3.71127E+01  3.64887E+01  3.58710E+01
   3.52626E+01  3.46814E+01  3.41269E+01  3.36128E+01  3.31349E+01  3.27034E+01  3.23107E+01  3.19642E+01  3.16543E+01  3.13870E+01
   3.11516E+01  3.09531E+01  3.07803E+01  3.06384E+01  3.05162E+01  3.04194E+01  3.03372E+01  3.02754E+01  3.02238E+01  3.01889E+01
   3.01608E+01  3.01464E+01  3.01364E+01  3.01378E+01  3.01415E+01  3.01550E+01  3.01694E+01  3.01924E+01  3.02153E+01  3.02457E+01
   3.02751E+01  3.03113E+01  3.03461E+01  3.03872E+01  3.04263E+01  3.04711E+01  3.05136E+01  3.05617E+01  3.06072E+01  3.06579E+01
   3.07058E+01  3.07586E+01  3.08084E+01  3.08631E+01  3.09147E+01  3.09710E+01  3.10240E+01  3.10815E+01  3.11357E+01  3.11944E+01
   3.12497E+01  3.13094E+01  3.13655E+01  3.14260E+01  3.14830E+01  3.15444E+01  3.16021E+01  3.16641E+01  3.17223E+01  3.17849E+01
   3.18438E+01  3.19069E+01  3.19663E+01  3.20299E+01  3.20897E+01  3.21537E+01  3.22140E+01  3.22784E+01  3.23391E+01  3.24038E+01
   3.24648E+01  3.25299E+01  3.25913E+01  3.26568E+01  3.27184E+01  3.27841E+01  3.28460E+01  3.29120E+01
 NY background values follow
    -1.214E+02   -1.208E+02   -1.202E+02   -1.196E+02   -1.190E+02   -1.184E+02   -1.178E+02   -1.172E+02   -1.166E+02   -1.160E+02
    -1.154E+02   -1.148E+02   -1.142E+02   -1.136E+02   -1.130E+02   -1.124E+02   -1.119E+02   -1.113E+02   -1.107E+02   -1.101E+02
    -1.095E+02   -1.089E+02   -1.083E+02   -1.077E+02   -1.071E+02   -1.065E+02   -1.059E+02   -1.053E+02   -1.047E+02   -1.042E+02
    -1.036E+02   -1.030E+02   -1.024E+02   -1.018E+02   -1.012E+02   -1.006E+02   -1.000E+02   -9.944E+01   -9.885E+01   -9.826E+01
    -9.768E+01   -9.709E+01   -9.650E+01   -9.592E+01   -9.533E+01   -9.475E+01   -9.416E+01   -9.358E+01   -9.300E+01   -9.241E+01
    -9.183E+01   -9.125E+01   -9.067E+01   -9.009E+01   -8.951E+01   -8.893E+01   -8.835E+01   -8.777E+01   -8.720E+01   -8.662E+01
    -8.604E+01   -8.547E+01   -8.489E+01   -8.432E+01   -8.375E+01   -8.318E+01   -8.261E+01   -8.204E+01   -8.147E+01   -8.090E+01
    -8.033E+01   -7.977E+01   -7.920E+01   -7.864E+01   -7.807E+01   -7.751E+01   -7.695E+01   -7.639E+01   -7.583E+01   -7.527E+01
    -7.471E+01   -7.416E+01   -7.360E+01   -7.305E+01   -7.249E+01   -7.194E+01   -7.139E+01   -7.084E+01   -7.029E+01   -6.975E+01
    -6.920E+01   -6.866E+01   -6.812E+01   -6.757E+01   -6.703E+01   -6.650E+01   -6.596E+01   -6.542E+01   -6.489E+01   -6.435E+01
    -6.382E+01   -6.329E+01   -6.276E+01   -6.223E+01   -6.170E+01   -6.118E+01   -6.066E+01   -6.013E+01   -5.961E+01   -5.909E+01
    -5.857E+01   -5.806E+01   -5.754E+01   -5.703E+01   -5.651E+01   -5.600E+01   -5.549E+01   -5.498E+01   -5.448E+01   -5.397E+01
    -5.347E+01   -5.297E+01   -5.246E+01   -5.197E+01   -5.147E+01   -5.097E+01   -5.048E+01   -4.998E+01   -4.949E+01   -4.900E+01
    -4.851E+01   -4.802E+01   -4.754E+01   -4.705E+01   -4.657E+01   -4.609E+01   -4.561E+01   -4.513E+01   -4.466E+01   -4.418E+01
    -4.371E+01   -4.324E+01   -4.277E+01   -4.230E+01   -4.183E+01   -4.137E+01   -4.091E+01   -4.044E+01   -3.998E+01   -3.952E+01
    -3.907E+01   -3.861E+01   -3.816E+01   -3.771E+01   -3.726E+01   -3.681E+01   -3.636E+01   -3.591E+01   -3.547E+01   -3.503E+01
    -3.459E+01   -3.415E+01   -3.371E+01   -3.327E+01   -3.284E+01   -3.241E+01   -3.198E+01   -3.155E+01   -3.112E+01   -3.069E+01
    -3.027E+01   -2.985E+01   -2.943E+01   -2.901E+01   -2.859E+01   -2.817E+01   -2.776E+01   -2.735E+01   -2.694E+01   -2.653E+01
    -2.612E+01   -2.571E+01   -2.531E+01   -2.491E+01   -2.450E+01   -2.411E+01   -2.371E+01   -2.331E+01   -2.292E+01   -2.253E+01
    -2.213E+01   -2.175E+01   -2.136E+01   -2.097E+01   -2.059E+01   -2.021E+01   -1.983E+01   -1.945E+01   -1.907E+01   -1.870E+01
    -1.833E+01   -1.795E+01   -1.759E+01   -1.722E+01   -1.685E+01   -1.649E+01   -1.613E+01   -1.577E+01   -1.541E+01   -1.505E+01
    -1.470E+01   -1.435E+01   -1.400E+01   -1.365E+01   -1.330E+01   -1.295E+01   -1.261E+01   -1.227E+01   -1.193E+01   -1.159E+01
    -1.126E+01   -1.093E+01   -1.060E+01   -1.027E+01   -9.939E+00   -9.614E+00   -9.290E+00   -8.969E+00   -8.650E+00   -8.333E+00
    -8.017E+00   -7.704E+00   -7.393E+00   -7.083E+00   -6.776E+00   -6.470E+00   -6.167E+00   -5.865E+00   -5.565E+00   -5.268E+00
    -4.972E+00   -4.678E+00   -4.385E+00   -4.095E+00   -3.806E+00   -3.520E+00   -3.235E+00   -2.952E+00   -2.671E+00   -2.391E+00
    -2.114E+00   -1.838E+00   -1.564E+00   -1.292E+00   -1.021E+00   -7.527E-01   -4.857E-01   -2.205E-01    4.301E-02    3.048E-01
     5.649E-01    8.232E-01    1.080E+00    1.335E+00    1.588E+00    1.840E+00    2.090E+00    2.338E+00    2.585E+00    2.830E+00
     3.074E+00    3.315E+00    3.556E+00    3.794E+00    4.032E+00    4.267E+00    4.501E+00    4.733E+00    4.964E+00    5.193E+00
     5.421E+00    5.647E+00    5.872E+00    6.095E+00    6.317E+00    6.537E+00    6.756E+00    6.973E+00    7.188E+00    7.402E+00
     7.615E+00    7.826E+00    8.036E+00    8.245E+00    8.451E+00    8.657E+00    8.861E+00    9.064E+00    9.265E+00    9.465E+00
     9.663E+00    9.860E+00    1.006E+01    1.025E+01    1.044E+01    1.063E+01    1.082E+01    1.101E+01    1.120E+01    1.139E+01
     1.157E+01    1.176E+01    1.194E+01    1.212E+01    1.230E+01    1.248E+01    1.265E+01    1.283E+01    1.300E+01    1.318E+01
     1.335E+01    1.352E+01    1.369E+01    1.386E+01    1.403E+01    1.419E+01    1.436E+01    1.452E+01    1.468E+01    1.484E+01
     1.500E+01    1.516E+01    1.532E+01    1.548E+01    1.563E+01    1.579E+01    1.594E+01    1.609E+01    1.624E+01    1.639E+01
     1.654E+01    1.669E+01    1.684E+01    1.698E+01    1.713E+01    1.727E+01    1.742E+01    1.756E+01    1.770E+01    1.784E+01
     1.798E+01    1.812E+01    1.825E+01    1.839E+01    1.853E+01    1.866E+01    1.879E+01    1.893E+01    1.906E+01    1.919E+01
     1.932E+01    1.945E+01    1.958E+01    1.971E+01    1.983E+01    1.996E+01    2.008E+01    2.021E+01    2.033E+01    2.045E+01
     2.058E+01    2.070E+01    2.082E+01    2.094E+01    2.106E+01    2.117E+01    2.129E+01    2.141E+01    2.152E+01    2.164E+01
     2.175E+01    2.187E+01    2.198E+01    2.209E+01    2.220E+01    2.232E+01    2.243E+01    2.254E+01    2.264E+01    2.275E+01
     2.286E+01    2.297E+01    2.307E+01    2.318E+01    2.329E+01    2.339E+01    2.349E+01    2.360E+01    2.370E+01    2.380E+01
     2.391E+01    2.401E+01    2.411E+01    2.421E+01    2.431E+01    2.441E+01    2.450E+01    2.460E+01    2.470E+01    2.480E+01
     2.489E+01    2.499E+01    2.509E+01    2.518E+01    2.527E+01    2.537E+01    2.546E+01    2.556E+01    2.565E+01    2.574E+01
     2.583E+01    2.592E+01    2.601E+01    2.611E+01    2.620E+01    2.629E+01    2.637E+01    2.646E+01    2.655E+01    2.664E+01
     2.673E+01    2.681E+01    2.690E+01    2.699E+01    2.707E+01    2.716E+01    2.724E+01    2.733E+01    2.741E+01    2.750E+01
     2.758E+01    2.766E+01    2.775E+01    2.783E+01    2.791E+01    2.800E+01    2.808E+01    2.816E+01    2.824E+01    2.832E+01
     2.840E+01    2.848E+01    2.856E+01    2.864E+01    2.872E+01    2.880E+01    2.888E+01    2.896E+01    2.903E+01    2.911E+01
     2.919E+01    2.927E+01    2.934E+01    2.942E+01    2.950E+01    2.958E+01    2.965E+01    2.973E+01    2.980E+01    2.988E+01
     2.996E+01    3.003E+01    3.011E+01    3.018E+01    3.026E+01    3.033E+01    3.041E+01    3.048E+01    3.056E+01    3.063E+01
     3.071E+01    3.078E+01    3.086E+01    3.093E+01    3.100E+01    3.108E+01    3.115E+01    3.123E+01    3.130E+01    3.138E+01
     3.145E+01    3.152E+01    3.160E+01    3.167E+01    3.175E+01    3.182E+01    3.190E+01    3.197E+01
 Ala      Conc. = 3.00E+02
