 LCModel (Version 6.3-1L) Copyright: S.W. Provencher.          Ref.: Magn. Reson. Med. 30:672-679 (1993).                
 Slice#3 Row#1 Col#6  PD_05_press_2_raw_act
 36 lines in following concentration table = NCONC+1
    Conc.  %SD /Cr+PCr  Metabolite                                         
   43.121 525%   0.205 Ala                                                 
   49.256  75%   0.234 Asp                                                 
  210.071  53%   1.000 Cr                                                  
    0.000 999%   0.000 PCr                                                 
   31.131  72%   0.148 GABA                                                
   28.479  79%   0.136 Glc                                                 
    0.000 999%   0.000 Gln                                                 
    0.000 999%   0.000 Glu                                                 
    0.000 999%   0.000 GPC                                                 
  160.841  27%   0.766 PCh                                                 
    0.000 999%   0.000 GSH                                                 
    0.000 999%   0.000 Ins                                                 
    0.000 999%   0.000 Lac                                                 
  282.533  44%   1.345 NAA                                                 
    0.000 999%   0.000 NAAG                                                
   11.526  64% 5.5E-02 Scyllo                                              
   52.886  70%   0.252 Tau                                                 
   25.399 158%   0.121 -CrCH2                                              
  160.841  27%   0.766 GPC+PCh                                             
  282.533  44%   1.345 NAA+NAAG                                            
  210.071  53%   1.000 Cr+PCr                                              
    0.000 999%   0.000 Glu+Gln                                             
 3.52E+03  18%  16.741 Lip13a                                              
    0.000 999%   0.000 Lip13b                                              
  341.811  91%   1.627 Lip09                                               
    0.000 999%   0.000 MM09                                                
  406.065  70%   1.933 Lip20                                               
    0.000 999%   0.000 MM20                                                
 5.85E-04 999% 2.8E-06 MM12                                                
    0.000 999%   0.000 MM14                                                
    0.000 999%   0.000 MM17                                                
 3.52E+03  18%  16.741 Lip13a+Lip13b                                       
 3.52E+03  18%  16.741 MM14+Lip13a+Lip13b+MM12                             
  341.811  91%   1.627 MM09+Lip09                                          
  406.065  70%   1.933 MM20+Lip20                                          
   6 lines in following misc. output table
  FWHM = 0.054 ppm    S/N =   1                                            
  Data shift =-0.023 ppm                                                   
  Ph: -75 deg      20.6 deg/ppm                                            
  alphaB,S = 8.5E+01,   2.6E+01                                            
   14 spline knots.   Ns = 6(1)                                            
   2 inflections.     1 extrema                                            
  498 points on ppm-axis = NY
      4.000000     3.992357     3.984714     3.977070     3.969427     3.961784     3.954141     3.946497     3.938854     3.931211
      3.923568     3.915925     3.908281     3.900638     3.892995     3.885352     3.877708     3.870065     3.862422     3.854779
      3.847136     3.839492     3.831849     3.824206     3.816563     3.808919     3.801276     3.793633     3.785990     3.778347
      3.770703     3.763060     3.755417     3.747774     3.740130     3.732487     3.724844     3.717201     3.709558     3.701914
      3.694271     3.686628     3.678985     3.671341     3.663698     3.656055     3.648412     3.640769     3.633125     3.625482
      3.617839     3.610196     3.602552     3.594909     3.587266     3.579623     3.571980     3.564336     3.556693     3.549050
      3.541407     3.533763     3.526120     3.518477     3.510834     3.503191     3.495547     3.487904     3.480261     3.472618
      3.464974     3.457331     3.449688     3.442045     3.434402     3.426758     3.419115     3.411472     3.403829     3.396185
      3.388542     3.380899     3.373256     3.365613     3.357969     3.350326     3.342683     3.335040     3.327396     3.319753
      3.312110     3.304467     3.296824     3.289180     3.281537     3.273894     3.266251     3.258607     3.250964     3.243321
      3.235678     3.228034     3.220391     3.212748     3.205105     3.197462     3.189818     3.182175     3.174532     3.166889
      3.159245     3.151602     3.143959     3.136316     3.128673     3.121029     3.113386     3.105743     3.098100     3.090456
      3.082813     3.075170     3.067527     3.059884     3.052240     3.044597     3.036954     3.029311     3.021667     3.014024
      3.006381     2.998738     2.991095     2.983451     2.975808     2.968165     2.960522     2.952878     2.945235     2.937592
      2.929949     2.922306     2.914662     2.907019     2.899376     2.891733     2.884089     2.876446     2.868803     2.861160
      2.853517     2.845873     2.838230     2.830587     2.822944     2.815300     2.807657     2.800014     2.792371     2.784728
      2.777084     2.769441     2.761798     2.754155     2.746511     2.738868     2.731225     2.723582     2.715939     2.708295
      2.700652     2.693009     2.685366     2.677722     2.670079     2.662436     2.654793     2.647150     2.639506     2.631863
      2.624220     2.616577     2.608933     2.601290     2.593647     2.586004     2.578361     2.570717     2.563074     2.555431
      2.547788     2.540144     2.532501     2.524858     2.517215     2.509572     2.501928     2.494285     2.486642     2.478999
      2.471355     2.463712     2.456069     2.448426     2.440783     2.433139     2.425496     2.417853     2.410210     2.402566
      2.394923     2.387280     2.379637     2.371994     2.364350     2.356707     2.349064     2.341421     2.333777     2.326134
      2.318491     2.310848     2.303205     2.295561     2.287918     2.280275     2.272632     2.264988     2.257345     2.249702
      2.242059     2.234416     2.226772     2.219129     2.211486     2.203843     2.196199     2.188556     2.180913     2.173270
      2.165627     2.157983     2.150340     2.142697     2.135054     2.127410     2.119767     2.112124     2.104481     2.096838
      2.089194     2.081551     2.073908     2.066265     2.058621     2.050978     2.043335     2.035692     2.028049     2.020405
      2.012762     2.005119     1.997476     1.989833     1.982190     1.974546     1.966903     1.959260     1.951617     1.943974
      1.936331     1.928688     1.921045     1.913402     1.905759     1.898115     1.890472     1.882829     1.875186     1.867543
      1.859900     1.852257     1.844614     1.836971     1.829327     1.821684     1.814041     1.806398     1.798755     1.791112
      1.783469     1.775826     1.768183     1.760540     1.752896     1.745253     1.737610     1.729967     1.722324     1.714681
      1.707038     1.699395     1.691752     1.684108     1.676465     1.668822     1.661179     1.653536     1.645893     1.638250
      1.630607     1.622964     1.615321     1.607677     1.600034     1.592391     1.584748     1.577105     1.569462     1.561819
      1.554176     1.546533     1.538890     1.531246     1.523603     1.515960     1.508317     1.500674     1.493031     1.485388
      1.477745     1.470102     1.462458     1.454815     1.447172     1.439529     1.431886     1.424243     1.416600     1.408957
      1.401314     1.393671     1.386027     1.378384     1.370741     1.363098     1.355455     1.347812     1.340169     1.332526
      1.324883     1.317240     1.309596     1.301953     1.294310     1.286667     1.279024     1.271381     1.263738     1.256095
      1.248452     1.240808     1.233165     1.225522     1.217879     1.210236     1.202593     1.194950     1.187307     1.179664
      1.172021     1.164377     1.156734     1.149091     1.141448     1.133805     1.126162     1.118519     1.110876     1.103233
      1.095590     1.087946     1.080303     1.072660     1.065017     1.057374     1.049731     1.042088     1.034445     1.026802
      1.019158     1.011515     1.003872     0.996229     0.988586     0.980943     0.973300     0.965657     0.958014     0.950371
      0.942727     0.935084     0.927441     0.919798     0.912155     0.904512     0.896869     0.889226     0.881583     0.873940
      0.866296     0.858653     0.851010     0.843367     0.835724     0.828081     0.820438     0.812795     0.805152     0.797508
      0.789865     0.782222     0.774579     0.766936     0.759293     0.751650     0.744007     0.736364     0.728721     0.721077
      0.713434     0.705791     0.698148     0.690505     0.682862     0.675219     0.667576     0.659933     0.652290     0.644646
      0.637003     0.629360     0.621717     0.614074     0.606431     0.598788     0.591145     0.583502     0.575858     0.568215
      0.560572     0.552929     0.545286     0.537643     0.530000     0.522357     0.514714     0.507071     0.499427     0.491784
      0.484141     0.476498     0.468855     0.461212     0.453569     0.445925     0.438282     0.430639     0.422996     0.415353
      0.407710     0.400067     0.392424     0.384780     0.377137     0.369494     0.361851     0.354208     0.346565     0.338922
      0.331278     0.323635     0.315992     0.308349     0.300706     0.293063     0.285420     0.277777     0.270133     0.262490
      0.254847     0.247204     0.239561     0.231918     0.224275     0.216631     0.208988     0.201345
 NY phased data points follow
  -2.81471E+01 -1.65403E+01  1.70143E+01 -2.43548E-01 -3.08644E+01 -2.93611E+01  1.09440E-01 -5.62031E+00  1.93785E+01 -5.76999E+00
  -1.40128E+00 -1.24501E+01  5.91603E+00 -3.30604E+00  5.67354E+00 -7.95847E+00 -3.21604E+01  2.68843E+00 -2.25479E+01 -1.56028E+01
  -7.39366E+00 -1.61067E+01 -1.34811E+01 -2.57405E+01 -3.92997E+00 -1.13175E+01 -1.50577E+01 -1.27143E+01 -8.90441E+00 -1.70675E+01
  -1.59496E+01 -3.38209E+01 -4.59350E+00 -1.30701E+01 -6.51660E+00  1.26954E+01 -1.36098E+00  1.44369E+00 -6.27886E+00 -3.90763E+00
  -1.40877E+01 -1.38898E+01 -9.63432E+00  1.65236E+00 -2.31708E+01 -3.44585E+00 -2.35893E+01 -1.96483E+01  5.38299E+00 -8.14397E+00
   9.30196E+00 -3.25322E+00  5.51287E-01 -1.10300E+01 -4.20725E+00  3.74655E+00  3.33073E+00 -1.35755E+00  2.51006E+00 -1.33915E+01
  -2.78321E+01  7.80029E+00 -9.46781E+00 -4.34569E+00 -1.33093E+01 -1.81922E+01  1.05889E+00 -8.13822E+00 -7.87325E+00 -3.52920E+00
  -3.80815E+00  6.12730E+00  9.19933E+00 -1.25795E+01  7.35901E+00  6.14063E+00 -7.35839E+00 -1.27987E+01 -1.13430E+01 -2.47290E+00
   8.43944E+00 -2.14466E+01 -4.15489E+00 -1.43045E+00  1.23216E+01  9.50280E+00  3.10171E+00  1.62382E+01 -1.48517E+01  1.76735E-01
   2.36232E+00  1.47989E+01  1.51343E+01 -6.23678E+00 -7.26092E+00  3.05194E+00 -1.57240E+01  5.90337E+00  1.51182E+00  4.15187E+00
   8.15129E+00  1.69248E+01  5.39321E+00  2.28849E+01 -5.53345E+00  1.35629E+01  4.29912E+00  1.30385E+00 -1.13617E+01 -1.90320E+00
  -1.03752E+00  1.51190E+00  5.31823E+00  4.64751E+00  1.22629E+00  2.89467E+00 -1.28005E+01 -9.03400E+00 -7.60494E+00 -7.06672E+00
  -4.44565E-01  2.67207E+00  1.28849E+01  3.22092E+00 -4.60295E+00  5.10872E+00 -1.20293E+00  4.67269E-01 -1.90968E+00  2.14109E+00
  -1.69354E+01  4.25437E+00 -2.51928E+00 -7.16605E+00 -9.18830E+00 -2.14398E-02 -1.19173E+01 -6.77075E-01 -1.54798E+01  3.80364E+00
  -8.06370E+00  2.94642E+00  4.11252E+00  4.81741E+00 -7.16472E+00 -6.73392E+00  4.28278E+00  7.81457E+00 -1.42368E+00 -6.53683E+00
  -8.56375E+00  5.12995E+00  2.22339E+00  9.68348E-01  1.69535E+01 -8.76187E+00 -9.47045E+00 -2.01183E+01 -1.12651E+01 -1.68997E+01
  -1.39156E+01 -9.44053E+00 -1.70821E+00 -1.08221E+01  4.93938E+00 -4.91060E-02 -7.24666E+00  7.92085E+00 -7.90674E+00  3.89580E+00
   1.06527E+00 -1.82709E+01  1.59671E+01 -1.90289E+01 -5.69720E+00 -1.05047E+01 -3.57723E-02  9.30698E-01 -1.07502E+00 -1.75253E+01
  -2.26107E+01 -2.64287E-01 -2.46946E+00 -5.92381E+00 -2.15166E+01 -1.59503E+01 -1.06557E+01 -7.75916E+00 -2.66065E+00  8.44152E+00
  -1.11120E+01  1.51381E+01  1.19302E+00 -8.24427E+00  3.75373E+00  1.46146E+01  9.38317E+00  3.53381E+00 -6.74985E+00 -5.05487E+00
  -1.12768E+00 -6.44573E+00  1.71881E+01 -1.18206E+01 -4.17888E+00 -1.18419E+00 -7.43959E+00 -1.39054E+00  1.08605E+01 -2.57591E+00
   5.78474E+00  3.26544E+00  1.13021E+00 -2.62501E+00  2.98684E+00  2.93060E+00  3.20887E+00 -4.23690E+00  4.25388E+00  5.91387E-01
  -8.31207E-01  7.03646E+00 -1.16665E+01 -4.71868E+00  1.85795E+00  9.93387E+00  1.46743E+01 -2.92751E+01 -2.66745E+00 -2.29598E+01
  -1.59804E+01 -1.38168E+01 -2.30407E+01 -1.61458E+01  3.10707E+00 -4.69635E+00 -1.14551E+00  7.99263E+00  1.93642E+00  7.65692E+00
  -5.84370E+00 -6.48908E-01 -5.23150E+00 -1.20823E+01  6.58721E+00 -2.16712E+00  9.51308E+00  1.33566E+01  9.19524E+00  1.22472E+01
  -7.93834E+00 -1.85508E+00 -1.38015E+00 -9.99779E-01  1.68748E+00 -4.66439E+00  1.21212E+01  8.39182E+00  8.20773E+00  6.40632E+00
  -2.42533E+00  1.29217E+01  1.54505E+01 -2.66956E+00 -5.21912E+00 -9.85964E+00  3.35751E-01 -7.74985E+00 -1.75233E+01 -8.85536E+00
  -6.65257E+00  2.15849E+00 -4.68595E+00 -1.61254E+01 -3.19888E+00  3.10669E+00 -1.01321E+01 -1.27709E+01 -7.42525E+00 -9.72850E+00
  -5.36917E+00 -7.61039E+00 -6.79952E+00 -2.20542E+01 -2.36619E+01 -7.33912E-02 -3.03577E+00 -9.85611E+00  1.37745E+01 -1.99237E+01
   3.16012E+00  3.79586E+00 -5.96301E+00 -3.63832E+00  3.43602E+00 -1.73624E+01  5.66853E+00 -7.20049E+00  1.35655E+00 -1.90283E+00
  -1.13331E+01  1.24745E+01 -4.44933E+00 -3.06890E+01  7.18729E+00 -4.24792E+00  4.08005E+00  1.56073E+00 -3.43487E+00  7.07277E+00
   4.10870E+00 -8.08113E+00 -1.14149E+01 -6.05417E+00 -4.34388E+00 -6.61932E+00 -4.71709E+00 -1.08099E+01  4.06439E+00 -1.05033E+01
  -2.80094E+00 -1.58002E+01 -1.14160E+01 -1.40873E+00 -2.02777E+00 -1.82106E+01 -3.05431E+00 -1.72931E+00 -3.57205E+00 -4.07513E+00
   1.98095E+00 -9.41043E+00 -6.90914E+00 -1.33543E+01  4.23101E+00  1.52880E+01  4.35055E-01  7.23271E+00 -6.48403E+00  3.18288E+00
   3.73167E+00  8.05967E+00  6.01649E+00  5.86606E+00  1.14547E+01  1.31631E+01  5.53268E+00  1.87549E+01  2.14592E+01  1.85671E+01
   1.67144E+01  1.31903E+01  1.09615E+01  2.12294E+01  2.04440E+01  3.01802E+01  1.36917E+01  2.34713E+01  1.73385E+01  1.47654E+01
   1.52718E+01  1.73739E+00  1.30557E+01  4.04722E-01  2.48098E+01  1.35080E+01  1.55953E+01  1.46869E+01  2.29626E+01  1.13959E+01
   2.07775E+01  1.18745E+01  7.20649E+00  1.92759E+01  1.63464E+01  2.46306E+01 -9.61699E+00  4.19093E-01 -1.43810E+01 -5.71773E+00
   5.26743E+00  8.86704E+00 -9.44265E+00  7.16482E+00 -3.85688E+00  4.93397E+00 -2.17830E+00  3.48602E+00  7.53230E+00  9.68319E+00
   1.94489E+01 -1.01366E+01 -4.35197E+00 -2.09053E+00  1.33756E+00 -9.38313E+00  6.52878E+00  2.27681E+00 -6.98005E+00 -9.39885E+00
  -1.07848E+01 -7.12754E+00 -5.65249E+00  8.67910E+00 -3.62964E+00  5.95112E+00  4.08929E+00  2.00749E+00 -9.11367E+00 -2.20675E+00
  -9.23722E+00 -7.42982E+00 -1.41991E+00  1.06142E+01 -6.20637E+00  4.63959E+00 -1.43030E+01  2.08062E+00  1.84013E+01  8.93995E+00
  -1.36747E+00  2.76807E+00  1.62791E+00 -1.35757E+01  8.11306E+00  2.77241E+00 -9.30200E+00  7.59512E+00 -2.25642E+00  1.39417E+01
   1.26084E+01  4.25465E+00 -7.05062E+00  9.00743E+00  3.96550E+00 -5.49905E+00  1.01284E+01  9.85227E+00 -4.29664E-01  7.78825E+00
   1.07167E+01 -9.29205E+00  8.42458E+00  3.57425E-01  1.06468E+01 -4.24689E+00 -4.52179E+00  5.18520E+00  8.04626E+00  1.18502E+01
   8.81346E+00  4.75905E+00 -1.74781E-01  5.81753E+00 -6.60294E+00 -7.46452E+00  9.18003E+00  5.10994E+00  1.40308E+01 -3.36042E+00
   7.58378E+00  6.73857E+00 -4.19834E+00  7.80062E+00  1.42612E+01 -8.99621E+00  6.86178E+00 -7.27995E+00  1.40238E-01  2.38357E+00
   8.46406E+00 -3.03283E+00 -6.22598E+00 -8.94618E+00 -5.09966E-01 -1.18133E+01 -1.18288E+01 -1.26758E+01  1.40802E+00 -2.53846E+00
   7.20561E-02  5.88212E+00 -6.07206E+00  2.32871E-01  4.26374E+00 -5.42654E+00 -6.56545E+00 -6.41945E+00 -6.47737E+00  1.40287E+01
  -5.08223E-01 -8.77563E-01 -2.49978E+00  1.11886E+01 -3.28134E+00  6.40762E+00  1.23833E+00 -7.37905E-01
 NY points of the fit to the data follow
  -6.19025E+00 -6.14644E+00 -6.12914E+00 -6.17517E+00 -6.15564E+00 -5.61982E+00 -4.48643E+00 -3.20122E+00 -2.18694E+00 -1.65171E+00
  -1.57979E+00 -1.86528E+00 -2.45164E+00 -3.33809E+00 -4.43584E+00 -5.46629E+00 -6.11794E+00 -6.29115E+00 -6.16157E+00 -6.00288E+00
  -5.90013E+00 -5.81845E+00 -5.75883E+00 -5.73077E+00 -5.74044E+00 -5.78322E+00 -5.84552E+00 -5.90051E+00 -5.91822E+00 -5.89357E+00
  -5.83686E+00 -5.76363E+00 -5.68662E+00 -5.61442E+00 -5.54839E+00 -5.48831E+00 -5.44497E+00 -5.45311E+00 -5.50571E+00 -5.58674E+00
  -5.67864E+00 -5.74999E+00 -5.79280E+00 -5.81650E+00 -5.81983E+00 -5.81405E+00 -5.79303E+00 -5.73207E+00 -5.63924E+00 -5.54117E+00
  -5.45646E+00 -5.38708E+00 -5.33738E+00 -5.30263E+00 -5.28371E+00 -5.28945E+00 -5.31722E+00 -5.35234E+00 -5.37836E+00 -5.37979E+00
  -5.35584E+00 -5.31612E+00 -5.27676E+00 -5.24234E+00 -5.22257E+00 -5.22358E+00 -5.23633E+00 -5.24992E+00 -5.25965E+00 -5.23964E+00
  -5.16329E+00 -5.05423E+00 -4.95319E+00 -4.89115E+00 -4.88471E+00 -4.92761E+00 -4.98963E+00 -5.04958E+00 -5.09589E+00 -5.10634E+00
  -5.01153E+00 -4.79159E+00 -4.52696E+00 -4.31104E+00 -4.19758E+00 -4.18327E+00 -4.23679E+00 -4.34011E+00 -4.49748E+00 -4.69953E+00
  -4.90258E+00 -5.04701E+00 -5.08352E+00 -4.99935E+00 -4.84176E+00 -4.61225E+00 -4.10164E+00 -2.27050E+00  1.64583E+00  6.33935E+00
   1.02499E+01  1.24718E+01  1.28794E+01  1.18119E+01  9.63089E+00  6.52812E+00  2.77169E+00 -8.97308E-01 -3.53332E+00 -4.67200E+00
  -4.67196E+00 -4.40599E+00 -4.36983E+00 -4.39880E+00 -4.42878E+00 -4.45287E+00 -4.46842E+00 -4.47455E+00 -4.46383E+00 -4.40119E+00
  -4.08711E+00 -2.92304E+00 -9.71034E-01  1.06016E+00  2.57654E+00  3.31093E+00  3.29273E+00  2.67413E+00  1.57511E+00  6.39330E-02
  -1.64723E+00 -3.15045E+00 -4.07477E+00 -4.34979E+00 -4.24544E+00 -4.14010E+00 -4.10545E+00 -4.08073E+00 -4.05637E+00 -4.02836E+00
  -3.98707E+00 -3.93424E+00 -3.88328E+00 -3.84213E+00 -3.81089E+00 -3.78309E+00 -3.75652E+00 -3.73580E+00 -3.72315E+00 -3.71400E+00
  -3.69853E+00 -3.67166E+00 -3.63679E+00 -3.60342E+00 -3.58980E+00 -3.62115E+00 -3.69338E+00 -3.77477E+00 -3.83118E+00 -3.83073E+00
  -3.78616E+00 -3.72705E+00 -3.66967E+00 -3.61970E+00 -3.58183E+00 -3.56838E+00 -3.59288E+00 -3.65692E+00 -3.74206E+00 -3.82318E+00
  -3.90500E+00 -3.99538E+00 -4.06232E+00 -4.08903E+00 -4.07833E+00 -4.06579E+00 -4.07298E+00 -4.08294E+00 -4.07140E+00 -4.02824E+00
  -3.98146E+00 -3.97612E+00 -4.00215E+00 -3.99899E+00 -3.93226E+00 -3.81859E+00 -3.70720E+00 -3.63024E+00 -3.57804E+00 -3.52079E+00
  -3.44470E+00 -3.35321E+00 -3.27964E+00 -3.24981E+00 -3.25596E+00 -3.27919E+00 -3.31517E+00 -3.35478E+00 -3.36515E+00 -3.34503E+00
  -3.30551E+00 -3.25302E+00 -3.19608E+00 -3.14605E+00 -3.11738E+00 -3.12281E+00 -3.16783E+00 -3.26539E+00 -3.39212E+00 -3.49641E+00
  -3.54947E+00 -3.55451E+00 -3.53055E+00 -3.48295E+00 -3.41210E+00 -3.31797E+00 -3.20584E+00 -3.08455E+00 -2.96088E+00 -2.83943E+00
  -2.72615E+00 -2.62642E+00 -2.55338E+00 -2.51804E+00 -2.52560E+00 -2.57566E+00 -2.64707E+00 -2.70607E+00 -2.72808E+00 -2.70470E+00
  -2.64343E+00 -2.56108E+00 -2.47319E+00 -2.38988E+00 -2.31985E+00 -2.27232E+00 -2.24978E+00 -2.24359E+00 -2.23906E+00 -2.22652E+00
  -2.20644E+00 -2.18219E+00 -2.15450E+00 -2.12362E+00 -2.08997E+00 -2.05387E+00 -2.01552E+00 -1.97509E+00 -1.93281E+00 -1.88864E+00
  -1.84113E+00 -1.78455E+00 -1.69803E+00 -1.46256E+00 -4.49890E-01  1.81758E+00  4.59396E+00  6.96942E+00  8.39872E+00  8.77342E+00
   8.26204E+00  7.05895E+00  5.27053E+00  3.05265E+00  8.39857E-01 -8.03941E-01 -1.58384E+00 -1.68680E+00 -1.61495E+00 -1.65853E+00
  -1.72123E+00 -1.76376E+00 -1.78903E+00 -1.80749E+00 -1.82801E+00 -1.85773E+00 -1.89970E+00 -1.95126E+00 -2.00841E+00 -2.06615E+00
  -2.11621E+00 -2.15198E+00 -2.17222E+00 -2.17894E+00 -2.17633E+00 -2.16889E+00 -2.15939E+00 -2.14999E+00 -2.14409E+00 -2.14279E+00
  -2.14474E+00 -2.14749E+00 -2.14891E+00 -2.14835E+00 -2.14588E+00 -2.14117E+00 -2.13403E+00 -2.12484E+00 -2.11409E+00 -2.10211E+00
  -2.08927E+00 -2.07586E+00 -2.06167E+00 -2.04653E+00 -2.03029E+00 -2.01285E+00 -1.99412E+00 -1.97404E+00 -1.95250E+00 -1.92929E+00
  -1.90416E+00 -1.87685E+00 -1.84704E+00 -1.81431E+00 -1.77805E+00 -1.73740E+00 -1.69117E+00 -1.63760E+00 -1.57373E+00 -1.49374E+00
  -1.38292E+00 -1.21325E+00 -1.02285E+00 -8.96492E-01 -8.67500E-01 -9.22261E-01 -1.02519E+00 -1.14561E+00 -1.26885E+00 -1.33507E+00
  -1.23935E+00 -9.42355E-01 -4.70629E-01  1.05254E-01  7.09391E-01  1.29884E+00  1.87975E+00  2.46433E+00  3.04707E+00  3.64156E+00
   4.28932E+00  5.03685E+00  5.90434E+00  6.87030E+00  7.90194E+00  8.98560E+00  1.01064E+01  1.12454E+01  1.23809E+01  1.34888E+01
   1.45438E+01  1.55201E+01  1.63926E+01  1.71381E+01  1.77366E+01  1.81720E+01  1.84329E+01  1.85136E+01  1.84138E+01  1.81392E+01
   1.77006E+01  1.71135E+01  1.63973E+01  1.55742E+01  1.46681E+01  1.37034E+01  1.27042E+01  1.16929E+01  1.06899E+01  9.71299E+00
   8.77668E+00  7.89243E+00  7.06848E+00  6.31012E+00  5.62000E+00  4.99851E+00  4.44424E+00  3.95439E+00  3.52513E+00  3.15203E+00
   2.83033E+00  2.55528E+00  2.32226E+00  2.12694E+00  1.96533E+00  1.83387E+00  1.72942E+00  1.64926E+00  1.59104E+00  1.55269E+00
   1.53235E+00  1.52838E+00  1.53922E+00  1.56337E+00  1.59933E+00  1.64548E+00  1.70013E+00  1.76148E+00  1.82760E+00  1.89646E+00
   1.96592E+00  2.03380E+00  2.09791E+00  2.15615E+00  2.20656E+00  2.24739E+00  2.27715E+00  2.29465E+00  2.29910E+00  2.29011E+00
   2.26769E+00  2.23226E+00  2.18456E+00  2.12567E+00  2.05694E+00  1.97993E+00  1.89631E+00  1.80779E+00  1.71607E+00  1.62275E+00
   1.52936E+00  1.43724E+00  1.34754E+00  1.26120E+00  1.17896E+00  1.10136E+00  1.02877E+00  9.61404E-01  8.99316E-01  8.42439E-01
   7.90616E-01  7.43642E-01  7.01259E-01  6.63181E-01  6.29085E-01  5.98650E-01  5.71563E-01  5.47543E-01  5.26316E-01  5.07623E-01
   4.91210E-01  4.76857E-01  4.64368E-01  4.53581E-01  4.44335E-01  4.36488E-01  4.29895E-01  4.24448E-01  4.20047E-01  4.16618E-01
   4.14073E-01  4.12336E-01  4.11330E-01  4.11005E-01  4.11314E-01  4.12221E-01  4.13673E-01  4.15626E-01  4.18037E-01  4.20888E-01
   4.24152E-01  4.27811E-01  4.31826E-01  4.36171E-01  4.40824E-01  4.45779E-01  4.51022E-01  4.56538E-01  4.62296E-01  4.68284E-01
   4.74491E-01  4.80918E-01  4.87552E-01  4.94380E-01  5.01379E-01  5.08544E-01  5.15872E-01  5.23366E-01  5.31012E-01  5.38799E-01
   5.46708E-01  5.54743E-01  5.62903E-01  5.71190E-01  5.79588E-01  5.88089E-01  5.96679E-01  6.05367E-01  6.14151E-01  6.23032E-01
   6.31991E-01  6.41023E-01  6.50120E-01  6.59291E-01  6.68534E-01  6.77846E-01  6.87208E-01  6.96616E-01
 NY background values follow
    -6.341E+00   -6.327E+00   -6.314E+00   -6.300E+00   -6.287E+00   -6.274E+00   -6.260E+00   -6.247E+00   -6.233E+00   -6.220E+00
    -6.206E+00   -6.193E+00   -6.180E+00   -6.166E+00   -6.153E+00   -6.139E+00   -6.126E+00   -6.112E+00   -6.099E+00   -6.085E+00
    -6.072E+00   -6.059E+00   -6.045E+00   -6.032E+00   -6.018E+00   -6.005E+00   -5.991E+00   -5.978E+00   -5.965E+00   -5.951E+00
    -5.938E+00   -5.924E+00   -5.911E+00   -5.897E+00   -5.884E+00   -5.870E+00   -5.857E+00   -5.844E+00   -5.830E+00   -5.817E+00
    -5.803E+00   -5.790E+00   -5.776E+00   -5.763E+00   -5.749E+00   -5.736E+00   -5.722E+00   -5.709E+00   -5.696E+00   -5.682E+00
    -5.669E+00   -5.655E+00   -5.642E+00   -5.628E+00   -5.615E+00   -5.601E+00   -5.588E+00   -5.575E+00   -5.561E+00   -5.548E+00
    -5.534E+00   -5.521E+00   -5.507E+00   -5.494E+00   -5.480E+00   -5.467E+00   -5.453E+00   -5.440E+00   -5.427E+00   -5.413E+00
    -5.400E+00   -5.386E+00   -5.373E+00   -5.359E+00   -5.346E+00   -5.332E+00   -5.319E+00   -5.305E+00   -5.292E+00   -5.278E+00
    -5.265E+00   -5.252E+00   -5.238E+00   -5.225E+00   -5.211E+00   -5.198E+00   -5.184E+00   -5.171E+00   -5.157E+00   -5.144E+00
    -5.130E+00   -5.117E+00   -5.104E+00   -5.090E+00   -5.077E+00   -5.063E+00   -5.050E+00   -5.036E+00   -5.023E+00   -5.009E+00
    -4.996E+00   -4.982E+00   -4.969E+00   -4.955E+00   -4.942E+00   -4.929E+00   -4.915E+00   -4.902E+00   -4.888E+00   -4.875E+00
    -4.861E+00   -4.848E+00   -4.834E+00   -4.821E+00   -4.807E+00   -4.794E+00   -4.780E+00   -4.767E+00   -4.753E+00   -4.740E+00
    -4.727E+00   -4.713E+00   -4.700E+00   -4.686E+00   -4.673E+00   -4.659E+00   -4.646E+00   -4.632E+00   -4.619E+00   -4.605E+00
    -4.592E+00   -4.578E+00   -4.565E+00   -4.552E+00   -4.538E+00   -4.525E+00   -4.511E+00   -4.498E+00   -4.484E+00   -4.471E+00
    -4.457E+00   -4.444E+00   -4.430E+00   -4.417E+00   -4.403E+00   -4.390E+00   -4.376E+00   -4.363E+00   -4.350E+00   -4.336E+00
    -4.323E+00   -4.309E+00   -4.296E+00   -4.282E+00   -4.269E+00   -4.255E+00   -4.242E+00   -4.228E+00   -4.215E+00   -4.201E+00
    -4.188E+00   -4.174E+00   -4.161E+00   -4.148E+00   -4.134E+00   -4.121E+00   -4.107E+00   -4.094E+00   -4.080E+00   -4.067E+00
    -4.053E+00   -4.040E+00   -4.026E+00   -4.013E+00   -3.999E+00   -3.986E+00   -3.973E+00   -3.959E+00   -3.946E+00   -3.932E+00
    -3.919E+00   -3.905E+00   -3.892E+00   -3.878E+00   -3.865E+00   -3.851E+00   -3.838E+00   -3.824E+00   -3.811E+00   -3.798E+00
    -3.784E+00   -3.771E+00   -3.757E+00   -3.744E+00   -3.730E+00   -3.717E+00   -3.703E+00   -3.690E+00   -3.676E+00   -3.663E+00
    -3.649E+00   -3.636E+00   -3.623E+00   -3.609E+00   -3.596E+00   -3.582E+00   -3.569E+00   -3.555E+00   -3.542E+00   -3.528E+00
    -3.515E+00   -3.501E+00   -3.488E+00   -3.475E+00   -3.461E+00   -3.448E+00   -3.434E+00   -3.421E+00   -3.407E+00   -3.394E+00
    -3.380E+00   -3.367E+00   -3.353E+00   -3.340E+00   -3.327E+00   -3.313E+00   -3.300E+00   -3.286E+00   -3.273E+00   -3.259E+00
    -3.246E+00   -3.232E+00   -3.219E+00   -3.205E+00   -3.192E+00   -3.179E+00   -3.165E+00   -3.152E+00   -3.138E+00   -3.125E+00
    -3.111E+00   -3.098E+00   -3.084E+00   -3.071E+00   -3.058E+00   -3.044E+00   -3.031E+00   -3.017E+00   -3.004E+00   -2.990E+00
    -2.977E+00   -2.963E+00   -2.950E+00   -2.937E+00   -2.923E+00   -2.910E+00   -2.896E+00   -2.883E+00   -2.869E+00   -2.856E+00
    -2.843E+00   -2.829E+00   -2.816E+00   -2.802E+00   -2.789E+00   -2.775E+00   -2.762E+00   -2.748E+00   -2.735E+00   -2.722E+00
    -2.708E+00   -2.695E+00   -2.681E+00   -2.668E+00   -2.654E+00   -2.641E+00   -2.628E+00   -2.614E+00   -2.601E+00   -2.587E+00
    -2.574E+00   -2.560E+00   -2.547E+00   -2.534E+00   -2.520E+00   -2.507E+00   -2.493E+00   -2.480E+00   -2.466E+00   -2.453E+00
    -2.440E+00   -2.426E+00   -2.413E+00   -2.399E+00   -2.386E+00   -2.373E+00   -2.359E+00   -2.346E+00   -2.332E+00   -2.319E+00
    -2.305E+00   -2.292E+00   -2.279E+00   -2.265E+00   -2.252E+00   -2.238E+00   -2.225E+00   -2.212E+00   -2.198E+00   -2.185E+00
    -2.171E+00   -2.158E+00   -2.144E+00   -2.131E+00   -2.118E+00   -2.104E+00   -2.091E+00   -2.077E+00   -2.064E+00   -2.051E+00
    -2.037E+00   -2.024E+00   -2.010E+00   -1.997E+00   -1.984E+00   -1.970E+00   -1.957E+00   -1.943E+00   -1.930E+00   -1.917E+00
    -1.903E+00   -1.890E+00   -1.876E+00   -1.863E+00   -1.850E+00   -1.836E+00   -1.823E+00   -1.809E+00   -1.796E+00   -1.783E+00
    -1.769E+00   -1.756E+00   -1.742E+00   -1.729E+00   -1.716E+00   -1.702E+00   -1.689E+00   -1.676E+00   -1.662E+00   -1.649E+00
    -1.635E+00   -1.622E+00   -1.609E+00   -1.595E+00   -1.582E+00   -1.569E+00   -1.555E+00   -1.542E+00   -1.528E+00   -1.515E+00
    -1.502E+00   -1.488E+00   -1.475E+00   -1.462E+00   -1.448E+00   -1.435E+00   -1.421E+00   -1.408E+00   -1.395E+00   -1.381E+00
    -1.368E+00   -1.355E+00   -1.341E+00   -1.328E+00   -1.314E+00   -1.301E+00   -1.288E+00   -1.274E+00   -1.261E+00   -1.248E+00
    -1.234E+00   -1.221E+00   -1.208E+00   -1.194E+00   -1.181E+00   -1.168E+00   -1.154E+00   -1.141E+00   -1.127E+00   -1.114E+00
    -1.101E+00   -1.087E+00   -1.074E+00   -1.061E+00   -1.047E+00   -1.034E+00   -1.021E+00   -1.007E+00   -9.940E-01   -9.807E-01
    -9.674E-01   -9.540E-01   -9.407E-01   -9.274E-01   -9.140E-01   -9.007E-01   -8.874E-01   -8.740E-01   -8.607E-01   -8.474E-01
    -8.340E-01   -8.207E-01   -8.074E-01   -7.941E-01   -7.807E-01   -7.674E-01   -7.541E-01   -7.408E-01   -7.274E-01   -7.141E-01
    -7.008E-01   -6.875E-01   -6.742E-01   -6.609E-01   -6.475E-01   -6.342E-01   -6.209E-01   -6.076E-01   -5.943E-01   -5.810E-01
    -5.677E-01   -5.544E-01   -5.411E-01   -5.278E-01   -5.145E-01   -5.012E-01   -4.879E-01   -4.746E-01   -4.613E-01   -4.480E-01
    -4.347E-01   -4.214E-01   -4.081E-01   -3.948E-01   -3.815E-01   -3.682E-01   -3.549E-01   -3.416E-01   -3.283E-01   -3.151E-01
    -3.018E-01   -2.885E-01   -2.752E-01   -2.619E-01   -2.486E-01   -2.354E-01   -2.221E-01   -2.088E-01   -1.955E-01   -1.823E-01
    -1.690E-01   -1.557E-01   -1.424E-01   -1.292E-01   -1.159E-01   -1.026E-01   -8.938E-02   -7.611E-02   -6.285E-02   -4.959E-02
    -3.633E-02   -2.307E-02   -9.810E-03    3.447E-03    1.670E-02    2.996E-02    4.321E-02    5.646E-02    6.971E-02    8.296E-02
     9.621E-02    1.095E-01    1.227E-01    1.359E-01    1.492E-01    1.624E-01    1.757E-01    1.889E-01    2.021E-01    2.154E-01
     2.286E-01    2.419E-01    2.551E-01    2.683E-01    2.815E-01    2.948E-01    3.080E-01    3.212E-01
 Ala      Conc. = 4.31E+01
