 LCModel (Version 6.3-1L) Copyright: S.W. Provencher.          Ref.: Magn. Reson. Med. 30:672-679 (1993).                
 Slice#2 Row#7 Col#12  PD_05_press_2_raw_act
 36 lines in following concentration table = NCONC+1
    Conc.  %SD /Cr+PCr  Metabolite                                         
  411.843  69%   0.000 Ala                                                 
   83.444 112%   0.000 Asp                                                 
    0.000 999%   0.000 Cr                                                  
    0.000 999%   0.000 PCr                                                 
   54.000 105%   0.000 GABA                                                
   46.915 120%   0.000 Glc                                                 
  309.175 175%   0.000 Gln                                                 
 1.27E+03  48%   0.000 Glu                                                 
    0.000 999%   0.000 GPC                                                 
    0.000 999%   0.000 PCh                                                 
    0.000 999%   0.000 GSH                                                 
  537.961  51%   0.000 Ins                                                 
  610.320  57%   0.000 Lac                                                 
 1.89E+03  12%   0.000 NAA                                                 
  106.529 235%   0.000 NAAG                                                
   16.985  99%   0.000 Scyllo                                              
   58.645 151%   0.000 Tau                                                 
    0.000 999%   0.000 -CrCH2                                              
    0.000 999%   0.000 GPC+PCh                                             
 2.00E+03   6%   0.000 NAA+NAAG                                            
    0.000 999%   0.000 Cr+PCr                                              
 1.58E+03  62%   0.000 Glu+Gln                                             
  271.964 393%   0.000 Lip13a                                              
  562.015 131%   0.000 Lip13b                                              
  166.307  96%   0.000 Lip09                                               
 1.13E+03  20%   0.000 MM09                                                
  150.462  65%   0.000 Lip20                                               
 2.01E+03  19%   0.000 MM20                                                
  342.460  38%   0.000 MM12                                                
 1.41E+03  25%   0.000 MM14                                                
 1.04E+03  21%   0.000 MM17                                                
  833.979  59%   0.000 Lip13a+Lip13b                                       
 2.59E+03  15%   0.000 MM14+Lip13a+Lip13b+MM12                             
 1.30E+03  12%   0.000 MM09+Lip09                                          
 2.16E+03  17%   0.000 MM20+Lip20                                          
   6 lines in following misc. output table
  FWHM = 0.092 ppm    S/N =   6                                            
  Data shift = 0.023 ppm                                                   
  Ph: -73 deg     -29.0 deg/ppm                                            
  alphaB,S = 8.5E+01,   4.1E+02                                            
   14 spline knots.   Ns =11(1)                                            
   2 inflections.     1 extrema                                            
  498 points on ppm-axis = NY
      4.000000     3.992357     3.984714     3.977070     3.969427     3.961784     3.954141     3.946497     3.938854     3.931211
      3.923568     3.915925     3.908281     3.900638     3.892995     3.885352     3.877708     3.870065     3.862422     3.854779
      3.847136     3.839492     3.831849     3.824206     3.816563     3.808919     3.801276     3.793633     3.785990     3.778347
      3.770703     3.763060     3.755417     3.747774     3.740130     3.732487     3.724844     3.717201     3.709558     3.701914
      3.694271     3.686628     3.678985     3.671341     3.663698     3.656055     3.648412     3.640769     3.633125     3.625482
      3.617839     3.610196     3.602552     3.594909     3.587266     3.579623     3.571980     3.564336     3.556693     3.549050
      3.541407     3.533763     3.526120     3.518477     3.510834     3.503191     3.495547     3.487904     3.480261     3.472618
      3.464974     3.457331     3.449688     3.442045     3.434402     3.426758     3.419115     3.411472     3.403829     3.396185
      3.388542     3.380899     3.373256     3.365613     3.357969     3.350326     3.342683     3.335040     3.327396     3.319753
      3.312110     3.304467     3.296824     3.289180     3.281537     3.273894     3.266251     3.258607     3.250964     3.243321
      3.235678     3.228034     3.220391     3.212748     3.205105     3.197462     3.189818     3.182175     3.174532     3.166889
      3.159245     3.151602     3.143959     3.136316     3.128673     3.121029     3.113386     3.105743     3.098100     3.090456
      3.082813     3.075170     3.067527     3.059884     3.052240     3.044597     3.036954     3.029311     3.021667     3.014024
      3.006381     2.998738     2.991095     2.983451     2.975808     2.968165     2.960522     2.952878     2.945235     2.937592
      2.929949     2.922306     2.914662     2.907019     2.899376     2.891733     2.884089     2.876446     2.868803     2.861160
      2.853517     2.845873     2.838230     2.830587     2.822944     2.815300     2.807657     2.800014     2.792371     2.784728
      2.777084     2.769441     2.761798     2.754155     2.746511     2.738868     2.731225     2.723582     2.715939     2.708295
      2.700652     2.693009     2.685366     2.677722     2.670079     2.662436     2.654793     2.647150     2.639506     2.631863
      2.624220     2.616577     2.608933     2.601290     2.593647     2.586004     2.578361     2.570717     2.563074     2.555431
      2.547788     2.540144     2.532501     2.524858     2.517215     2.509572     2.501928     2.494285     2.486642     2.478999
      2.471355     2.463712     2.456069     2.448426     2.440783     2.433139     2.425496     2.417853     2.410210     2.402566
      2.394923     2.387280     2.379637     2.371994     2.364350     2.356707     2.349064     2.341421     2.333777     2.326134
      2.318491     2.310848     2.303205     2.295561     2.287918     2.280275     2.272632     2.264988     2.257345     2.249702
      2.242059     2.234416     2.226772     2.219129     2.211486     2.203843     2.196199     2.188556     2.180913     2.173270
      2.165627     2.157983     2.150340     2.142697     2.135054     2.127410     2.119767     2.112124     2.104481     2.096838
      2.089194     2.081551     2.073908     2.066265     2.058621     2.050978     2.043335     2.035692     2.028049     2.020405
      2.012762     2.005119     1.997476     1.989833     1.982190     1.974546     1.966903     1.959260     1.951617     1.943974
      1.936331     1.928688     1.921045     1.913402     1.905759     1.898115     1.890472     1.882829     1.875186     1.867543
      1.859900     1.852257     1.844614     1.836971     1.829327     1.821684     1.814041     1.806398     1.798755     1.791112
      1.783469     1.775826     1.768183     1.760540     1.752896     1.745253     1.737610     1.729967     1.722324     1.714681
      1.707038     1.699395     1.691752     1.684108     1.676465     1.668822     1.661179     1.653536     1.645893     1.638250
      1.630607     1.622964     1.615321     1.607677     1.600034     1.592391     1.584748     1.577105     1.569462     1.561819
      1.554176     1.546533     1.538890     1.531246     1.523603     1.515960     1.508317     1.500674     1.493031     1.485388
      1.477745     1.470102     1.462458     1.454815     1.447172     1.439529     1.431886     1.424243     1.416600     1.408957
      1.401314     1.393671     1.386027     1.378384     1.370741     1.363098     1.355455     1.347812     1.340169     1.332526
      1.324883     1.317240     1.309596     1.301953     1.294310     1.286667     1.279024     1.271381     1.263738     1.256095
      1.248452     1.240808     1.233165     1.225522     1.217879     1.210236     1.202593     1.194950     1.187307     1.179664
      1.172021     1.164377     1.156734     1.149091     1.141448     1.133805     1.126162     1.118519     1.110876     1.103233
      1.095590     1.087946     1.080303     1.072660     1.065017     1.057374     1.049731     1.042088     1.034445     1.026802
      1.019158     1.011515     1.003872     0.996229     0.988586     0.980943     0.973300     0.965657     0.958014     0.950371
      0.942727     0.935084     0.927441     0.919798     0.912155     0.904512     0.896869     0.889226     0.881583     0.873940
      0.866296     0.858653     0.851010     0.843367     0.835724     0.828081     0.820438     0.812795     0.805152     0.797508
      0.789865     0.782222     0.774579     0.766936     0.759293     0.751650     0.744007     0.736364     0.728721     0.721077
      0.713434     0.705791     0.698148     0.690505     0.682862     0.675219     0.667576     0.659933     0.652290     0.644646
      0.637003     0.629360     0.621717     0.614074     0.606431     0.598788     0.591145     0.583502     0.575858     0.568215
      0.560572     0.552929     0.545286     0.537643     0.530000     0.522357     0.514714     0.507071     0.499427     0.491784
      0.484141     0.476498     0.468855     0.461212     0.453569     0.445925     0.438282     0.430639     0.422996     0.415353
      0.407710     0.400067     0.392424     0.384780     0.377137     0.369494     0.361851     0.354208     0.346565     0.338922
      0.331278     0.323635     0.315992     0.308349     0.300706     0.293063     0.285420     0.277777     0.270133     0.262490
      0.254847     0.247204     0.239561     0.231918     0.224275     0.216631     0.208988     0.201345
 NY phased data points follow
   4.61940E+00  3.32077E+00  6.11550E+00  1.04549E+01  4.30461E+00 -3.49274E+00  3.27784E+00  8.50495E+00  8.69301E+00  3.02545E+00
   2.37868E+00 -3.11162E+00  6.59215E+00  5.37832E+00  2.07982E+00  7.24342E+00  4.90409E+00  7.06457E+00  4.38805E+00  7.46926E-01
   1.10341E+01  5.38161E-01  5.94581E+00  1.98551E+00  3.67955E+00  9.66652E+00  1.12958E+00  9.03500E+00  4.66189E+00  1.04769E+00
   5.72473E+00 -1.31873E+00  8.52720E+00  5.00143E+00  1.15136E+00  6.93004E+00  3.33018E+00  3.12589E+00  3.37649E+00  5.34000E+00
   9.36515E+00  3.98487E+00  5.15704E+00  7.44365E+00  9.13795E+00  1.65148E+00  5.45607E+00  1.36740E+01  2.57867E+00  3.99540E+00
   4.95325E-02  1.62767E+00  1.37265E+00  3.19524E+00  8.10821E+00 -1.10600E+00  1.86928E+00  6.82782E+00  7.69821E+00  6.44257E+00
   5.13411E+00  4.80955E+00  3.66536E+00  1.06124E+01  1.06534E+00  3.42709E+00  4.70808E+00  8.16324E+00  1.00043E+01  3.92178E+00
   7.27271E-01  1.75010E+00 -3.20098E+00  7.18394E+00  3.80938E+00  6.40942E+00  8.53925E+00 -3.44188E+00  4.91953E+00  7.17425E+00
   8.46149E+00 -4.45927E+00  9.77000E-01  6.04608E-01  1.97136E+00  4.43213E+00  8.82472E-01  4.19867E+00  9.28684E+00  6.30515E+00
   2.12457E+00  3.87003E+00 -1.50284E+00  4.67876E+00  1.04410E+01  1.22762E+00 -5.57824E+00  7.09584E-01 -2.06152E+00  4.71671E+00
  -2.64574E+00  3.93822E+00  1.38221E+00  9.96756E-02 -2.47964E+00 -7.17597E-01  2.19088E+00  8.97596E+00  4.87704E+00  5.47702E+00
  -1.23454E+00  5.80437E+00  7.15339E+00  5.44221E+00 -4.56575E-01  4.28730E+00  6.83141E+00  2.73167E+00  2.51650E+00  1.45498E+00
   1.24540E+00 -4.05722E-01  2.94271E+00 -3.70344E-01 -5.13027E+00 -2.67970E+00 -5.72397E+00 -5.84728E-01  1.70268E+00 -1.33802E+00
   6.63834E-01  8.79801E+00  6.36286E+00  6.09646E+00  6.75370E+00  6.91673E+00 -1.15175E-01  1.16651E+01  9.71199E+00  3.92566E+00
   8.02976E+00  4.28568E+00  5.07817E+00  4.05096E+00 -2.13730E-01  4.26756E+00  8.19594E+00  5.61817E+00 -1.08633E+00  4.70168E+00
   3.07376E+00  6.03895E+00  4.09082E+00 -1.06123E+00  7.07439E+00  1.28261E+00  7.98437E+00  3.20665E+00  1.11139E+00  2.66940E+00
   5.03825E+00 -6.25862E+00  6.47340E+00  6.55105E+00  8.68530E+00 -1.99118E+00  9.81855E-01  1.10012E+00  2.56705E+00  9.44457E-01
   1.11917E+01  4.63868E+00 -1.81104E+00  4.06841E+00 -1.38993E+00  1.24634E+00 -2.51578E+00  3.20593E+00  4.86672E+00 -1.64867E+00
  -9.15050E-01  7.03295E-01 -1.25782E-01 -5.08888E+00  2.34536E+00 -1.57476E+00  5.83219E+00  5.95671E+00  7.62697E+00  7.15780E+00
   4.73939E+00  3.71912E+00  2.50441E-01  4.30018E+00 -8.46181E-01  3.76874E+00  2.26996E+00  9.27681E-01  4.95996E+00  2.68890E+00
   7.83092E-01  2.65360E+00  7.91032E+00  1.14819E+00  1.54164E+00  4.08204E+00  2.33634E+00  3.91722E+00 -3.44181E+00  3.87712E+00
  -1.84571E-01  3.96724E+00  3.52457E+00  1.05154E+01  1.01912E+01  4.05261E+00  6.33985E-02  5.20009E+00  1.51684E+00  1.59573E+00
   5.03897E+00  6.23464E+00  4.37604E-01  4.01655E+00  3.03937E+00  1.86625E+00  3.57204E+00  4.96134E+00  3.69434E+00  5.58625E+00
   7.75232E+00  8.44337E+00  1.00162E+01  9.57043E+00  4.86891E+00  1.01827E+01  5.53863E+00  7.35487E+00  7.69827E+00  3.68670E+00
   7.93056E+00  9.63860E+00  1.02503E+01  6.57697E+00  1.87004E+01  1.14893E+01  9.77133E+00  9.38752E+00  1.74664E+01  1.55173E+01
   1.76098E+01  1.54843E+01  2.35966E+01  2.99966E+01  3.68727E+01  4.27513E+01  4.22350E+01  4.75792E+01  5.21777E+01  6.52645E+01
   5.13007E+01  4.49983E+01  3.76274E+01  4.18871E+01  3.53519E+01  3.62031E+01  2.05274E+01  2.31071E+01  1.81458E+01  1.05964E+01
   9.56817E+00  1.11962E+01  8.68694E+00  1.09597E+01  1.73870E+01  1.21889E+01  4.28057E+00  1.12280E+01  4.06352E+00  6.78021E+00
   6.16358E+00  3.20598E+00  6.35691E+00  4.37202E+00 -3.59794E+00  4.06851E+00 -6.18057E+00  5.06114E+00  9.32683E+00  1.66311E+00
   4.49616E+00  3.50071E+00  2.33453E+00  1.06699E+00  7.50313E+00  8.49363E+00  9.22695E+00  7.20237E+00  5.23872E+00  9.59034E+00
   1.35178E+01  9.11283E+00  1.15044E+01  1.26553E+01  9.66894E+00  1.40053E+01  7.60807E+00  1.22267E+01  1.14813E+01  1.19016E+01
   1.26456E+01  1.40184E+01  5.54427E+00  9.28959E+00  1.18452E+01  1.64120E+01  1.33132E+01  1.69750E+01  6.82854E+00  1.12802E+01
   1.35341E+01  5.85900E+00  1.83420E+01  9.40758E+00  8.58344E+00  6.26856E+00  4.79561E+00  5.53408E+00  1.34919E+01  8.44292E+00
   1.12183E+01  9.96186E+00  1.17525E+01  1.13754E+01  1.19979E+01  7.56941E+00  7.74393E+00  1.05332E+01  1.80874E+01  1.68999E+01
   1.64330E+01  5.43250E+00  1.34911E+01  8.52054E+00  1.64033E+01  1.63635E+01  6.44852E+00  1.37372E+01  4.93027E+00  1.32540E+01
   8.16442E+00  8.92640E+00  1.14250E+01  1.05343E+01  1.36492E+01  1.26930E+01  1.07573E+01  1.12680E+01  7.22794E+00  1.27795E+01
   1.44804E+01  1.30577E+01  1.29434E+01  1.39742E+01  4.92041E+00  7.89804E+00  8.07485E+00  7.94336E+00  1.73963E+00  8.70613E+00
   3.20939E+00  6.26673E+00  3.56698E+00 -2.40919E+00  9.42254E+00 -2.64295E-01 -2.25477E+00  1.34793E+01  4.45804E+00  4.41438E+00
   4.22426E+00  7.96933E+00  1.24302E+00  9.79617E-02  1.47990E+00  5.44847E+00  6.06574E+00  1.14461E+01  5.78017E+00 -2.25449E+00
   3.21188E+00  1.65123E+00  5.25083E+00  8.94308E+00  3.94240E+00  7.47749E+00  2.90757E+00  6.47840E+00  1.04177E+01  6.36618E+00
   6.78374E+00  7.00530E+00  1.17341E+01  9.92769E+00  1.18461E+01  8.01225E+00  6.43494E+00  1.34604E+01  1.15854E+01  1.04901E+01
   1.50155E+01  7.16707E+00  8.59919E+00  2.35276E+00  5.93377E+00  1.33482E+01  5.96360E+00  6.16009E+00  7.76632E+00 -2.43528E+00
   3.28776E+00  7.02312E+00  5.49660E+00  6.41915E-01  1.64801E+00 -2.91549E+00  1.38461E+00  5.13148E+00  6.50134E+00  1.10519E+00
  -1.53340E+00 -6.91474E-01  7.27710E+00 -1.10421E+00 -1.58156E-01 -2.90489E+00 -2.13070E+00 -1.20535E+00 -1.17268E+00  9.23090E-02
   2.36678E-01  2.33967E+00  1.51513E+00 -3.16085E+00  4.34983E+00  3.48307E+00 -1.55426E+00 -1.52385E+00 -4.76025E-01  1.87172E+00
   3.78470E-01  2.43882E+00 -1.70366E+00 -1.81730E+00  1.38467E+00  1.89130E+00  4.51182E+00 -1.13314E-01  1.50769E+00  5.39102E+00
   2.08751E+00  2.13606E+00 -8.60059E+00  4.44078E+00 -1.25821E+00 -9.09179E-01  1.83204E+00  8.92737E-01  2.14605E+00 -4.88844E-01
   4.74763E+00 -8.78842E-01 -4.77126E+00 -5.94441E+00  3.24433E-01  2.89735E+00  1.54556E-01  5.22550E+00 -3.28419E+00  9.30453E-01
  -5.13325E+00 -5.21850E+00 -9.11633E-01 -4.76846E-03  1.17168E+00 -2.34744E+00  2.25393E+00  4.22095E+00  1.68847E+00 -1.45004E+00
   1.30192E-01  5.61896E+00  5.06170E+00 -8.48288E+00  3.64690E+00  3.75023E+00  3.15309E+00 -6.47176E+00
 NY points of the fit to the data follow
   4.61038E+00  4.34275E+00  4.10080E+00  3.89884E+00  3.74644E+00  3.64357E+00  3.58020E+00  3.53641E+00  3.50233E+00  3.47409E+00
   3.44728E+00  3.42484E+00  3.42053E+00  3.45302E+00  3.54421E+00  3.69881E+00  3.90317E+00  4.11374E+00  4.28395E+00  4.37569E+00
   4.36495E+00  4.26371E+00  4.12267E+00  3.99873E+00  3.93347E+00  3.94565E+00  4.04364E+00  4.21836E+00  4.43758E+00  4.66587E+00
   4.86174E+00  4.98529E+00  5.01371E+00  4.94979E+00  4.82526E+00  4.69025E+00  4.60335E+00  4.60877E+00  4.70878E+00  4.86757E+00
   5.04584E+00  5.21610E+00  5.37489E+00  5.52427E+00  5.65770E+00  5.75981E+00  5.80380E+00  5.76071E+00  5.62979E+00  5.44108E+00
   5.23521E+00  5.03956E+00  4.86420E+00  4.71548E+00  4.59168E+00  4.48896E+00  4.40756E+00  4.34777E+00  4.30796E+00  4.28268E+00
   4.26927E+00  4.26806E+00  4.27254E+00  4.27883E+00  4.29055E+00  4.31138E+00  4.33943E+00  4.37074E+00  4.40264E+00  4.43288E+00
   4.45757E+00  4.47344E+00  4.48011E+00  4.47597E+00  4.45893E+00  4.43323E+00  4.39788E+00  4.34731E+00  4.27709E+00  4.18591E+00
   4.07501E+00  3.94801E+00  3.81078E+00  3.66842E+00  3.52591E+00  3.39197E+00  3.27392E+00  3.17859E+00  3.11088E+00  3.06492E+00
   3.02829E+00  2.99140E+00  2.94894E+00  2.89880E+00  2.84269E+00  2.78439E+00  2.72665E+00  2.67312E+00  2.62697E+00  2.59081E+00
   2.56310E+00  2.54411E+00  2.53832E+00  2.55002E+00  2.57973E+00  2.62545E+00  2.68415E+00  2.75270E+00  2.82783E+00  2.90591E+00
   2.98246E+00  3.05422E+00  3.11921E+00  3.17580E+00  3.22496E+00  3.26930E+00  3.31183E+00  3.35624E+00  3.40603E+00  3.46353E+00
   3.52931E+00  3.60266E+00  3.68104E+00  3.76106E+00  3.83844E+00  3.90969E+00  3.97108E+00  4.01967E+00  4.05482E+00  4.07665E+00
   4.08571E+00  4.08223E+00  4.06699E+00  4.04192E+00  4.00953E+00  3.97263E+00  3.93284E+00  3.89102E+00  3.84777E+00  3.80329E+00
   3.75796E+00  3.71222E+00  3.66600E+00  3.61788E+00  3.56556E+00  3.50829E+00  3.44774E+00  3.38757E+00  3.33161E+00  3.27703E+00
   3.20394E+00  3.09879E+00  2.96217E+00  2.80486E+00  2.65094E+00  2.51023E+00  2.38102E+00  2.26093E+00  2.14780E+00  2.04304E+00
   1.94957E+00  1.86347E+00  1.76959E+00  1.64839E+00  1.48645E+00  1.27697E+00  1.02824E+00  7.68793E-01  5.18159E-01  2.84881E-01
   6.14074E-02 -1.55584E-01 -3.56042E-01 -5.25831E-01 -6.48833E-01 -7.13183E-01 -7.33022E-01 -7.21988E-01 -6.76064E-01 -5.88153E-01
  -4.40041E-01 -2.19606E-01  6.39624E-02  3.91660E-01  7.52900E-01  1.14631E+00  1.57301E+00  2.01132E+00  2.42683E+00  2.79359E+00
   3.10813E+00  3.38192E+00  3.62637E+00  3.86102E+00  4.09610E+00  4.34044E+00  4.58762E+00  4.82030E+00  5.01855E+00  5.13236E+00
   5.12533E+00  4.98708E+00  4.70416E+00  4.29641E+00  3.83177E+00  3.42980E+00  3.17929E+00  3.11158E+00  3.22637E+00  3.48846E+00
   3.82604E+00  4.12377E+00  4.27570E+00  4.23737E+00  4.01419E+00  3.63487E+00  3.17449E+00  2.73343E+00  2.39297E+00  2.20079E+00
   2.17230E+00  2.31125E+00  2.60347E+00  3.00237E+00  3.46563E+00  3.96225E+00  4.48403E+00  5.03947E+00  5.62541E+00  6.22022E+00
   6.77468E+00  7.24881E+00  7.60846E+00  7.85096E+00  7.99957E+00  8.08583E+00  8.15101E+00  8.24368E+00  8.38504E+00  8.56565E+00
   8.77801E+00  9.01881E+00  9.29129E+00  9.59745E+00  9.94444E+00  1.03677E+01  1.08947E+01  1.15386E+01  1.23921E+01  1.39242E+01
   1.66274E+01  2.04616E+01  2.51977E+01  3.04833E+01  3.58941E+01  4.10224E+01  4.55171E+01  4.90503E+01  5.12541E+01  5.17978E+01
   5.06133E+01  4.80058E+01  4.44611E+01  4.03675E+01  3.59317E+01  3.12841E+01  2.65879E+01  2.20441E+01  1.78468E+01  1.41795E+01
   1.11802E+01  8.90007E+00  7.33610E+00  6.46856E+00  6.06528E+00  5.79751E+00  5.57539E+00  5.38114E+00  5.20553E+00  5.04441E+00
   4.90009E+00  4.77288E+00  4.66400E+00  4.57655E+00  4.51523E+00  4.48476E+00  4.49050E+00  4.53624E+00  4.62273E+00  4.74985E+00
   4.91760E+00  5.12609E+00  5.37559E+00  5.66604E+00  5.99668E+00  6.36625E+00  6.77145E+00  7.20672E+00  7.66457E+00  8.13590E+00
   8.60984E+00  9.07455E+00  9.51795E+00  9.92821E+00  1.02943E+01  1.06070E+01  1.08589E+01  1.10454E+01  1.11649E+01  1.12194E+01
   1.12144E+01  1.11592E+01  1.10666E+01  1.09538E+01  1.08437E+01  1.07717E+01  1.07834E+01  1.08614E+01  1.09540E+01  1.10161E+01
   1.10049E+01  1.08858E+01  1.06318E+01  1.02241E+01  9.70499E+00  9.15141E+00  8.63428E+00  8.23544E+00  8.02397E+00  8.02686E+00
   8.23044E+00  8.60386E+00  9.11400E+00  9.72096E+00  1.03752E+01  1.10472E+01  1.17671E+01  1.25296E+01  1.32446E+01  1.38207E+01
   1.41644E+01  1.41867E+01  1.38525E+01  1.31734E+01  1.22587E+01  1.12569E+01  1.02958E+01  9.51709E+00  9.05761E+00  8.96842E+00
   9.20852E+00  9.70181E+00  1.03588E+01  1.10761E+01  1.17367E+01  1.22410E+01  1.25467E+01  1.26576E+01  1.25843E+01  1.23301E+01
   1.18963E+01  1.12740E+01  1.04855E+01  9.60183E+00  8.69265E+00  7.81860E+00  7.02297E+00  6.33730E+00  5.79232E+00  5.37193E+00
   5.03562E+00  4.76080E+00  4.53385E+00  4.34558E+00  4.18975E+00  4.06229E+00  3.96071E+00  3.88371E+00  3.83087E+00  3.80239E+00
   3.79892E+00  3.82145E+00  3.87117E+00  3.94942E+00  4.05763E+00  4.19718E+00  4.36937E+00  4.57524E+00  4.81546E+00  5.09018E+00
   5.39884E+00  5.74002E+00  6.11121E+00  6.50874E+00  6.92761E+00  7.36147E+00  7.80265E+00  8.24223E+00  8.67027E+00  9.07609E+00
   9.44865E+00  9.77699E+00  1.00507E+01  1.02605E+01  1.03986E+01  1.04592E+01  1.04388E+01  1.03363E+01  1.01534E+01  9.89399E+00
   9.56456E+00  9.17336E+00  8.73024E+00  8.24605E+00  7.73218E+00  7.20002E+00  6.66047E+00  6.12358E+00  5.59823E+00  5.09189E+00
   4.61054E+00  4.15862E+00  3.73910E+00  3.35363E+00  3.00266E+00  2.68569E+00  2.40141E+00  2.14798E+00  1.92314E+00  1.72443E+00
   1.54931E+00  1.39523E+00  1.25977E+00  1.14064E+00  1.03577E+00  9.43287E-01  8.61514E-01  7.88988E-01  7.24434E-01  6.66754E-01
   6.15008E-01  5.68390E-01  5.26214E-01  4.87891E-01  4.52920E-01  4.20882E-01  3.91417E-01  3.64218E-01  3.39019E-01  3.15587E-01
   2.93728E-01  2.73276E-01  2.54084E-01  2.36024E-01  2.18980E-01  2.02852E-01  1.87556E-01  1.73017E-01  1.59170E-01  1.45952E-01
   1.33306E-01  1.21185E-01  1.09548E-01  9.83603E-02  8.75870E-02  7.71942E-02  6.71523E-02  5.74380E-02  4.80327E-02  3.89186E-02
   3.00755E-02  2.14836E-02  1.31274E-02  4.99658E-03 -2.91766E-03 -1.06257E-02 -1.81402E-02 -2.54723E-02 -3.26280E-02 -3.96099E-02
  -4.64208E-02 -5.30668E-02 -5.95549E-02 -6.58888E-02 -7.20671E-02 -7.80863E-02 -8.39447E-02 -8.96439E-02 -9.51837E-02 -1.00559E-01
  -1.05760E-01 -1.10775E-01 -1.15595E-01 -1.20213E-01 -1.24616E-01 -1.28781E-01 -1.32683E-01 -1.36290E-01
 NY background values follow
     3.366E+00    3.360E+00    3.354E+00    3.348E+00    3.342E+00    3.336E+00    3.330E+00    3.324E+00    3.318E+00    3.312E+00
     3.306E+00    3.300E+00    3.294E+00    3.288E+00    3.282E+00    3.276E+00    3.270E+00    3.264E+00    3.258E+00    3.252E+00
     3.246E+00    3.240E+00    3.233E+00    3.227E+00    3.221E+00    3.215E+00    3.209E+00    3.203E+00    3.197E+00    3.191E+00
     3.185E+00    3.179E+00    3.173E+00    3.167E+00    3.161E+00    3.154E+00    3.148E+00    3.142E+00    3.136E+00    3.130E+00
     3.124E+00    3.118E+00    3.112E+00    3.106E+00    3.100E+00    3.093E+00    3.087E+00    3.081E+00    3.075E+00    3.069E+00
     3.063E+00    3.057E+00    3.051E+00    3.044E+00    3.038E+00    3.032E+00    3.026E+00    3.020E+00    3.014E+00    3.008E+00
     3.002E+00    2.995E+00    2.989E+00    2.983E+00    2.977E+00    2.971E+00    2.965E+00    2.958E+00    2.952E+00    2.946E+00
     2.940E+00    2.934E+00    2.928E+00    2.922E+00    2.915E+00    2.909E+00    2.903E+00    2.897E+00    2.891E+00    2.884E+00
     2.878E+00    2.872E+00    2.866E+00    2.860E+00    2.854E+00    2.847E+00    2.841E+00    2.835E+00    2.829E+00    2.823E+00
     2.816E+00    2.810E+00    2.804E+00    2.798E+00    2.792E+00    2.785E+00    2.779E+00    2.773E+00    2.767E+00    2.761E+00
     2.754E+00    2.748E+00    2.742E+00    2.736E+00    2.730E+00    2.723E+00    2.717E+00    2.711E+00    2.705E+00    2.698E+00
     2.692E+00    2.686E+00    2.680E+00    2.674E+00    2.667E+00    2.661E+00    2.655E+00    2.649E+00    2.642E+00    2.636E+00
     2.630E+00    2.624E+00    2.617E+00    2.611E+00    2.605E+00    2.599E+00    2.592E+00    2.586E+00    2.580E+00    2.574E+00
     2.567E+00    2.561E+00    2.555E+00    2.549E+00    2.542E+00    2.536E+00    2.530E+00    2.524E+00    2.517E+00    2.511E+00
     2.505E+00    2.499E+00    2.492E+00    2.486E+00    2.480E+00    2.473E+00    2.467E+00    2.461E+00    2.455E+00    2.448E+00
     2.442E+00    2.436E+00    2.429E+00    2.423E+00    2.417E+00    2.411E+00    2.404E+00    2.398E+00    2.392E+00    2.385E+00
     2.379E+00    2.373E+00    2.367E+00    2.360E+00    2.354E+00    2.348E+00    2.341E+00    2.335E+00    2.329E+00    2.323E+00
     2.316E+00    2.310E+00    2.304E+00    2.297E+00    2.291E+00    2.285E+00    2.278E+00    2.272E+00    2.266E+00    2.259E+00
     2.253E+00    2.247E+00    2.240E+00    2.234E+00    2.228E+00    2.222E+00    2.215E+00    2.209E+00    2.203E+00    2.196E+00
     2.190E+00    2.184E+00    2.177E+00    2.171E+00    2.165E+00    2.158E+00    2.152E+00    2.146E+00    2.139E+00    2.133E+00
     2.127E+00    2.120E+00    2.114E+00    2.108E+00    2.101E+00    2.095E+00    2.089E+00    2.082E+00    2.076E+00    2.070E+00
     2.063E+00    2.057E+00    2.051E+00    2.044E+00    2.038E+00    2.032E+00    2.025E+00    2.019E+00    2.013E+00    2.006E+00
     2.000E+00    1.993E+00    1.987E+00    1.981E+00    1.974E+00    1.968E+00    1.962E+00    1.955E+00    1.949E+00    1.943E+00
     1.936E+00    1.930E+00    1.924E+00    1.917E+00    1.911E+00    1.905E+00    1.898E+00    1.892E+00    1.885E+00    1.879E+00
     1.873E+00    1.866E+00    1.860E+00    1.854E+00    1.847E+00    1.841E+00    1.835E+00    1.828E+00    1.822E+00    1.815E+00
     1.809E+00    1.803E+00    1.796E+00    1.790E+00    1.784E+00    1.777E+00    1.771E+00    1.765E+00    1.758E+00    1.752E+00
     1.745E+00    1.739E+00    1.733E+00    1.726E+00    1.720E+00    1.714E+00    1.707E+00    1.701E+00    1.694E+00    1.688E+00
     1.682E+00    1.675E+00    1.669E+00    1.663E+00    1.656E+00    1.650E+00    1.643E+00    1.637E+00    1.631E+00    1.624E+00
     1.618E+00    1.612E+00    1.605E+00    1.599E+00    1.592E+00    1.586E+00    1.580E+00    1.573E+00    1.567E+00    1.561E+00
     1.554E+00    1.548E+00    1.541E+00    1.535E+00    1.529E+00    1.522E+00    1.516E+00    1.510E+00    1.503E+00    1.497E+00
     1.490E+00    1.484E+00    1.478E+00    1.471E+00    1.465E+00    1.459E+00    1.452E+00    1.446E+00    1.439E+00    1.433E+00
     1.427E+00    1.420E+00    1.414E+00    1.407E+00    1.401E+00    1.395E+00    1.388E+00    1.382E+00    1.376E+00    1.369E+00
     1.363E+00    1.356E+00    1.350E+00    1.344E+00    1.337E+00    1.331E+00    1.325E+00    1.318E+00    1.312E+00    1.305E+00
     1.299E+00    1.293E+00    1.286E+00    1.280E+00    1.273E+00    1.267E+00    1.261E+00    1.254E+00    1.248E+00    1.242E+00
     1.235E+00    1.229E+00    1.222E+00    1.216E+00    1.210E+00    1.203E+00    1.197E+00    1.191E+00    1.184E+00    1.178E+00
     1.171E+00    1.165E+00    1.159E+00    1.152E+00    1.146E+00    1.140E+00    1.133E+00    1.127E+00    1.120E+00    1.114E+00
     1.108E+00    1.101E+00    1.095E+00    1.089E+00    1.082E+00    1.076E+00    1.069E+00    1.063E+00    1.057E+00    1.050E+00
     1.044E+00    1.038E+00    1.031E+00    1.025E+00    1.019E+00    1.012E+00    1.006E+00    9.995E-01    9.931E-01    9.867E-01
     9.804E-01    9.740E-01    9.676E-01    9.613E-01    9.549E-01    9.486E-01    9.422E-01    9.358E-01    9.295E-01    9.231E-01
     9.168E-01    9.104E-01    9.040E-01    8.977E-01    8.913E-01    8.850E-01    8.786E-01    8.723E-01    8.659E-01    8.596E-01
     8.532E-01    8.469E-01    8.405E-01    8.342E-01    8.278E-01    8.215E-01    8.151E-01    8.088E-01    8.024E-01    7.961E-01
     7.897E-01    7.834E-01    7.770E-01    7.707E-01    7.644E-01    7.580E-01    7.517E-01    7.453E-01    7.390E-01    7.327E-01
     7.263E-01    7.200E-01    7.136E-01    7.073E-01    7.010E-01    6.946E-01    6.883E-01    6.820E-01    6.756E-01    6.693E-01
     6.630E-01    6.567E-01    6.503E-01    6.440E-01    6.377E-01    6.314E-01    6.250E-01    6.187E-01    6.124E-01    6.061E-01
     5.998E-01    5.934E-01    5.871E-01    5.808E-01    5.745E-01    5.682E-01    5.619E-01    5.555E-01    5.492E-01    5.429E-01
     5.366E-01    5.303E-01    5.240E-01    5.177E-01    5.114E-01    5.051E-01    4.988E-01    4.925E-01    4.862E-01    4.799E-01
     4.736E-01    4.673E-01    4.610E-01    4.547E-01    4.484E-01    4.421E-01    4.358E-01    4.295E-01    4.232E-01    4.169E-01
     4.106E-01    4.043E-01    3.981E-01    3.918E-01    3.855E-01    3.792E-01    3.729E-01    3.667E-01    3.604E-01    3.541E-01
     3.478E-01    3.415E-01    3.353E-01    3.290E-01    3.227E-01    3.165E-01    3.102E-01    3.039E-01    2.977E-01    2.914E-01
     2.851E-01    2.789E-01    2.726E-01    2.663E-01    2.601E-01    2.538E-01    2.476E-01    2.413E-01
 Ala      Conc. = 4.12E+02
