 LCModel (Version 6.3-1L) Copyright: S.W. Provencher.          Ref.: Magn. Reson. Med. 30:672-679 (1993).                
 Slice#3 Row#11 Col#5  PD_05_press_2_raw_act
 36 lines in following concentration table = NCONC+1
    Conc.  %SD /Cr+PCr  Metabolite                                         
   19.195 151%   0.167 Ala                                                 
   18.715  55%   0.163 Asp                                                 
   54.346  62%   0.474 Cr                                                  
   60.344  60%   0.526 PCr                                                 
   11.069  55% 9.7E-02 GABA                                                
   10.860  57% 9.5E-02 Glc                                                 
   52.556 104%   0.458 Gln                                                 
    0.000 999%   0.000 Glu                                                 
    0.000 999%   0.000 GPC                                                 
   23.545  34%   0.205 PCh                                                 
    0.000 999%   0.000 GSH                                                 
  213.141  39%   1.858 Ins                                                 
    0.000 999%   0.000 Lac                                                 
  180.699  17%   1.576 NAA                                                 
    0.000 999%   0.000 NAAG                                                
    3.981  51% 3.5E-02 Scyllo                                              
   18.670  55%   0.163 Tau                                                 
    2.080 701% 1.8E-02 -CrCH2                                              
   23.545  34%   0.205 GPC+PCh                                             
  180.699  17%   1.576 NAA+NAAG                                            
  114.690  22%   1.000 Cr+PCr                                              
   52.556 104%   0.458 Glu+Gln                                             
    0.000 999%   0.000 Lip13a                                              
    0.000 999%   0.000 Lip13b                                              
    0.000 999%   0.000 Lip09                                               
   26.153 269%   0.228 MM09                                                
    0.000 999%   0.000 Lip20                                               
    0.000 999%   0.000 MM20                                                
   13.887 280%   0.121 MM12                                                
    0.000 999%   0.000 MM14                                                
   78.269 118%   0.682 MM17                                                
    0.000 999%   0.000 Lip13a+Lip13b                                       
   13.887 280%   0.121 MM14+Lip13a+Lip13b+MM12                             
   26.153 269%   0.228 MM09+Lip09                                          
    0.000 999%   0.000 MM20+Lip20                                          
   6 lines in following misc. output table
  FWHM = 0.031 ppm    S/N =   2                                            
  Data shift = 0.008 ppm                                                   
  Ph:  78 deg      -3.9 deg/ppm                                            
  alphaB,S = 3.4E-01,   1.3E+01                                            
   14 spline knots.   Ns = 5(1)                                            
  ( 9) 3 infls.   ( 5) 2 extrs.                                            
  498 points on ppm-axis = NY
      4.000000     3.992357     3.984714     3.977070     3.969427     3.961784     3.954141     3.946497     3.938854     3.931211
      3.923568     3.915925     3.908281     3.900638     3.892995     3.885352     3.877708     3.870065     3.862422     3.854779
      3.847136     3.839492     3.831849     3.824206     3.816563     3.808919     3.801276     3.793633     3.785990     3.778347
      3.770703     3.763060     3.755417     3.747774     3.740130     3.732487     3.724844     3.717201     3.709558     3.701914
      3.694271     3.686628     3.678985     3.671341     3.663698     3.656055     3.648412     3.640769     3.633125     3.625482
      3.617839     3.610196     3.602552     3.594909     3.587266     3.579623     3.571980     3.564336     3.556693     3.549050
      3.541407     3.533763     3.526120     3.518477     3.510834     3.503191     3.495547     3.487904     3.480261     3.472618
      3.464974     3.457331     3.449688     3.442045     3.434402     3.426758     3.419115     3.411472     3.403829     3.396185
      3.388542     3.380899     3.373256     3.365613     3.357969     3.350326     3.342683     3.335040     3.327396     3.319753
      3.312110     3.304467     3.296824     3.289180     3.281537     3.273894     3.266251     3.258607     3.250964     3.243321
      3.235678     3.228034     3.220391     3.212748     3.205105     3.197462     3.189818     3.182175     3.174532     3.166889
      3.159245     3.151602     3.143959     3.136316     3.128673     3.121029     3.113386     3.105743     3.098100     3.090456
      3.082813     3.075170     3.067527     3.059884     3.052240     3.044597     3.036954     3.029311     3.021667     3.014024
      3.006381     2.998738     2.991095     2.983451     2.975808     2.968165     2.960522     2.952878     2.945235     2.937592
      2.929949     2.922306     2.914662     2.907019     2.899376     2.891733     2.884089     2.876446     2.868803     2.861160
      2.853517     2.845873     2.838230     2.830587     2.822944     2.815300     2.807657     2.800014     2.792371     2.784728
      2.777084     2.769441     2.761798     2.754155     2.746511     2.738868     2.731225     2.723582     2.715939     2.708295
      2.700652     2.693009     2.685366     2.677722     2.670079     2.662436     2.654793     2.647150     2.639506     2.631863
      2.624220     2.616577     2.608933     2.601290     2.593647     2.586004     2.578361     2.570717     2.563074     2.555431
      2.547788     2.540144     2.532501     2.524858     2.517215     2.509572     2.501928     2.494285     2.486642     2.478999
      2.471355     2.463712     2.456069     2.448426     2.440783     2.433139     2.425496     2.417853     2.410210     2.402566
      2.394923     2.387280     2.379637     2.371994     2.364350     2.356707     2.349064     2.341421     2.333777     2.326134
      2.318491     2.310848     2.303205     2.295561     2.287918     2.280275     2.272632     2.264988     2.257345     2.249702
      2.242059     2.234416     2.226772     2.219129     2.211486     2.203843     2.196199     2.188556     2.180913     2.173270
      2.165627     2.157983     2.150340     2.142697     2.135054     2.127410     2.119767     2.112124     2.104481     2.096838
      2.089194     2.081551     2.073908     2.066265     2.058621     2.050978     2.043335     2.035692     2.028049     2.020405
      2.012762     2.005119     1.997476     1.989833     1.982190     1.974546     1.966903     1.959260     1.951617     1.943974
      1.936331     1.928688     1.921045     1.913402     1.905759     1.898115     1.890472     1.882829     1.875186     1.867543
      1.859900     1.852257     1.844614     1.836971     1.829327     1.821684     1.814041     1.806398     1.798755     1.791112
      1.783469     1.775826     1.768183     1.760540     1.752896     1.745253     1.737610     1.729967     1.722324     1.714681
      1.707038     1.699395     1.691752     1.684108     1.676465     1.668822     1.661179     1.653536     1.645893     1.638250
      1.630607     1.622964     1.615321     1.607677     1.600034     1.592391     1.584748     1.577105     1.569462     1.561819
      1.554176     1.546533     1.538890     1.531246     1.523603     1.515960     1.508317     1.500674     1.493031     1.485388
      1.477745     1.470102     1.462458     1.454815     1.447172     1.439529     1.431886     1.424243     1.416600     1.408957
      1.401314     1.393671     1.386027     1.378384     1.370741     1.363098     1.355455     1.347812     1.340169     1.332526
      1.324883     1.317240     1.309596     1.301953     1.294310     1.286667     1.279024     1.271381     1.263738     1.256095
      1.248452     1.240808     1.233165     1.225522     1.217879     1.210236     1.202593     1.194950     1.187307     1.179664
      1.172021     1.164377     1.156734     1.149091     1.141448     1.133805     1.126162     1.118519     1.110876     1.103233
      1.095590     1.087946     1.080303     1.072660     1.065017     1.057374     1.049731     1.042088     1.034445     1.026802
      1.019158     1.011515     1.003872     0.996229     0.988586     0.980943     0.973300     0.965657     0.958014     0.950371
      0.942727     0.935084     0.927441     0.919798     0.912155     0.904512     0.896869     0.889226     0.881583     0.873940
      0.866296     0.858653     0.851010     0.843367     0.835724     0.828081     0.820438     0.812795     0.805152     0.797508
      0.789865     0.782222     0.774579     0.766936     0.759293     0.751650     0.744007     0.736364     0.728721     0.721077
      0.713434     0.705791     0.698148     0.690505     0.682862     0.675219     0.667576     0.659933     0.652290     0.644646
      0.637003     0.629360     0.621717     0.614074     0.606431     0.598788     0.591145     0.583502     0.575858     0.568215
      0.560572     0.552929     0.545286     0.537643     0.530000     0.522357     0.514714     0.507071     0.499427     0.491784
      0.484141     0.476498     0.468855     0.461212     0.453569     0.445925     0.438282     0.430639     0.422996     0.415353
      0.407710     0.400067     0.392424     0.384780     0.377137     0.369494     0.361851     0.354208     0.346565     0.338922
      0.331278     0.323635     0.315992     0.308349     0.300706     0.293063     0.285420     0.277777     0.270133     0.262490
      0.254847     0.247204     0.239561     0.231918     0.224275     0.216631     0.208988     0.201345
 NY phased data points follow
   4.03194E+02  4.03253E+02  3.90662E+02  3.89544E+02  3.82711E+02  3.80912E+02  3.75947E+02  3.78345E+02  3.68049E+02  3.65488E+02
   3.64865E+02  3.57724E+02  3.54995E+02  3.51135E+02  3.40428E+02  3.37749E+02  3.37391E+02  3.31809E+02  3.29497E+02  3.24709E+02
   3.25016E+02  3.20488E+02  3.16718E+02  3.15357E+02  3.09730E+02  3.13751E+02  3.03149E+02  3.04323E+02  3.05722E+02  2.99235E+02
   2.99649E+02  2.97265E+02  2.94621E+02  2.87468E+02  2.87329E+02  2.88613E+02  2.89346E+02  2.82062E+02  2.85832E+02  2.78900E+02
   2.78504E+02  2.78842E+02  2.74446E+02  2.70158E+02  2.70240E+02  2.71448E+02  2.70167E+02  2.69197E+02  2.65608E+02  2.61570E+02
   2.60835E+02  2.54081E+02  2.53272E+02  2.54859E+02  2.53682E+02  2.50337E+02  2.53561E+02  2.43489E+02  2.47702E+02  2.44116E+02
   2.41805E+02  2.48328E+02  2.41050E+02  2.39630E+02  2.37316E+02  2.35292E+02  2.34742E+02  2.31411E+02  2.30673E+02  2.34643E+02
   2.29909E+02  2.26810E+02  2.28664E+02  2.22360E+02  2.22499E+02  2.22980E+02  2.20217E+02  2.14808E+02  2.17974E+02  2.10018E+02
   2.15311E+02  2.11493E+02  2.09658E+02  2.11603E+02  2.13502E+02  2.08977E+02  2.07106E+02  2.09198E+02  2.06833E+02  2.01062E+02
   2.00871E+02  2.00028E+02  2.02399E+02  2.01648E+02  1.99862E+02  1.98875E+02  1.93305E+02  1.95618E+02  1.94696E+02  1.92588E+02
   1.93826E+02  1.96368E+02  1.91249E+02  1.95786E+02  1.95754E+02  1.90899E+02  1.88830E+02  1.84084E+02  1.82808E+02  1.81018E+02
   1.83926E+02  1.84435E+02  1.85720E+02  1.83882E+02  1.81930E+02  1.86011E+02  1.79236E+02  1.79066E+02  1.74500E+02  1.73737E+02
   1.70814E+02  1.72903E+02  1.70541E+02  1.73686E+02  1.76824E+02  1.78754E+02  1.75910E+02  1.74776E+02  1.73878E+02  1.69102E+02
   1.67565E+02  1.61980E+02  1.64304E+02  1.62360E+02  1.65677E+02  1.63471E+02  1.62091E+02  1.65709E+02  1.62010E+02  1.62174E+02
   1.63216E+02  1.58693E+02  1.58847E+02  1.62028E+02  1.61257E+02  1.55351E+02  1.58941E+02  1.56563E+02  1.53943E+02  1.55088E+02
   1.53141E+02  1.52482E+02  1.52922E+02  1.53094E+02  1.53099E+02  1.51325E+02  1.49652E+02  1.46655E+02  1.47868E+02  1.43534E+02
   1.49678E+02  1.42271E+02  1.43575E+02  1.50187E+02  1.49703E+02  1.43916E+02  1.41086E+02  1.42668E+02  1.42096E+02  1.42346E+02
   1.41668E+02  1.43074E+02  1.40932E+02  1.44545E+02  1.43685E+02  1.40663E+02  1.39625E+02  1.42149E+02  1.40559E+02  1.43320E+02
   1.39039E+02  1.37100E+02  1.42297E+02  1.38328E+02  1.36633E+02  1.37211E+02  1.32226E+02  1.33648E+02  1.33722E+02  1.35544E+02
   1.30532E+02  1.35842E+02  1.34289E+02  1.33208E+02  1.30430E+02  1.28510E+02  1.33361E+02  1.25951E+02  1.27189E+02  1.27414E+02
   1.31074E+02  1.29017E+02  1.28050E+02  1.29052E+02  1.28846E+02  1.31037E+02  1.26151E+02  1.25787E+02  1.23880E+02  1.27675E+02
   1.23852E+02  1.23109E+02  1.22328E+02  1.28650E+02  1.25179E+02  1.27220E+02  1.20105E+02  1.19685E+02  1.17910E+02  1.18730E+02
   1.19408E+02  1.23554E+02  1.19522E+02  1.20726E+02  1.14251E+02  1.16154E+02  1.16866E+02  1.15010E+02  1.16768E+02  1.17790E+02
   1.14331E+02  1.19811E+02  1.19068E+02  1.11962E+02  1.12684E+02  1.13720E+02  1.15124E+02  1.11919E+02  1.15315E+02  1.12762E+02
   1.12374E+02  1.09124E+02  1.12563E+02  1.11776E+02  1.10302E+02  1.05630E+02  1.09116E+02  1.18131E+02  1.13736E+02  1.12569E+02
   1.08042E+02  1.13150E+02  1.05205E+02  1.04296E+02  1.02950E+02  1.09550E+02  1.10148E+02  1.13337E+02  1.18792E+02  1.21906E+02
   1.17391E+02  1.11880E+02  1.09094E+02  1.00099E+02  9.98171E+01  9.65782E+01  1.00779E+02  1.01322E+02  1.02204E+02  1.04770E+02
   1.03564E+02  1.05253E+02  1.02745E+02  1.01971E+02  1.04638E+02  1.06355E+02  1.03900E+02  1.01514E+02  1.06246E+02  9.91372E+01
   1.03978E+02  1.03200E+02  1.01542E+02  9.97591E+01  1.01968E+02  1.01335E+02  1.02109E+02  1.03923E+02  9.78412E+01  1.01161E+02
   1.01257E+02  1.01271E+02  1.01473E+02  9.70474E+01  1.00731E+02  9.53759E+01  9.43452E+01  9.54318E+01  9.42638E+01  9.43846E+01
   9.73318E+01  9.31371E+01  9.26998E+01  9.42599E+01  9.53156E+01  9.38021E+01  9.30120E+01  8.95939E+01  9.56456E+01  9.34117E+01
   8.96916E+01  9.20710E+01  9.18658E+01  9.11906E+01  8.91763E+01  8.52551E+01  8.91768E+01  8.26718E+01  8.82223E+01  9.18888E+01
   8.97864E+01  8.63683E+01  8.72173E+01  9.19382E+01  9.00040E+01  8.54445E+01  8.55972E+01  8.43675E+01  8.79158E+01  8.37310E+01
   7.89736E+01  8.50421E+01  8.10838E+01  8.36812E+01  7.84852E+01  8.09243E+01  8.43705E+01  8.26084E+01  8.17345E+01  7.85928E+01
   7.88719E+01  8.13892E+01  7.87231E+01  8.06253E+01  7.80034E+01  8.04012E+01  7.91742E+01  7.87615E+01  7.74785E+01  7.67666E+01
   7.83272E+01  8.24453E+01  7.95557E+01  7.44348E+01  7.82603E+01  7.73601E+01  7.21872E+01  7.58903E+01  7.69305E+01  8.01035E+01
   7.92009E+01  7.75262E+01  7.75571E+01  7.70243E+01  7.72885E+01  7.99454E+01  7.62203E+01  7.74794E+01  7.56543E+01  7.69631E+01
   7.12475E+01  8.11660E+01  7.39404E+01  7.54710E+01  7.65027E+01  7.48197E+01  7.47091E+01  7.74239E+01  7.20846E+01  7.70098E+01
   7.16071E+01  7.01484E+01  7.16094E+01  7.09035E+01  7.54846E+01  7.31942E+01  6.96538E+01  6.96946E+01  7.14345E+01  6.99794E+01
   6.70728E+01  7.25750E+01  7.15637E+01  7.26341E+01  7.62816E+01  7.29727E+01  7.02277E+01  7.44853E+01  6.85833E+01  7.14586E+01
   7.11864E+01  7.34385E+01  6.92266E+01  7.15675E+01  6.86456E+01  6.93565E+01  7.03229E+01  6.87513E+01  6.87028E+01  6.64482E+01
   6.60506E+01  6.46969E+01  6.85285E+01  7.08096E+01  6.47899E+01  7.07575E+01  6.57384E+01  6.51784E+01  6.19993E+01  6.69515E+01
   6.58349E+01  6.66221E+01  6.94761E+01  6.40384E+01  6.55730E+01  6.35842E+01  6.29881E+01  6.29977E+01  6.83543E+01  6.67329E+01
   6.45583E+01  6.28661E+01  6.56525E+01  6.50329E+01  6.34405E+01  6.40299E+01  6.72603E+01  6.35089E+01  5.88374E+01  6.30903E+01
   6.47197E+01  5.88340E+01  6.70066E+01  6.03318E+01  6.22918E+01  6.27895E+01  6.33345E+01  6.16075E+01  6.03825E+01  6.15309E+01
   6.10902E+01  6.09084E+01  5.97400E+01  6.32617E+01  5.50510E+01  5.73461E+01  5.95685E+01  5.99069E+01  5.35703E+01  5.85930E+01
   5.89939E+01  6.23711E+01  5.59409E+01  5.59767E+01  5.65589E+01  5.61997E+01  5.91606E+01  5.55024E+01  5.24530E+01  5.72761E+01
   5.82349E+01  6.07191E+01  5.67216E+01  5.26925E+01  5.62687E+01  5.15546E+01  5.76452E+01  5.31352E+01  5.17731E+01  5.94512E+01
   5.51058E+01  5.62235E+01  5.65151E+01  5.23265E+01  5.28920E+01  5.09228E+01  5.37558E+01  5.07249E+01  4.98425E+01  4.93236E+01
   5.18634E+01  5.46267E+01  5.06793E+01  4.82318E+01  5.18681E+01  5.17617E+01  4.98597E+01  5.03340E+01
 NY points of the fit to the data follow
   3.94852E+02  3.91034E+02  3.87422E+02  3.83880E+02  3.80482E+02  3.77459E+02  3.74806E+02  3.72324E+02  3.69745E+02  3.66707E+02
   3.62929E+02  3.58419E+02  3.53570E+02  3.48923E+02  3.44880E+02  3.41509E+02  3.38530E+02  3.35907E+02  3.33333E+02  3.30552E+02
   3.27771E+02  3.25039E+02  3.22292E+02  3.19456E+02  3.16540E+02  3.13627E+02  3.10806E+02  3.08155E+02  3.05716E+02  3.03457E+02
   3.01261E+02  2.98986E+02  2.96562E+02  2.94069E+02  2.91600E+02  2.89200E+02  2.86846E+02  2.84496E+02  2.82121E+02  2.79713E+02
   2.77358E+02  2.75168E+02  2.73264E+02  2.71800E+02  2.70833E+02  2.70066E+02  2.68976E+02  2.67160E+02  2.64483E+02  2.61171E+02
   2.57720E+02  2.54722E+02  2.52642E+02  2.51513E+02  2.50770E+02  2.49787E+02  2.48531E+02  2.47243E+02  2.45980E+02  2.44605E+02
   2.42978E+02  2.41071E+02  2.38981E+02  2.36898E+02  2.35063E+02  2.33655E+02  2.32592E+02  2.31634E+02  2.30649E+02  2.29549E+02
   2.28330E+02  2.27011E+02  2.25637E+02  2.24242E+02  2.22814E+02  2.21355E+02  2.19912E+02  2.18552E+02  2.17317E+02  2.16137E+02
   2.15009E+02  2.13956E+02  2.12940E+02  2.11861E+02  2.10616E+02  2.09168E+02  2.07616E+02  2.06143E+02  2.04898E+02  2.03944E+02
   2.03256E+02  2.02707E+02  2.02084E+02  2.01200E+02  2.00089E+02  1.98877E+02  1.97645E+02  1.96434E+02  1.95345E+02  1.94656E+02
   1.94708E+02  1.95269E+02  1.95604E+02  1.95020E+02  1.93304E+02  1.90725E+02  1.87793E+02  1.85257E+02  1.83734E+02  1.83293E+02
   1.83252E+02  1.82715E+02  1.81890E+02  1.81016E+02  1.80136E+02  1.79247E+02  1.78359E+02  1.77486E+02  1.76641E+02  1.75836E+02
   1.75091E+02  1.74498E+02  1.74382E+02  1.75237E+02  1.76869E+02  1.78214E+02  1.78164E+02  1.76303E+02  1.72943E+02  1.68872E+02
   1.65243E+02  1.63145E+02  1.62897E+02  1.63597E+02  1.63731E+02  1.63230E+02  1.62618E+02  1.61994E+02  1.61353E+02  1.60694E+02
   1.60031E+02  1.59383E+02  1.58763E+02  1.58162E+02  1.57575E+02  1.56986E+02  1.56380E+02  1.55756E+02  1.55129E+02  1.54526E+02
   1.53957E+02  1.53413E+02  1.52879E+02  1.52338E+02  1.51793E+02  1.51247E+02  1.50679E+02  1.50060E+02  1.49398E+02  1.48756E+02
   1.48212E+02  1.47805E+02  1.47495E+02  1.47186E+02  1.46784E+02  1.46236E+02  1.45559E+02  1.44842E+02  1.44215E+02  1.43702E+02
   1.43257E+02  1.42800E+02  1.42250E+02  1.41665E+02  1.41135E+02  1.40705E+02  1.40349E+02  1.39985E+02  1.39556E+02  1.39060E+02
   1.38522E+02  1.37974E+02  1.37454E+02  1.36995E+02  1.36575E+02  1.36136E+02  1.35700E+02  1.35295E+02  1.34943E+02  1.34579E+02
   1.34112E+02  1.33523E+02  1.32870E+02  1.32273E+02  1.31794E+02  1.31346E+02  1.30851E+02  1.30332E+02  1.29838E+02  1.29417E+02
   1.29101E+02  1.28852E+02  1.28548E+02  1.28069E+02  1.27346E+02  1.26444E+02  1.25466E+02  1.24576E+02  1.23921E+02  1.23539E+02
   1.23352E+02  1.23244E+02  1.23138E+02  1.22949E+02  1.22612E+02  1.22147E+02  1.21655E+02  1.21211E+02  1.20746E+02  1.20267E+02
   1.19864E+02  1.19511E+02  1.19146E+02  1.18748E+02  1.18313E+02  1.17849E+02  1.17369E+02  1.16898E+02  1.16469E+02  1.16107E+02
   1.15800E+02  1.15496E+02  1.15152E+02  1.14779E+02  1.14431E+02  1.14154E+02  1.13971E+02  1.13876E+02  1.13790E+02  1.13576E+02
   1.13145E+02  1.12534E+02  1.11885E+02  1.11351E+02  1.10976E+02  1.10766E+02  1.10681E+02  1.10642E+02  1.10567E+02  1.10451E+02
   1.10301E+02  1.10095E+02  1.09848E+02  1.09611E+02  1.09495E+02  1.09907E+02  1.11729E+02  1.15119E+02  1.18569E+02  1.20104E+02
   1.18716E+02  1.14713E+02  1.09222E+02  1.03977E+02  1.00875E+02  1.00836E+02  1.02904E+02  1.04430E+02  1.04516E+02  1.04292E+02
   1.04038E+02  1.03784E+02  1.03533E+02  1.03280E+02  1.03012E+02  1.02720E+02  1.02408E+02  1.02084E+02  1.01752E+02  1.01417E+02
   1.01088E+02  1.00772E+02  1.00470E+02  1.00177E+02  9.98850E+01  9.95919E+01  9.92955E+01  9.89911E+01  9.86788E+01  9.83612E+01
   9.80418E+01  9.77241E+01  9.74075E+01  9.70907E+01  9.67749E+01  9.64608E+01  9.61467E+01  9.58308E+01  9.55127E+01  9.51912E+01
   9.48654E+01  9.45359E+01  9.42029E+01  9.38663E+01  9.35261E+01  9.31824E+01  9.28353E+01  9.24852E+01  9.21324E+01  9.17777E+01
   9.14216E+01  9.10651E+01  9.07086E+01  9.03529E+01  8.99989E+01  8.96473E+01  8.92992E+01  8.89553E+01  8.86168E+01  8.82855E+01
   8.79645E+01  8.76606E+01  8.73878E+01  8.71501E+01  8.68881E+01  8.65129E+01  8.59942E+01  8.53835E+01  8.47685E+01  8.42285E+01
   8.38342E+01  8.36527E+01  8.36808E+01  8.37849E+01  8.37896E+01  8.36642E+01  8.34156E+01  8.30222E+01  8.25164E+01  8.19948E+01
   8.15711E+01  8.12951E+01  8.10746E+01  8.08253E+01  8.05640E+01  8.03011E+01  8.00394E+01  7.97803E+01  7.95242E+01  7.92715E+01
   7.90222E+01  7.87764E+01  7.85342E+01  7.82957E+01  7.80608E+01  7.78297E+01  7.76024E+01  7.73787E+01  7.71588E+01  7.69426E+01
   7.67302E+01  7.65217E+01  7.63169E+01  7.61159E+01  7.59185E+01  7.57245E+01  7.55338E+01  7.53464E+01  7.51619E+01  7.49804E+01
   7.48018E+01  7.46259E+01  7.44528E+01  7.42823E+01  7.41143E+01  7.39487E+01  7.37856E+01  7.36248E+01  7.34663E+01  7.33100E+01
   7.31558E+01  7.30036E+01  7.28533E+01  7.27050E+01  7.25584E+01  7.24135E+01  7.22700E+01  7.21280E+01  7.19873E+01  7.18476E+01
   7.17088E+01  7.15705E+01  7.14327E+01  7.12949E+01  7.11568E+01  7.10182E+01  7.08784E+01  7.07373E+01  7.05943E+01  7.04492E+01
   7.03014E+01  7.01507E+01  6.99968E+01  6.98393E+01  6.96782E+01  6.95132E+01  6.93443E+01  6.91714E+01  6.89947E+01  6.88145E+01
   6.86310E+01  6.84446E+01  6.82556E+01  6.80643E+01  6.78710E+01  6.76760E+01  6.74796E+01  6.72819E+01  6.70832E+01  6.68835E+01
   6.66829E+01  6.64817E+01  6.62797E+01  6.60770E+01  6.58737E+01  6.56697E+01  6.54651E+01  6.52598E+01  6.50538E+01  6.48472E+01
   6.46399E+01  6.44320E+01  6.42235E+01  6.40144E+01  6.38047E+01  6.35944E+01  6.33836E+01  6.31724E+01  6.29607E+01  6.27487E+01
   6.25363E+01  6.23237E+01  6.21108E+01  6.18977E+01  6.16845E+01  6.14713E+01  6.12580E+01  6.10447E+01  6.08316E+01  6.06186E+01
   6.04059E+01  6.01934E+01  5.99812E+01  5.97694E+01  5.95580E+01  5.93468E+01  5.91358E+01  5.89250E+01  5.87144E+01  5.85038E+01
   5.82932E+01  5.80826E+01  5.78720E+01  5.76612E+01  5.74502E+01  5.72390E+01  5.70276E+01  5.68159E+01  5.66038E+01  5.63913E+01
   5.61783E+01  5.59648E+01  5.57507E+01  5.55361E+01  5.53208E+01  5.51047E+01  5.48880E+01  5.46704E+01  5.44520E+01  5.42327E+01
   5.40125E+01  5.37912E+01  5.35690E+01  5.33456E+01  5.31211E+01  5.28955E+01  5.26685E+01  5.24404E+01  5.22109E+01  5.19800E+01
   5.17477E+01  5.15140E+01  5.12787E+01  5.10419E+01  5.08035E+01  5.05634E+01  5.03216E+01  5.00781E+01
 NY background values follow
     3.950E+02    3.911E+02    3.873E+02    3.836E+02    3.799E+02    3.763E+02    3.727E+02    3.691E+02    3.657E+02    3.622E+02
     3.588E+02    3.555E+02    3.522E+02    3.490E+02    3.458E+02    3.426E+02    3.395E+02    3.364E+02    3.334E+02    3.305E+02
     3.275E+02    3.246E+02    3.218E+02    3.190E+02    3.163E+02    3.136E+02    3.109E+02    3.083E+02    3.057E+02    3.031E+02
     3.006E+02    2.981E+02    2.957E+02    2.933E+02    2.910E+02    2.886E+02    2.864E+02    2.841E+02    2.819E+02    2.797E+02
     2.776E+02    2.755E+02    2.734E+02    2.714E+02    2.694E+02    2.674E+02    2.655E+02    2.636E+02    2.617E+02    2.599E+02
     2.580E+02    2.563E+02    2.545E+02    2.528E+02    2.511E+02    2.494E+02    2.477E+02    2.461E+02    2.445E+02    2.430E+02
     2.414E+02    2.399E+02    2.384E+02    2.369E+02    2.355E+02    2.340E+02    2.326E+02    2.312E+02    2.299E+02    2.285E+02
     2.272E+02    2.259E+02    2.246E+02    2.233E+02    2.220E+02    2.208E+02    2.195E+02    2.183E+02    2.171E+02    2.159E+02
     2.147E+02    2.136E+02    2.124E+02    2.113E+02    2.102E+02    2.090E+02    2.079E+02    2.068E+02    2.057E+02    2.047E+02
     2.036E+02    2.025E+02    2.015E+02    2.004E+02    1.994E+02    1.983E+02    1.973E+02    1.963E+02    1.953E+02    1.942E+02
     1.932E+02    1.923E+02    1.913E+02    1.903E+02    1.893E+02    1.884E+02    1.874E+02    1.864E+02    1.855E+02    1.846E+02
     1.837E+02    1.827E+02    1.818E+02    1.809E+02    1.800E+02    1.792E+02    1.783E+02    1.774E+02    1.766E+02    1.757E+02
     1.749E+02    1.741E+02    1.732E+02    1.724E+02    1.716E+02    1.708E+02    1.701E+02    1.693E+02    1.685E+02    1.678E+02
     1.670E+02    1.663E+02    1.656E+02    1.648E+02    1.641E+02    1.634E+02    1.627E+02    1.621E+02    1.614E+02    1.607E+02
     1.601E+02    1.595E+02    1.588E+02    1.582E+02    1.576E+02    1.570E+02    1.564E+02    1.558E+02    1.552E+02    1.546E+02
     1.541E+02    1.535E+02    1.529E+02    1.524E+02    1.518E+02    1.513E+02    1.508E+02    1.502E+02    1.497E+02    1.492E+02
     1.486E+02    1.481E+02    1.476E+02    1.471E+02    1.466E+02    1.461E+02    1.456E+02    1.451E+02    1.446E+02    1.441E+02
     1.436E+02    1.431E+02    1.426E+02    1.421E+02    1.417E+02    1.412E+02    1.407E+02    1.402E+02    1.397E+02    1.392E+02
     1.387E+02    1.382E+02    1.377E+02    1.372E+02    1.367E+02    1.362E+02    1.357E+02    1.352E+02    1.347E+02    1.342E+02
     1.337E+02    1.332E+02    1.327E+02    1.322E+02    1.317E+02    1.313E+02    1.308E+02    1.303E+02    1.298E+02    1.293E+02
     1.288E+02    1.283E+02    1.278E+02    1.273E+02    1.269E+02    1.264E+02    1.259E+02    1.254E+02    1.250E+02    1.245E+02
     1.240E+02    1.236E+02    1.231E+02    1.227E+02    1.222E+02    1.218E+02    1.214E+02    1.209E+02    1.205E+02    1.201E+02
     1.197E+02    1.193E+02    1.189E+02    1.185E+02    1.181E+02    1.177E+02    1.173E+02    1.169E+02    1.166E+02    1.162E+02
     1.159E+02    1.155E+02    1.152E+02    1.148E+02    1.145E+02    1.142E+02    1.138E+02    1.135E+02    1.132E+02    1.129E+02
     1.126E+02    1.123E+02    1.120E+02    1.117E+02    1.114E+02    1.111E+02    1.108E+02    1.105E+02    1.103E+02    1.100E+02
     1.097E+02    1.094E+02    1.092E+02    1.089E+02    1.086E+02    1.083E+02    1.081E+02    1.078E+02    1.075E+02    1.072E+02
     1.070E+02    1.067E+02    1.064E+02    1.061E+02    1.059E+02    1.056E+02    1.053E+02    1.050E+02    1.047E+02    1.044E+02
     1.042E+02    1.039E+02    1.036E+02    1.033E+02    1.030E+02    1.027E+02    1.024E+02    1.021E+02    1.017E+02    1.014E+02
     1.011E+02    1.008E+02    1.005E+02    1.002E+02    9.983E+01    9.950E+01    9.918E+01    9.885E+01    9.852E+01    9.818E+01
     9.785E+01    9.752E+01    9.718E+01    9.685E+01    9.651E+01    9.617E+01    9.583E+01    9.550E+01    9.516E+01    9.482E+01
     9.448E+01    9.414E+01    9.380E+01    9.346E+01    9.311E+01    9.277E+01    9.243E+01    9.210E+01    9.176E+01    9.142E+01
     9.108E+01    9.074E+01    9.041E+01    9.007E+01    8.974E+01    8.940E+01    8.907E+01    8.874E+01    8.841E+01    8.809E+01
     8.776E+01    8.744E+01    8.711E+01    8.679E+01    8.647E+01    8.615E+01    8.584E+01    8.553E+01    8.521E+01    8.490E+01
     8.460E+01    8.429E+01    8.399E+01    8.369E+01    8.339E+01    8.310E+01    8.280E+01    8.251E+01    8.222E+01    8.194E+01
     8.166E+01    8.138E+01    8.110E+01    8.083E+01    8.056E+01    8.029E+01    8.002E+01    7.976E+01    7.950E+01    7.925E+01
     7.900E+01    7.875E+01    7.851E+01    7.826E+01    7.803E+01    7.779E+01    7.756E+01    7.734E+01    7.712E+01    7.690E+01
     7.668E+01    7.647E+01    7.627E+01    7.606E+01    7.587E+01    7.567E+01    7.548E+01    7.529E+01    7.511E+01    7.493E+01
     7.475E+01    7.458E+01    7.441E+01    7.424E+01    7.407E+01    7.390E+01    7.374E+01    7.358E+01    7.342E+01    7.327E+01
     7.311E+01    7.296E+01    7.281E+01    7.265E+01    7.250E+01    7.236E+01    7.221E+01    7.206E+01    7.191E+01    7.176E+01
     7.162E+01    7.147E+01    7.132E+01    7.118E+01    7.103E+01    7.088E+01    7.073E+01    7.058E+01    7.043E+01    7.028E+01
     7.012E+01    6.997E+01    6.981E+01    6.966E+01    6.950E+01    6.933E+01    6.917E+01    6.900E+01    6.883E+01    6.866E+01
     6.849E+01    6.831E+01    6.814E+01    6.796E+01    6.778E+01    6.759E+01    6.741E+01    6.722E+01    6.703E+01    6.684E+01
     6.665E+01    6.646E+01    6.626E+01    6.606E+01    6.587E+01    6.567E+01    6.547E+01    6.526E+01    6.506E+01    6.486E+01
     6.465E+01    6.445E+01    6.424E+01    6.403E+01    6.382E+01    6.361E+01    6.340E+01    6.319E+01    6.298E+01    6.277E+01
     6.256E+01    6.235E+01    6.213E+01    6.192E+01    6.171E+01    6.149E+01    6.128E+01    6.107E+01    6.086E+01    6.064E+01
     6.043E+01    6.022E+01    6.001E+01    5.979E+01    5.958E+01    5.937E+01    5.916E+01    5.895E+01    5.874E+01    5.853E+01
     5.832E+01    5.811E+01    5.790E+01    5.769E+01    5.747E+01    5.726E+01    5.705E+01    5.684E+01    5.663E+01    5.642E+01
     5.620E+01    5.599E+01    5.577E+01    5.556E+01    5.534E+01    5.513E+01    5.491E+01    5.469E+01    5.448E+01    5.426E+01
     5.404E+01    5.381E+01    5.359E+01    5.337E+01    5.314E+01    5.292E+01    5.269E+01    5.246E+01    5.223E+01    5.200E+01
     5.177E+01    5.153E+01    5.130E+01    5.106E+01    5.082E+01    5.058E+01    5.034E+01    5.010E+01
 Ala      Conc. = 1.92E+01
