 LCModel (Version 6.3-1L) Copyright: S.W. Provencher.          Ref.: Magn. Reson. Med. 30:672-679 (1993).                
 Slice#1 Row#6 Col#6  PD_05_press_2_raw_act
 36 lines in following concentration table = NCONC+1
    Conc.  %SD /Cr+PCr  Metabolite                                         
    0.000 999%   0.000 Ala                                                 
  256.737 179%   0.127 Asp                                                 
 1.35E+03  71%   0.669 Cr                                                  
  670.514 145%   0.331 PCr                                                 
  241.277 119%   0.119 GABA                                                
  155.278 182% 7.7E-02 Glc                                                 
 1.77E+03  86%   0.873 Gln                                                 
 2.05E+03  83%   1.013 Glu                                                 
  689.637  12%   0.341 GPC                                                 
    0.000 999%   0.000 PCh                                                 
 1.12E+03  30%   0.553 GSH                                                 
 4.12E+03  23%   2.036 Ins                                                 
 2.62E+03  32%   1.293 Lac                                                 
 4.58E+03   6%   2.264 NAA                                                 
    0.000 999%   0.000 NAAG                                                
   82.228  92% 4.1E-02 Scyllo                                              
  137.355 318% 6.8E-02 Tau                                                 
    0.000 999%   0.000 -CrCH2                                              
  689.637  12%   0.341 GPC+PCh                                             
 4.58E+03   6%   2.264 NAA+NAAG                                            
 2.02E+03  10%   1.000 Cr+PCr                                              
 3.82E+03  72%   1.887 Glu+Gln                                             
 5.51E+03  27%   2.724 Lip13a                                              
    0.000 999%   0.000 Lip13b                                              
   49.614 999% 2.5E-02 Lip09                                               
 3.36E+03  21%   1.660 MM09                                                
  997.728  51%   0.493 Lip20                                               
 6.04E+03  17%   2.983 MM20                                                
 1.11E+03  32%   0.547 MM12                                                
 6.92E+03  10%   3.417 MM14                                                
    0.000 999%   0.000 MM17                                                
 5.51E+03  27%   2.724 Lip13a+Lip13b                                       
 1.35E+04   8%   6.688 MM14+Lip13a+Lip13b+MM12                             
 3.41E+03  15%   1.685 MM09+Lip09                                          
 7.04E+03  14%   3.476 MM20+Lip20                                          
   6 lines in following misc. output table
  FWHM = 0.076 ppm    S/N =   5                                            
  Data shift = 0.000 ppm                                                   
  Ph: -12 deg       9.5 deg/ppm                                            
  alphaB,S = 8.5E+01,   2.0E+02                                            
   14 spline knots.   Ns =10(1)                                            
   2 inflections.     1 extrema                                            
  498 points on ppm-axis = NY
      4.000000     3.992357     3.984714     3.977070     3.969427     3.961784     3.954141     3.946497     3.938854     3.931211
      3.923568     3.915925     3.908281     3.900638     3.892995     3.885352     3.877708     3.870065     3.862422     3.854779
      3.847136     3.839492     3.831849     3.824206     3.816563     3.808919     3.801276     3.793633     3.785990     3.778347
      3.770703     3.763060     3.755417     3.747774     3.740130     3.732487     3.724844     3.717201     3.709558     3.701914
      3.694271     3.686628     3.678985     3.671341     3.663698     3.656055     3.648412     3.640769     3.633125     3.625482
      3.617839     3.610196     3.602552     3.594909     3.587266     3.579623     3.571980     3.564336     3.556693     3.549050
      3.541407     3.533763     3.526120     3.518477     3.510834     3.503191     3.495547     3.487904     3.480261     3.472618
      3.464974     3.457331     3.449688     3.442045     3.434402     3.426758     3.419115     3.411472     3.403829     3.396185
      3.388542     3.380899     3.373256     3.365613     3.357969     3.350326     3.342683     3.335040     3.327396     3.319753
      3.312110     3.304467     3.296824     3.289180     3.281537     3.273894     3.266251     3.258607     3.250964     3.243321
      3.235678     3.228034     3.220391     3.212748     3.205105     3.197462     3.189818     3.182175     3.174532     3.166889
      3.159245     3.151602     3.143959     3.136316     3.128673     3.121029     3.113386     3.105743     3.098100     3.090456
      3.082813     3.075170     3.067527     3.059884     3.052240     3.044597     3.036954     3.029311     3.021667     3.014024
      3.006381     2.998738     2.991095     2.983451     2.975808     2.968165     2.960522     2.952878     2.945235     2.937592
      2.929949     2.922306     2.914662     2.907019     2.899376     2.891733     2.884089     2.876446     2.868803     2.861160
      2.853517     2.845873     2.838230     2.830587     2.822944     2.815300     2.807657     2.800014     2.792371     2.784728
      2.777084     2.769441     2.761798     2.754155     2.746511     2.738868     2.731225     2.723582     2.715939     2.708295
      2.700652     2.693009     2.685366     2.677722     2.670079     2.662436     2.654793     2.647150     2.639506     2.631863
      2.624220     2.616577     2.608933     2.601290     2.593647     2.586004     2.578361     2.570717     2.563074     2.555431
      2.547788     2.540144     2.532501     2.524858     2.517215     2.509572     2.501928     2.494285     2.486642     2.478999
      2.471355     2.463712     2.456069     2.448426     2.440783     2.433139     2.425496     2.417853     2.410210     2.402566
      2.394923     2.387280     2.379637     2.371994     2.364350     2.356707     2.349064     2.341421     2.333777     2.326134
      2.318491     2.310848     2.303205     2.295561     2.287918     2.280275     2.272632     2.264988     2.257345     2.249702
      2.242059     2.234416     2.226772     2.219129     2.211486     2.203843     2.196199     2.188556     2.180913     2.173270
      2.165627     2.157983     2.150340     2.142697     2.135054     2.127410     2.119767     2.112124     2.104481     2.096838
      2.089194     2.081551     2.073908     2.066265     2.058621     2.050978     2.043335     2.035692     2.028049     2.020405
      2.012762     2.005119     1.997476     1.989833     1.982190     1.974546     1.966903     1.959260     1.951617     1.943974
      1.936331     1.928688     1.921045     1.913402     1.905759     1.898115     1.890472     1.882829     1.875186     1.867543
      1.859900     1.852257     1.844614     1.836971     1.829327     1.821684     1.814041     1.806398     1.798755     1.791112
      1.783469     1.775826     1.768183     1.760540     1.752896     1.745253     1.737610     1.729967     1.722324     1.714681
      1.707038     1.699395     1.691752     1.684108     1.676465     1.668822     1.661179     1.653536     1.645893     1.638250
      1.630607     1.622964     1.615321     1.607677     1.600034     1.592391     1.584748     1.577105     1.569462     1.561819
      1.554176     1.546533     1.538890     1.531246     1.523603     1.515960     1.508317     1.500674     1.493031     1.485388
      1.477745     1.470102     1.462458     1.454815     1.447172     1.439529     1.431886     1.424243     1.416600     1.408957
      1.401314     1.393671     1.386027     1.378384     1.370741     1.363098     1.355455     1.347812     1.340169     1.332526
      1.324883     1.317240     1.309596     1.301953     1.294310     1.286667     1.279024     1.271381     1.263738     1.256095
      1.248452     1.240808     1.233165     1.225522     1.217879     1.210236     1.202593     1.194950     1.187307     1.179664
      1.172021     1.164377     1.156734     1.149091     1.141448     1.133805     1.126162     1.118519     1.110876     1.103233
      1.095590     1.087946     1.080303     1.072660     1.065017     1.057374     1.049731     1.042088     1.034445     1.026802
      1.019158     1.011515     1.003872     0.996229     0.988586     0.980943     0.973300     0.965657     0.958014     0.950371
      0.942727     0.935084     0.927441     0.919798     0.912155     0.904512     0.896869     0.889226     0.881583     0.873940
      0.866296     0.858653     0.851010     0.843367     0.835724     0.828081     0.820438     0.812795     0.805152     0.797508
      0.789865     0.782222     0.774579     0.766936     0.759293     0.751650     0.744007     0.736364     0.728721     0.721077
      0.713434     0.705791     0.698148     0.690505     0.682862     0.675219     0.667576     0.659933     0.652290     0.644646
      0.637003     0.629360     0.621717     0.614074     0.606431     0.598788     0.591145     0.583502     0.575858     0.568215
      0.560572     0.552929     0.545286     0.537643     0.530000     0.522357     0.514714     0.507071     0.499427     0.491784
      0.484141     0.476498     0.468855     0.461212     0.453569     0.445925     0.438282     0.430639     0.422996     0.415353
      0.407710     0.400067     0.392424     0.384780     0.377137     0.369494     0.361851     0.354208     0.346565     0.338922
      0.331278     0.323635     0.315992     0.308349     0.300706     0.293063     0.285420     0.277777     0.270133     0.262490
      0.254847     0.247204     0.239561     0.231918     0.224275     0.216631     0.208988     0.201345
 NY phased data points follow
   1.35239E+01  9.10628E+00  1.43299E+01 -1.09397E+00  2.73382E+01  2.62077E-01  3.78311E+01  2.88404E+01  3.17030E+01  1.98645E+01
   3.24302E+01  4.25003E+01  2.77519E+01  1.68679E+01  2.83677E+01  2.53346E+01  2.34051E+01  1.04845E+01  9.88360E+00  1.22832E+00
   2.36044E+01  2.72108E+01  8.81549E+00  1.85226E+01 -7.53737E+00  1.62365E+01  1.12678E+01  2.24192E+01  3.91768E+01  4.64243E+00
   2.10760E+01  1.09222E+01  1.46868E+01 -6.75650E-01  1.34452E+01  9.57046E+00 -1.08320E+00 -5.40927E+00  2.66390E+01 -1.52935E+00
   3.55359E-01 -2.13861E+00  1.96243E+01  1.50190E+01  8.27578E+00  1.77144E+01  2.13077E+01  1.52828E+01  1.81827E+01  1.31878E+01
   2.10963E+01  2.05530E+01  1.21271E+01  1.81409E+01  3.10247E+01  1.10018E+00  5.63225E+00  8.66407E+00  1.01003E+01  1.23839E+01
   1.69714E+01  1.01411E+01  9.08326E+00  1.05019E+01  7.42490E+00 -1.96241E+00  1.90674E+00 -9.15348E+00 -1.99758E+01 -4.74378E+00
   9.21950E+00 -1.33540E+01 -6.47934E+00  7.30514E+00 -7.64615E+00  5.41242E+00 -1.93541E+01  1.00818E+01  1.78712E+01 -2.83729E+01
  -6.93220E-01 -1.17363E+01 -2.37271E+01 -5.74830E+00 -1.36798E+01 -4.25184E+00 -1.00158E+01 -8.44028E+00  1.26032E+01  1.12683E+01
   1.11030E+01 -4.21816E+00 -1.03883E+01 -8.93952E+00 -1.00681E+01 -5.49808E+00 -1.03301E+01  5.03555E+00  2.20568E+01  1.19882E+01
   3.05897E+01  4.22926E+01  2.88710E+01  4.86738E+01  3.87971E+01  2.79217E+01  1.77082E+01  3.15474E+01  9.64745E+00  2.66715E+01
   5.97715E+00  8.14839E+00  1.71769E+00 -1.49165E+01  1.85256E+01 -1.51131E+01 -1.96479E+00  1.32707E+01  8.51124E+00  3.55835E+00
   1.29990E+00  4.45616E+00  1.41937E+01  2.19233E+01  3.26916E+01  3.42987E+01  3.76509E+01  4.56324E+01  4.95563E+01  4.25957E+01
   3.74090E+01  3.26518E+01  2.42754E+01  2.32817E+01  2.25856E+01 -1.75404E+00 -1.08437E+00  4.69552E+00  1.84907E+01  8.10500E+00
  -1.24438E+01 -1.94975E+01 -4.17455E+00  9.58362E+00 -9.51649E+00  8.87494E+00 -5.94397E+00 -2.27839E+00 -2.33885E+01 -6.90064E+00
   1.48866E+00 -1.81275E+01 -5.09631E+00 -1.55726E+01 -1.06995E+01 -1.45703E+01 -9.33110E+00 -4.77309E+00 -6.89962E+00  3.74415E-01
   9.27192E+00 -4.15467E-02 -2.75734E+01 -1.94405E+01 -9.22507E+00  6.37619E+00 -1.96445E-01 -2.14069E+01 -1.26820E+01 -1.34886E+01
  -3.30762E+01 -3.48946E+01 -1.76441E+01 -2.89716E+01 -2.18197E+01 -1.83021E+01 -1.98149E+01 -1.61150E+01 -3.45441E+01 -4.82684E+01
  -1.48338E+01 -2.44192E+01 -3.98804E+00 -2.32136E+01 -1.69145E+01 -2.32000E+01 -2.26690E+01 -1.41385E+01 -4.17560E+00 -8.55689E+00
  -6.21245E+00 -6.95000E+00  4.35358E+00 -2.49356E+01 -1.11638E+01 -3.01323E+01 -1.57468E+01 -8.69341E+00 -5.66746E+00  7.44045E-01
   4.48735E+00 -2.60718E+01 -3.42975E+01 -3.21522E+00  9.04890E+00  1.25475E+01 -2.26069E+01 -6.70275E+00  4.45108E+00  4.75370E+00
   1.30722E+00  2.76661E+00 -1.36144E+01  4.16578E+00  2.46920E+01 -1.80529E+00 -4.68640E+00  9.39847E-01  1.22321E+01 -5.45565E+00
   1.13306E+01 -2.01685E+00 -5.28215E+00  1.31908E+01  4.17566E+00 -1.53488E+00  2.54460E+00  5.38476E+00  1.20237E+01  1.73209E+01
  -2.03762E+00  1.24771E+01  1.71210E+01  1.18428E+01  6.41497E+00  2.34546E+01  1.45295E+01  3.25914E+01  2.04253E+01  1.00409E+01
   3.63735E+00  1.63112E+01  8.07330E+00  2.25549E+00  2.04716E+01  1.16085E+01  1.10701E+01  1.17867E+01  1.61685E+01  2.55448E+01
   1.80935E+01  4.91962E+01  1.90850E+01  3.79871E+01  6.89259E+01  5.06301E+01  7.74931E+01  9.52883E+01  9.11938E+01  1.15593E+02
   1.35226E+02  1.44208E+02  1.08117E+02  9.88087E+01  6.88610E+01  7.29023E+01  4.53752E+01  2.36929E+01  2.20215E+01  2.24314E+01
   2.09320E+01 -7.71021E+00  7.61790E+00  2.21503E+01  2.99188E+00 -3.04971E+00 -2.38137E+01 -2.00041E+00 -1.80025E+00 -7.36056E+00
   8.14411E+00  1.64235E+01  2.34687E-01 -7.87353E+00 -2.84606E+01 -2.00624E+01 -1.02576E+01 -8.24116E+00 -2.00321E+01  6.88170E+00
  -1.44143E+01 -7.92122E+00  3.57764E-01 -1.14654E+00 -7.08203E+00 -8.53024E+00 -1.83115E+01 -1.57175E+01  5.43258E+00 -1.17987E+01
  -4.72977E+00 -6.07063E+00 -3.67379E+00 -1.89319E+01  4.16054E+00  1.74792E+00 -9.13225E-01 -7.68563E+00 -1.53830E+01 -1.54555E+01
  -1.21324E+01 -3.10856E+01 -1.40647E+01 -2.34774E+01 -1.69370E+01 -5.58491E+00 -1.90571E+01 -3.47692E+01 -3.48714E+01 -4.79611E+00
  -1.24070E+01 -6.30252E+00 -1.38942E+01 -1.15553E+01  3.16863E+01  2.71270E+01  2.38395E+01  1.92953E+01  2.71009E+01  2.45860E+01
   4.22845E+01  6.24851E+01  6.79882E+01  6.03165E+01  6.77990E+01  4.66204E+01  5.20924E+01  3.86423E+01  7.78463E+01  6.96613E+01
   7.07560E+01  5.21919E+01  6.03821E+01  6.97349E+01  6.98879E+01  5.64569E+01  5.24558E+01  3.56953E+01  3.16764E+01  4.49918E+01
   3.08954E+01  1.73356E+01  2.04465E+01  2.93371E+01  1.00568E+01  7.97291E+00  5.76797E+01  4.03675E+00  2.10258E+01  2.89014E+01
   1.40320E+01  2.82655E+01  4.15145E+01  7.84740E+00 -1.81999E+00  1.92404E+01  3.74177E+01  2.49545E+01  2.95207E+01  1.82962E+01
   1.04671E+01  2.25804E+01  3.68322E+01  1.47034E+00  1.79462E+01  8.81015E+00  1.04271E+01  1.32562E+01  6.51969E+00 -7.39443E+00
  -7.55661E+00 -3.41288E+01 -1.31294E+01 -1.85908E+01 -1.11270E+01  1.16527E+01 -1.38848E+01 -7.02630E+00  7.00195E-01  2.81491E+00
  -1.73303E+00 -1.05352E+01  1.15393E+01  8.58688E+00 -1.86848E+00  5.76888E+00  2.95468E+00  7.54761E+00  1.12796E+01  2.11249E+01
   1.06497E+01 -1.22136E+01  1.78006E+01  8.97936E+00  1.61692E+01 -1.73662E+00  5.53670E+00  5.21081E+00 -1.17052E+00  1.85876E+01
  -4.78512E+00  9.93207E+00  1.01416E+01  2.29298E+01 -5.86204E-01  3.53606E+00 -1.91724E+01 -2.03175E+00 -9.12740E+00 -2.76980E+00
  -2.57188E+01 -1.12174E+01 -1.44849E+01 -5.95965E+00 -2.87775E+01 -1.04359E+01  1.95786E+00 -2.91435E+01 -1.96736E+01 -3.03796E+01
  -3.07014E+01 -1.84005E+01 -1.55898E+01 -1.96782E+00 -6.50201E+00 -2.61379E+01 -6.98580E+00 -1.90446E+01 -1.20830E+00 -1.17826E+01
  -2.13455E+01 -1.47466E+01 -1.12690E+01 -1.99194E+01 -2.34805E+01 -1.32432E+01  6.83090E-01 -3.85844E+01 -2.08128E+01 -1.04947E+01
  -5.39491E+00 -1.55114E+01 -3.75437E+00 -2.17407E+01  1.06540E+00 -7.34510E+00 -2.12471E+01  8.03301E-01 -7.74929E+00 -1.46275E+01
  -1.64760E+01 -2.48407E+01 -1.84674E+01 -2.58008E+01  1.98769E-01 -7.21126E+00 -6.68058E+00 -1.02108E+01 -1.23778E+00 -1.37302E+01
  -1.13674E+00 -2.99267E+01 -6.44440E+00  7.73219E-01 -3.10608E+00 -2.87085E+01 -1.31459E+01 -1.62521E+01 -1.32925E+00 -4.47291E+00
  -1.57372E+01 -1.14269E+01  1.62159E+00 -3.00172E+01  1.85691E+00 -3.40278E+01 -1.67745E+01 -1.83350E+01 -1.92717E+01 -1.58818E+01
  -5.47994E+00 -1.27942E+00 -1.24674E+01 -2.40574E+01 -2.68343E+01 -2.85094E+00 -2.08546E+01 -3.16646E+00
 NY points of the fit to the data follow
   8.54167E+00  7.93712E+00  8.32669E+00  9.68092E+00  1.20269E+01  1.52759E+01  1.90330E+01  2.29846E+01  2.68018E+01  2.99141E+01
   3.18000E+01  3.22194E+01  3.11399E+01  2.87428E+01  2.54441E+01  2.17449E+01  1.80154E+01  1.44568E+01  1.11786E+01  8.43933E+00
   6.55953E+00  5.49984E+00  5.19013E+00  5.83428E+00  7.48342E+00  9.73284E+00  1.23398E+01  1.51222E+01  1.78253E+01  2.00611E+01
   2.13779E+01  2.14685E+01  2.03753E+01  1.83980E+01  1.58635E+01  1.30483E+01  1.03233E+01  8.18806E+00  6.87223E+00  6.24351E+00
   6.22625E+00  7.07088E+00  8.86629E+00  1.11527E+01  1.36412E+01  1.59679E+01  1.76872E+01  1.83595E+01  1.77041E+01  1.58615E+01
   1.32925E+01  1.05316E+01  8.00814E+00  5.91172E+00  4.37515E+00  3.47770E+00  3.08575E+00  2.94731E+00  2.96046E+00  3.19418E+00
   3.52696E+00  3.61951E+00  3.34865E+00  2.83276E+00  2.27502E+00  1.84949E+00  1.65756E+00  1.73743E+00  2.04716E+00  2.45531E+00
   2.83315E+00  3.16067E+00  3.41268E+00  3.51419E+00  3.43807E+00  3.17164E+00  2.76899E+00  2.23080E+00  1.54514E+00  7.62706E-01
  -6.62035E-02 -9.36201E-01 -1.88113E+00 -2.89713E+00 -3.91956E+00 -4.95292E+00 -5.94992E+00 -6.79996E+00 -7.38089E+00 -7.58833E+00
  -7.39766E+00 -6.85458E+00 -5.92902E+00 -4.17937E+00 -1.50084E+00  1.78567E+00  5.66968E+00  1.02523E+01  1.55603E+01  2.13712E+01
   2.72007E+01  3.24115E+01  3.62887E+01  3.80834E+01  3.73209E+01  3.41988E+01  2.95032E+01  2.40928E+01  1.85894E+01  1.33400E+01
   8.61408E+00  4.63700E+00  1.30855E+00 -1.57795E+00 -3.76519E+00 -4.56021E+00 -4.12867E+00 -2.69913E+00 -1.74997E-01  3.21893E+00
   7.49954E+00  1.27172E+01  1.87947E+01  2.55140E+01  3.23623E+01  3.85609E+01  4.32769E+01  4.56945E+01  4.52854E+01  4.22323E+01
   3.72841E+01  3.12886E+01  2.48633E+01  1.84259E+01  1.24002E+01  7.18093E+00  2.87378E+00 -6.12377E-01 -3.07337E+00 -4.01596E+00
  -3.86104E+00 -3.51314E+00 -3.28181E+00 -3.24583E+00 -3.36591E+00 -3.56053E+00 -3.83777E+00 -4.24952E+00 -4.76414E+00 -5.34789E+00
  -5.97668E+00 -6.61223E+00 -7.21710E+00 -7.73467E+00 -8.17419E+00 -8.55977E+00 -8.93673E+00 -9.33438E+00 -9.73547E+00 -1.01131E+01
  -1.04271E+01 -1.06401E+01 -1.07570E+01 -1.08293E+01 -1.09453E+01 -1.11966E+01 -1.16419E+01 -1.22455E+01 -1.29009E+01 -1.35683E+01
  -1.42305E+01 -1.48897E+01 -1.55426E+01 -1.61812E+01 -1.67487E+01 -1.71889E+01 -1.74524E+01 -1.75449E+01 -1.75449E+01 -1.74797E+01
  -1.73268E+01 -1.70210E+01 -1.64953E+01 -1.57431E+01 -1.47788E+01 -1.35842E+01 -1.21726E+01 -1.06485E+01 -9.21079E+00 -7.99002E+00
  -7.06110E+00 -6.50616E+00 -6.33404E+00 -6.46746E+00 -6.67476E+00 -6.70716E+00 -6.40891E+00 -5.73703E+00 -4.73435E+00 -3.56546E+00
  -2.45315E+00 -1.53437E+00 -9.64644E-01 -9.49420E-01 -1.57254E+00 -2.78237E+00 -4.33840E+00 -5.94279E+00 -7.30547E+00 -8.14815E+00
  -8.27373E+00 -7.60704E+00 -6.36784E+00 -4.87455E+00 -3.39587E+00 -2.17561E+00 -1.42735E+00 -1.24294E+00 -1.51988E+00 -1.98957E+00
  -2.36789E+00 -2.56174E+00 -2.52215E+00 -2.00579E+00 -1.02657E+00  8.41733E-02  1.11494E+00  2.10752E+00  3.14072E+00  4.08274E+00
   4.91015E+00  5.75998E+00  6.71611E+00  7.66907E+00  8.47832E+00  9.14586E+00  9.75430E+00  1.02905E+01  1.06630E+01  1.08556E+01
   1.09515E+01  1.10848E+01  1.13301E+01  1.17209E+01  1.23549E+01  1.33101E+01  1.45101E+01  1.58201E+01  1.72162E+01  1.90563E+01
   2.24918E+01  2.81711E+01  3.55410E+01  4.45783E+01  5.53336E+01  6.75448E+01  8.08386E+01  9.43272E+01  1.06532E+02  1.15708E+02
   1.20064E+02  1.18296E+02  1.10573E+02  9.85983E+01  8.44427E+01  6.96547E+01  5.51997E+01  4.18852E+01  3.03542E+01  2.05189E+01
   1.18358E+01  4.64728E+00  4.51586E-01 -1.05661E+00 -1.85762E+00 -2.49283E+00 -3.06425E+00 -3.63094E+00 -4.21323E+00 -4.78944E+00
  -5.34534E+00 -5.86965E+00 -6.35261E+00 -6.78669E+00 -7.17147E+00 -7.49971E+00 -7.76921E+00 -7.99079E+00 -8.17302E+00 -8.32289E+00
  -8.44998E+00 -8.56104E+00 -8.66070E+00 -8.75178E+00 -8.83157E+00 -8.89912E+00 -8.95442E+00 -8.99446E+00 -9.01648E+00 -9.02151E+00
  -9.01101E+00 -8.98399E+00 -8.93931E+00 -8.87709E+00 -8.79585E+00 -8.69214E+00 -8.56260E+00 -8.40168E+00 -8.20210E+00 -7.95487E+00
  -7.64900E+00 -7.27128E+00 -6.80630E+00 -6.23659E+00 -5.54251E+00 -4.70247E+00 -3.69362E+00 -2.49266E+00 -1.07661E+00  5.75752E-01
   2.48260E+00  4.65761E+00  7.10835E+00  9.83458E+00  1.28268E+01  1.60653E+01  1.95191E+01  2.31469E+01  2.68970E+01  3.07091E+01
   3.45167E+01  3.82503E+01  4.18421E+01  4.52318E+01  4.83745E+01  5.12545E+01  5.39186E+01  5.65364E+01  5.90683E+01  6.11416E+01
   6.26448E+01  6.35061E+01  6.35392E+01  6.24799E+01  6.00005E+01  5.61059E+01  5.09855E+01  4.47009E+01  3.76550E+01  3.07031E+01
   2.48586E+01  2.08773E+01  1.90313E+01  1.91824E+01  2.09455E+01  2.36542E+01  2.63471E+01  2.82485E+01  2.92832E+01  2.98038E+01
   2.96982E+01  2.85522E+01  2.66218E+01  2.42888E+01  2.17374E+01  1.89027E+01  1.58318E+01  1.30758E+01  1.09291E+01  9.12535E+00
   7.52741E+00  6.08392E+00  4.77266E+00  3.58389E+00  2.51388E+00  1.56180E+00  7.28253E-01  1.44821E-02 -5.77932E-01 -1.04731E+00
  -1.39206E+00 -1.61082E+00 -1.70256E+00 -1.66661E+00 -1.50287E+00 -1.21208E+00 -7.96189E-01 -2.58793E-01  3.94486E-01  1.15562E+00
   2.01377E+00  2.95498E+00  3.96190E+00  5.01383E+00  6.08690E+00  7.15456E+00  8.18823E+00  9.15814E+00  1.00344E+01  1.07882E+01
   1.13932E+01  1.18268E+01  1.20709E+01  1.21135E+01  1.19485E+01  1.15767E+01  1.10052E+01  1.02476E+01  9.32260E+00  8.25345E+00
   7.06645E+00  5.78982E+00  4.45238E+00  3.08224E+00  1.70579E+00  3.46685E-01 -9.74610E-01 -2.24131E+00 -3.44039E+00 -4.56257E+00
  -5.60211E+00 -6.55637E+00 -7.42536E+00 -8.21120E+00 -8.91770E+00 -9.54982E+00 -1.01133E+01 -1.06143E+01 -1.10590E+01 -1.14534E+01
  -1.18034E+01 -1.21141E+01 -1.23906E+01 -1.26372E+01 -1.28578E+01 -1.30557E+01 -1.32340E+01 -1.33951E+01 -1.35414E+01 -1.36747E+01
  -1.37966E+01 -1.39085E+01 -1.40116E+01 -1.41070E+01 -1.41956E+01 -1.42780E+01 -1.43550E+01 -1.44271E+01 -1.44948E+01 -1.45586E+01
  -1.46188E+01 -1.46758E+01 -1.47299E+01 -1.47813E+01 -1.48302E+01 -1.48770E+01 -1.49217E+01 -1.49645E+01 -1.50056E+01 -1.50450E+01
  -1.50830E+01 -1.51197E+01 -1.51551E+01 -1.51893E+01 -1.52224E+01 -1.52544E+01 -1.52856E+01 -1.53158E+01 -1.53453E+01 -1.53739E+01
  -1.54017E+01 -1.54289E+01 -1.54555E+01 -1.54815E+01 -1.55068E+01 -1.55316E+01 -1.55559E+01 -1.55797E+01 -1.56030E+01 -1.56258E+01
  -1.56483E+01 -1.56703E+01 -1.56919E+01 -1.57131E+01 -1.57339E+01 -1.57544E+01 -1.57745E+01 -1.57943E+01 -1.58137E+01 -1.58328E+01
  -1.58516E+01 -1.58699E+01 -1.58880E+01 -1.59056E+01 -1.59229E+01 -1.59398E+01 -1.59563E+01 -1.59723E+01
 NY background values follow
    -8.394E+00   -8.409E+00   -8.424E+00   -8.440E+00   -8.455E+00   -8.471E+00   -8.486E+00   -8.501E+00   -8.517E+00   -8.532E+00
    -8.548E+00   -8.563E+00   -8.578E+00   -8.594E+00   -8.609E+00   -8.625E+00   -8.640E+00   -8.655E+00   -8.671E+00   -8.686E+00
    -8.702E+00   -8.717E+00   -8.732E+00   -8.748E+00   -8.763E+00   -8.779E+00   -8.794E+00   -8.809E+00   -8.825E+00   -8.840E+00
    -8.856E+00   -8.871E+00   -8.886E+00   -8.902E+00   -8.917E+00   -8.933E+00   -8.948E+00   -8.963E+00   -8.979E+00   -8.994E+00
    -9.010E+00   -9.025E+00   -9.041E+00   -9.056E+00   -9.071E+00   -9.087E+00   -9.102E+00   -9.118E+00   -9.133E+00   -9.148E+00
    -9.164E+00   -9.179E+00   -9.195E+00   -9.210E+00   -9.225E+00   -9.241E+00   -9.256E+00   -9.272E+00   -9.287E+00   -9.302E+00
    -9.318E+00   -9.333E+00   -9.349E+00   -9.364E+00   -9.380E+00   -9.395E+00   -9.410E+00   -9.426E+00   -9.441E+00   -9.457E+00
    -9.472E+00   -9.487E+00   -9.503E+00   -9.518E+00   -9.534E+00   -9.549E+00   -9.565E+00   -9.580E+00   -9.595E+00   -9.611E+00
    -9.626E+00   -9.642E+00   -9.657E+00   -9.672E+00   -9.688E+00   -9.703E+00   -9.719E+00   -9.734E+00   -9.749E+00   -9.765E+00
    -9.780E+00   -9.796E+00   -9.811E+00   -9.827E+00   -9.842E+00   -9.857E+00   -9.873E+00   -9.888E+00   -9.904E+00   -9.919E+00
    -9.934E+00   -9.950E+00   -9.965E+00   -9.981E+00   -9.996E+00   -1.001E+01   -1.003E+01   -1.004E+01   -1.006E+01   -1.007E+01
    -1.009E+01   -1.010E+01   -1.012E+01   -1.013E+01   -1.015E+01   -1.017E+01   -1.018E+01   -1.020E+01   -1.021E+01   -1.023E+01
    -1.024E+01   -1.026E+01   -1.027E+01   -1.029E+01   -1.030E+01   -1.032E+01   -1.034E+01   -1.035E+01   -1.037E+01   -1.038E+01
    -1.040E+01   -1.041E+01   -1.043E+01   -1.044E+01   -1.046E+01   -1.047E+01   -1.049E+01   -1.050E+01   -1.052E+01   -1.054E+01
    -1.055E+01   -1.057E+01   -1.058E+01   -1.060E+01   -1.061E+01   -1.063E+01   -1.064E+01   -1.066E+01   -1.067E+01   -1.069E+01
    -1.071E+01   -1.072E+01   -1.074E+01   -1.075E+01   -1.077E+01   -1.078E+01   -1.080E+01   -1.081E+01   -1.083E+01   -1.084E+01
    -1.086E+01   -1.088E+01   -1.089E+01   -1.091E+01   -1.092E+01   -1.094E+01   -1.095E+01   -1.097E+01   -1.098E+01   -1.100E+01
    -1.101E+01   -1.103E+01   -1.104E+01   -1.106E+01   -1.108E+01   -1.109E+01   -1.111E+01   -1.112E+01   -1.114E+01   -1.115E+01
    -1.117E+01   -1.118E+01   -1.120E+01   -1.121E+01   -1.123E+01   -1.125E+01   -1.126E+01   -1.128E+01   -1.129E+01   -1.131E+01
    -1.132E+01   -1.134E+01   -1.135E+01   -1.137E+01   -1.138E+01   -1.140E+01   -1.141E+01   -1.143E+01   -1.145E+01   -1.146E+01
    -1.148E+01   -1.149E+01   -1.151E+01   -1.152E+01   -1.154E+01   -1.155E+01   -1.157E+01   -1.158E+01   -1.160E+01   -1.162E+01
    -1.163E+01   -1.165E+01   -1.166E+01   -1.168E+01   -1.169E+01   -1.171E+01   -1.172E+01   -1.174E+01   -1.175E+01   -1.177E+01
    -1.178E+01   -1.180E+01   -1.182E+01   -1.183E+01   -1.185E+01   -1.186E+01   -1.188E+01   -1.189E+01   -1.191E+01   -1.192E+01
    -1.194E+01   -1.195E+01   -1.197E+01   -1.199E+01   -1.200E+01   -1.202E+01   -1.203E+01   -1.205E+01   -1.206E+01   -1.208E+01
    -1.209E+01   -1.211E+01   -1.212E+01   -1.214E+01   -1.216E+01   -1.217E+01   -1.219E+01   -1.220E+01   -1.222E+01   -1.223E+01
    -1.225E+01   -1.226E+01   -1.228E+01   -1.229E+01   -1.231E+01   -1.232E+01   -1.234E+01   -1.236E+01   -1.237E+01   -1.239E+01
    -1.240E+01   -1.242E+01   -1.243E+01   -1.245E+01   -1.246E+01   -1.248E+01   -1.249E+01   -1.251E+01   -1.253E+01   -1.254E+01
    -1.256E+01   -1.257E+01   -1.259E+01   -1.260E+01   -1.262E+01   -1.263E+01   -1.265E+01   -1.266E+01   -1.268E+01   -1.269E+01
    -1.271E+01   -1.273E+01   -1.274E+01   -1.276E+01   -1.277E+01   -1.279E+01   -1.280E+01   -1.282E+01   -1.283E+01   -1.285E+01
    -1.286E+01   -1.288E+01   -1.290E+01   -1.291E+01   -1.293E+01   -1.294E+01   -1.296E+01   -1.297E+01   -1.299E+01   -1.300E+01
    -1.302E+01   -1.303E+01   -1.305E+01   -1.307E+01   -1.308E+01   -1.310E+01   -1.311E+01   -1.313E+01   -1.314E+01   -1.316E+01
    -1.317E+01   -1.319E+01   -1.320E+01   -1.322E+01   -1.323E+01   -1.325E+01   -1.327E+01   -1.328E+01   -1.330E+01   -1.331E+01
    -1.333E+01   -1.334E+01   -1.336E+01   -1.337E+01   -1.339E+01   -1.340E+01   -1.342E+01   -1.344E+01   -1.345E+01   -1.347E+01
    -1.348E+01   -1.350E+01   -1.351E+01   -1.353E+01   -1.354E+01   -1.356E+01   -1.357E+01   -1.359E+01   -1.360E+01   -1.362E+01
    -1.364E+01   -1.365E+01   -1.367E+01   -1.368E+01   -1.370E+01   -1.371E+01   -1.373E+01   -1.374E+01   -1.376E+01   -1.377E+01
    -1.379E+01   -1.381E+01   -1.382E+01   -1.384E+01   -1.385E+01   -1.387E+01   -1.388E+01   -1.390E+01   -1.391E+01   -1.393E+01
    -1.394E+01   -1.396E+01   -1.397E+01   -1.399E+01   -1.401E+01   -1.402E+01   -1.404E+01   -1.405E+01   -1.407E+01   -1.408E+01
    -1.410E+01   -1.411E+01   -1.413E+01   -1.414E+01   -1.416E+01   -1.418E+01   -1.419E+01   -1.421E+01   -1.422E+01   -1.424E+01
    -1.425E+01   -1.427E+01   -1.428E+01   -1.430E+01   -1.431E+01   -1.433E+01   -1.434E+01   -1.436E+01   -1.438E+01   -1.439E+01
    -1.441E+01   -1.442E+01   -1.444E+01   -1.445E+01   -1.447E+01   -1.448E+01   -1.450E+01   -1.451E+01   -1.453E+01   -1.455E+01
    -1.456E+01   -1.458E+01   -1.459E+01   -1.461E+01   -1.462E+01   -1.464E+01   -1.465E+01   -1.467E+01   -1.468E+01   -1.470E+01
    -1.471E+01   -1.473E+01   -1.475E+01   -1.476E+01   -1.478E+01   -1.479E+01   -1.481E+01   -1.482E+01   -1.484E+01   -1.485E+01
    -1.487E+01   -1.488E+01   -1.490E+01   -1.492E+01   -1.493E+01   -1.495E+01   -1.496E+01   -1.498E+01   -1.499E+01   -1.501E+01
    -1.502E+01   -1.504E+01   -1.505E+01   -1.507E+01   -1.508E+01   -1.510E+01   -1.512E+01   -1.513E+01   -1.515E+01   -1.516E+01
    -1.518E+01   -1.519E+01   -1.521E+01   -1.522E+01   -1.524E+01   -1.525E+01   -1.527E+01   -1.529E+01   -1.530E+01   -1.532E+01
    -1.533E+01   -1.535E+01   -1.536E+01   -1.538E+01   -1.539E+01   -1.541E+01   -1.542E+01   -1.544E+01   -1.545E+01   -1.547E+01
    -1.549E+01   -1.550E+01   -1.552E+01   -1.553E+01   -1.555E+01   -1.556E+01   -1.558E+01   -1.559E+01   -1.561E+01   -1.562E+01
    -1.564E+01   -1.566E+01   -1.567E+01   -1.569E+01   -1.570E+01   -1.572E+01   -1.573E+01   -1.575E+01   -1.576E+01   -1.578E+01
    -1.579E+01   -1.581E+01   -1.582E+01   -1.584E+01   -1.586E+01   -1.587E+01   -1.589E+01   -1.590E+01   -1.592E+01   -1.593E+01
    -1.595E+01   -1.596E+01   -1.598E+01   -1.599E+01   -1.601E+01   -1.603E+01   -1.604E+01   -1.606E+01
 Asp      Conc. = 2.57E+02
