 LCModel (Version 6.3-1L) Copyright: S.W. Provencher.          Ref.: Magn. Reson. Med. 30:672-679 (1993).                
 Slice#3 Row#1 Col#4  PD_05_press_2_raw_act
 36 lines in following concentration table = NCONC+1
    Conc.  %SD /Cr+PCr  Metabolite                                         
  346.327  69%   1.004 Ala                                                 
   22.101  57% 6.4E-02 Asp                                                 
  345.093  31%   1.000 Cr                                                  
    0.000 999%   0.000 PCr                                                 
   13.181  57% 3.8E-02 GABA                                                
   13.270  57% 3.8E-02 Glc                                                 
    0.000 999%   0.000 Gln                                                 
    0.000 999%   0.000 Glu                                                 
   18.897 219% 5.5E-02 GPC                                                 
    0.000 999%   0.000 PCh                                                 
  115.758 135%   0.335 GSH                                                 
  762.957  66%   2.211 Ins                                                 
   31.899 821% 9.2E-02 Lac                                                 
    0.000 999%   0.000 NAA                                                 
   39.753 326%   0.115 NAAG                                                
    4.455  57% 1.3E-02 Scyllo                                              
   21.997  57% 6.4E-02 Tau                                                 
   33.269  43% 9.6E-02 -CrCH2                                              
   18.897 219% 5.5E-02 GPC+PCh                                             
   39.753 326%   0.115 NAA+NAAG                                            
  345.093  31%   1.000 Cr+PCr                                              
    0.000 999%   0.000 Glu+Gln                                             
 2.10E+03  36%   6.080 Lip13a                                              
    0.000 999%   0.000 Lip13b                                              
  605.052  58%   1.753 Lip09                                               
  637.272  63%   1.847 MM09                                                
  341.017  70%   0.988 Lip20                                               
  612.234 103%   1.774 MM20                                                
  174.419 103%   0.505 MM12                                                
  955.326  52%   2.768 MM14                                                
  977.360  32%   2.832 MM17                                                
 2.10E+03  36%   6.080 Lip13a+Lip13b                                       
 3.23E+03  22%   9.354 MM14+Lip13a+Lip13b+MM12                             
 1.24E+03  28%   3.600 MM09+Lip09                                          
  953.251  66%   2.762 MM20+Lip20                                          
   6 lines in following misc. output table
  FWHM = 0.054 ppm    S/N =   1                                            
  Data shift =-0.038 ppm                                                   
  Ph:-107 deg       8.2 deg/ppm                                            
  alphaB,S = 8.5E+01,   4.4E+01                                            
   14 spline knots.   Ns = 5(1)                                            
   2 inflections.     1 extrema                                            
  498 points on ppm-axis = NY
      4.000000     3.992357     3.984714     3.977070     3.969427     3.961784     3.954141     3.946497     3.938854     3.931211
      3.923568     3.915925     3.908281     3.900638     3.892995     3.885352     3.877708     3.870065     3.862422     3.854779
      3.847136     3.839492     3.831849     3.824206     3.816563     3.808919     3.801276     3.793633     3.785990     3.778347
      3.770703     3.763060     3.755417     3.747774     3.740130     3.732487     3.724844     3.717201     3.709558     3.701914
      3.694271     3.686628     3.678985     3.671341     3.663698     3.656055     3.648412     3.640769     3.633125     3.625482
      3.617839     3.610196     3.602552     3.594909     3.587266     3.579623     3.571980     3.564336     3.556693     3.549050
      3.541407     3.533763     3.526120     3.518477     3.510834     3.503191     3.495547     3.487904     3.480261     3.472618
      3.464974     3.457331     3.449688     3.442045     3.434402     3.426758     3.419115     3.411472     3.403829     3.396185
      3.388542     3.380899     3.373256     3.365613     3.357969     3.350326     3.342683     3.335040     3.327396     3.319753
      3.312110     3.304467     3.296824     3.289180     3.281537     3.273894     3.266251     3.258607     3.250964     3.243321
      3.235678     3.228034     3.220391     3.212748     3.205105     3.197462     3.189818     3.182175     3.174532     3.166889
      3.159245     3.151602     3.143959     3.136316     3.128673     3.121029     3.113386     3.105743     3.098100     3.090456
      3.082813     3.075170     3.067527     3.059884     3.052240     3.044597     3.036954     3.029311     3.021667     3.014024
      3.006381     2.998738     2.991095     2.983451     2.975808     2.968165     2.960522     2.952878     2.945235     2.937592
      2.929949     2.922306     2.914662     2.907019     2.899376     2.891733     2.884089     2.876446     2.868803     2.861160
      2.853517     2.845873     2.838230     2.830587     2.822944     2.815300     2.807657     2.800014     2.792371     2.784728
      2.777084     2.769441     2.761798     2.754155     2.746511     2.738868     2.731225     2.723582     2.715939     2.708295
      2.700652     2.693009     2.685366     2.677722     2.670079     2.662436     2.654793     2.647150     2.639506     2.631863
      2.624220     2.616577     2.608933     2.601290     2.593647     2.586004     2.578361     2.570717     2.563074     2.555431
      2.547788     2.540144     2.532501     2.524858     2.517215     2.509572     2.501928     2.494285     2.486642     2.478999
      2.471355     2.463712     2.456069     2.448426     2.440783     2.433139     2.425496     2.417853     2.410210     2.402566
      2.394923     2.387280     2.379637     2.371994     2.364350     2.356707     2.349064     2.341421     2.333777     2.326134
      2.318491     2.310848     2.303205     2.295561     2.287918     2.280275     2.272632     2.264988     2.257345     2.249702
      2.242059     2.234416     2.226772     2.219129     2.211486     2.203843     2.196199     2.188556     2.180913     2.173270
      2.165627     2.157983     2.150340     2.142697     2.135054     2.127410     2.119767     2.112124     2.104481     2.096838
      2.089194     2.081551     2.073908     2.066265     2.058621     2.050978     2.043335     2.035692     2.028049     2.020405
      2.012762     2.005119     1.997476     1.989833     1.982190     1.974546     1.966903     1.959260     1.951617     1.943974
      1.936331     1.928688     1.921045     1.913402     1.905759     1.898115     1.890472     1.882829     1.875186     1.867543
      1.859900     1.852257     1.844614     1.836971     1.829327     1.821684     1.814041     1.806398     1.798755     1.791112
      1.783469     1.775826     1.768183     1.760540     1.752896     1.745253     1.737610     1.729967     1.722324     1.714681
      1.707038     1.699395     1.691752     1.684108     1.676465     1.668822     1.661179     1.653536     1.645893     1.638250
      1.630607     1.622964     1.615321     1.607677     1.600034     1.592391     1.584748     1.577105     1.569462     1.561819
      1.554176     1.546533     1.538890     1.531246     1.523603     1.515960     1.508317     1.500674     1.493031     1.485388
      1.477745     1.470102     1.462458     1.454815     1.447172     1.439529     1.431886     1.424243     1.416600     1.408957
      1.401314     1.393671     1.386027     1.378384     1.370741     1.363098     1.355455     1.347812     1.340169     1.332526
      1.324883     1.317240     1.309596     1.301953     1.294310     1.286667     1.279024     1.271381     1.263738     1.256095
      1.248452     1.240808     1.233165     1.225522     1.217879     1.210236     1.202593     1.194950     1.187307     1.179664
      1.172021     1.164377     1.156734     1.149091     1.141448     1.133805     1.126162     1.118519     1.110876     1.103233
      1.095590     1.087946     1.080303     1.072660     1.065017     1.057374     1.049731     1.042088     1.034445     1.026802
      1.019158     1.011515     1.003872     0.996229     0.988586     0.980943     0.973300     0.965657     0.958014     0.950371
      0.942727     0.935084     0.927441     0.919798     0.912155     0.904512     0.896869     0.889226     0.881583     0.873940
      0.866296     0.858653     0.851010     0.843367     0.835724     0.828081     0.820438     0.812795     0.805152     0.797508
      0.789865     0.782222     0.774579     0.766936     0.759293     0.751650     0.744007     0.736364     0.728721     0.721077
      0.713434     0.705791     0.698148     0.690505     0.682862     0.675219     0.667576     0.659933     0.652290     0.644646
      0.637003     0.629360     0.621717     0.614074     0.606431     0.598788     0.591145     0.583502     0.575858     0.568215
      0.560572     0.552929     0.545286     0.537643     0.530000     0.522357     0.514714     0.507071     0.499427     0.491784
      0.484141     0.476498     0.468855     0.461212     0.453569     0.445925     0.438282     0.430639     0.422996     0.415353
      0.407710     0.400067     0.392424     0.384780     0.377137     0.369494     0.361851     0.354208     0.346565     0.338922
      0.331278     0.323635     0.315992     0.308349     0.300706     0.293063     0.285420     0.277777     0.270133     0.262490
      0.254847     0.247204     0.239561     0.231918     0.224275     0.216631     0.208988     0.201345
 NY phased data points follow
   6.43853E+01  5.16342E+01  4.28687E+01  3.16566E+01  2.13729E+01  2.51024E+01  5.59287E+01  3.37016E+01  3.30938E+01  2.15357E+01
   3.67797E+01  3.80393E+01  4.97179E+01  4.36727E+01  3.75031E+01  3.84863E+01  3.20586E+01  1.65503E+01  2.53898E+01  2.43735E+01
   3.20278E+01  1.87992E+01  3.46722E+01  3.84391E+01  3.48463E+01  1.10303E+01  1.94019E+01  1.96089E+01  3.61512E+01  2.64103E+01
   2.76547E+01  4.19355E+01  2.16214E+01  1.99119E+01  2.10112E+01  9.04356E+00  2.60964E+01  2.51502E+01  2.04400E+01  1.95956E+01
   3.24624E+01  2.55530E+01  2.24154E+01  1.33047E+01  1.59692E+01  3.14614E+01  3.51276E+01  1.60753E+01  2.05389E+01  2.64698E+01
   3.10256E+01  3.07204E+01  1.24611E+01  2.96430E+01  1.83658E+01  2.69915E+01  3.32856E+01  4.20307E+01  4.18910E+01  2.57744E+01
   2.32941E+01  2.65876E+01  2.07402E+01  1.72377E+01  1.79730E+01  2.35906E+01  2.55917E+01  2.36212E+01  1.51224E+01  2.90239E+01
   2.80289E+01  1.38800E+01  2.38581E+01  1.39123E+01  1.47224E+01  1.83028E+01  2.28096E+01  1.86254E+01  1.35480E+01  2.63184E+01
   2.73424E+01  2.23490E+01  1.84450E+01  2.83160E+01  1.71374E+01  2.91576E+01  2.95867E+01  1.88610E+01  2.42855E+01  1.53358E+01
   2.67042E+01  2.68419E+01  1.19424E+01  2.62114E+01  1.65849E+01  2.42657E+01  1.18939E+01  1.05667E+01  2.33229E+01  2.02293E+01
   1.93276E+01  1.81532E+01  2.13122E+01  2.97668E+01  1.32677E+01  1.67871E+01  1.50481E+01  3.17933E+00  1.14487E+01  1.24075E+01
  -2.07682E+00  1.18562E+01  7.52278E+00  1.83440E+01  3.03676E+01  5.46462E+00  1.43549E+01  1.37501E+01  2.12262E+01  2.06782E+01
   4.53994E+00  8.55306E+00  2.00118E+01  2.08707E+01  9.83500E+00  2.44010E+01  2.82492E+01  2.40346E+01  1.66557E+01  1.87870E+01
   2.40867E+01  2.71240E+01  1.15230E+01  1.08743E+01  9.07240E+00  2.24725E+01  1.72792E+01  1.12593E+01  2.13243E+01  1.32388E+01
   4.40079E+00  1.03443E+01  1.85646E+01  2.28334E+01  7.30734E+00  1.13170E+00  9.03380E+00  1.89048E+01  1.04004E+01  2.25449E+01
   2.67731E+01  2.35647E+00  1.40388E+01  2.78088E+01  2.19462E+01  1.07214E+01  9.05372E+00  1.52698E+01  5.64132E+00  1.53125E+01
   1.51784E+01  1.05983E+01  1.99238E+01  2.04189E+01  2.18337E+01  1.05465E+01  1.47783E+01  1.70495E+01  9.95911E+00  1.93387E+01
   2.91178E+01  1.41265E+01  1.23322E+01  1.55847E+01  4.08697E+00  1.05523E+01  1.04964E+01  6.00504E+00  2.35667E+01  1.00672E+01
   2.25531E+01  1.38962E+01  6.99937E+00  2.93917E+01  1.07062E+01  1.22663E+01  1.82877E+01  5.21441E+00  2.21699E+01  8.38532E+00
   2.74109E+01  9.30336E+00  4.54836E+00  1.82196E+01  7.96401E+00  1.48084E+01  1.05541E+01  2.23976E+01  1.83984E+01  2.19616E+01
   1.64640E+01  2.56741E+01  1.95290E+01  1.69919E+01  1.71074E+01  1.81214E+01  2.08364E+01  1.64512E+01  2.11933E+01  1.57162E+01
   3.29773E+01  1.89906E+01  7.17822E+00  1.35245E+01  1.20136E+01  1.54181E+01  8.64785E+00  8.95664E+00  2.49575E+01  9.76328E+00
   2.49294E+00  8.71255E+00  2.47413E+01  1.85386E+00  1.32406E+01  1.60115E+01  9.54491E+00  8.51525E+00  2.59943E+01  1.19904E+00
   4.91533E-01  2.74816E+01  3.72099E+00  1.99002E+01  5.50741E+00  7.80987E+00 -1.36718E-01  9.16261E+00  7.33019E+00  3.45690E+00
   6.82696E+00  3.81176E+00 -5.60928E+00  2.11162E+01  8.61228E+00  2.11271E+01  1.23936E+01  6.80380E+00  5.94350E+00  8.48211E-03
   1.47110E+01  9.43533E+00  1.00830E+01  1.91687E+01  1.07701E+01  8.35161E+00  2.60191E+01  3.72374E+00  8.84469E+00  1.01120E+01
   1.03452E+01  1.28599E+01  9.49934E+00  8.39767E-01 -2.26231E+00 -3.96979E+00 -5.17568E+00 -5.71896E-01  1.52567E+01  1.36419E+01
   9.93503E+00 -8.18051E+00  1.49551E+00  9.85281E+00  1.14827E+00  2.25310E+00 -9.24294E+00 -1.98271E+00 -1.27486E+01 -4.99837E+00
   7.45151E+00  2.22753E+00  8.09545E+00  5.45158E+00  3.53191E+00  2.04865E+01  3.58899E+00  6.34602E+00  1.13764E+01  1.02796E+01
   2.95279E+00  6.16800E+00  2.83528E+01 -1.84266E+01  1.33473E+01  6.31240E+00 -2.35656E+00  9.72424E+00  1.35774E+00  9.49833E-01
   1.29728E+01 -8.82103E-01  2.14535E+01  2.05706E+01  2.50278E+01  1.11257E+01  2.48784E+01  1.22464E+01 -8.33107E-01  1.72222E+01
   5.11087E+00  1.15145E+01  7.25682E+00 -9.00245E+00  4.84150E-01  5.34633E-01 -4.82082E+00  1.25323E+01  2.43777E+01  9.68975E+00
   2.06487E+01 -3.14717E+00  1.56192E+00  4.90250E+00  1.49112E+01  2.01832E+01  7.11236E+00  2.46802E+00 -4.24805E-01  1.44667E+01
  -2.44776E+00 -7.98787E+00  9.04144E+00  1.39366E+01  6.79663E+00 -6.22771E+00 -7.56931E+00  5.81831E+00  1.80080E+01  9.08879E+00
   5.86776E+00  8.07808E+00  1.36909E+01  3.53030E+00  2.85213E+01  1.69857E+01  7.57734E-01  1.13553E+01  1.21076E+01  9.15251E+00
  -2.11144E+00  1.88902E+01  1.55598E+01  1.02178E+01  7.95806E+00  1.43258E+01  7.28475E+00  1.46526E+01  1.14805E+01  8.06723E+00
   2.34392E+01 -2.17649E+00  6.72599E+00  2.25713E+01  3.76555E+00  5.50808E+00  7.48604E+00  2.34878E+01  1.34489E+01  1.02038E+01
  -4.11706E+00  7.61134E+00  7.78254E-02 -1.03191E+01  8.69274E+00  1.33403E+01  2.27776E+01  5.03997E+00  6.35422E+00  6.70385E+00
   8.59025E+00 -3.05860E+00  8.56406E+00  1.64034E+00  9.10865E+00 -6.12205E+00  5.06293E+00  8.63092E+00  3.02630E+00 -6.19051E+00
  -3.40609E+00  5.31269E+00 -3.85956E+00  1.19884E+01  6.21929E+00  5.30674E+00 -1.74783E+00  8.35361E+00  1.43544E+01  3.13395E+00
  -5.43710E+00  4.04995E+00  5.30854E-01  3.10140E-01 -1.23148E+00  9.57438E+00  6.18486E+00  5.38423E+00 -1.27020E+00  8.58385E+00
   3.59071E+00  2.25547E+00  2.26302E+01  1.94059E+01 -3.84476E+00  3.09915E-01  1.28387E+01  4.71326E+00  2.03230E+01  1.87191E+01
   1.06242E+00  2.31800E-01  3.30418E+00  9.42914E+00  9.65042E+00 -5.94431E+00  7.29325E+00 -2.03407E+00  1.06410E+01  2.18050E+00
   2.95576E+00  3.39384E+00  1.93731E+01 -3.44172E-01  6.37322E+00 -7.14190E+00 -6.10888E-03  6.30188E+00 -1.14121E-01 -5.40465E+00
   9.32016E+00  5.36252E+00  1.93424E+01  3.64300E+00  1.36428E+01  2.70422E+00 -1.41626E+00  1.05891E+01  8.33719E+00  2.87647E+00
   1.57494E+01  9.10110E+00  1.29098E+01  2.16189E+01  1.80473E+00  6.96495E+00  1.28341E+01  1.50383E+01  5.57196E-01 -2.00237E+00
   8.79561E+00  5.11799E+00  3.79886E+00  9.43331E+00  1.84734E+01  1.34529E+01 -5.89605E-01  5.19199E+00  1.46510E+01 -1.10381E+00
   4.50830E+00  1.05383E+01 -6.67649E+00 -1.52336E+00  2.73828E+00  4.67562E+00  4.91685E+00  1.53154E-02  3.15219E+00  1.39619E+00
  -2.44319E-01  1.59600E-01  6.08940E+00  9.26377E+00  3.02406E+00 -6.13790E-03  5.31812E+00 -6.75977E+00  3.46768E-01  3.81020E+00
  -9.73230E-01 -6.46041E+00  1.39168E+01 -4.93290E+00 -4.41161E+00  4.46123E+00 -1.41666E-01  2.02269E+00
 NY points of the fit to the data follow
   2.66923E+01  2.63234E+01  2.60883E+01  2.60046E+01  2.59960E+01  2.61793E+01  2.70209E+01  2.84936E+01  3.00366E+01  3.12468E+01
   3.19530E+01  3.21366E+01  3.17943E+01  3.08809E+01  2.94517E+01  2.77167E+01  2.60301E+01  2.48389E+01  2.44324E+01  2.45273E+01
   2.47610E+01  2.49704E+01  2.50561E+01  2.50121E+01  2.49271E+01  2.50169E+01  2.52586E+01  2.54735E+01  2.56486E+01  2.58535E+01
   2.60825E+01  2.62804E+01  2.64018E+01  2.63931E+01  2.62132E+01  2.58441E+01  2.53617E+01  2.48907E+01  2.43783E+01  2.38147E+01
   2.33218E+01  2.30366E+01  2.32012E+01  2.40428E+01  2.53924E+01  2.67690E+01  2.77300E+01  2.80859E+01  2.78646E+01  2.71516E+01
   2.60232E+01  2.46252E+01  2.32057E+01  2.20704E+01  2.15616E+01  2.17814E+01  2.24318E+01  2.31808E+01  2.38054E+01  2.41944E+01
   2.43048E+01  2.41444E+01  2.37773E+01  2.32919E+01  2.27739E+01  2.23105E+01  2.20194E+01  2.20187E+01  2.22614E+01  2.26178E+01
   2.29380E+01  2.31393E+01  2.31939E+01  2.31089E+01  2.29205E+01  2.26603E+01  2.23597E+01  2.20536E+01  2.17790E+01  2.15803E+01
   2.14346E+01  2.13096E+01  2.11235E+01  2.08033E+01  2.03283E+01  1.97648E+01  1.92082E+01  1.87355E+01  1.84002E+01  1.82494E+01
   1.83017E+01  1.85566E+01  1.89694E+01  1.93963E+01  1.96734E+01  1.97236E+01  1.95706E+01  1.93360E+01  1.91987E+01  1.91691E+01
   1.91848E+01  1.92301E+01  1.92884E+01  1.93502E+01  1.93713E+01  1.92786E+01  1.90564E+01  1.87415E+01  1.84115E+01  1.81601E+01
   1.80416E+01  1.79779E+01  1.79187E+01  1.78631E+01  1.77999E+01  1.77203E+01  1.76222E+01  1.75133E+01  1.74031E+01  1.73075E+01
   1.72656E+01  1.74691E+01  1.86451E+01  2.09149E+01  2.35498E+01  2.59179E+01  2.76662E+01  2.86675E+01  2.88879E+01  2.82654E+01
   2.67449E+01  2.44812E+01  2.19059E+01  1.96420E+01  1.82777E+01  1.76150E+01  1.71804E+01  1.68876E+01  1.67171E+01  1.66605E+01
   1.67094E+01  1.68230E+01  1.69175E+01  1.69370E+01  1.68688E+01  1.67202E+01  1.65260E+01  1.63264E+01  1.61420E+01  1.59821E+01
   1.58271E+01  1.56750E+01  1.55333E+01  1.54067E+01  1.52953E+01  1.51931E+01  1.50984E+01  1.50085E+01  1.49199E+01  1.48277E+01
   1.47258E+01  1.46097E+01  1.44847E+01  1.43633E+01  1.42505E+01  1.41432E+01  1.40397E+01  1.39411E+01  1.38505E+01  1.37681E+01
   1.36858E+01  1.35929E+01  1.34875E+01  1.33722E+01  1.32512E+01  1.31246E+01  1.29895E+01  1.28453E+01  1.26958E+01  1.25560E+01
   1.24257E+01  1.22952E+01  1.21607E+01  1.20231E+01  1.18935E+01  1.17963E+01  1.17561E+01  1.17818E+01  1.18520E+01  1.19255E+01
   1.19704E+01  1.19653E+01  1.18714E+01  1.16494E+01  1.13363E+01  1.10040E+01  1.07098E+01  1.04944E+01  1.03758E+01  1.03496E+01
   1.03922E+01  1.04700E+01  1.05486E+01  1.05910E+01  1.05671E+01  1.04769E+01  1.03674E+01  1.02698E+01  1.01849E+01  1.01072E+01
   1.00297E+01  9.95042E+00  9.86999E+00  9.78885E+00  9.70850E+00  9.63108E+00  9.55924E+00  9.49677E+00  9.44791E+00  9.41602E+00
   9.40049E+00  9.39431E+00  9.38969E+00  9.38253E+00  9.37002E+00  9.34690E+00  9.28933E+00  9.16839E+00  8.99894E+00  8.82018E+00
   8.66993E+00  8.57710E+00  8.56888E+00  8.66900E+00  8.84218E+00  9.02041E+00  9.14969E+00  9.19172E+00  9.11772E+00  8.92427E+00
   8.66062E+00  8.40810E+00  8.23048E+00  8.16531E+00  8.22610E+00  8.39324E+00  8.60300E+00  8.79455E+00  8.93164E+00  8.98973E+00
   8.97972E+00  9.00749E+00  9.14109E+00  9.35190E+00  9.57854E+00  9.77038E+00  9.89970E+00  9.94831E+00  9.89185E+00  9.70967E+00
   9.40812E+00  9.02762E+00  8.64297E+00  8.33587E+00  8.09612E+00  7.87303E+00  7.65016E+00  7.42494E+00  7.19835E+00  6.97322E+00
   6.75232E+00  6.53831E+00  6.33127E+00  6.12986E+00  5.93209E+00  5.73663E+00  5.54164E+00  5.34578E+00  5.15163E+00  4.96402E+00
   4.78662E+00  4.62450E+00  4.48236E+00  4.36325E+00  4.26882E+00  4.20070E+00  4.16059E+00  4.15163E+00  4.17687E+00  4.23821E+00
   4.33722E+00  4.47426E+00  4.64818E+00  4.85718E+00  5.09662E+00  5.36001E+00  5.64052E+00  5.93033E+00  6.22096E+00  6.50433E+00
   6.77188E+00  7.01440E+00  7.22342E+00  7.39142E+00  7.51226E+00  7.58124E+00  7.59551E+00  7.55487E+00  7.46168E+00  7.31998E+00
   7.13555E+00  6.91548E+00  6.66801E+00  6.40208E+00  6.12718E+00  5.85303E+00  5.58968E+00  5.34769E+00  5.13927E+00  4.98098E+00
   4.90265E+00  4.98916E+00  5.49856E+00  6.44657E+00  7.37965E+00  7.97218E+00  8.09223E+00  7.72023E+00  6.83586E+00  5.32023E+00
   3.29952E+00  1.44453E+00  2.53754E-01 -1.66475E-02  6.86447E-01  2.05344E+00  3.65217E+00  5.29985E+00  6.80831E+00  7.96071E+00
   8.59074E+00  8.67971E+00  8.52106E+00  8.50536E+00  8.61197E+00  8.75999E+00  8.90849E+00  9.03876E+00  9.13761E+00  9.18569E+00
   9.19713E+00  9.22396E+00  9.29990E+00  9.44250E+00  9.65666E+00  9.91804E+00  1.01799E+01  1.04170E+01  1.06069E+01  1.07271E+01
   1.07618E+01  1.07109E+01  1.06038E+01  1.04688E+01  1.03053E+01  1.01115E+01  9.88787E+00  9.63648E+00  9.36009E+00  9.06194E+00
   8.74558E+00  8.41461E+00  8.07265E+00  7.72321E+00  7.36966E+00  7.01513E+00  6.66253E+00  6.31453E+00  5.97365E+00  5.64219E+00
   5.32244E+00  5.01654E+00  4.72674E+00  4.45528E+00  4.20462E+00  3.97734E+00  3.77626E+00  3.60435E+00  3.46479E+00  3.36082E+00
   3.29573E+00  3.27266E+00  3.29446E+00  3.36347E+00  3.48136E+00  3.64886E+00  3.86563E+00  4.12999E+00  4.43891E+00  4.78780E+00
   5.17070E+00  5.58023E+00  6.00788E+00  6.44416E+00  6.87907E+00  7.30232E+00  7.70392E+00  8.07444E+00  8.40550E+00  8.68998E+00
   8.92239E+00  9.09895E+00  9.21774E+00  9.27859E+00  9.28303E+00  9.23402E+00  9.13579E+00  8.99348E+00  8.81293E+00  8.60026E+00
   8.36171E+00  8.10331E+00  7.83078E+00  7.54930E+00  7.26349E+00  6.97727E+00  6.69391E+00  6.41601E+00  6.14562E+00  5.88419E+00
   5.63274E+00  5.39185E+00  5.16179E+00  4.94257E+00  4.73401E+00  4.53579E+00  4.34748E+00  4.16856E+00  3.99854E+00  3.83685E+00
   3.68299E+00  3.53643E+00  3.39668E+00  3.26327E+00  3.13577E+00  3.01377E+00  2.89692E+00  2.78487E+00  2.67731E+00  2.57393E+00
   2.47449E+00  2.37874E+00  2.28648E+00  2.19749E+00  2.11160E+00  2.02861E+00  1.94840E+00  1.87081E+00  1.79573E+00  1.72300E+00
   1.65254E+00  1.58422E+00  1.51797E+00  1.45369E+00  1.39130E+00  1.33071E+00  1.27186E+00  1.21467E+00  1.15910E+00  1.10506E+00
   1.05253E+00  1.00142E+00  9.51708E-01  9.03330E-01  8.56268E-01  8.10453E-01  7.65861E-01  7.22431E-01  6.80157E-01  6.38988E-01
   5.98912E-01  5.59866E-01  5.21838E-01  4.84779E-01  4.48693E-01  4.13529E-01  3.79276E-01  3.45878E-01  3.13329E-01  2.81588E-01
   2.50655E-01  2.20477E-01  1.91038E-01  1.62284E-01  1.34208E-01  1.06767E-01  7.99460E-02  5.36801E-02
 NY background values follow
     2.448E+01    2.443E+01    2.438E+01    2.434E+01    2.429E+01    2.424E+01    2.420E+01    2.415E+01    2.410E+01    2.405E+01
     2.400E+01    2.396E+01    2.391E+01    2.386E+01    2.381E+01    2.376E+01    2.371E+01    2.366E+01    2.361E+01    2.355E+01
     2.350E+01    2.345E+01    2.340E+01    2.335E+01    2.329E+01    2.324E+01    2.319E+01    2.313E+01    2.308E+01    2.303E+01
     2.297E+01    2.292E+01    2.286E+01    2.281E+01    2.275E+01    2.270E+01    2.264E+01    2.258E+01    2.253E+01    2.247E+01
     2.241E+01    2.236E+01    2.230E+01    2.224E+01    2.218E+01    2.213E+01    2.207E+01    2.201E+01    2.195E+01    2.189E+01
     2.183E+01    2.177E+01    2.171E+01    2.165E+01    2.159E+01    2.153E+01    2.147E+01    2.141E+01    2.135E+01    2.128E+01
     2.122E+01    2.116E+01    2.110E+01    2.104E+01    2.097E+01    2.091E+01    2.085E+01    2.078E+01    2.072E+01    2.066E+01
     2.059E+01    2.053E+01    2.046E+01    2.040E+01    2.034E+01    2.027E+01    2.021E+01    2.014E+01    2.007E+01    2.001E+01
     1.994E+01    1.988E+01    1.981E+01    1.974E+01    1.968E+01    1.961E+01    1.954E+01    1.948E+01    1.941E+01    1.934E+01
     1.927E+01    1.921E+01    1.914E+01    1.907E+01    1.900E+01    1.893E+01    1.887E+01    1.880E+01    1.873E+01    1.866E+01
     1.859E+01    1.852E+01    1.845E+01    1.838E+01    1.831E+01    1.824E+01    1.817E+01    1.810E+01    1.803E+01    1.796E+01
     1.789E+01    1.782E+01    1.775E+01    1.768E+01    1.760E+01    1.753E+01    1.746E+01    1.739E+01    1.732E+01    1.725E+01
     1.718E+01    1.710E+01    1.703E+01    1.696E+01    1.689E+01    1.681E+01    1.674E+01    1.667E+01    1.660E+01    1.652E+01
     1.645E+01    1.638E+01    1.630E+01    1.623E+01    1.616E+01    1.609E+01    1.601E+01    1.594E+01    1.586E+01    1.579E+01
     1.572E+01    1.564E+01    1.557E+01    1.550E+01    1.542E+01    1.535E+01    1.527E+01    1.520E+01    1.512E+01    1.505E+01
     1.498E+01    1.490E+01    1.483E+01    1.475E+01    1.468E+01    1.460E+01    1.453E+01    1.445E+01    1.438E+01    1.430E+01
     1.423E+01    1.415E+01    1.408E+01    1.400E+01    1.393E+01    1.385E+01    1.378E+01    1.370E+01    1.363E+01    1.355E+01
     1.348E+01    1.340E+01    1.333E+01    1.325E+01    1.318E+01    1.310E+01    1.303E+01    1.295E+01    1.288E+01    1.280E+01
     1.272E+01    1.265E+01    1.257E+01    1.250E+01    1.242E+01    1.235E+01    1.227E+01    1.220E+01    1.212E+01    1.205E+01
     1.197E+01    1.190E+01    1.182E+01    1.175E+01    1.167E+01    1.160E+01    1.152E+01    1.145E+01    1.137E+01    1.130E+01
     1.122E+01    1.115E+01    1.107E+01    1.100E+01    1.092E+01    1.085E+01    1.077E+01    1.070E+01    1.062E+01    1.055E+01
     1.047E+01    1.040E+01    1.032E+01    1.025E+01    1.018E+01    1.010E+01    1.003E+01    9.953E+00    9.878E+00    9.804E+00
     9.731E+00    9.657E+00    9.583E+00    9.509E+00    9.435E+00    9.362E+00    9.288E+00    9.215E+00    9.142E+00    9.068E+00
     8.995E+00    8.922E+00    8.849E+00    8.776E+00    8.704E+00    8.631E+00    8.558E+00    8.486E+00    8.414E+00    8.341E+00
     8.269E+00    8.197E+00    8.125E+00    8.053E+00    7.982E+00    7.910E+00    7.838E+00    7.767E+00    7.696E+00    7.625E+00
     7.554E+00    7.483E+00    7.412E+00    7.341E+00    7.271E+00    7.200E+00    7.130E+00    7.060E+00    6.990E+00    6.920E+00
     6.850E+00    6.781E+00    6.711E+00    6.642E+00    6.573E+00    6.504E+00    6.435E+00    6.366E+00    6.298E+00    6.229E+00
     6.161E+00    6.093E+00    6.025E+00    5.957E+00    5.890E+00    5.822E+00    5.755E+00    5.688E+00    5.621E+00    5.554E+00
     5.488E+00    5.421E+00    5.355E+00    5.289E+00    5.223E+00    5.157E+00    5.092E+00    5.027E+00    4.961E+00    4.896E+00
     4.832E+00    4.767E+00    4.703E+00    4.638E+00    4.574E+00    4.511E+00    4.447E+00    4.384E+00    4.320E+00    4.257E+00
     4.195E+00    4.132E+00    4.070E+00    4.007E+00    3.945E+00    3.884E+00    3.822E+00    3.761E+00    3.700E+00    3.639E+00
     3.578E+00    3.517E+00    3.457E+00    3.397E+00    3.337E+00    3.278E+00    3.218E+00    3.159E+00    3.100E+00    3.042E+00
     2.983E+00    2.925E+00    2.867E+00    2.809E+00    2.752E+00    2.695E+00    2.638E+00    2.581E+00    2.524E+00    2.468E+00
     2.412E+00    2.356E+00    2.301E+00    2.245E+00    2.190E+00    2.136E+00    2.081E+00    2.027E+00    1.973E+00    1.919E+00
     1.866E+00    1.812E+00    1.760E+00    1.707E+00    1.654E+00    1.602E+00    1.550E+00    1.499E+00    1.447E+00    1.396E+00
     1.346E+00    1.295E+00    1.245E+00    1.195E+00    1.145E+00    1.096E+00    1.047E+00    9.979E-01    9.494E-01    9.011E-01
     8.531E-01    8.055E-01    7.581E-01    7.110E-01    6.642E-01    6.176E-01    5.714E-01    5.255E-01    4.799E-01    4.345E-01
     3.895E-01    3.448E-01    3.004E-01    2.562E-01    2.124E-01    1.689E-01    1.257E-01    8.280E-02    4.021E-02   -2.071E-03
    -4.404E-02   -8.570E-02   -1.270E-01   -1.681E-01   -2.088E-01   -2.492E-01   -2.892E-01   -3.290E-01   -3.684E-01   -4.076E-01
    -4.464E-01   -4.848E-01   -5.230E-01   -5.608E-01   -5.983E-01   -6.354E-01   -6.723E-01   -7.088E-01   -7.450E-01   -7.808E-01
    -8.163E-01   -8.515E-01   -8.863E-01   -9.208E-01   -9.550E-01   -9.888E-01   -1.022E+00   -1.055E+00   -1.088E+00   -1.121E+00
    -1.153E+00   -1.185E+00   -1.216E+00   -1.247E+00   -1.278E+00   -1.308E+00   -1.338E+00   -1.368E+00   -1.397E+00   -1.426E+00
    -1.455E+00   -1.483E+00   -1.511E+00   -1.539E+00   -1.566E+00   -1.593E+00   -1.619E+00   -1.646E+00   -1.671E+00   -1.697E+00
    -1.722E+00   -1.747E+00   -1.771E+00   -1.795E+00   -1.819E+00   -1.842E+00   -1.865E+00   -1.887E+00   -1.909E+00   -1.931E+00
    -1.953E+00   -1.974E+00   -1.994E+00   -2.015E+00   -2.034E+00   -2.054E+00   -2.073E+00   -2.092E+00   -2.110E+00   -2.128E+00
    -2.146E+00   -2.163E+00   -2.180E+00   -2.197E+00   -2.213E+00   -2.229E+00   -2.244E+00   -2.259E+00   -2.274E+00   -2.288E+00
    -2.302E+00   -2.316E+00   -2.329E+00   -2.341E+00   -2.354E+00   -2.366E+00   -2.377E+00   -2.388E+00   -2.399E+00   -2.410E+00
    -2.420E+00   -2.429E+00   -2.438E+00   -2.447E+00   -2.456E+00   -2.464E+00   -2.471E+00   -2.479E+00   -2.485E+00   -2.492E+00
    -2.498E+00   -2.504E+00   -2.509E+00   -2.514E+00   -2.518E+00   -2.522E+00   -2.526E+00   -2.529E+00   -2.532E+00   -2.535E+00
    -2.537E+00   -2.539E+00   -2.540E+00   -2.541E+00   -2.541E+00   -2.541E+00   -2.541E+00   -2.540E+00
 Ala      Conc. = 3.46E+02
