 LCModel (Version 6.3-1L) Copyright: S.W. Provencher.          Ref.: Magn. Reson. Med. 30:672-679 (1993).                
 Slice#2 Row#12 Col#8  PD_05_press_2_raw_act
 36 lines in following concentration table = NCONC+1
    Conc.  %SD /Cr+PCr  Metabolite                                         
   26.899 130%   0.487 Ala                                                 
   10.486 102%   0.190 Asp                                                 
   51.212 107%   0.926 Cr                                                  
    4.071 999% 7.4E-02 PCr                                                 
    6.637  97%   0.120 GABA                                                
    6.978  93%   0.126 Glc                                                 
   19.554 346%   0.354 Gln                                                 
    0.000 999%   0.000 Glu                                                 
   26.482  32%   0.479 GPC                                                 
    0.000 999%   0.000 PCh                                                 
   30.338  88%   0.549 GSH                                                 
   23.710 329%   0.429 Ins                                                 
    0.000 999%   0.000 Lac                                                 
   87.716  34%   1.587 NAA                                                 
    4.849 625% 8.8E-02 NAAG                                                
    2.452  87% 4.4E-02 Scyllo                                              
   12.471  86%   0.226 Tau                                                 
    1.067 999% 1.9E-02 -CrCH2                                              
   26.482  32%   0.479 GPC+PCh                                             
   92.566  31%   1.674 NAA+NAAG                                            
   55.283  38%   1.000 Cr+PCr                                              
   19.554 346%   0.354 Glu+Gln                                             
    0.000 999%   0.000 Lip13a                                              
    0.000 999%   0.000 Lip13b                                              
    0.805 999% 1.5E-02 Lip09                                               
   69.644  63%   1.260 MM09                                                
    0.000 999%   0.000 Lip20                                               
    0.000 999%   0.000 MM20                                                
    6.356 423%   0.115 MM12                                                
  257.766  30%   4.663 MM14                                                
  192.790  30%   3.487 MM17                                                
    0.000 999%   0.000 Lip13a+Lip13b                                       
  264.121  32%   4.778 MM14+Lip13a+Lip13b+MM12                             
   70.449  64%   1.274 MM09+Lip09                                          
    0.000 999%   0.000 MM20+Lip20                                          
   6 lines in following misc. output table
  FWHM = 0.046 ppm    S/N =   1                                            
  Data shift = 0.031 ppm                                                   
  Ph: 118 deg     -14.8 deg/ppm                                            
  alphaB,S = 8.5E+01,   2.6E+01                                            
   14 spline knots.   Ns = 6(1)                                            
   2 inflections.     2 extrema                                            
  498 points on ppm-axis = NY
      4.000000     3.992357     3.984714     3.977070     3.969427     3.961784     3.954141     3.946497     3.938854     3.931211
      3.923568     3.915925     3.908281     3.900638     3.892995     3.885352     3.877708     3.870065     3.862422     3.854779
      3.847136     3.839492     3.831849     3.824206     3.816563     3.808919     3.801276     3.793633     3.785990     3.778347
      3.770703     3.763060     3.755417     3.747774     3.740130     3.732487     3.724844     3.717201     3.709558     3.701914
      3.694271     3.686628     3.678985     3.671341     3.663698     3.656055     3.648412     3.640769     3.633125     3.625482
      3.617839     3.610196     3.602552     3.594909     3.587266     3.579623     3.571980     3.564336     3.556693     3.549050
      3.541407     3.533763     3.526120     3.518477     3.510834     3.503191     3.495547     3.487904     3.480261     3.472618
      3.464974     3.457331     3.449688     3.442045     3.434402     3.426758     3.419115     3.411472     3.403829     3.396185
      3.388542     3.380899     3.373256     3.365613     3.357969     3.350326     3.342683     3.335040     3.327396     3.319753
      3.312110     3.304467     3.296824     3.289180     3.281537     3.273894     3.266251     3.258607     3.250964     3.243321
      3.235678     3.228034     3.220391     3.212748     3.205105     3.197462     3.189818     3.182175     3.174532     3.166889
      3.159245     3.151602     3.143959     3.136316     3.128673     3.121029     3.113386     3.105743     3.098100     3.090456
      3.082813     3.075170     3.067527     3.059884     3.052240     3.044597     3.036954     3.029311     3.021667     3.014024
      3.006381     2.998738     2.991095     2.983451     2.975808     2.968165     2.960522     2.952878     2.945235     2.937592
      2.929949     2.922306     2.914662     2.907019     2.899376     2.891733     2.884089     2.876446     2.868803     2.861160
      2.853517     2.845873     2.838230     2.830587     2.822944     2.815300     2.807657     2.800014     2.792371     2.784728
      2.777084     2.769441     2.761798     2.754155     2.746511     2.738868     2.731225     2.723582     2.715939     2.708295
      2.700652     2.693009     2.685366     2.677722     2.670079     2.662436     2.654793     2.647150     2.639506     2.631863
      2.624220     2.616577     2.608933     2.601290     2.593647     2.586004     2.578361     2.570717     2.563074     2.555431
      2.547788     2.540144     2.532501     2.524858     2.517215     2.509572     2.501928     2.494285     2.486642     2.478999
      2.471355     2.463712     2.456069     2.448426     2.440783     2.433139     2.425496     2.417853     2.410210     2.402566
      2.394923     2.387280     2.379637     2.371994     2.364350     2.356707     2.349064     2.341421     2.333777     2.326134
      2.318491     2.310848     2.303205     2.295561     2.287918     2.280275     2.272632     2.264988     2.257345     2.249702
      2.242059     2.234416     2.226772     2.219129     2.211486     2.203843     2.196199     2.188556     2.180913     2.173270
      2.165627     2.157983     2.150340     2.142697     2.135054     2.127410     2.119767     2.112124     2.104481     2.096838
      2.089194     2.081551     2.073908     2.066265     2.058621     2.050978     2.043335     2.035692     2.028049     2.020405
      2.012762     2.005119     1.997476     1.989833     1.982190     1.974546     1.966903     1.959260     1.951617     1.943974
      1.936331     1.928688     1.921045     1.913402     1.905759     1.898115     1.890472     1.882829     1.875186     1.867543
      1.859900     1.852257     1.844614     1.836971     1.829327     1.821684     1.814041     1.806398     1.798755     1.791112
      1.783469     1.775826     1.768183     1.760540     1.752896     1.745253     1.737610     1.729967     1.722324     1.714681
      1.707038     1.699395     1.691752     1.684108     1.676465     1.668822     1.661179     1.653536     1.645893     1.638250
      1.630607     1.622964     1.615321     1.607677     1.600034     1.592391     1.584748     1.577105     1.569462     1.561819
      1.554176     1.546533     1.538890     1.531246     1.523603     1.515960     1.508317     1.500674     1.493031     1.485388
      1.477745     1.470102     1.462458     1.454815     1.447172     1.439529     1.431886     1.424243     1.416600     1.408957
      1.401314     1.393671     1.386027     1.378384     1.370741     1.363098     1.355455     1.347812     1.340169     1.332526
      1.324883     1.317240     1.309596     1.301953     1.294310     1.286667     1.279024     1.271381     1.263738     1.256095
      1.248452     1.240808     1.233165     1.225522     1.217879     1.210236     1.202593     1.194950     1.187307     1.179664
      1.172021     1.164377     1.156734     1.149091     1.141448     1.133805     1.126162     1.118519     1.110876     1.103233
      1.095590     1.087946     1.080303     1.072660     1.065017     1.057374     1.049731     1.042088     1.034445     1.026802
      1.019158     1.011515     1.003872     0.996229     0.988586     0.980943     0.973300     0.965657     0.958014     0.950371
      0.942727     0.935084     0.927441     0.919798     0.912155     0.904512     0.896869     0.889226     0.881583     0.873940
      0.866296     0.858653     0.851010     0.843367     0.835724     0.828081     0.820438     0.812795     0.805152     0.797508
      0.789865     0.782222     0.774579     0.766936     0.759293     0.751650     0.744007     0.736364     0.728721     0.721077
      0.713434     0.705791     0.698148     0.690505     0.682862     0.675219     0.667576     0.659933     0.652290     0.644646
      0.637003     0.629360     0.621717     0.614074     0.606431     0.598788     0.591145     0.583502     0.575858     0.568215
      0.560572     0.552929     0.545286     0.537643     0.530000     0.522357     0.514714     0.507071     0.499427     0.491784
      0.484141     0.476498     0.468855     0.461212     0.453569     0.445925     0.438282     0.430639     0.422996     0.415353
      0.407710     0.400067     0.392424     0.384780     0.377137     0.369494     0.361851     0.354208     0.346565     0.338922
      0.331278     0.323635     0.315992     0.308349     0.300706     0.293063     0.285420     0.277777     0.270133     0.262490
      0.254847     0.247204     0.239561     0.231918     0.224275     0.216631     0.208988     0.201345
 NY phased data points follow
   7.22534E+00  5.06350E+00  6.90654E+00  5.27234E+00  4.70504E+00  3.81923E+00  6.17444E+00  5.56841E+00  5.67598E+00  2.71978E+00
   5.96927E+00  6.49769E+00  5.55422E+00  7.69326E+00  5.62800E+00  6.47077E+00  3.95473E+00  7.49448E+00  6.64730E+00  5.91073E+00
   4.71969E+00  8.34816E+00  8.32548E+00  4.44948E+00  2.13991E+00  1.99151E+00  3.57909E+00  2.29140E+00  3.10155E+00  4.83140E+00
   3.71388E+00  7.23283E+00  3.31140E+00  3.70839E+00  5.03906E+00  1.51759E+00  5.93022E+00  2.96112E+00  3.40675E+00  5.51575E+00
   2.48920E+00  4.24138E+00  3.73853E+00  7.35544E+00  5.24409E+00  4.97037E+00  2.20741E+00  2.96523E+00  3.28553E+00  3.48352E+00
   3.39131E+00  3.97882E+00  4.30024E+00  3.63458E+00  3.02558E+00  3.59734E+00  6.06186E+00  3.10682E+00  4.95206E+00  3.45868E+00
   5.50556E+00  2.77404E+00  2.99557E+00  3.72389E+00  5.06069E+00  1.17660E+00  7.07099E+00  3.68356E+00  3.27190E+00  1.17873E+00
   7.05940E+00  4.65364E+00  3.80324E+00  3.02529E+00  3.20873E-01  2.83157E+00  8.23168E+00  3.22296E+00  3.99621E+00  4.60157E+00
   2.84952E+00  3.14859E+00  3.36983E+00  4.56889E+00  2.80040E+00  4.75307E+00  3.34771E+00  8.08751E-02  4.16916E+00  4.71950E+00
   2.55600E+00  6.34324E+00  5.71342E+00  3.59479E+00  4.00868E+00  2.69060E+00  4.72536E+00  1.49968E+00  3.06049E+00  2.29647E+00
   1.33765E+00  3.24009E+00  4.78347E+00  2.89795E+00  5.92963E+00  7.93992E+00  7.60298E+00  5.36062E+00  4.73900E+00  2.79568E+00
   2.05587E+00  3.31853E+00  5.40225E+00  2.98322E+00  6.30657E+00  4.76811E+00  5.27650E+00  5.26647E+00  3.03571E+00  5.13881E+00
   7.45405E+00  5.22994E+00 -1.15096E+00  2.56500E+00  9.70896E-01  3.09997E+00  5.65124E+00  4.71784E+00  5.05622E+00  3.31780E+00
   5.01528E+00  4.98630E+00  2.07589E+00  6.51303E+00  1.02250E+00  3.28783E+00  1.99267E+00  2.31459E+00  7.80789E+00  1.66587E+00
   3.62238E+00  2.18998E+00  3.19496E+00  2.40419E+00  2.87030E+00  3.60051E+00  5.07312E+00  3.51416E+00  2.90523E-01  2.45787E+00
   3.48968E+00  2.22389E+00  5.26717E+00  1.37955E+00  1.04343E+00  4.16447E+00  4.26298E+00  5.65946E-01  4.15201E+00  3.03529E+00
   3.18266E+00  3.35015E+00  2.60935E+00  3.99751E+00  1.02875E+00  4.40677E+00  2.64076E+00  8.27832E-01  2.14368E+00  1.91589E+00
   4.04285E+00  3.87316E+00  4.75004E+00  2.74976E+00 -1.79498E-01  4.10791E+00  3.42362E+00  2.55545E+00  2.02239E+00  1.38470E+00
   2.76203E+00  2.62147E+00  9.76150E-02  4.25952E+00  9.93772E-01  3.94784E+00  2.18233E-01  3.12735E+00  3.95796E+00  3.15786E+00
   3.64469E+00  1.15887E+00  6.15951E+00  1.69768E+00  4.70754E+00  4.94771E+00  4.26231E+00  5.41102E+00  2.47479E+00  6.23159E-01
   1.93360E+00  2.00288E+00 -2.25063E-01  6.98212E+00  1.37029E+00  8.27453E-01  1.03630E+00  3.27381E+00  2.97533E+00  4.05626E-01
   3.67643E+00  4.88314E+00  3.71107E+00  5.01844E-01 -3.80731E-01  2.62485E+00  1.08278E+00  2.02898E+00  2.16972E+00  3.98536E+00
   2.01055E+00  1.40907E+00  2.04254E+00  1.25470E+00  3.17215E+00  2.67131E+00  5.70870E-01  2.90298E+00  4.58808E-01  4.44799E+00
   3.52055E-01  3.06789E+00 -7.45834E-01  1.15223E+00  1.64310E+00  1.62269E+00  5.32513E-01 -1.77702E+00  7.87674E-01  3.77954E+00
   2.60676E+00  2.20529E+00  4.55827E+00  8.81190E-02  1.85179E+00 -5.70780E-02  1.15904E-01 -1.07980E-01  3.63564E+00  5.84365E-01
  -2.25171E+00 -6.56522E-01 -6.01996E-02 -2.21003E+00 -3.83849E+00  2.58763E-01  3.39384E+00  9.37411E-01  3.20844E+00  2.36380E+00
   4.68785E+00  6.13512E+00  3.10116E+00  7.77481E+00  4.61372E+00  5.21950E+00  4.43586E+00  1.45798E+00  5.67437E+00  3.45711E+00
   2.00660E+00 -6.66646E-01  1.20430E+00  1.71605E+00  2.60040E-01  3.05544E+00  3.42376E+00  2.80706E+00  3.07363E+00 -3.28273E-01
   6.11676E+00  1.24033E+00  2.79511E+00  3.82317E+00  4.36519E+00  2.56732E+00 -1.40479E+00  3.09813E+00  3.16725E+00  8.87748E-01
   2.02431E+00  3.36792E+00  3.17065E+00  2.48702E+00  1.93265E+00  1.42285E+00  1.40993E+00  4.19130E+00  1.00015E+00  3.50962E+00
   5.77647E+00  5.29414E+00  2.05828E+00  4.91440E+00  2.76149E+00  1.64075E+00  4.82737E+00  6.73020E+00  4.75076E+00  4.06577E+00
   3.57055E+00  2.57044E+00  3.29250E+00  3.58189E+00  3.53063E+00  5.06826E+00  2.97535E+00  2.47719E+00  5.59902E+00  2.09562E+00
   3.79861E+00  3.60619E+00  2.47483E+00  2.28054E+00  4.74189E+00  9.92705E-01  5.89349E+00  1.16906E+00  4.14091E+00  3.17105E+00
   1.60224E+00  4.67210E+00  2.68611E+00  3.87810E+00  2.22326E+00  1.76910E+00  4.36946E+00  1.95871E-01  3.37103E+00  7.17885E+00
   1.48642E+00  4.34224E+00  3.14849E+00  4.61672E+00  3.40156E+00  5.92768E+00  2.40583E+00  1.43242E+00  1.74169E+00  3.21023E+00
   9.11969E-01 -6.55724E-01  3.58906E+00  1.94074E+00  1.17078E+00  1.36592E+00 -2.38865E-01  9.91050E-01 -2.96224E+00  1.34692E+00
  -2.13849E+00 -1.39789E+00 -2.11116E+00 -1.95081E+00 -2.83328E-01  1.75520E-01 -1.16667E+00  7.94999E-01  9.69666E-01 -9.07418E-02
  -3.04070E-01  3.81195E-01  3.71329E-01  2.80753E+00  2.18862E+00  5.59805E+00  1.69058E+00 -2.10594E+00  1.48383E+00  3.87938E-02
   3.39439E+00 -1.69193E+00  1.29220E+00  2.95116E+00  2.00840E+00  2.70867E+00  2.23681E+00 -3.79332E+00 -2.04985E-01 -9.05855E-01
  -5.93423E-01 -2.81460E-01  2.41204E+00  2.46810E-01 -1.24645E-01 -4.05000E-01 -2.12063E-01 -7.62344E-01  1.82408E+00 -3.88198E-01
   2.28512E+00  2.99741E+00  2.33802E+00  3.76086E+00  4.20782E+00 -8.43576E-01  4.20135E-01  1.68026E+00  2.72190E+00  3.87091E+00
   6.94205E-01 -3.05008E-01  4.69199E-01  6.12710E-01  1.23142E+00  4.74691E+00  1.58788E+00 -1.08735E-01  1.06228E+00  1.57410E+00
   4.49358E-01 -7.66575E-01  2.40942E+00  4.90222E+00  2.03602E+00  7.07656E-01 -1.65857E+00 -2.58986E+00  1.18937E+00  1.90400E+00
  -6.50926E-01  4.75686E-02 -3.31529E+00  2.20347E+00  3.22441E+00 -1.13704E-01  4.67092E-01  2.68652E+00  1.10831E+00  2.89016E+00
   3.10290E+00  5.06570E-01 -2.19739E+00  1.19678E+00 -1.24798E+00  5.41988E+00  6.28042E-01  1.13247E+00  1.61404E-01  3.35150E+00
  -8.42045E-01  2.20905E+00  1.99162E+00  1.35336E+00  1.74798E+00  1.40281E+00  2.59461E+00 -5.89720E-01  5.77415E-01  1.84824E+00
   4.09544E+00  1.09848E+00 -3.62792E+00  1.18089E+00  1.55597E+00  1.11777E+00  1.35106E+00 -4.86127E-01 -8.55350E-01  2.02920E-01
  -1.68853E+00  1.57775E+00  1.94791E+00  2.13902E+00  1.31172E+00 -1.15597E+00  6.81169E-01  2.16676E+00 -1.91525E+00  1.53366E+00
  -1.76988E+00  4.23794E+00  1.93331E+00 -7.10653E-01 -3.12966E-01 -2.47921E+00  1.97074E+00 -1.36348E+00  2.39454E+00  9.88299E-01
   1.60393E-01  1.34728E+00  1.26287E+00  1.16318E+00 -3.32142E-01  8.11984E-01  3.36414E+00  1.18375E+00
 NY points of the fit to the data follow
   4.05666E+00  4.02340E+00  3.99701E+00  3.97870E+00  3.96777E+00  3.92252E+00  3.86473E+00  3.88317E+00  4.02824E+00  4.30937E+00
   4.68721E+00  5.07980E+00  5.40722E+00  5.60730E+00  5.63293E+00  5.46111E+00  5.11965E+00  4.69290E+00  4.30405E+00  4.08662E+00
   4.02047E+00  4.00162E+00  3.99408E+00  3.97732E+00  3.91250E+00  3.82008E+00  3.75330E+00  3.75424E+00  3.85093E+00  4.04058E+00
   4.28446E+00  4.52369E+00  4.69769E+00  4.75892E+00  4.67809E+00  4.47951E+00  4.22534E+00  3.99904E+00  3.88924E+00  3.85850E+00
   3.83928E+00  3.81959E+00  3.79732E+00  3.77141E+00  3.75045E+00  3.75594E+00  3.79554E+00  3.85833E+00  3.91850E+00  3.95012E+00
   3.95402E+00  3.93572E+00  3.88929E+00  3.81788E+00  3.74491E+00  3.68708E+00  3.64583E+00  3.62101E+00  3.61514E+00  3.62086E+00
   3.62933E+00  3.63298E+00  3.62950E+00  3.61744E+00  3.59754E+00  3.57109E+00  3.53920E+00  3.51132E+00  3.49496E+00  3.48631E+00
   3.48080E+00  3.47926E+00  3.48385E+00  3.49606E+00  3.51660E+00  3.53969E+00  3.55315E+00  3.55216E+00  3.53253E+00  3.49489E+00
   3.44383E+00  3.39158E+00  3.35754E+00  3.35784E+00  3.39231E+00  3.44057E+00  3.48124E+00  3.50220E+00  3.49949E+00  3.47430E+00
   3.43115E+00  3.37589E+00  3.31598E+00  3.26313E+00  3.23489E+00  3.21868E+00  3.15726E+00  2.95890E+00  2.76631E+00  2.78431E+00
   3.11853E+00  3.78173E+00  4.65754E+00  5.54648E+00  6.26402E+00  6.66686E+00  6.64888E+00  6.18525E+00  5.37346E+00  4.42787E+00
   3.65616E+00  3.31509E+00  3.21894E+00  3.17468E+00  3.14759E+00  3.12840E+00  3.11422E+00  3.10079E+00  3.08405E+00  3.05854E+00
   3.00204E+00  2.85117E+00  2.68486E+00  2.65624E+00  2.85022E+00  3.28786E+00  3.90151E+00  4.54796E+00  5.08633E+00  5.42461E+00
   5.49024E+00  5.25052E+00  4.75844E+00  4.13673E+00  3.56916E+00  3.24560E+00  3.07599E+00  2.92968E+00  2.80514E+00  2.72490E+00
   2.70640E+00  2.75651E+00  2.85573E+00  2.95475E+00  3.02133E+00  3.04380E+00  3.02268E+00  2.97701E+00  2.92826E+00  2.88613E+00
   2.85512E+00  2.82567E+00  2.79584E+00  2.76771E+00  2.74638E+00  2.73602E+00  2.73290E+00  2.73023E+00  2.71966E+00  2.69417E+00
   2.65960E+00  2.62532E+00  2.59723E+00  2.58035E+00  2.57896E+00  2.59164E+00  2.61141E+00  2.62840E+00  2.63029E+00  2.61038E+00
   2.58099E+00  2.55321E+00  2.52560E+00  2.49971E+00  2.46917E+00  2.43803E+00  2.41284E+00  2.39281E+00  2.37554E+00  2.36374E+00
   2.36207E+00  2.37080E+00  2.37789E+00  2.36602E+00  2.32808E+00  2.27835E+00  2.24536E+00  2.24468E+00  2.28090E+00  2.34659E+00
   2.43777E+00  2.54629E+00  2.65484E+00  2.72472E+00  2.72506E+00  2.65100E+00  2.52796E+00  2.39527E+00  2.28585E+00  2.22608E+00
   2.22611E+00  2.28017E+00  2.37364E+00  2.48768E+00  2.59780E+00  2.66933E+00  2.67383E+00  2.62721E+00  2.54441E+00  2.43643E+00
   2.32286E+00  2.22500E+00  2.15997E+00  2.13133E+00  2.13536E+00  2.16232E+00  2.20083E+00  2.23718E+00  2.26004E+00  2.27713E+00
   2.29520E+00  2.30662E+00  2.31557E+00  2.32758E+00  2.34181E+00  2.35745E+00  2.36942E+00  2.36419E+00  2.33193E+00  2.27321E+00
   2.19914E+00  2.12152E+00  2.05339E+00  2.01611E+00  2.02217E+00  2.07125E+00  2.15323E+00  2.24765E+00  2.32264E+00  2.34754E+00
   2.31079E+00  2.22811E+00  2.12056E+00  2.01093E+00  1.92203E+00  1.87904E+00  1.88860E+00  1.92711E+00  1.97757E+00  2.02811E+00
   2.05767E+00  2.05945E+00  2.04548E+00  2.01699E+00  1.89298E+00  1.67935E+00  1.60727E+00  1.83229E+00  2.41568E+00  3.29966E+00
   4.29059E+00  5.16517E+00  5.75122E+00  5.92373E+00  5.61617E+00  4.86479E+00  3.84658E+00  2.85531E+00  2.24709E+00  2.05684E+00
   1.98736E+00  1.94686E+00  1.92132E+00  1.90712E+00  1.90184E+00  1.90315E+00  1.90813E+00  1.91290E+00  1.91482E+00  1.91400E+00
   1.91082E+00  1.90653E+00  1.90355E+00  1.90417E+00  1.91071E+00  1.92423E+00  1.94418E+00  1.97019E+00  2.00239E+00  2.04003E+00
   2.08254E+00  2.12979E+00  2.18164E+00  2.23831E+00  2.29998E+00  2.36578E+00  2.43454E+00  2.50519E+00  2.57639E+00  2.64653E+00
   2.71415E+00  2.77762E+00  2.83495E+00  2.88446E+00  2.92472E+00  2.95456E+00  2.97321E+00  2.98034E+00  2.97630E+00  2.96194E+00
   2.93848E+00  2.90752E+00  2.87097E+00  2.83091E+00  2.78949E+00  2.74883E+00  2.71087E+00  2.67731E+00  2.64936E+00  2.62733E+00
   2.60914E+00  2.59113E+00  2.59814E+00  2.65707E+00  2.76129E+00  2.88814E+00  3.00315E+00  3.07134E+00  3.07309E+00  2.98563E+00
   2.79780E+00  2.55197E+00  2.31506E+00  2.15821E+00  2.13536E+00  2.25287E+00  2.43917E+00  2.62538E+00  2.78424E+00  2.88466E+00
   2.90106E+00  2.82609E+00  2.67949E+00  2.52381E+00  2.40395E+00  2.30383E+00  2.21298E+00  2.12801E+00  2.04775E+00  1.97184E+00
   1.90025E+00  1.83304E+00  1.77030E+00  1.71206E+00  1.65827E+00  1.60884E+00  1.56359E+00  1.52233E+00  1.48479E+00  1.45069E+00
   1.41972E+00  1.39157E+00  1.36595E+00  1.34257E+00  1.32118E+00  1.30153E+00  1.28340E+00  1.26659E+00  1.25096E+00  1.23639E+00
   1.22278E+00  1.21005E+00  1.19813E+00  1.18702E+00  1.17669E+00  1.16719E+00  1.15852E+00  1.15074E+00  1.14390E+00  1.13810E+00
   1.13343E+00  1.13002E+00  1.12797E+00  1.12741E+00  1.12848E+00  1.13133E+00  1.13607E+00  1.14283E+00  1.15167E+00  1.16263E+00
   1.17569E+00  1.19080E+00  1.20778E+00  1.22638E+00  1.24626E+00  1.26698E+00  1.28802E+00  1.30879E+00  1.32860E+00  1.34675E+00
   1.36252E+00  1.37522E+00  1.38423E+00  1.38899E+00  1.38908E+00  1.38421E+00  1.37426E+00  1.35928E+00  1.33948E+00  1.31523E+00
   1.28700E+00  1.25538E+00  1.22104E+00  1.18469E+00  1.14704E+00  1.10876E+00  1.07049E+00  1.03276E+00  9.96045E-01  9.60735E-01
   9.27101E-01  8.95325E-01  8.65503E-01  8.37666E-01  8.11792E-01  7.87806E-01  7.65597E-01  7.45025E-01  7.25941E-01  7.08198E-01
   6.91654E-01  6.76170E-01  6.61608E-01  6.47846E-01  6.34774E-01  6.22306E-01  6.10362E-01  5.98871E-01  5.87765E-01  5.76990E-01
   5.66503E-01  5.56271E-01  5.46266E-01  5.36455E-01  5.26811E-01  5.17311E-01  5.07945E-01  4.98702E-01  4.89570E-01  4.80531E-01
   4.71574E-01  4.62690E-01  4.53879E-01  4.45136E-01  4.36454E-01  4.27821E-01  4.19232E-01  4.10687E-01  4.02188E-01  3.93731E-01
   3.85310E-01  3.76916E-01  3.68548E-01  3.60210E-01  3.51903E-01  3.43624E-01  3.35364E-01  3.27122E-01  3.18897E-01  3.10695E-01
   3.02515E-01  2.94352E-01  2.86200E-01  2.78058E-01  2.69932E-01  2.61823E-01  2.53730E-01  2.45647E-01  2.37570E-01  2.29501E-01
   2.21446E-01  2.13405E-01  2.05374E-01  1.97349E-01  1.89327E-01  1.81313E-01  1.73311E-01  1.65321E-01  1.57337E-01  1.49354E-01
   1.41376E-01  1.33406E-01  1.25447E-01  1.17497E-01  1.09549E-01  1.01602E-01  9.36596E-02  8.57276E-02
 NY background values follow
     3.934E+00    3.926E+00    3.918E+00    3.910E+00    3.903E+00    3.895E+00    3.887E+00    3.879E+00    3.872E+00    3.864E+00
     3.856E+00    3.848E+00    3.840E+00    3.833E+00    3.825E+00    3.817E+00    3.809E+00    3.802E+00    3.794E+00    3.786E+00
     3.778E+00    3.771E+00    3.763E+00    3.755E+00    3.747E+00    3.739E+00    3.732E+00    3.724E+00    3.716E+00    3.708E+00
     3.701E+00    3.693E+00    3.685E+00    3.677E+00    3.670E+00    3.662E+00    3.654E+00    3.646E+00    3.639E+00    3.631E+00
     3.623E+00    3.615E+00    3.607E+00    3.600E+00    3.592E+00    3.584E+00    3.576E+00    3.569E+00    3.561E+00    3.553E+00
     3.545E+00    3.538E+00    3.530E+00    3.522E+00    3.514E+00    3.506E+00    3.499E+00    3.491E+00    3.483E+00    3.475E+00
     3.468E+00    3.460E+00    3.452E+00    3.444E+00    3.437E+00    3.429E+00    3.421E+00    3.413E+00    3.406E+00    3.398E+00
     3.390E+00    3.382E+00    3.374E+00    3.367E+00    3.359E+00    3.351E+00    3.343E+00    3.336E+00    3.328E+00    3.320E+00
     3.312E+00    3.305E+00    3.297E+00    3.289E+00    3.281E+00    3.273E+00    3.266E+00    3.258E+00    3.250E+00    3.242E+00
     3.235E+00    3.227E+00    3.219E+00    3.211E+00    3.204E+00    3.196E+00    3.188E+00    3.180E+00    3.173E+00    3.165E+00
     3.157E+00    3.149E+00    3.141E+00    3.134E+00    3.126E+00    3.118E+00    3.110E+00    3.103E+00    3.095E+00    3.087E+00
     3.079E+00    3.072E+00    3.064E+00    3.056E+00    3.048E+00    3.040E+00    3.033E+00    3.025E+00    3.017E+00    3.009E+00
     3.002E+00    2.994E+00    2.986E+00    2.978E+00    2.971E+00    2.963E+00    2.955E+00    2.947E+00    2.940E+00    2.932E+00
     2.924E+00    2.916E+00    2.908E+00    2.901E+00    2.893E+00    2.885E+00    2.877E+00    2.870E+00    2.862E+00    2.854E+00
     2.846E+00    2.839E+00    2.831E+00    2.823E+00    2.815E+00    2.807E+00    2.800E+00    2.792E+00    2.784E+00    2.776E+00
     2.769E+00    2.761E+00    2.753E+00    2.745E+00    2.738E+00    2.730E+00    2.722E+00    2.714E+00    2.707E+00    2.699E+00
     2.691E+00    2.683E+00    2.675E+00    2.668E+00    2.660E+00    2.652E+00    2.644E+00    2.637E+00    2.629E+00    2.621E+00
     2.613E+00    2.606E+00    2.598E+00    2.590E+00    2.582E+00    2.575E+00    2.567E+00    2.559E+00    2.551E+00    2.543E+00
     2.536E+00    2.528E+00    2.520E+00    2.512E+00    2.505E+00    2.497E+00    2.489E+00    2.481E+00    2.474E+00    2.466E+00
     2.458E+00    2.450E+00    2.442E+00    2.435E+00    2.427E+00    2.419E+00    2.411E+00    2.404E+00    2.396E+00    2.388E+00
     2.380E+00    2.373E+00    2.365E+00    2.357E+00    2.349E+00    2.342E+00    2.334E+00    2.326E+00    2.318E+00    2.310E+00
     2.303E+00    2.295E+00    2.287E+00    2.279E+00    2.272E+00    2.264E+00    2.256E+00    2.248E+00    2.241E+00    2.233E+00
     2.225E+00    2.217E+00    2.209E+00    2.202E+00    2.194E+00    2.186E+00    2.178E+00    2.171E+00    2.163E+00    2.155E+00
     2.147E+00    2.140E+00    2.132E+00    2.124E+00    2.116E+00    2.109E+00    2.101E+00    2.093E+00    2.085E+00    2.077E+00
     2.070E+00    2.062E+00    2.054E+00    2.046E+00    2.039E+00    2.031E+00    2.023E+00    2.015E+00    2.008E+00    2.000E+00
     1.992E+00    1.984E+00    1.977E+00    1.969E+00    1.961E+00    1.953E+00    1.945E+00    1.938E+00    1.930E+00    1.922E+00
     1.914E+00    1.907E+00    1.899E+00    1.891E+00    1.883E+00    1.876E+00    1.868E+00    1.860E+00    1.852E+00    1.844E+00
     1.837E+00    1.829E+00    1.821E+00    1.813E+00    1.806E+00    1.798E+00    1.790E+00    1.782E+00    1.775E+00    1.767E+00
     1.759E+00    1.751E+00    1.744E+00    1.736E+00    1.728E+00    1.720E+00    1.712E+00    1.705E+00    1.697E+00    1.689E+00
     1.681E+00    1.674E+00    1.666E+00    1.658E+00    1.650E+00    1.643E+00    1.635E+00    1.627E+00    1.619E+00    1.612E+00
     1.604E+00    1.596E+00    1.588E+00    1.580E+00    1.573E+00    1.565E+00    1.557E+00    1.549E+00    1.542E+00    1.534E+00
     1.526E+00    1.518E+00    1.511E+00    1.503E+00    1.495E+00    1.487E+00    1.479E+00    1.472E+00    1.464E+00    1.456E+00
     1.448E+00    1.441E+00    1.433E+00    1.425E+00    1.417E+00    1.410E+00    1.402E+00    1.394E+00    1.386E+00    1.379E+00
     1.371E+00    1.363E+00    1.355E+00    1.347E+00    1.340E+00    1.332E+00    1.324E+00    1.316E+00    1.309E+00    1.301E+00
     1.293E+00    1.285E+00    1.278E+00    1.270E+00    1.262E+00    1.254E+00    1.247E+00    1.239E+00    1.231E+00    1.223E+00
     1.215E+00    1.208E+00    1.200E+00    1.192E+00    1.184E+00    1.177E+00    1.169E+00    1.161E+00    1.153E+00    1.146E+00
     1.138E+00    1.130E+00    1.122E+00    1.115E+00    1.107E+00    1.099E+00    1.091E+00    1.083E+00    1.076E+00    1.068E+00
     1.060E+00    1.052E+00    1.045E+00    1.037E+00    1.029E+00    1.021E+00    1.014E+00    1.006E+00    9.980E-01    9.903E-01
     9.825E-01    9.747E-01    9.670E-01    9.592E-01    9.515E-01    9.437E-01    9.359E-01    9.282E-01    9.204E-01    9.126E-01
     9.049E-01    8.971E-01    8.893E-01    8.816E-01    8.738E-01    8.660E-01    8.583E-01    8.505E-01    8.427E-01    8.350E-01
     8.272E-01    8.194E-01    8.117E-01    8.039E-01    7.961E-01    7.884E-01    7.806E-01    7.729E-01    7.651E-01    7.573E-01
     7.496E-01    7.418E-01    7.340E-01    7.263E-01    7.185E-01    7.107E-01    7.030E-01    6.952E-01    6.874E-01    6.797E-01
     6.719E-01    6.641E-01    6.564E-01    6.486E-01    6.408E-01    6.331E-01    6.253E-01    6.176E-01    6.098E-01    6.020E-01
     5.943E-01    5.865E-01    5.787E-01    5.710E-01    5.632E-01    5.554E-01    5.477E-01    5.399E-01    5.321E-01    5.244E-01
     5.166E-01    5.088E-01    5.011E-01    4.933E-01    4.855E-01    4.778E-01    4.700E-01    4.623E-01    4.545E-01    4.467E-01
     4.390E-01    4.312E-01    4.234E-01    4.157E-01    4.079E-01    4.001E-01    3.924E-01    3.846E-01    3.768E-01    3.691E-01
     3.613E-01    3.535E-01    3.458E-01    3.380E-01    3.302E-01    3.225E-01    3.147E-01    3.070E-01    2.992E-01    2.914E-01
     2.837E-01    2.759E-01    2.681E-01    2.604E-01    2.526E-01    2.448E-01    2.371E-01    2.293E-01    2.215E-01    2.138E-01
     2.060E-01    1.982E-01    1.905E-01    1.827E-01    1.749E-01    1.672E-01    1.594E-01    1.517E-01    1.439E-01    1.361E-01
     1.284E-01    1.206E-01    1.128E-01    1.051E-01    9.730E-02    8.953E-02    8.177E-02    7.401E-02
 Ala      Conc. = 2.69E+01
