 LCModel (Version 6.3-1L) Copyright: S.W. Provencher.          Ref.: Magn. Reson. Med. 30:672-679 (1993).                
 Slice#1 Row#4 Col#11  PD_05_press_2_raw_act
 36 lines in following concentration table = NCONC+1
    Conc.  %SD /Cr+PCr  Metabolite                                         
 1.16E+04  14%  14.137 Ala                                                 
  111.571 139%   0.136 Asp                                                 
  817.637  20%   1.000 Cr                                                  
    0.000 999%   0.000 PCr                                                 
  100.067  94%   0.122 GABA                                                
  113.562  83%   0.139 Glc                                                 
    0.000 999%   0.000 Gln                                                 
    0.000 999%   0.000 Glu                                                 
  409.387  16%   0.501 GPC                                                 
    0.000 999%   0.000 PCh                                                 
  673.537  37%   0.824 GSH                                                 
 3.40E+03  18%   4.160 Ins                                                 
 6.84E+03  23%   8.370 Lac                                                 
    0.000 999%   0.000 NAA                                                 
 1.13E+03  21%   1.384 NAAG                                                
   56.572  53% 6.9E-02 Scyllo                                              
  220.116  69%   0.269 Tau                                                 
    0.000 999%   0.000 -CrCH2                                              
  409.387  16%   0.501 GPC+PCh                                             
 1.13E+03  21%   1.384 NAA+NAAG                                            
  817.637  20%   1.000 Cr+PCr                                              
    0.000 999%   0.000 Glu+Gln                                             
    0.000 999%   0.000 Lip13a                                              
   66.733 383% 8.2E-02 Lip13b                                              
    0.000 999%   0.000 Lip09                                               
 2.35E+03  13%   2.874 MM09                                                
    0.000 999%   0.000 Lip20                                               
 2.91E+03  21%   3.561 MM20                                                
  702.054  25%   0.859 MM12                                                
 4.84E+03   8%   5.916+MM14                                                
 1.56E+03  26%   1.905 MM17                                                
   66.733 383% 8.2E-02 Lip13a+Lip13b                                       
 5.61E+03  11%   6.856 MM14+Lip13a+Lip13b+MM12                             
 2.35E+03  13%   2.874 MM09+Lip09                                          
 2.91E+03  21%   3.561 MM20+Lip20                                          
   6 lines in following misc. output table
  FWHM = 0.168 ppm    S/N =   5                                            
  Data shift = 0.023 ppm                                                   
  Ph: -50 deg     -25.1 deg/ppm                                            
  alphaB,S = 8.5E+01,   4.1E+02                                            
    6 spline knots.   Ns = 9(2)                                            
   2 inflections.     1 extrema                                            
  498 points on ppm-axis = NY
      4.000000     3.992357     3.984714     3.977070     3.969427     3.961784     3.954141     3.946497     3.938854     3.931211
      3.923568     3.915925     3.908281     3.900638     3.892995     3.885352     3.877708     3.870065     3.862422     3.854779
      3.847136     3.839492     3.831849     3.824206     3.816563     3.808919     3.801276     3.793633     3.785990     3.778347
      3.770703     3.763060     3.755417     3.747774     3.740130     3.732487     3.724844     3.717201     3.709558     3.701914
      3.694271     3.686628     3.678985     3.671341     3.663698     3.656055     3.648412     3.640769     3.633125     3.625482
      3.617839     3.610196     3.602552     3.594909     3.587266     3.579623     3.571980     3.564336     3.556693     3.549050
      3.541407     3.533763     3.526120     3.518477     3.510834     3.503191     3.495547     3.487904     3.480261     3.472618
      3.464974     3.457331     3.449688     3.442045     3.434402     3.426758     3.419115     3.411472     3.403829     3.396185
      3.388542     3.380899     3.373256     3.365613     3.357969     3.350326     3.342683     3.335040     3.327396     3.319753
      3.312110     3.304467     3.296824     3.289180     3.281537     3.273894     3.266251     3.258607     3.250964     3.243321
      3.235678     3.228034     3.220391     3.212748     3.205105     3.197462     3.189818     3.182175     3.174532     3.166889
      3.159245     3.151602     3.143959     3.136316     3.128673     3.121029     3.113386     3.105743     3.098100     3.090456
      3.082813     3.075170     3.067527     3.059884     3.052240     3.044597     3.036954     3.029311     3.021667     3.014024
      3.006381     2.998738     2.991095     2.983451     2.975808     2.968165     2.960522     2.952878     2.945235     2.937592
      2.929949     2.922306     2.914662     2.907019     2.899376     2.891733     2.884089     2.876446     2.868803     2.861160
      2.853517     2.845873     2.838230     2.830587     2.822944     2.815300     2.807657     2.800014     2.792371     2.784728
      2.777084     2.769441     2.761798     2.754155     2.746511     2.738868     2.731225     2.723582     2.715939     2.708295
      2.700652     2.693009     2.685366     2.677722     2.670079     2.662436     2.654793     2.647150     2.639506     2.631863
      2.624220     2.616577     2.608933     2.601290     2.593647     2.586004     2.578361     2.570717     2.563074     2.555431
      2.547788     2.540144     2.532501     2.524858     2.517215     2.509572     2.501928     2.494285     2.486642     2.478999
      2.471355     2.463712     2.456069     2.448426     2.440783     2.433139     2.425496     2.417853     2.410210     2.402566
      2.394923     2.387280     2.379637     2.371994     2.364350     2.356707     2.349064     2.341421     2.333777     2.326134
      2.318491     2.310848     2.303205     2.295561     2.287918     2.280275     2.272632     2.264988     2.257345     2.249702
      2.242059     2.234416     2.226772     2.219129     2.211486     2.203843     2.196199     2.188556     2.180913     2.173270
      2.165627     2.157983     2.150340     2.142697     2.135054     2.127410     2.119767     2.112124     2.104481     2.096838
      2.089194     2.081551     2.073908     2.066265     2.058621     2.050978     2.043335     2.035692     2.028049     2.020405
      2.012762     2.005119     1.997476     1.989833     1.982190     1.974546     1.966903     1.959260     1.951617     1.943974
      1.936331     1.928688     1.921045     1.913402     1.905759     1.898115     1.890472     1.882829     1.875186     1.867543
      1.859900     1.852257     1.844614     1.836971     1.829327     1.821684     1.814041     1.806398     1.798755     1.791112
      1.783469     1.775826     1.768183     1.760540     1.752896     1.745253     1.737610     1.729967     1.722324     1.714681
      1.707038     1.699395     1.691752     1.684108     1.676465     1.668822     1.661179     1.653536     1.645893     1.638250
      1.630607     1.622964     1.615321     1.607677     1.600034     1.592391     1.584748     1.577105     1.569462     1.561819
      1.554176     1.546533     1.538890     1.531246     1.523603     1.515960     1.508317     1.500674     1.493031     1.485388
      1.477745     1.470102     1.462458     1.454815     1.447172     1.439529     1.431886     1.424243     1.416600     1.408957
      1.401314     1.393671     1.386027     1.378384     1.370741     1.363098     1.355455     1.347812     1.340169     1.332526
      1.324883     1.317240     1.309596     1.301953     1.294310     1.286667     1.279024     1.271381     1.263738     1.256095
      1.248452     1.240808     1.233165     1.225522     1.217879     1.210236     1.202593     1.194950     1.187307     1.179664
      1.172021     1.164377     1.156734     1.149091     1.141448     1.133805     1.126162     1.118519     1.110876     1.103233
      1.095590     1.087946     1.080303     1.072660     1.065017     1.057374     1.049731     1.042088     1.034445     1.026802
      1.019158     1.011515     1.003872     0.996229     0.988586     0.980943     0.973300     0.965657     0.958014     0.950371
      0.942727     0.935084     0.927441     0.919798     0.912155     0.904512     0.896869     0.889226     0.881583     0.873940
      0.866296     0.858653     0.851010     0.843367     0.835724     0.828081     0.820438     0.812795     0.805152     0.797508
      0.789865     0.782222     0.774579     0.766936     0.759293     0.751650     0.744007     0.736364     0.728721     0.721077
      0.713434     0.705791     0.698148     0.690505     0.682862     0.675219     0.667576     0.659933     0.652290     0.644646
      0.637003     0.629360     0.621717     0.614074     0.606431     0.598788     0.591145     0.583502     0.575858     0.568215
      0.560572     0.552929     0.545286     0.537643     0.530000     0.522357     0.514714     0.507071     0.499427     0.491784
      0.484141     0.476498     0.468855     0.461212     0.453569     0.445925     0.438282     0.430639     0.422996     0.415353
      0.407710     0.400067     0.392424     0.384780     0.377137     0.369494     0.361851     0.354208     0.346565     0.338922
      0.331278     0.323635     0.315992     0.308349     0.300706     0.293063     0.285420     0.277777     0.270133     0.262490
      0.254847     0.247204     0.239561     0.231918     0.224275     0.216631     0.208988     0.201345
 NY phased data points follow
   2.05396E+00 -2.24768E+00 -1.00714E-01  6.18307E+00  1.65137E+00 -1.28990E-01  4.25116E+00  1.29124E+01  1.20209E+01  5.19359E+00
   5.91323E+00  2.59082E+00  6.58670E+00  3.48751E+00  7.35253E+00  1.75662E+01  1.00585E+01  9.92903E+00  1.98392E+00 -2.47195E+00
  -1.30186E+00  1.01820E+01  1.22928E+01  1.01167E+01  1.22265E+01 -2.34552E+00 -4.99119E-01 -3.23402E+00  5.09249E+00  1.33885E+00
   6.54297E-01  3.97084E+00  8.51472E+00 -1.02146E+01  7.17085E+00  8.55734E+00  5.63173E+00  6.42909E+00 -8.57991E-01 -2.72512E+00
   2.77017E+00  3.11167E+00  1.31046E+01  4.47408E+00  1.03908E+01  4.54375E+00  7.71001E+00  8.88756E+00  1.35009E+01  9.45464E-01
   1.80233E+01 -5.34621E+00  3.08075E+00  5.56468E+00  8.37831E+00  2.36685E+00  7.29903E+00  6.78913E+00  7.66661E+00 -2.35792E+00
   3.19143E+00  3.69506E-01  2.60659E+00  3.81727E+00 -3.55848E-01  1.23014E+01  1.09986E+00  3.75745E+00 -6.69000E+00  4.75203E+00
   4.81978E+00  6.04955E-01  1.79696E+01  5.64199E+00  7.55816E+00  6.12673E+00  3.10223E+00  2.10017E+00  9.85902E+00  1.70714E+00
   8.64873E+00  2.26455E+00 -6.15227E-01  1.41204E+00 -7.98419E-01  1.06006E+01  1.50592E+01  2.33601E+00 -2.99049E+00 -6.36233E-01
   1.52101E+01  9.98825E+00  8.97442E+00  3.10068E+00  4.67864E+00  8.63679E+00  3.41337E+00 -5.76118E+00  6.43645E-01 -1.62362E+00
   6.22378E+00  1.87872E+01  1.35099E+01  1.90897E+01  9.34109E+00  4.61194E+00  1.24046E+01  1.11459E+01  1.30018E+01  3.82747E+00
   3.19278E-01  3.91962E+00  1.75041E+01  8.25774E-02  9.79011E+00  1.78447E+01  1.20443E+00  1.42081E+01  1.48439E+01  1.12439E+01
   1.49948E+01  9.71875E-01  6.78570E+00  3.58792E+00  6.66632E+00  5.38563E+00  1.60117E+01  8.31957E+00  8.34661E+00  7.93877E+00
   1.02044E+01  2.45214E+00  9.17370E+00  1.02727E+01  1.18865E+01  1.16723E+01  7.93650E+00 -9.77156E+00  1.21519E+01 -1.94308E+00
   1.38024E+01  2.54906E+00  1.30354E-01  2.74894E+00  7.69455E+00  3.89327E+00  2.88053E+00  9.01457E+00  7.66248E+00  2.19601E+01
   7.07843E+00  2.92548E+00  3.88550E+00  6.71971E+00 -5.96560E+00 -1.82743E+00  4.45874E+00  3.38772E-01 -6.07708E+00  2.99563E+00
   1.40938E+00 -7.76795E+00 -6.89784E+00 -7.50072E+00 -3.41768E+00 -2.95204E-02 -7.34366E-01  5.75848E-02 -9.30535E+00  3.75325E+00
  -3.97738E+00  7.91119E-01 -1.14144E+01 -2.14100E+00 -8.12177E+00  5.71235E-01  9.94563E+00  4.77299E-01 -9.64759E+00  4.99617E+00
  -2.01350E+00  2.21148E+00 -4.75378E+00 -8.31502E+00 -1.78368E+01  1.26532E+00 -2.91182E+00 -3.81317E+00 -6.61422E-01 -8.80562E+00
  -5.71553E+00 -1.96215E+00 -2.51129E+00 -1.12123E+01 -4.92703E+00  2.31534E+00 -4.00673E+00  6.93393E+00 -1.20020E+00 -1.99897E+00
  -5.63131E-01  1.94771E+00  3.76586E+00 -8.50690E+00  5.11702E+00  3.21427E+00 -8.51806E-01  1.39167E+01  2.36524E+00  3.33413E+00
   3.63324E+00 -2.56075E+00 -4.16969E+00  4.76985E+00  5.74256E+00  7.72014E+00  3.15324E+00  3.68099E+00  1.22690E+01  4.15732E+00
  -1.43935E+00  2.11439E+00 -8.00768E+00 -3.00906E+00  1.71728E+00 -5.91972E-02  4.73232E+00  4.59086E+00 -6.46218E-01  5.80476E+00
   1.65317E+00  6.14370E+00  5.76836E+00  5.89867E+00 -6.39969E-01  6.68022E+00  5.95639E+00  5.17865E+00  5.02053E+00  1.48714E+01
   1.71521E+01  7.58328E+00  1.34683E+01  2.47376E+01  2.24817E+01  2.01666E+01  2.45877E+01  3.48193E+01  3.36648E+01  2.85489E+01
   2.98172E+01  2.68979E+01  2.60916E+01  3.03783E+01  2.35577E+01  2.46139E+01  2.36130E+01  2.20330E+01  3.13295E+01  2.21179E+01
   3.92674E+01  3.28500E+01  3.54202E+01  1.79814E+01  1.15017E+01  3.22799E+00  6.74325E+00  1.08988E+01  4.37939E+00  7.18117E+00
   4.14216E+00  1.71752E+01  6.44959E+00  2.45831E+00  1.50312E+01 -1.55891E+00  8.65210E+00  8.54198E+00  7.47705E+00  8.10565E+00
   9.75792E-02  4.41306E+00  3.45552E+00  1.46233E+00  1.39376E+00  9.45602E+00  8.13607E+00  9.68040E+00  2.02458E+01  2.11352E+01
   7.32793E+00  1.35897E+01  1.11162E+01  1.51011E+01  1.39514E+01  6.39266E+00  9.93190E+00  2.21106E+01  1.68776E+01  1.06355E+01
   1.25618E+01  2.82312E+01  1.88815E+01  3.66306E+01  1.79591E+01  3.59195E+01  3.96057E+01  3.85119E+01  3.45162E+01  3.29524E+01
   4.29075E+01  4.46357E+01  5.40603E+01  3.87114E+01  4.63618E+01  5.01364E+01  5.30218E+01  5.51813E+01  6.02930E+01  6.33622E+01
   5.30748E+01  5.77668E+01  6.70389E+01  6.36609E+01  6.55965E+01  5.52982E+01  6.53367E+01  6.22326E+01  6.77573E+01  6.71246E+01
   6.19068E+01  6.55802E+01  5.96812E+01  6.04878E+01  6.50938E+01  5.88259E+01  6.10045E+01  5.76463E+01  4.97529E+01  4.93285E+01
   4.93320E+01  4.68070E+01  4.88886E+01  3.92382E+01  3.56271E+01  3.86321E+01  3.94437E+01  4.02212E+01  2.58270E+01  4.04674E+01
   4.14951E+01  3.31776E+01  4.12104E+01  4.48959E+01  3.28681E+01  3.52605E+01  2.12169E+01  2.89312E+01  2.26730E+01  3.31008E+01
   3.19341E+01  1.89882E+01  1.68141E+01  2.32719E+01  1.71670E+01  2.39908E+01  1.24659E+01  3.25236E+01  2.59368E+01  1.73226E+01
   2.03711E+01  2.32673E+01  1.34901E+01  1.97666E+01  1.33819E+01  1.23970E+01  2.18018E+01  1.80802E+01  1.67374E+01  2.55583E+01
   1.39514E+01  2.01400E+01  2.18620E+01  2.13029E+01  8.56458E+00  2.24931E+01  2.05767E+01  1.69001E+01  1.29461E+01  5.79198E+00
   3.00444E+01  2.19506E+01  1.82782E+01  1.55582E+01  1.54180E+01  1.31199E+01  1.83735E+01  2.14757E+01  2.46680E+01  2.33413E+01
   2.03601E+01  2.05671E+01  2.60692E+01  1.15913E+01  1.03998E+01  1.97359E+01  1.93879E+01  1.06787E+01  1.75942E+01  1.63306E+01
   1.18363E+01  1.08781E+01  1.17082E+01  2.00026E+01  1.21427E+01  9.29699E+00  1.35523E+01  1.36691E+01  1.55825E+01  2.05683E+01
   4.66945E+00  7.99081E+00  8.16301E+00  4.15160E+00  5.97067E+00 -5.15639E-02  1.02989E+01  7.81253E+00  1.10221E+01  2.59203E+00
   5.18535E+00  8.85081E+00  6.11721E+00  2.58047E+00  6.64912E+00  4.38186E+00  1.06679E+01  1.34759E+01  5.60033E+00  1.23651E+01
   1.21937E+01  6.06110E+00  1.63646E+01  1.15315E+01  9.68933E+00  2.97647E+00  1.81474E+01  5.35482E+00 -1.91977E+00  6.74491E+00
   6.17777E+00  3.69699E+00  9.36683E+00  1.55953E+01  9.00870E+00  8.41005E+00 -4.40549E-02  1.28141E+01  9.36125E+00  5.34036E+00
   6.61336E+00  1.12055E+01  1.21398E+01  7.67355E+00  2.31698E+00  1.12570E+01  1.74129E+01  9.49130E+00  1.77227E+01  4.15117E+00
   1.25248E+01  5.18164E+00  7.23286E+00  6.08590E+00  1.23601E+01  4.02180E+00  5.70897E+00  5.84995E+00  4.83711E+00  2.62598E+00
   6.43022E+00  7.24627E+00  9.86858E+00  3.79614E+00  8.48697E+00  1.58647E+01  9.06322E+00  1.09397E+01  2.61159E+00  5.07647E+00
   1.35781E+01  4.68839E+00  1.02310E+01 -1.00663E+01  3.83508E+00  3.70611E+00  1.08506E+01  1.57458E+00
 NY points of the fit to the data follow
   3.40213E+00  4.56227E+00  3.83211E+00  4.69917E+00  4.51639E+00  5.15828E+00  5.31261E+00  5.79962E+00  5.85575E+00  5.69553E+00
   5.52048E+00  4.88809E+00  4.85672E+00  4.12873E+00  3.98390E+00  3.49001E+00  3.75572E+00  3.24522E+00  3.96207E+00  3.28807E+00
   4.34161E+00  3.48039E+00  4.64141E+00  3.21229E+00  4.57937E+00  2.60279E+00  4.29008E+00  1.86781E+00  3.93222E+00  1.45839E+00
   4.16810E+00  1.72209E+00  4.93032E+00  2.43994E+00  6.02630E+00  3.25787E+00  6.81428E+00  3.77287E+00  7.14367E+00  3.94242E+00
   6.96098E+00  3.94900E+00  6.91459E+00  4.37365E+00  7.31635E+00  5.31573E+00  7.97984E+00  6.40321E+00  8.26133E+00  6.53265E+00
   7.71429E+00  6.03233E+00  6.78781E+00  5.24405E+00  5.69267E+00  4.63406E+00  5.38479E+00  4.64327E+00  5.48376E+00  4.92094E+00
   5.69150E+00  5.07740E+00  5.55246E+00  4.69763E+00  5.07281E+00  4.19130E+00  4.57330E+00  3.80099E+00  4.36606E+00  3.77127E+00
   4.48389E+00  3.80937E+00  4.37509E+00  3.51393E+00  3.93884E+00  2.94216E+00  3.26796E+00  2.20221E+00  2.47954E+00  1.43434E+00
   1.65473E+00  6.95206E-01  9.13332E-01  3.12358E-02  3.37270E-01  1.26511E-01  5.51666E-01  7.57238E-01  1.20868E+00  1.71093E+00
   2.17070E+00  2.90952E+00  3.38058E+00  4.31536E+00  4.81309E+00  5.83960E+00  6.27905E+00  7.27404E+00  7.62194E+00  8.50107E+00
   8.71642E+00  9.37058E+00  9.41187E+00  9.76443E+00  9.64387E+00  9.71560E+00  9.47015E+00  9.30724E+00  9.01651E+00  8.91353E+00
   8.85995E+00  8.62178E+00  8.85786E+00  8.44924E+00  9.00505E+00  8.41560E+00  9.30560E+00  8.44260E+00  9.59026E+00  8.38611E+00
   9.68841E+00  8.23237E+00  9.73530E+00  8.30448E+00  1.01148E+01  8.93632E+00  1.08788E+01  9.40040E+00  1.12436E+01  9.49561E+00
   1.11758E+01  9.24721E+00  1.07280E+01  8.69531E+00  9.95335E+00  7.90681E+00  8.92319E+00  6.93285E+00  7.72288E+00  5.82231E+00
   6.37233E+00  4.59451E+00  4.85685E+00  3.24824E+00  3.23425E+00  1.88452E+00  1.67235E+00  7.23025E-01  4.79855E-01  3.51498E-02
  -7.48762E-02 -4.05123E-01 -5.46625E-01 -7.57304E-01 -9.12328E-01 -1.01186E+00 -1.19938E+00 -1.29239E+00 -1.56316E+00 -1.62744E+00
  -1.94574E+00 -1.94053E+00 -2.24228E+00 -2.17802E+00 -2.45523E+00 -2.37505E+00 -2.59959E+00 -2.52336E+00 -2.68558E+00 -2.61794E+00
  -2.71611E+00 -2.65010E+00 -2.65611E+00 -2.56624E+00 -2.45521E+00 -2.37581E+00 -2.18976E+00 -2.14352E+00 -1.89456E+00 -1.90968E+00
  -1.64064E+00 -1.64273E+00 -1.34476E+00 -1.32829E+00 -1.01775E+00 -9.88256E-01 -6.89430E-01 -6.50917E-01 -3.84180E-01 -3.34858E-01
  -1.25753E-01 -7.43378E-02  8.49655E-02  1.65809E-01  3.05259E-01  4.09978E-01  5.26969E-01  6.33527E-01  7.28631E-01  8.42799E-01
   9.20749E-01  1.03473E+00  1.09510E+00  1.19946E+00  1.25242E+00  1.34791E+00  1.43748E+00  1.53041E+00  1.65795E+00  1.77533E+00
   1.95282E+00  2.12004E+00  2.35525E+00  2.52379E+00  2.77832E+00  2.92180E+00  3.16761E+00  3.31659E+00  3.56241E+00  3.74940E+00
   4.00440E+00  4.23200E+00  4.49326E+00  4.70536E+00  4.92867E+00  5.12668E+00  5.33034E+00  5.55130E+00  5.78827E+00  6.04060E+00
   6.31959E+00  6.59784E+00  6.94217E+00  7.25647E+00  7.67637E+00  8.04062E+00  8.58718E+00  9.32731E+00  1.05770E+01  1.13772E+01
   1.31968E+01  1.38283E+01  1.61100E+01  1.64527E+01  1.91240E+01  1.91032E+01  2.20958E+01  2.16010E+01  2.47685E+01  2.37091E+01
   2.68772E+01  2.52253E+01  2.82569E+01  2.60169E+01  2.87820E+01  2.60875E+01  2.84989E+01  2.55340E+01  2.75438E+01  2.44417E+01
   2.60213E+01  2.28664E+01  2.39889E+01  2.09291E+01  2.16482E+01  1.88338E+01  1.92386E+01  1.67382E+01  1.68528E+01  1.46790E+01
   1.44767E+01  1.26538E+01  1.21545E+01  1.07626E+01  1.01009E+01  9.25742E+00  8.70741E+00  8.46239E+00  8.33198E+00  8.22741E+00
   8.18497E+00  8.15854E+00  8.20179E+00  8.25584E+00  8.39738E+00  8.54129E+00  8.79206E+00  9.03744E+00  9.41120E+00  9.77161E+00
   1.02783E+01  1.07722E+01  1.14251E+01  1.20722E+01  1.28833E+01  1.36866E+01  1.46513E+01  1.56059E+01  1.67102E+01  1.78045E+01
   1.90483E+01  2.02959E+01  2.17026E+01  2.31504E+01  2.47981E+01  2.65824E+01  2.86931E+01  3.12155E+01  3.46655E+01  3.93394E+01
   4.21143E+01  4.65616E+01  4.80592E+01  5.15677E+01  5.16080E+01  5.36683E+01  5.18256E+01  5.45842E+01  5.33874E+01  5.61961E+01
   5.57841E+01  5.78173E+01  5.80581E+01  5.88857E+01  5.96647E+01  5.90864E+01  6.07784E+01  5.89216E+01  6.23880E+01  6.03450E+01
   6.41217E+01  6.09632E+01  6.45746E+01  6.00073E+01  6.30179E+01  5.68298E+01  5.88972E+01  5.34886E+01  5.45268E+01  5.00814E+01
   4.98663E+01  4.64729E+01  4.50649E+01  4.31617E+01  4.09366E+01  4.12368E+01  3.87392E+01  4.15816E+01  3.86287E+01  4.34919E+01
   3.81942E+01  4.24729E+01  3.52630E+01  3.91437E+01  3.04925E+01  3.43346E+01  2.53814E+01  3.04295E+01  2.33133E+01  2.79880E+01
   2.19419E+01  2.57586E+01  2.08243E+01  2.38190E+01  2.02427E+01  2.27612E+01  2.06745E+01  2.29625E+01  2.19531E+01  2.37884E+01
   2.23467E+01  2.23648E+01  2.07949E+01  1.94763E+01  1.80225E+01  1.62835E+01  1.53535E+01  1.48245E+01  1.45201E+01  1.43731E+01
   1.43498E+01  1.44310E+01  1.46037E+01  1.48583E+01  1.51866E+01  1.55806E+01  1.60318E+01  1.65307E+01  1.70665E+01  1.76275E+01
   1.82003E+01  1.87710E+01  1.93242E+01  1.98444E+01  2.03161E+01  2.07244E+01  2.10559E+01  2.12984E+01  2.14423E+01  2.14806E+01
   2.14095E+01  2.12281E+01  2.09393E+01  2.05486E+01  2.00645E+01  1.94978E+01  1.88613E+01  1.81691E+01  1.74358E+01  1.66761E+01
   1.59041E+01  1.51331E+01  1.43748E+01  1.36395E+01  1.29355E+01  1.22691E+01  1.16452E+01  1.10667E+01  1.05350E+01  1.00503E+01
   9.61160E+00  9.21717E+00  8.86455E+00  8.55094E+00  8.27332E+00  8.02852E+00  7.81339E+00  7.62488E+00  7.46013E+00  7.31652E+00
   7.19166E+00  7.08332E+00  6.98956E+00  6.90862E+00  6.83899E+00  6.77935E+00  6.72855E+00  6.68554E+00  6.64942E+00  6.61942E+00
   6.59488E+00  6.57524E+00  6.55997E+00  6.54862E+00  6.54077E+00  6.53610E+00  6.53432E+00  6.53517E+00  6.53840E+00  6.54379E+00
   6.55114E+00  6.56031E+00  6.57116E+00  6.58356E+00  6.59737E+00  6.61248E+00  6.62879E+00  6.64623E+00  6.66474E+00  6.68424E+00
   6.70464E+00  6.72590E+00  6.74794E+00  6.77077E+00  6.79433E+00  6.81857E+00  6.84344E+00  6.86891E+00  6.89498E+00  6.92162E+00
   6.94882E+00  6.97654E+00  7.00475E+00  7.03345E+00  7.06264E+00  7.09233E+00  7.12249E+00  7.15310E+00  7.18418E+00  7.21572E+00
   7.24776E+00  7.28029E+00  7.31332E+00  7.34685E+00  7.38091E+00  7.41553E+00  7.45077E+00  7.48664E+00  7.52319E+00  7.56047E+00
   7.59856E+00  7.63755E+00  7.67756E+00  7.71870E+00  7.76114E+00  7.80509E+00  7.85084E+00  7.89876E+00
 NY background values follow
    -6.899E+00   -6.869E+00   -6.838E+00   -6.807E+00   -6.777E+00   -6.746E+00   -6.716E+00   -6.685E+00   -6.654E+00   -6.623E+00
    -6.593E+00   -6.562E+00   -6.531E+00   -6.501E+00   -6.470E+00   -6.439E+00   -6.408E+00   -6.377E+00   -6.347E+00   -6.316E+00
    -6.285E+00   -6.254E+00   -6.223E+00   -6.192E+00   -6.162E+00   -6.131E+00   -6.100E+00   -6.069E+00   -6.038E+00   -6.007E+00
    -5.976E+00   -5.945E+00   -5.914E+00   -5.883E+00   -5.852E+00   -5.821E+00   -5.790E+00   -5.759E+00   -5.728E+00   -5.697E+00
    -5.666E+00   -5.635E+00   -5.604E+00   -5.573E+00   -5.541E+00   -5.510E+00   -5.479E+00   -5.448E+00   -5.417E+00   -5.386E+00
    -5.355E+00   -5.323E+00   -5.292E+00   -5.261E+00   -5.230E+00   -5.198E+00   -5.167E+00   -5.136E+00   -5.105E+00   -5.073E+00
    -5.042E+00   -5.011E+00   -4.980E+00   -4.948E+00   -4.917E+00   -4.886E+00   -4.854E+00   -4.823E+00   -4.791E+00   -4.760E+00
    -4.729E+00   -4.697E+00   -4.666E+00   -4.634E+00   -4.603E+00   -4.572E+00   -4.540E+00   -4.509E+00   -4.477E+00   -4.446E+00
    -4.414E+00   -4.383E+00   -4.351E+00   -4.320E+00   -4.288E+00   -4.257E+00   -4.225E+00   -4.193E+00   -4.162E+00   -4.130E+00
    -4.099E+00   -4.067E+00   -4.035E+00   -4.004E+00   -3.972E+00   -3.941E+00   -3.909E+00   -3.877E+00   -3.846E+00   -3.814E+00
    -3.782E+00   -3.751E+00   -3.719E+00   -3.687E+00   -3.655E+00   -3.624E+00   -3.592E+00   -3.560E+00   -3.528E+00   -3.497E+00
    -3.465E+00   -3.433E+00   -3.401E+00   -3.369E+00   -3.338E+00   -3.306E+00   -3.274E+00   -3.242E+00   -3.210E+00   -3.178E+00
    -3.147E+00   -3.115E+00   -3.083E+00   -3.051E+00   -3.019E+00   -2.987E+00   -2.955E+00   -2.923E+00   -2.891E+00   -2.860E+00
    -2.828E+00   -2.796E+00   -2.764E+00   -2.732E+00   -2.700E+00   -2.668E+00   -2.636E+00   -2.604E+00   -2.572E+00   -2.540E+00
    -2.508E+00   -2.476E+00   -2.444E+00   -2.412E+00   -2.380E+00   -2.348E+00   -2.315E+00   -2.283E+00   -2.251E+00   -2.219E+00
    -2.187E+00   -2.155E+00   -2.123E+00   -2.091E+00   -2.059E+00   -2.027E+00   -1.994E+00   -1.962E+00   -1.930E+00   -1.898E+00
    -1.866E+00   -1.834E+00   -1.801E+00   -1.769E+00   -1.737E+00   -1.705E+00   -1.673E+00   -1.640E+00   -1.608E+00   -1.576E+00
    -1.544E+00   -1.512E+00   -1.479E+00   -1.447E+00   -1.415E+00   -1.383E+00   -1.350E+00   -1.318E+00   -1.286E+00   -1.253E+00
    -1.221E+00   -1.189E+00   -1.157E+00   -1.124E+00   -1.092E+00   -1.060E+00   -1.027E+00   -9.950E-01   -9.627E-01   -9.303E-01
    -8.980E-01   -8.656E-01   -8.333E-01   -8.009E-01   -7.685E-01   -7.362E-01   -7.038E-01   -6.714E-01   -6.390E-01   -6.067E-01
    -5.743E-01   -5.419E-01   -5.095E-01   -4.771E-01   -4.447E-01   -4.122E-01   -3.798E-01   -3.474E-01   -3.150E-01   -2.825E-01
    -2.501E-01   -2.177E-01   -1.852E-01   -1.528E-01   -1.203E-01   -8.788E-02   -5.543E-02   -2.297E-02    9.495E-03    4.196E-02
     7.443E-02    1.069E-01    1.394E-01    1.719E-01    2.043E-01    2.368E-01    2.693E-01    3.018E-01    3.343E-01    3.668E-01
     3.993E-01    4.318E-01    4.643E-01    4.968E-01    5.293E-01    5.618E-01    5.943E-01    6.269E-01    6.594E-01    6.919E-01
     7.244E-01    7.570E-01    7.895E-01    8.220E-01    8.545E-01    8.871E-01    9.196E-01    9.521E-01    9.847E-01    1.017E+00
     1.050E+00    1.082E+00    1.115E+00    1.147E+00    1.180E+00    1.212E+00    1.245E+00    1.278E+00    1.310E+00    1.343E+00
     1.375E+00    1.408E+00    1.440E+00    1.473E+00    1.505E+00    1.538E+00    1.571E+00    1.603E+00    1.636E+00    1.668E+00
     1.701E+00    1.733E+00    1.766E+00    1.798E+00    1.831E+00    1.864E+00    1.896E+00    1.929E+00    1.961E+00    1.994E+00
     2.026E+00    2.059E+00    2.091E+00    2.124E+00    2.157E+00    2.189E+00    2.222E+00    2.254E+00    2.287E+00    2.319E+00
     2.352E+00    2.384E+00    2.417E+00    2.450E+00    2.482E+00    2.515E+00    2.547E+00    2.580E+00    2.612E+00    2.645E+00
     2.677E+00    2.710E+00    2.742E+00    2.775E+00    2.807E+00    2.840E+00    2.873E+00    2.905E+00    2.938E+00    2.970E+00
     3.003E+00    3.035E+00    3.068E+00    3.100E+00    3.133E+00    3.165E+00    3.198E+00    3.230E+00    3.263E+00    3.295E+00
     3.328E+00    3.360E+00    3.393E+00    3.425E+00    3.458E+00    3.490E+00    3.523E+00    3.555E+00    3.588E+00    3.620E+00
     3.652E+00    3.685E+00    3.717E+00    3.750E+00    3.782E+00    3.815E+00    3.847E+00    3.880E+00    3.912E+00    3.944E+00
     3.977E+00    4.009E+00    4.042E+00    4.074E+00    4.107E+00    4.139E+00    4.171E+00    4.204E+00    4.236E+00    4.269E+00
     4.301E+00    4.333E+00    4.366E+00    4.398E+00    4.430E+00    4.463E+00    4.495E+00    4.527E+00    4.560E+00    4.592E+00
     4.624E+00    4.657E+00    4.689E+00    4.721E+00    4.754E+00    4.786E+00    4.818E+00    4.851E+00    4.883E+00    4.915E+00
     4.947E+00    4.980E+00    5.012E+00    5.044E+00    5.076E+00    5.109E+00    5.141E+00    5.173E+00    5.205E+00    5.237E+00
     5.270E+00    5.302E+00    5.334E+00    5.366E+00    5.398E+00    5.431E+00    5.463E+00    5.495E+00    5.527E+00    5.559E+00
     5.591E+00    5.623E+00    5.655E+00    5.688E+00    5.720E+00    5.752E+00    5.784E+00    5.816E+00    5.848E+00    5.880E+00
     5.912E+00    5.944E+00    5.976E+00    6.008E+00    6.040E+00    6.072E+00    6.104E+00    6.136E+00    6.168E+00    6.200E+00
     6.232E+00    6.264E+00    6.296E+00    6.328E+00    6.360E+00    6.392E+00    6.423E+00    6.455E+00    6.487E+00    6.519E+00
     6.551E+00    6.583E+00    6.615E+00    6.646E+00    6.678E+00    6.710E+00    6.742E+00    6.774E+00    6.805E+00    6.837E+00
     6.869E+00    6.901E+00    6.932E+00    6.964E+00    6.996E+00    7.027E+00    7.059E+00    7.091E+00    7.122E+00    7.154E+00
     7.186E+00    7.217E+00    7.249E+00    7.281E+00    7.312E+00    7.344E+00    7.375E+00    7.407E+00    7.438E+00    7.470E+00
     7.501E+00    7.533E+00    7.564E+00    7.596E+00    7.627E+00    7.659E+00    7.690E+00    7.722E+00    7.753E+00    7.785E+00
     7.816E+00    7.847E+00    7.879E+00    7.910E+00    7.941E+00    7.973E+00    8.004E+00    8.035E+00    8.067E+00    8.098E+00
     8.129E+00    8.160E+00    8.192E+00    8.223E+00    8.254E+00    8.285E+00    8.316E+00    8.348E+00    8.379E+00    8.410E+00
     8.441E+00    8.472E+00    8.503E+00    8.534E+00    8.565E+00    8.596E+00    8.627E+00    8.658E+00    8.689E+00    8.720E+00
     8.751E+00    8.782E+00    8.813E+00    8.844E+00    8.875E+00    8.906E+00    8.937E+00    8.968E+00
 Ala      Conc. = 1.16E+04
