 LCModel (Version 6.3-1L) Copyright: S.W. Provencher.          Ref.: Magn. Reson. Med. 30:672-679 (1993).                
 Slice#3 Row#6 Col#8  PD_05_press_2_raw_act
 36 lines in following concentration table = NCONC+1
    Conc.  %SD /Cr+PCr  Metabolite                                         
  837.782  43%   0.365 Ala                                                 
   32.116 999% 1.4E-02 Asp                                                 
    0.000 999%   0.000 Cr                                                  
 2.29E+03   7%   1.000 PCr                                                 
   67.379 413% 2.9E-02 GABA                                                
  131.229 208% 5.7E-02 Glc                                                 
 2.19E+03  37%   0.955 Gln                                                 
 1.21E+03  75%   0.526 Glu                                                 
   27.785 999% 1.2E-02 GPC                                                 
  874.332  52%   0.381 PCh                                                 
  400.006  56%   0.174 GSH                                                 
 2.28E+03  34%   0.994 Ins                                                 
    0.000 999%   0.000 Lac                                                 
 3.31E+03   5%   1.441 NAA                                                 
    0.000 999%   0.000 NAAG                                                
  178.473  36% 7.8E-02 Scyllo                                              
  606.583  71%   0.264 Tau                                                 
 2.37E+03  12%   1.033 -CrCH2                                              
  902.117   7%   0.393 GPC+PCh                                             
 3.31E+03   5%   1.441 NAA+NAAG                                            
 2.29E+03   7%   1.000 Cr+PCr                                              
 3.40E+03  41%   1.481 Glu+Gln                                             
   31.306 999% 1.4E-02 Lip13a                                              
    0.000 999%   0.000 Lip13b                                              
    0.000 999%   0.000 Lip09                                               
 1.87E+03  21%   0.814 MM09                                                
   11.897 851% 5.2E-03 Lip20                                               
 3.47E+03  21%   1.511 MM20                                                
  609.954  44%   0.266 MM12                                                
 1.80E+03  33%   0.784 MM14                                                
    0.000 999%   0.000 MM17                                                
   31.306 999% 1.4E-02 Lip13a+Lip13b                                       
 2.44E+03  30%   1.063 MM14+Lip13a+Lip13b+MM12                             
 1.87E+03  21%   0.814 MM09+Lip09                                          
 3.48E+03  21%   1.516 MM20+Lip20                                          
   6 lines in following misc. output table
  FWHM = 0.061 ppm    S/N =   6                                            
  Data shift = 0.023 ppm                                                   
  Ph: -44 deg      -8.9 deg/ppm                                            
  alphaB,S = 1.4E+00,   1.2E+01                                            
   14 spline knots.   Ns = 8(1)                                            
  (15) 9 infls.   (13) 5 extrs.                                            
  498 points on ppm-axis = NY
      4.000000     3.992357     3.984714     3.977070     3.969427     3.961784     3.954141     3.946497     3.938854     3.931211
      3.923568     3.915925     3.908281     3.900638     3.892995     3.885352     3.877708     3.870065     3.862422     3.854779
      3.847136     3.839492     3.831849     3.824206     3.816563     3.808919     3.801276     3.793633     3.785990     3.778347
      3.770703     3.763060     3.755417     3.747774     3.740130     3.732487     3.724844     3.717201     3.709558     3.701914
      3.694271     3.686628     3.678985     3.671341     3.663698     3.656055     3.648412     3.640769     3.633125     3.625482
      3.617839     3.610196     3.602552     3.594909     3.587266     3.579623     3.571980     3.564336     3.556693     3.549050
      3.541407     3.533763     3.526120     3.518477     3.510834     3.503191     3.495547     3.487904     3.480261     3.472618
      3.464974     3.457331     3.449688     3.442045     3.434402     3.426758     3.419115     3.411472     3.403829     3.396185
      3.388542     3.380899     3.373256     3.365613     3.357969     3.350326     3.342683     3.335040     3.327396     3.319753
      3.312110     3.304467     3.296824     3.289180     3.281537     3.273894     3.266251     3.258607     3.250964     3.243321
      3.235678     3.228034     3.220391     3.212748     3.205105     3.197462     3.189818     3.182175     3.174532     3.166889
      3.159245     3.151602     3.143959     3.136316     3.128673     3.121029     3.113386     3.105743     3.098100     3.090456
      3.082813     3.075170     3.067527     3.059884     3.052240     3.044597     3.036954     3.029311     3.021667     3.014024
      3.006381     2.998738     2.991095     2.983451     2.975808     2.968165     2.960522     2.952878     2.945235     2.937592
      2.929949     2.922306     2.914662     2.907019     2.899376     2.891733     2.884089     2.876446     2.868803     2.861160
      2.853517     2.845873     2.838230     2.830587     2.822944     2.815300     2.807657     2.800014     2.792371     2.784728
      2.777084     2.769441     2.761798     2.754155     2.746511     2.738868     2.731225     2.723582     2.715939     2.708295
      2.700652     2.693009     2.685366     2.677722     2.670079     2.662436     2.654793     2.647150     2.639506     2.631863
      2.624220     2.616577     2.608933     2.601290     2.593647     2.586004     2.578361     2.570717     2.563074     2.555431
      2.547788     2.540144     2.532501     2.524858     2.517215     2.509572     2.501928     2.494285     2.486642     2.478999
      2.471355     2.463712     2.456069     2.448426     2.440783     2.433139     2.425496     2.417853     2.410210     2.402566
      2.394923     2.387280     2.379637     2.371994     2.364350     2.356707     2.349064     2.341421     2.333777     2.326134
      2.318491     2.310848     2.303205     2.295561     2.287918     2.280275     2.272632     2.264988     2.257345     2.249702
      2.242059     2.234416     2.226772     2.219129     2.211486     2.203843     2.196199     2.188556     2.180913     2.173270
      2.165627     2.157983     2.150340     2.142697     2.135054     2.127410     2.119767     2.112124     2.104481     2.096838
      2.089194     2.081551     2.073908     2.066265     2.058621     2.050978     2.043335     2.035692     2.028049     2.020405
      2.012762     2.005119     1.997476     1.989833     1.982190     1.974546     1.966903     1.959260     1.951617     1.943974
      1.936331     1.928688     1.921045     1.913402     1.905759     1.898115     1.890472     1.882829     1.875186     1.867543
      1.859900     1.852257     1.844614     1.836971     1.829327     1.821684     1.814041     1.806398     1.798755     1.791112
      1.783469     1.775826     1.768183     1.760540     1.752896     1.745253     1.737610     1.729967     1.722324     1.714681
      1.707038     1.699395     1.691752     1.684108     1.676465     1.668822     1.661179     1.653536     1.645893     1.638250
      1.630607     1.622964     1.615321     1.607677     1.600034     1.592391     1.584748     1.577105     1.569462     1.561819
      1.554176     1.546533     1.538890     1.531246     1.523603     1.515960     1.508317     1.500674     1.493031     1.485388
      1.477745     1.470102     1.462458     1.454815     1.447172     1.439529     1.431886     1.424243     1.416600     1.408957
      1.401314     1.393671     1.386027     1.378384     1.370741     1.363098     1.355455     1.347812     1.340169     1.332526
      1.324883     1.317240     1.309596     1.301953     1.294310     1.286667     1.279024     1.271381     1.263738     1.256095
      1.248452     1.240808     1.233165     1.225522     1.217879     1.210236     1.202593     1.194950     1.187307     1.179664
      1.172021     1.164377     1.156734     1.149091     1.141448     1.133805     1.126162     1.118519     1.110876     1.103233
      1.095590     1.087946     1.080303     1.072660     1.065017     1.057374     1.049731     1.042088     1.034445     1.026802
      1.019158     1.011515     1.003872     0.996229     0.988586     0.980943     0.973300     0.965657     0.958014     0.950371
      0.942727     0.935084     0.927441     0.919798     0.912155     0.904512     0.896869     0.889226     0.881583     0.873940
      0.866296     0.858653     0.851010     0.843367     0.835724     0.828081     0.820438     0.812795     0.805152     0.797508
      0.789865     0.782222     0.774579     0.766936     0.759293     0.751650     0.744007     0.736364     0.728721     0.721077
      0.713434     0.705791     0.698148     0.690505     0.682862     0.675219     0.667576     0.659933     0.652290     0.644646
      0.637003     0.629360     0.621717     0.614074     0.606431     0.598788     0.591145     0.583502     0.575858     0.568215
      0.560572     0.552929     0.545286     0.537643     0.530000     0.522357     0.514714     0.507071     0.499427     0.491784
      0.484141     0.476498     0.468855     0.461212     0.453569     0.445925     0.438282     0.430639     0.422996     0.415353
      0.407710     0.400067     0.392424     0.384780     0.377137     0.369494     0.361851     0.354208     0.346565     0.338922
      0.331278     0.323635     0.315992     0.308349     0.300706     0.293063     0.285420     0.277777     0.270133     0.262490
      0.254847     0.247204     0.239561     0.231918     0.224275     0.216631     0.208988     0.201345
 NY phased data points follow
  -1.75108E+02 -1.71571E+02 -1.71957E+02 -1.77056E+02 -1.64054E+02 -1.55468E+02 -1.36660E+02 -1.50605E+02 -1.37024E+02 -1.34593E+02
  -1.17145E+02 -1.20333E+02 -1.03703E+02 -1.14318E+02 -1.30287E+02 -1.32814E+02 -1.34726E+02 -1.25966E+02 -1.28165E+02 -1.50633E+02
  -1.28500E+02 -1.41234E+02 -1.28702E+02 -1.21716E+02 -1.24615E+02 -1.25573E+02 -1.02452E+02 -1.09878E+02 -1.14641E+02 -1.24677E+02
  -1.08511E+02 -1.18543E+02 -1.04838E+02 -1.15060E+02 -1.16533E+02 -1.19468E+02 -1.04267E+02 -1.11508E+02 -1.16899E+02 -1.10568E+02
  -1.22875E+02 -1.04965E+02 -1.01733E+02 -1.09429E+02 -9.67124E+01 -1.03716E+02 -9.09404E+01 -9.29876E+01 -8.66024E+01 -9.01182E+01
  -7.84583E+01 -9.51443E+01 -1.00341E+02 -9.96308E+01 -9.05748E+01 -9.68058E+01 -8.81784E+01 -9.65974E+01 -1.00953E+02 -9.45008E+01
  -9.84679E+01 -8.94236E+01 -9.67093E+01 -9.68529E+01 -8.90684E+01 -8.97931E+01 -8.85767E+01 -9.86373E+01 -9.44884E+01 -9.64818E+01
  -9.01700E+01 -1.01158E+02 -8.00447E+01 -8.40852E+01 -8.36376E+01 -9.14170E+01 -7.90535E+01 -7.72808E+01 -7.86664E+01 -8.55160E+01
  -7.83365E+01 -8.40710E+01 -7.40226E+01 -5.97587E+01 -8.37270E+01 -8.16729E+01 -8.49414E+01 -6.95402E+01 -6.86083E+01 -7.62551E+01
  -6.92325E+01 -6.51116E+01 -6.49110E+01 -6.14185E+01 -6.70367E+01 -6.57896E+01 -5.96682E+01 -5.95901E+01 -3.22790E+01 -4.09469E+01
  -2.43145E+01 -1.08557E+01 -8.54649E+00 -8.21430E+00 -2.55981E+00  1.95072E+00 -3.42497E+01 -3.47495E+01 -2.99907E+01 -5.03562E+01
  -4.24045E+01 -5.45837E+01 -4.55554E+01 -5.20244E+01 -4.07112E+01 -5.99095E+01 -6.52906E+01 -5.95387E+01 -5.60826E+01 -5.59691E+01
  -4.23831E+01 -5.36007E+01 -3.57757E+01 -3.15806E+01 -9.60674E+00 -1.00242E+01  4.11235E+00  8.65010E-01 -1.01433E+00 -1.19230E+01
  -2.02860E+01 -2.59181E+01 -3.18995E+01 -3.71487E+01 -3.12695E+01 -4.88976E+01 -4.17520E+01 -4.53041E+01 -4.51841E+01 -6.65794E+01
  -5.22924E+01 -4.89670E+01 -6.34329E+01 -5.27529E+01 -6.10403E+01 -5.67866E+01 -5.44404E+01 -3.79594E+01 -4.43474E+01 -5.27977E+01
  -4.63832E+01 -4.12402E+01 -5.22341E+01 -5.12256E+01 -5.79023E+01 -4.38377E+01 -4.04426E+01 -4.92146E+01 -4.34384E+01 -5.97293E+01
  -4.80017E+01 -5.81144E+01 -4.33680E+01 -4.88372E+01 -5.81194E+01 -3.71403E+01 -4.75373E+01 -5.54921E+01 -6.19219E+01 -5.01100E+01
  -4.80278E+01 -3.78746E+01 -5.73430E+01 -5.31214E+01 -6.04336E+01 -5.09179E+01 -4.07932E+01 -5.82344E+01 -4.28492E+01 -5.65770E+01
  -4.71899E+01 -4.00761E+01 -4.86486E+01 -5.72885E+01 -5.85980E+01 -5.50933E+01 -4.11779E+01 -4.47294E+01 -3.56298E+01 -4.04299E+01
  -3.35016E+01 -3.42214E+01 -3.31309E+01 -2.87628E+01 -3.14974E+01 -3.57822E+01 -2.99096E+01 -2.46144E+01 -4.73563E+01 -2.77822E+01
  -4.34134E+01 -2.88949E+01 -1.83227E+01 -2.94842E+01 -3.04297E+01 -3.63698E+01 -3.86623E+01 -4.95819E+01 -3.17437E+01 -4.06261E+01
  -4.42315E+01 -3.10895E+01 -3.02415E+01 -3.27201E+01 -2.44864E+01 -1.97279E+01 -1.49195E+01 -2.24728E+01 -2.19178E+01 -1.73830E+01
  -2.88945E+01 -1.78990E+01 -2.51831E+01 -3.35862E+01 -2.59870E+01 -2.61403E+01 -1.36749E+01 -1.41093E+01 -1.59903E+01 -1.56518E+01
   4.68975E+00 -1.24139E+01 -2.59315E+01 -1.36652E+01 -2.19316E+01  9.29508E-01 -1.74065E+01 -3.71007E+00 -1.32666E+01 -1.76339E+01
  -2.36579E+01 -2.35393E+01 -1.71435E+01 -1.52365E+01 -2.04982E+01 -1.46665E+01 -1.19697E+01 -1.93220E+01 -1.09733E+01 -8.39488E+00
   2.57920E+00  2.95122E+00  7.96064E-01  8.90677E+00  5.14464E+00  2.12723E+01  3.01450E+01  7.64383E+01  7.35939E+01  7.67239E+01
   6.50514E+01  6.84475E+01  5.50310E+01  6.66376E+01  4.03799E+01  3.41179E+01  2.81331E+01  9.10029E+00 -3.33369E+00 -5.46354E+00
  -1.84181E+00 -1.29991E+01 -1.51954E+01 -6.98645E+00 -1.61814E+01 -1.47078E+01 -1.48498E+00 -1.30113E+01 -1.55319E+01 -1.08797E+01
  -2.38350E+01 -1.52573E+01 -2.20396E+01 -2.04870E+01 -1.75378E+01 -7.39913E+00 -9.75667E+00 -4.88947E+00 -6.03724E+00 -1.07698E+01
  -1.68348E+01 -1.79064E+01 -1.46811E+01 -1.65685E+01 -2.03194E+01 -1.09770E+01 -1.21607E+01 -1.82402E+01 -7.37369E+00 -3.02728E+01
  -1.45371E+01 -2.07684E+01 -2.68386E+01 -2.35210E+01 -2.14586E+01 -1.55966E+01 -1.37314E+01 -9.89509E+00 -2.40238E+01 -2.55026E+01
  -1.80046E+01  5.07919E+00 -9.16914E-01 -7.74279E+00  1.53248E+00  2.98155E+00  1.03963E+01 -5.78641E+00 -9.28984E+00 -6.05552E+00
   9.60815E+00 -6.18665E+00  1.23078E+01 -4.73393E-01 -8.44183E+00  7.08509E+00  7.33645E+00 -9.47629E-01 -4.45751E+00 -2.56536E+00
  -1.24656E+01 -2.63882E+00  7.03911E-01 -2.19334E+00 -1.89427E-01 -1.35159E+00 -9.94638E+00  7.08620E+00  4.17722E+00 -4.57260E+00
   1.00745E+01  7.34165E+00  5.36554E+00  1.58496E+01  1.90201E+01  2.10054E+01  1.82477E+01  5.00332E+00  3.94459E+00  3.55897E+00
   9.52709E+00  2.06218E+00  3.69613E+00 -3.37230E+00  6.36076E-01  7.20390E+00  2.59268E+00  3.13469E+00  5.83354E+00 -6.14950E+00
  -1.20790E+00 -1.28025E+01  5.08019E+00 -7.95780E+00  2.66107E+00 -1.05363E+01 -2.44931E+00  1.24952E+01  1.13863E+01  7.16601E+00
   1.57036E+01  1.64634E+01  1.08205E+01  1.05649E+01  3.08892E+00  5.68446E+00  1.58642E+01  9.35574E+00  3.66999E+00  7.37959E+00
   1.29774E+01  6.73950E+00  1.00632E+01 -1.32003E+00  3.92958E+00  2.92664E+01  1.73875E+01  2.00505E+01  5.38350E+00  1.42197E+01
   6.23306E+00  2.11231E+01  1.66508E+00  1.44164E+00  1.36613E+01  2.20338E+01  1.14228E+01  1.03039E+01  2.83807E+00  1.46271E+01
   1.57006E+01  1.63941E+01  1.87107E+01  8.30316E+00  1.65660E+01  2.68849E+01  1.72982E+01  1.77137E+01  2.74808E+01  2.19756E+01
   2.31729E+01  1.33767E+01  1.69884E+01  1.06710E+01  9.49334E+00  1.75446E+01  1.27059E+01  5.16776E+00  1.92891E+01  2.16273E+01
   3.12532E+01  1.62352E+01  8.95085E+00  1.36033E+01  1.26403E+01  8.48640E+00  9.61883E+00  1.64398E+01  5.53584E+00  1.01503E+01
  -3.64875E-01  1.04583E+01  8.20774E+00  3.36417E+00  9.08649E+00  9.72904E+00  1.73178E+01  1.06562E+01  2.12178E+01  1.52358E+01
   1.89226E+01  3.42712E+00  1.77727E+01  1.96901E+01  1.35497E+01  1.98300E+01  7.95194E+00  6.83727E-01  6.13780E+00  1.94719E+01
   6.02637E+00  1.68799E+01  1.45752E+01  2.14074E+01  1.89210E+01  5.12508E+00  5.88730E+00  2.17787E+01  1.85689E+01  1.47589E+01
   3.38651E+00  2.27421E+01  1.01985E+01  1.57128E+01 -2.34020E+00  9.19876E+00  1.60568E+01  1.66038E+01  1.31124E+01  1.87999E+01
   1.31349E+01  6.10158E+00  1.21548E+01  1.96050E+01  8.83424E+00  1.70152E+01  4.92198E+00  1.58926E+01  1.01300E+01  1.36318E+01
   7.01094E+00  9.68041E+00  1.27327E+01  1.92262E+01  1.55955E+01  1.03647E+01 -1.75571E+00  1.60829E+01  1.13646E+01  2.15685E+01
   1.01575E+01  2.15206E+01  8.26767E+00  2.29964E+01  1.64356E+01  1.83505E+01  9.55379E+00  1.78653E+01
 NY points of the fit to the data follow
  -1.51949E+02 -1.54830E+02 -1.59286E+02 -1.67030E+02 -1.65210E+02 -1.56465E+02 -1.44799E+02 -1.41809E+02 -1.39423E+02 -1.33323E+02
  -1.24191E+02 -1.21016E+02 -1.21054E+02 -1.22959E+02 -1.24272E+02 -1.26820E+02 -1.25225E+02 -1.24289E+02 -1.23654E+02 -1.26542E+02
  -1.27012E+02 -1.26036E+02 -1.25278E+02 -1.25260E+02 -1.24314E+02 -1.22694E+02 -1.19546E+02 -1.17139E+02 -1.14719E+02 -1.12876E+02
  -1.10793E+02 -1.09651E+02 -1.09284E+02 -1.09844E+02 -1.10398E+02 -1.11164E+02 -1.11796E+02 -1.12494E+02 -1.12170E+02 -1.11849E+02
  -1.10701E+02 -1.09611E+02 -1.07536E+02 -1.04363E+02 -1.00728E+02 -9.87737E+01 -9.85338E+01 -9.85355E+01 -9.81705E+01 -9.82934E+01
  -9.94371E+01 -1.00945E+02 -1.01557E+02 -1.01477E+02 -1.00981E+02 -9.96585E+01 -9.78201E+01 -9.69052E+01 -9.61294E+01 -9.52928E+01
  -9.43554E+01 -9.34981E+01 -9.30128E+01 -9.26801E+01 -9.21870E+01 -9.16874E+01 -9.10444E+01 -9.00777E+01 -8.85684E+01 -8.73298E+01
  -8.63443E+01 -8.54036E+01 -8.41016E+01 -8.33465E+01 -8.30712E+01 -8.29226E+01 -8.26599E+01 -8.23124E+01 -8.16077E+01 -8.09484E+01
  -7.99341E+01 -7.88153E+01 -7.68277E+01 -7.50682E+01 -7.50633E+01 -7.57582E+01 -7.53918E+01 -7.48321E+01 -7.49484E+01 -7.55877E+01
  -7.57983E+01 -7.54396E+01 -7.48287E+01 -7.38038E+01 -7.19693E+01 -6.84299E+01 -6.26676E+01 -5.71590E+01 -4.77075E+01 -3.48157E+01
  -1.65641E+01 -8.74036E+00 -8.88153E+00 -9.15919E+00 -6.39173E+00 -9.45353E+00 -1.78456E+01 -2.88096E+01 -3.67679E+01 -4.41273E+01
  -5.02749E+01 -5.43884E+01 -5.58416E+01 -6.17729E+01 -6.47218E+01 -6.47931E+01 -6.41331E+01 -6.32281E+01 -6.16083E+01 -5.75508E+01
  -5.17672E+01 -4.63084E+01 -3.72948E+01 -2.42594E+01 -8.20942E+00 -3.57573E+00 -4.22479E+00 -3.48376E+00 -1.22241E+00 -5.24053E+00
  -1.36187E+01 -2.35787E+01 -3.05838E+01 -3.74972E+01 -4.30728E+01 -4.60487E+01 -4.79709E+01 -5.37821E+01 -5.52647E+01 -5.50547E+01
  -5.45582E+01 -5.39687E+01 -5.34304E+01 -5.31827E+01 -5.28986E+01 -5.26368E+01 -5.24071E+01 -5.22012E+01 -5.19989E+01 -5.18413E+01
  -5.16284E+01 -5.14901E+01 -5.12361E+01 -5.10390E+01 -5.08420E+01 -5.06679E+01 -5.05511E+01 -5.06134E+01 -5.07951E+01 -5.05228E+01
  -4.99174E+01 -4.93292E+01 -4.90107E+01 -4.90594E+01 -4.88997E+01 -4.85403E+01 -4.83571E+01 -4.85026E+01 -4.88159E+01 -4.92127E+01
  -4.92777E+01 -4.93834E+01 -4.96024E+01 -4.98729E+01 -4.95131E+01 -4.90121E+01 -4.86278E+01 -4.86318E+01 -4.83752E+01 -4.76100E+01
  -4.67448E+01 -4.63237E+01 -4.60800E+01 -4.55690E+01 -4.46825E+01 -4.31007E+01 -4.13295E+01 -4.00186E+01 -3.91388E+01 -3.81907E+01
  -3.76976E+01 -3.70592E+01 -3.70869E+01 -3.69375E+01 -3.68699E+01 -3.65101E+01 -3.54610E+01 -3.32796E+01 -3.12721E+01 -2.94818E+01
  -2.78736E+01 -2.64980E+01 -2.65903E+01 -2.73799E+01 -2.95391E+01 -3.21279E+01 -3.57057E+01 -3.71504E+01 -3.68562E+01 -3.67388E+01
  -3.67902E+01 -3.47423E+01 -3.09800E+01 -2.77712E+01 -2.66938E+01 -2.56937E+01 -2.44770E+01 -2.41711E+01 -2.52743E+01 -2.54402E+01
  -2.52451E+01 -2.49592E+01 -2.46330E+01 -2.40424E+01 -2.30006E+01 -2.18557E+01 -2.10115E+01 -2.05362E+01 -2.04687E+01 -1.99178E+01
  -1.96545E+01 -1.97660E+01 -1.99975E+01 -1.87131E+01 -1.70174E+01 -1.57463E+01 -1.49476E+01 -1.37396E+01 -1.30904E+01 -1.36411E+01
  -1.41668E+01 -1.41082E+01 -1.43239E+01 -1.51306E+01 -1.54516E+01 -1.44619E+01 -1.32254E+01 -1.19795E+01 -1.03853E+01 -8.56574E+00
  -6.99447E+00 -5.00116E+00  3.34249E-02  7.99879E+00  1.42061E+01  2.52818E+01  4.12221E+01  6.46338E+01  7.26294E+01  7.10049E+01
   7.01230E+01  7.32952E+01  6.78589E+01  5.57505E+01  4.05196E+01  2.99278E+01  1.93087E+01  1.02355E+01  4.45123E+00  1.81954E+00
  -7.55387E+00 -1.18293E+01 -1.27048E+01 -1.30559E+01 -1.32771E+01 -1.33517E+01 -1.34648E+01 -1.36156E+01 -1.37441E+01 -1.38492E+01
  -1.39537E+01 -1.40244E+01 -1.40455E+01 -1.40643E+01 -1.40561E+01 -1.40231E+01 -1.39580E+01 -1.38729E+01 -1.37736E+01 -1.36697E+01
  -1.35391E+01 -1.34053E+01 -1.32649E+01 -1.31140E+01 -1.29492E+01 -1.27802E+01 -1.26007E+01 -1.24099E+01 -1.22038E+01 -1.19912E+01
  -1.17642E+01 -1.15277E+01 -1.12804E+01 -1.10225E+01 -1.07493E+01 -1.04648E+01 -1.01638E+01 -9.84941E+00 -9.51484E+00 -9.16140E+00
  -8.78112E+00 -8.37460E+00 -7.93412E+00 -7.45810E+00 -6.93343E+00 -6.35284E+00 -5.69407E+00 -4.92883E+00 -3.97959E+00 -2.69608E+00
  -1.41166E+00 -3.30174E-01  1.09989E+00  2.47709E+00  3.08787E+00  1.30634E+00 -6.88653E-01 -1.83964E+00 -2.53332E+00 -4.45348E+00
  -5.93770E+00 -6.09754E+00 -3.32426E+00 -9.65404E-01  6.49615E-01  2.35346E+00  4.68667E+00  6.07439E+00  7.46609E+00  7.86397E+00
   8.06047E+00  7.84934E+00  7.35897E+00  6.92086E+00  6.97525E+00  6.07739E+00  5.26497E+00  4.76922E+00  4.41395E+00  4.13601E+00
   3.91409E+00  3.73557E+00  3.59665E+00  3.49243E+00  3.42219E+00  3.38179E+00  3.36990E+00  3.38189E+00  3.41622E+00  3.46848E+00
   3.53681E+00  3.61637E+00  3.70495E+00  3.79835E+00  3.89552E+00  3.99364E+00  4.09242E+00  4.18973E+00  4.28611E+00  4.38106E+00
   4.47675E+00  4.57402E+00  4.67551E+00  4.78253E+00  4.89835E+00  5.02542E+00  5.16780E+00  5.32824E+00  5.51045E+00  5.71708E+00
   5.95197E+00  6.21834E+00  6.51997E+00  6.85952E+00  7.23973E+00  7.66255E+00  8.13007E+00  8.64345E+00  9.20301E+00  9.80752E+00
   1.04544E+01  1.11397E+01  1.18582E+01  1.26028E+01  1.33644E+01  1.41321E+01  1.48933E+01  1.56351E+01  1.63431E+01  1.70035E+01
   1.76017E+01  1.81248E+01  1.85607E+01  1.89007E+01  1.91377E+01  1.92685E+01  1.92915E+01  1.92100E+01  1.90287E+01  1.87573E+01
   1.84056E+01  1.79871E+01  1.75142E+01  1.70020E+01  1.64639E+01  1.59147E+01  1.53657E+01  1.48288E+01  1.43121E+01  1.38242E+01
   1.33698E+01  1.29540E+01  1.25780E+01  1.22436E+01  1.19490E+01  1.16945E+01  1.14769E+01  1.12952E+01  1.11450E+01  1.10248E+01
   1.09299E+01  1.08594E+01  1.08091E+01  1.07781E+01  1.07622E+01  1.07610E+01  1.07709E+01  1.07924E+01  1.08223E+01  1.08611E+01
   1.09057E+01  1.09571E+01  1.10126E+01  1.10738E+01  1.11380E+01  1.12067E+01  1.12770E+01  1.13509E+01  1.14260E+01  1.15043E+01
   1.15833E+01  1.16648E+01  1.17463E+01  1.18301E+01  1.19137E+01  1.19996E+01  1.20851E+01  1.21723E+01  1.22587E+01  1.23469E+01
   1.24345E+01  1.25239E+01  1.26122E+01  1.27021E+01  1.27908E+01  1.28812E+01  1.29706E+01  1.30617E+01  1.31514E+01  1.32425E+01
   1.33324E+01  1.34240E+01  1.35143E+01  1.36063E+01  1.36967E+01  1.37887E+01  1.38793E+01  1.39717E+01  1.40628E+01  1.41555E+01
   1.42465E+01  1.43393E+01  1.44307E+01  1.45241E+01  1.46160E+01  1.47095E+01  1.48015E+01  1.48954E+01  1.49879E+01  1.50825E+01
   1.51755E+01  1.52704E+01  1.53638E+01  1.54593E+01  1.55536E+01  1.56500E+01  1.57448E+01  1.58418E+01
 NY background values follow
    -1.497E+02   -1.490E+02   -1.482E+02   -1.474E+02   -1.466E+02   -1.458E+02   -1.450E+02   -1.442E+02   -1.434E+02   -1.426E+02
    -1.418E+02   -1.410E+02   -1.402E+02   -1.394E+02   -1.386E+02   -1.378E+02   -1.370E+02   -1.362E+02   -1.355E+02   -1.347E+02
    -1.339E+02   -1.331E+02   -1.323E+02   -1.315E+02   -1.307E+02   -1.299E+02   -1.292E+02   -1.284E+02   -1.276E+02   -1.268E+02
    -1.260E+02   -1.252E+02   -1.245E+02   -1.237E+02   -1.229E+02   -1.221E+02   -1.214E+02   -1.206E+02   -1.198E+02   -1.191E+02
    -1.183E+02   -1.175E+02   -1.168E+02   -1.160E+02   -1.153E+02   -1.145E+02   -1.137E+02   -1.130E+02   -1.122E+02   -1.115E+02
    -1.107E+02   -1.100E+02   -1.093E+02   -1.085E+02   -1.078E+02   -1.071E+02   -1.063E+02   -1.056E+02   -1.049E+02   -1.041E+02
    -1.034E+02   -1.027E+02   -1.020E+02   -1.013E+02   -1.006E+02   -9.984E+01   -9.914E+01   -9.844E+01   -9.774E+01   -9.704E+01
    -9.634E+01   -9.565E+01   -9.496E+01   -9.428E+01   -9.360E+01   -9.292E+01   -9.224E+01   -9.157E+01   -9.090E+01   -9.023E+01
    -8.957E+01   -8.891E+01   -8.825E+01   -8.760E+01   -8.695E+01   -8.631E+01   -8.567E+01   -8.503E+01   -8.439E+01   -8.376E+01
    -8.314E+01   -8.251E+01   -8.189E+01   -8.128E+01   -8.067E+01   -8.006E+01   -7.946E+01   -7.886E+01   -7.826E+01   -7.767E+01
    -7.708E+01   -7.649E+01   -7.591E+01   -7.534E+01   -7.476E+01   -7.419E+01   -7.363E+01   -7.307E+01   -7.251E+01   -7.195E+01
    -7.140E+01   -7.086E+01   -7.031E+01   -6.977E+01   -6.924E+01   -6.871E+01   -6.818E+01   -6.766E+01   -6.714E+01   -6.662E+01
    -6.611E+01   -6.560E+01   -6.509E+01   -6.459E+01   -6.410E+01   -6.360E+01   -6.311E+01   -6.263E+01   -6.215E+01   -6.167E+01
    -6.119E+01   -6.072E+01   -6.026E+01   -5.979E+01   -5.934E+01   -5.888E+01   -5.843E+01   -5.798E+01   -5.754E+01   -5.710E+01
    -5.666E+01   -5.623E+01   -5.580E+01   -5.537E+01   -5.495E+01   -5.453E+01   -5.411E+01   -5.370E+01   -5.329E+01   -5.289E+01
    -5.249E+01   -5.209E+01   -5.169E+01   -5.130E+01   -5.091E+01   -5.052E+01   -5.014E+01   -4.976E+01   -4.938E+01   -4.900E+01
    -4.863E+01   -4.826E+01   -4.789E+01   -4.753E+01   -4.717E+01   -4.681E+01   -4.645E+01   -4.610E+01   -4.575E+01   -4.540E+01
    -4.505E+01   -4.471E+01   -4.437E+01   -4.403E+01   -4.369E+01   -4.336E+01   -4.302E+01   -4.269E+01   -4.237E+01   -4.204E+01
    -4.171E+01   -4.139E+01   -4.107E+01   -4.075E+01   -4.044E+01   -4.012E+01   -3.981E+01   -3.950E+01   -3.919E+01   -3.888E+01
    -3.858E+01   -3.827E+01   -3.797E+01   -3.767E+01   -3.737E+01   -3.708E+01   -3.678E+01   -3.649E+01   -3.620E+01   -3.591E+01
    -3.563E+01   -3.534E+01   -3.506E+01   -3.478E+01   -3.450E+01   -3.422E+01   -3.395E+01   -3.367E+01   -3.340E+01   -3.313E+01
    -3.286E+01   -3.260E+01   -3.233E+01   -3.207E+01   -3.181E+01   -3.155E+01   -3.129E+01   -3.103E+01   -3.078E+01   -3.053E+01
    -3.028E+01   -3.003E+01   -2.978E+01   -2.954E+01   -2.929E+01   -2.905E+01   -2.881E+01   -2.858E+01   -2.834E+01   -2.810E+01
    -2.787E+01   -2.764E+01   -2.741E+01   -2.718E+01   -2.696E+01   -2.673E+01   -2.651E+01   -2.628E+01   -2.606E+01   -2.584E+01
    -2.563E+01   -2.541E+01   -2.519E+01   -2.498E+01   -2.476E+01   -2.455E+01   -2.434E+01   -2.413E+01   -2.392E+01   -2.371E+01
    -2.350E+01   -2.330E+01   -2.309E+01   -2.289E+01   -2.268E+01   -2.248E+01   -2.228E+01   -2.208E+01   -2.188E+01   -2.168E+01
    -2.148E+01   -2.128E+01   -2.108E+01   -2.088E+01   -2.068E+01   -2.049E+01   -2.029E+01   -2.009E+01   -1.990E+01   -1.970E+01
    -1.950E+01   -1.931E+01   -1.911E+01   -1.892E+01   -1.872E+01   -1.853E+01   -1.834E+01   -1.814E+01   -1.795E+01   -1.775E+01
    -1.756E+01   -1.737E+01   -1.717E+01   -1.698E+01   -1.678E+01   -1.659E+01   -1.640E+01   -1.620E+01   -1.601E+01   -1.582E+01
    -1.562E+01   -1.543E+01   -1.524E+01   -1.504E+01   -1.485E+01   -1.466E+01   -1.446E+01   -1.427E+01   -1.408E+01   -1.388E+01
    -1.369E+01   -1.350E+01   -1.330E+01   -1.311E+01   -1.291E+01   -1.272E+01   -1.253E+01   -1.233E+01   -1.214E+01   -1.194E+01
    -1.175E+01   -1.155E+01   -1.136E+01   -1.116E+01   -1.097E+01   -1.077E+01   -1.057E+01   -1.038E+01   -1.018E+01   -9.984E+00
    -9.787E+00   -9.590E+00   -9.393E+00   -9.195E+00   -8.998E+00   -8.800E+00   -8.603E+00   -8.405E+00   -8.208E+00   -8.010E+00
    -7.813E+00   -7.616E+00   -7.419E+00   -7.222E+00   -7.025E+00   -6.828E+00   -6.632E+00   -6.436E+00   -6.240E+00   -6.044E+00
    -5.849E+00   -5.654E+00   -5.460E+00   -5.266E+00   -5.072E+00   -4.879E+00   -4.687E+00   -4.495E+00   -4.303E+00   -4.112E+00
    -3.921E+00   -3.732E+00   -3.542E+00   -3.354E+00   -3.166E+00   -2.979E+00   -2.793E+00   -2.607E+00   -2.422E+00   -2.238E+00
    -2.055E+00   -1.873E+00   -1.691E+00   -1.511E+00   -1.331E+00   -1.153E+00   -9.748E-01   -7.979E-01   -6.220E-01   -4.469E-01
    -2.727E-01   -9.939E-02    7.300E-02    2.445E-01    4.151E-01    5.848E-01    7.537E-01    9.216E-01    1.089E+00    1.255E+00
     1.420E+00    1.584E+00    1.748E+00    1.911E+00    2.072E+00    2.233E+00    2.393E+00    2.552E+00    2.710E+00    2.868E+00
     3.024E+00    3.180E+00    3.335E+00    3.488E+00    3.641E+00    3.793E+00    3.945E+00    4.095E+00    4.245E+00    4.393E+00
     4.541E+00    4.688E+00    4.834E+00    4.979E+00    5.123E+00    5.267E+00    5.409E+00    5.551E+00    5.692E+00    5.832E+00
     5.971E+00    6.109E+00    6.247E+00    6.384E+00    6.519E+00    6.654E+00    6.789E+00    6.922E+00    7.055E+00    7.186E+00
     7.317E+00    7.448E+00    7.577E+00    7.706E+00    7.834E+00    7.961E+00    8.087E+00    8.213E+00    8.337E+00    8.462E+00
     8.585E+00    8.707E+00    8.829E+00    8.950E+00    9.071E+00    9.191E+00    9.310E+00    9.428E+00    9.545E+00    9.662E+00
     9.779E+00    9.894E+00    1.001E+01    1.012E+01    1.024E+01    1.035E+01    1.046E+01    1.057E+01    1.068E+01    1.079E+01
     1.090E+01    1.101E+01    1.112E+01    1.123E+01    1.134E+01    1.144E+01    1.155E+01    1.165E+01    1.176E+01    1.186E+01
     1.197E+01    1.207E+01    1.217E+01    1.228E+01    1.238E+01    1.248E+01    1.258E+01    1.268E+01    1.278E+01    1.288E+01
     1.298E+01    1.308E+01    1.318E+01    1.328E+01    1.338E+01    1.348E+01    1.357E+01    1.367E+01    1.377E+01    1.387E+01
     1.397E+01    1.406E+01    1.416E+01    1.426E+01    1.436E+01    1.445E+01    1.455E+01    1.465E+01    1.475E+01    1.484E+01
     1.494E+01    1.504E+01    1.513E+01    1.523E+01    1.533E+01    1.543E+01    1.552E+01    1.562E+01
 Ala      Conc. = 8.38E+02
