 LCModel (Version 6.3-1L) Copyright: S.W. Provencher.          Ref.: Magn. Reson. Med. 30:672-679 (1993).                
 Slice#2 Row#6 Col#8  PD_05_press_2_raw_act
 36 lines in following concentration table = NCONC+1
    Conc.  %SD /Cr+PCr  Metabolite                                         
    0.000 999%   0.000 Ala                                                 
    0.000 999%   0.000 Asp                                                 
 1.87E+03  50%   0.829 Cr                                                  
  384.940 247%   0.171 PCr                                                 
   82.827 418% 3.7E-02 GABA                                                
  160.579 208% 7.1E-02 Glc                                                 
 2.24E+03  43%   0.993 Gln                                                 
 3.25E+03  34%   1.440 Glu                                                 
    0.000 999%   0.000 GPC                                                 
 1.07E+03   6%   0.474 PCh                                                 
  491.224  50%   0.218 GSH                                                 
 2.19E+03  38%   0.970 Ins                                                 
 1.77E+03  29%   0.784 Lac                                                 
 5.22E+03   4%   2.318 NAA                                                 
    0.000 999%   0.000 NAAG                                                
  194.078  40% 8.6E-02 Scyllo                                              
  996.680  49%   0.442 Tau                                                 
 1.82E+03  18%   0.809 -CrCH2                                              
 1.07E+03   6%   0.474 GPC+PCh                                             
 5.22E+03   4%   2.318 NAA+NAAG                                            
 2.25E+03   8%   1.000 Cr+PCr                                              
 5.48E+03  32%   2.434 Glu+Gln                                             
  267.130 340%   0.119 Lip13a                                              
    0.000 999%   0.000 Lip13b                                              
   55.988 609% 2.5E-02 Lip09                                               
 2.64E+03  19%   1.173 MM09                                                
   90.154 238% 4.0E-02 Lip20                                               
 4.35E+03  21%   1.932 MM20                                                
  874.510  47%   0.388 MM12                                                
 2.59E+03  29%   1.148 MM14                                                
    0.000 999%   0.000 MM17                                                
  267.130 340%   0.119 Lip13a+Lip13b                                       
 3.73E+03  23%   1.655 MM14+Lip13a+Lip13b+MM12                             
 2.70E+03  15%   1.198 MM09+Lip09                                          
 4.44E+03  20%   1.972 MM20+Lip20                                          
   6 lines in following misc. output table
  FWHM = 0.069 ppm    S/N =   8                                            
  Data shift = 0.008 ppm                                                   
  Ph: -59 deg     -10.8 deg/ppm                                            
  alphaB,S = 2.9E+00,   5.5E+01                                            
   14 spline knots.   Ns = 9(1)                                            
  (15) 5 infls.   (13) 3 extrs.                                            
  498 points on ppm-axis = NY
      4.000000     3.992357     3.984714     3.977070     3.969427     3.961784     3.954141     3.946497     3.938854     3.931211
      3.923568     3.915925     3.908281     3.900638     3.892995     3.885352     3.877708     3.870065     3.862422     3.854779
      3.847136     3.839492     3.831849     3.824206     3.816563     3.808919     3.801276     3.793633     3.785990     3.778347
      3.770703     3.763060     3.755417     3.747774     3.740130     3.732487     3.724844     3.717201     3.709558     3.701914
      3.694271     3.686628     3.678985     3.671341     3.663698     3.656055     3.648412     3.640769     3.633125     3.625482
      3.617839     3.610196     3.602552     3.594909     3.587266     3.579623     3.571980     3.564336     3.556693     3.549050
      3.541407     3.533763     3.526120     3.518477     3.510834     3.503191     3.495547     3.487904     3.480261     3.472618
      3.464974     3.457331     3.449688     3.442045     3.434402     3.426758     3.419115     3.411472     3.403829     3.396185
      3.388542     3.380899     3.373256     3.365613     3.357969     3.350326     3.342683     3.335040     3.327396     3.319753
      3.312110     3.304467     3.296824     3.289180     3.281537     3.273894     3.266251     3.258607     3.250964     3.243321
      3.235678     3.228034     3.220391     3.212748     3.205105     3.197462     3.189818     3.182175     3.174532     3.166889
      3.159245     3.151602     3.143959     3.136316     3.128673     3.121029     3.113386     3.105743     3.098100     3.090456
      3.082813     3.075170     3.067527     3.059884     3.052240     3.044597     3.036954     3.029311     3.021667     3.014024
      3.006381     2.998738     2.991095     2.983451     2.975808     2.968165     2.960522     2.952878     2.945235     2.937592
      2.929949     2.922306     2.914662     2.907019     2.899376     2.891733     2.884089     2.876446     2.868803     2.861160
      2.853517     2.845873     2.838230     2.830587     2.822944     2.815300     2.807657     2.800014     2.792371     2.784728
      2.777084     2.769441     2.761798     2.754155     2.746511     2.738868     2.731225     2.723582     2.715939     2.708295
      2.700652     2.693009     2.685366     2.677722     2.670079     2.662436     2.654793     2.647150     2.639506     2.631863
      2.624220     2.616577     2.608933     2.601290     2.593647     2.586004     2.578361     2.570717     2.563074     2.555431
      2.547788     2.540144     2.532501     2.524858     2.517215     2.509572     2.501928     2.494285     2.486642     2.478999
      2.471355     2.463712     2.456069     2.448426     2.440783     2.433139     2.425496     2.417853     2.410210     2.402566
      2.394923     2.387280     2.379637     2.371994     2.364350     2.356707     2.349064     2.341421     2.333777     2.326134
      2.318491     2.310848     2.303205     2.295561     2.287918     2.280275     2.272632     2.264988     2.257345     2.249702
      2.242059     2.234416     2.226772     2.219129     2.211486     2.203843     2.196199     2.188556     2.180913     2.173270
      2.165627     2.157983     2.150340     2.142697     2.135054     2.127410     2.119767     2.112124     2.104481     2.096838
      2.089194     2.081551     2.073908     2.066265     2.058621     2.050978     2.043335     2.035692     2.028049     2.020405
      2.012762     2.005119     1.997476     1.989833     1.982190     1.974546     1.966903     1.959260     1.951617     1.943974
      1.936331     1.928688     1.921045     1.913402     1.905759     1.898115     1.890472     1.882829     1.875186     1.867543
      1.859900     1.852257     1.844614     1.836971     1.829327     1.821684     1.814041     1.806398     1.798755     1.791112
      1.783469     1.775826     1.768183     1.760540     1.752896     1.745253     1.737610     1.729967     1.722324     1.714681
      1.707038     1.699395     1.691752     1.684108     1.676465     1.668822     1.661179     1.653536     1.645893     1.638250
      1.630607     1.622964     1.615321     1.607677     1.600034     1.592391     1.584748     1.577105     1.569462     1.561819
      1.554176     1.546533     1.538890     1.531246     1.523603     1.515960     1.508317     1.500674     1.493031     1.485388
      1.477745     1.470102     1.462458     1.454815     1.447172     1.439529     1.431886     1.424243     1.416600     1.408957
      1.401314     1.393671     1.386027     1.378384     1.370741     1.363098     1.355455     1.347812     1.340169     1.332526
      1.324883     1.317240     1.309596     1.301953     1.294310     1.286667     1.279024     1.271381     1.263738     1.256095
      1.248452     1.240808     1.233165     1.225522     1.217879     1.210236     1.202593     1.194950     1.187307     1.179664
      1.172021     1.164377     1.156734     1.149091     1.141448     1.133805     1.126162     1.118519     1.110876     1.103233
      1.095590     1.087946     1.080303     1.072660     1.065017     1.057374     1.049731     1.042088     1.034445     1.026802
      1.019158     1.011515     1.003872     0.996229     0.988586     0.980943     0.973300     0.965657     0.958014     0.950371
      0.942727     0.935084     0.927441     0.919798     0.912155     0.904512     0.896869     0.889226     0.881583     0.873940
      0.866296     0.858653     0.851010     0.843367     0.835724     0.828081     0.820438     0.812795     0.805152     0.797508
      0.789865     0.782222     0.774579     0.766936     0.759293     0.751650     0.744007     0.736364     0.728721     0.721077
      0.713434     0.705791     0.698148     0.690505     0.682862     0.675219     0.667576     0.659933     0.652290     0.644646
      0.637003     0.629360     0.621717     0.614074     0.606431     0.598788     0.591145     0.583502     0.575858     0.568215
      0.560572     0.552929     0.545286     0.537643     0.530000     0.522357     0.514714     0.507071     0.499427     0.491784
      0.484141     0.476498     0.468855     0.461212     0.453569     0.445925     0.438282     0.430639     0.422996     0.415353
      0.407710     0.400067     0.392424     0.384780     0.377137     0.369494     0.361851     0.354208     0.346565     0.338922
      0.331278     0.323635     0.315992     0.308349     0.300706     0.293063     0.285420     0.277777     0.270133     0.262490
      0.254847     0.247204     0.239561     0.231918     0.224275     0.216631     0.208988     0.201345
 NY phased data points follow
  -1.24051E+02 -1.19122E+02 -1.05423E+02 -9.21277E+01 -1.18947E+02 -1.10074E+02 -9.88000E+01 -8.56119E+01 -7.43604E+01 -8.85712E+01
  -8.25803E+01 -8.04688E+01 -7.61643E+01 -7.31587E+01 -7.00083E+01 -8.29752E+01 -8.98212E+01 -8.47285E+01 -9.15243E+01 -7.20701E+01
  -8.02511E+01 -9.11695E+01 -7.63379E+01 -9.28931E+01 -7.41074E+01 -7.43316E+01 -8.06903E+01 -8.00215E+01 -7.68720E+01 -6.47992E+01
  -6.66802E+01 -7.23139E+01 -6.71147E+01 -7.46808E+01 -7.46840E+01 -7.47204E+01 -6.21841E+01 -6.13267E+01 -6.65793E+01 -7.75948E+01
  -8.27512E+01 -7.60762E+01 -7.07620E+01 -6.39293E+01 -6.52894E+01 -6.35244E+01 -5.59519E+01 -5.06373E+01 -5.00404E+01 -5.60366E+01
  -4.96177E+01 -6.16794E+01 -4.90919E+01 -5.94987E+01 -6.89094E+01 -5.94840E+01 -7.10878E+01 -6.33222E+01 -5.23143E+01 -6.35131E+01
  -7.62830E+01 -6.14155E+01 -5.13566E+01 -7.19047E+01 -6.46012E+01 -6.18189E+01 -5.70765E+01 -6.35564E+01 -6.23531E+01 -4.91735E+01
  -6.95269E+01 -7.58844E+01 -6.76087E+01 -6.58235E+01 -3.91927E+01 -5.96158E+01 -6.34750E+01 -4.51364E+01 -6.25238E+01 -4.50121E+01
  -5.13964E+01 -6.17569E+01 -4.97232E+01 -5.81276E+01 -4.78763E+01 -5.49131E+01 -5.45273E+01 -7.17500E+01 -5.84899E+01 -3.75780E+01
  -5.53254E+01 -4.29047E+01 -4.73134E+01 -2.48875E+01 -3.63880E+01 -3.54954E+01 -4.20838E+01 -2.65684E+01 -3.48238E+01 -1.38644E+01
   1.12100E+01 -6.15703E-01  2.03693E+01  3.11710E+01  1.97514E+01  1.85675E+01  1.87312E+01  6.54469E+00 -1.24926E+01 -1.76523E+01
  -1.50797E+01 -3.65522E+01 -3.16797E+01 -4.16146E+01 -2.67576E+01 -3.67819E+01 -3.96937E+01 -4.10968E+01 -4.19064E+01 -4.29089E+01
  -2.82096E+01 -2.33537E+01 -2.22876E+01 -1.44332E+01 -3.82026E-01  5.76739E+00  1.57519E+01 -2.49938E-01  2.21961E+01  1.75628E+01
   8.64367E+00 -7.10524E+00 -7.46817E+00 -3.30891E+01 -3.14913E+01 -1.62345E+01 -3.22846E+01 -2.53172E+01 -4.08150E+01 -3.20296E+01
  -3.77395E+01 -4.16390E+01 -3.47225E+01 -2.48381E+01 -2.75363E+01 -3.30194E+01 -3.84566E+01 -4.21081E+01 -2.22785E+01 -3.52014E+01
  -3.09644E+01 -2.91941E+01 -3.05268E+01 -2.04214E+01 -3.70140E+01 -3.53928E+01 -3.69160E+01 -2.72862E+01 -3.33750E+01 -2.52094E+01
  -2.25013E+01 -3.70294E+01 -4.07541E+01 -4.67525E+01 -3.95534E+01 -3.54910E+01 -3.15607E+01 -3.12911E+01 -3.05348E+01 -4.98735E+01
  -5.17730E+01 -4.04425E+01 -4.78937E+01 -5.25253E+01 -5.16442E+01 -5.45499E+01 -5.83439E+01 -4.95602E+01 -5.74058E+01 -3.95747E+01
  -4.15606E+01 -5.50560E+01 -3.58890E+01 -4.11531E+01 -4.88382E+01 -3.76195E+01 -3.79817E+01 -4.96827E+01 -2.88979E+01 -3.54303E+01
  -1.58751E+01 -2.36121E+01 -2.04833E+01 -2.62164E+01 -3.35875E+01 -1.37425E+01 -2.85016E+01 -2.64483E+01 -2.42881E+01 -2.53361E+01
  -3.12623E+01 -3.18940E+01 -3.60178E+01 -1.00782E+01 -1.11149E+01 -2.26903E+01 -3.12106E+01 -1.89395E+01 -2.88775E+01 -3.69201E+01
  -3.47688E+01 -2.43092E+01 -2.23866E+01 -2.00782E+01 -1.64883E+01 -7.92164E+00 -1.25697E+01 -6.29339E+00 -1.92571E+01 -2.05192E+01
  -1.41855E+01 -2.37903E+01 -3.28038E+01 -1.14107E+01 -1.87239E+01 -2.70527E+01 -2.44361E+01 -2.06886E+00 -1.27867E+01 -1.53215E+01
  -2.58448E+00  1.24097E+01  1.27879E+01 -1.20558E+01 -1.20896E+01 -6.31015E+00 -9.54579E+00  4.70550E+00  3.21432E+00  4.13967E+00
  -1.57915E+01 -1.25652E+01 -2.63004E+01 -2.37694E+01 -1.98910E+01 -5.46506E+00 -1.45873E+01  3.05270E+00 -3.96834E+00 -1.25533E+01
   1.07901E+01  6.74536E+00  2.31395E+01  2.24596E+01  3.17288E+01  3.75161E+01  6.96778E+01  8.98006E+01  1.07221E+02  1.11274E+02
   1.32348E+02  1.32400E+02  1.11101E+02  1.16979E+02  8.75027E+01  9.52344E+01  4.51070E+01  3.74105E+01  3.71749E+01  1.80468E+01
   8.92941E+00 -6.96956E+00  1.20265E+00 -2.06125E+00 -6.75480E-01  1.56577E+01 -1.55787E+01 -1.48250E+01 -5.68625E+00 -1.38151E+01
  -3.31794E+00 -1.69942E+01 -2.46637E+01 -2.16498E+00 -2.18646E+00 -2.29609E+01  1.00910E+00 -3.15851E+00 -1.00096E+01 -3.65746E-01
  -7.06231E+00  3.37973E-01 -1.55640E+01 -2.00407E+01 -9.79646E+00 -1.41167E+01 -8.02096E+00  5.17270E+00 -5.79206E+00  2.18326E+00
   1.24389E+00 -1.85390E+01 -1.60238E+01 -1.15817E+01 -1.57548E+01 -1.19563E+00  3.61398E+00 -1.05054E+01 -3.68369E+00 -2.20730E+00
  -3.98845E+00 -7.45833E+00 -1.66966E-02 -1.41271E+00 -3.40461E+00 -1.19735E+01 -1.18505E-01 -1.82577E+00 -5.65952E+00  5.68838E+00
  -5.62791E+00  1.47982E+00  5.74991E+00 -9.29045E-01  1.05265E+01 -1.46106E+01  4.07074E-01  1.31964E+01  1.27592E+01  5.36369E+00
   1.02916E+01  1.45186E+01  2.63846E+00  2.24742E+01  1.14446E+01  2.07655E+01  2.19279E+01  1.75235E+01  4.77087E+00  1.34222E+01
   4.40733E+00  1.06422E+01  3.31208E+01  1.85765E+01  2.33503E+01  2.72442E+01  2.02131E+01  1.03588E+01  5.56093E+00  3.56059E+00
  -6.66335E+00 -1.03857E+01 -4.60754E+00  4.15874E+00  1.74842E+01  1.01416E+01  7.16250E+00  2.50293E+01  1.24184E+01 -8.87894E-01
   1.50334E+01  5.10111E+00  1.35881E+01  1.05274E+01  1.71096E+01 -1.00990E+01  8.88892E+00 -2.73710E+00  4.69621E+00  9.40058E+00
   3.79755E-01  2.41929E+01  1.71890E+01  2.30279E+01  9.45691E+00  1.34851E+01  2.17843E+01  1.50098E+01 -4.21518E-01  9.86894E+00
   5.29262E+00  1.96172E+01  3.24795E+00  1.71164E+01  7.71334E+00  6.51232E+00  4.36672E+00  1.60393E+01  1.11264E+01  1.08932E+01
  -1.28305E+01  1.92120E+01  1.82308E+01  2.04330E+01  1.00579E+01 -4.29383E+00  1.28838E+01  1.91555E+01  1.24389E+01  1.56442E+01
   1.77517E+01  2.93574E+01  2.19738E+01  2.42656E+01  2.39599E+01  3.01649E+01  1.83978E+01  3.78129E+01  3.10022E+01  2.67938E+01
   2.01266E+01  2.69031E+01  3.29635E+01  2.08676E+01  1.41001E+01  2.48858E+01  1.45056E+01  1.74222E+01  1.48433E+01  2.79823E+00
   8.26666E+00  1.25254E+01  2.13746E+01  8.73488E+00  1.32749E+01  2.57113E-01  1.26711E+01  1.26199E+01  1.58208E+01  5.18980E+00
   8.47379E+00  2.17410E+01  5.06931E+00  7.93871E+00  4.35518E+00  6.61043E+00  8.35161E+00  7.06661E+00  1.26414E+01  1.81264E+01
   1.57246E+01  8.83532E+00  1.17778E+01  9.75444E+00  1.78738E+01  2.58374E+00  1.17068E+01  7.11078E+00  6.00686E+00 -6.51683E+00
  -1.16073E+00  6.31577E+00  3.99759E+00  1.25725E+01  1.62995E+01  2.06293E+01 -1.48761E+00 -3.78183E+00  5.58842E-01  9.36019E+00
   9.21576E+00  1.00558E+01  9.83072E+00  3.28295E+00 -5.55274E+00  1.05362E+01 -3.97124E+00  1.20417E+01  2.15979E+01  1.85823E+01
   1.30373E+01  1.18927E+01  1.44019E+01  2.80320E+00  1.03637E+01  9.32504E-01  7.61133E-01  6.65576E+00  1.05112E+01  1.52196E+01
   1.88753E+01  6.23964E+00  4.38583E+00  1.51605E+01  1.06959E+01  1.82110E+01  1.89259E+01  7.61175E+00 -1.41294E-01  6.86737E+00
   9.28462E+00  2.22591E+01  1.11128E+01  1.67782E+01  1.33703E+01  1.44701E+01 -1.90195E+00  1.37941E+01
 NY points of the fit to the data follow
  -9.28686E+01 -9.37389E+01 -9.23855E+01 -9.30291E+01 -9.67628E+01 -9.95620E+01 -9.83489E+01 -9.45107E+01 -9.05940E+01 -8.67100E+01
  -8.28232E+01 -7.94252E+01 -7.61850E+01 -7.29522E+01 -7.15399E+01 -7.33479E+01 -7.64324E+01 -7.76347E+01 -7.68829E+01 -7.70998E+01
  -7.87006E+01 -7.94954E+01 -7.92279E+01 -7.87717E+01 -7.84080E+01 -7.77690E+01 -7.64770E+01 -7.46777E+01 -7.23282E+01 -6.96111E+01
  -6.72190E+01 -6.52076E+01 -6.37994E+01 -6.36542E+01 -6.49548E+01 -6.71715E+01 -6.93652E+01 -7.09043E+01 -7.15948E+01 -7.17288E+01
  -7.18615E+01 -7.17498E+01 -7.06689E+01 -6.83641E+01 -6.57851E+01 -6.39162E+01 -6.27476E+01 -6.19738E+01 -6.16965E+01 -6.21076E+01
  -6.30355E+01 -6.43192E+01 -6.58713E+01 -6.71027E+01 -6.73782E+01 -6.68081E+01 -6.61465E+01 -6.56399E+01 -6.49295E+01 -6.40759E+01
  -6.32466E+01 -6.26711E+01 -6.23551E+01 -6.20455E+01 -6.18726E+01 -6.18890E+01 -6.16383E+01 -6.08716E+01 -6.00819E+01 -5.95533E+01
  -5.90300E+01 -5.82173E+01 -5.73166E+01 -5.65228E+01 -5.59646E+01 -5.57845E+01 -5.59740E+01 -5.60049E+01 -5.57372E+01 -5.58977E+01
  -5.62218E+01 -5.59169E+01 -5.46972E+01 -5.31947E+01 -5.22593E+01 -5.19400E+01 -5.18992E+01 -5.19814E+01 -5.21827E+01 -5.25070E+01
  -5.30399E+01 -5.39471E+01 -5.46596E+01 -5.34793E+01 -4.77406E+01 -4.18501E+01 -3.97428E+01 -3.63569E+01 -2.65708E+01 -1.17829E+01
   2.16708E+00  1.23788E+01  1.98546E+01  2.41021E+01  2.43210E+01  2.17383E+01  1.57767E+01  5.51724E+00 -7.25956E+00 -1.78977E+01
  -2.38520E+01 -2.85294E+01 -3.48425E+01 -4.10427E+01 -4.44051E+01 -4.54129E+01 -4.55077E+01 -4.38890E+01 -3.91590E+01 -3.58711E+01
  -3.44490E+01 -3.05600E+01 -2.17692E+01 -1.06155E+01 -1.13088E+00  5.85035E+00  1.09369E+01  1.31195E+01  1.26055E+01  1.01902E+01
   4.82587E+00 -3.55498E+00 -1.29033E+01 -1.96288E+01 -2.34979E+01 -2.75445E+01 -3.25825E+01 -3.65706E+01 -3.81284E+01 -3.84100E+01
  -3.82434E+01 -3.78935E+01 -3.76169E+01 -3.74710E+01 -3.73859E+01 -3.73573E+01 -3.73936E+01 -3.74446E+01 -3.74725E+01 -3.75041E+01
  -3.75652E+01 -3.76479E+01 -3.78961E+01 -3.81158E+01 -3.80497E+01 -3.78475E+01 -3.77365E+01 -3.80402E+01 -3.86429E+01 -3.89810E+01
  -3.89018E+01 -3.86158E+01 -3.84229E+01 -3.84290E+01 -3.84578E+01 -3.84629E+01 -3.85539E+01 -3.89367E+01 -3.97279E+01 -4.03963E+01
  -4.09072E+01 -4.14826E+01 -4.22822E+01 -4.30062E+01 -4.32231E+01 -4.31347E+01 -4.30581E+01 -4.30209E+01 -4.29873E+01 -4.26006E+01
  -4.16699E+01 -4.07443E+01 -4.02146E+01 -4.00042E+01 -3.94548E+01 -3.81559E+01 -3.63341E+01 -3.45431E+01 -3.29317E+01 -3.15675E+01
  -3.02362E+01 -2.88386E+01 -2.76579E+01 -2.70479E+01 -2.69942E+01 -2.68214E+01 -2.60916E+01 -2.50434E+01 -2.39251E+01 -2.25117E+01
  -2.08823E+01 -1.98725E+01 -1.89215E+01 -1.80277E+01 -1.85538E+01 -2.08445E+01 -2.37341E+01 -2.58181E+01 -2.76488E+01 -2.97612E+01
  -3.05072E+01 -2.88713E+01 -2.58655E+01 -2.28756E+01 -2.02365E+01 -1.75613E+01 -1.58796E+01 -1.64616E+01 -1.83949E+01 -2.06648E+01
  -2.29978E+01 -2.50450E+01 -2.58436E+01 -2.49623E+01 -2.31359E+01 -2.10332E+01 -1.86426E+01 -1.61062E+01 -1.36720E+01 -1.19219E+01
  -1.11090E+01 -1.06747E+01 -1.00442E+01 -9.47341E+00 -9.42647E+00 -9.04007E+00 -7.87806E+00 -6.72006E+00 -6.41238E+00 -6.50177E+00
  -6.38170E+00 -6.29289E+00 -6.71823E+00 -7.25056E+00 -7.21090E+00 -6.71867E+00 -6.04044E+00 -5.10224E+00 -3.66171E+00 -2.03088E+00
   3.81482E-01  8.16450E+00  2.10204E+01  2.75185E+01  3.13475E+01  4.32282E+01  6.54523E+01  8.93123E+01  1.07099E+02  1.19505E+02
   1.27471E+02  1.28269E+02  1.23295E+02  1.13514E+02  9.66336E+01  7.41622E+01  5.25603E+01  3.89452E+01  3.05908E+01  2.02775E+01
   8.48850E+00  5.83186E-01 -2.22280E+00 -3.30063E+00 -3.88137E+00 -4.22557E+00 -4.51326E+00 -4.83670E+00 -5.19797E+00 -5.59897E+00
  -5.98181E+00 -6.28930E+00 -6.55440E+00 -6.81630E+00 -7.04376E+00 -7.20335E+00 -7.30700E+00 -7.38357E+00 -7.44116E+00 -7.46707E+00
  -7.46676E+00 -7.45358E+00 -7.43250E+00 -7.39556E+00 -7.34364E+00 -7.27834E+00 -7.19971E+00 -7.10287E+00 -6.99036E+00 -6.86222E+00
  -6.71902E+00 -6.55986E+00 -6.38739E+00 -6.20074E+00 -5.99992E+00 -5.78237E+00 -5.54821E+00 -5.29595E+00 -5.02574E+00 -4.73380E+00
  -4.41751E+00 -4.07315E+00 -3.70048E+00 -3.29657E+00 -2.86004E+00 -2.38725E+00 -1.87727E+00 -1.32762E+00 -7.39181E-01 -1.11248E-01
   5.54261E-01  1.25705E+00  1.99354E+00  2.76097E+00  3.55325E+00  4.36580E+00  5.19142E+00  6.02475E+00  6.85798E+00  7.68579E+00
   8.50203E+00  9.30514E+00  1.00951E+01  1.08800E+01  1.16763E+01  1.25248E+01  1.35209E+01  1.49378E+01  1.67874E+01  1.73678E+01
   1.73161E+01  1.83218E+01  2.01832E+01  2.10458E+01  1.96023E+01  1.68811E+01  1.47423E+01  1.14933E+01  6.66327E+00  1.99978E+00
  -1.04041E+00 -2.00865E+00 -1.21202E+00  1.47476E+00  5.33383E+00  8.41743E+00  1.06297E+01  1.30747E+01  1.52838E+01  1.59226E+01
   1.49401E+01  1.38303E+01  1.34208E+01  1.28999E+01  1.16205E+01  1.00911E+01  9.06398E+00  8.43379E+00  7.98676E+00  7.64262E+00
   7.36468E+00  7.13616E+00  6.94661E+00  6.79143E+00  6.66680E+00  6.57323E+00  6.51160E+00  6.48582E+00  6.49805E+00  6.55206E+00
   6.65016E+00  6.79745E+00  6.99814E+00  7.25834E+00  7.58176E+00  7.97340E+00  8.43645E+00  8.97616E+00  9.59554E+00  1.02979E+01
   1.10826E+01  1.19484E+01  1.28906E+01  1.39037E+01  1.49773E+01  1.60991E+01  1.72509E+01  1.84130E+01  1.95618E+01  2.06735E+01
   2.17212E+01  2.26786E+01  2.35186E+01  2.42182E+01  2.47565E+01  2.51191E+01  2.52949E+01  2.52798E+01  2.50743E+01  2.46875E+01
   2.41325E+01  2.34291E+01  2.25989E+01  2.16675E+01  2.06605E+01  1.96059E+01  1.85292E+01  1.74553E+01  1.64041E+01  1.53939E+01
   1.44380E+01  1.35483E+01  1.27313E+01  1.19917E+01  1.13293E+01  1.07433E+01  1.02302E+01  9.78675E+00  9.40704E+00  9.08589E+00
   8.81623E+00  8.59292E+00  8.40992E+00  8.26320E+00  8.14729E+00  8.05842E+00  7.99180E+00  7.94506E+00  7.91503E+00  7.90030E+00
   7.89791E+00  7.90652E+00  7.92376E+00  7.94938E+00  7.98193E+00  8.02133E+00  8.06579E+00  8.11509E+00  8.16796E+00  8.22501E+00
   8.28533E+00  8.34921E+00  8.41528E+00  8.48381E+00  8.55402E+00  8.62676E+00  8.70125E+00  8.77780E+00  8.85524E+00  8.93413E+00
   9.01394E+00  9.09553E+00  9.17806E+00  9.26186E+00  9.34593E+00  9.43103E+00  9.51671E+00  9.60377E+00  9.69128E+00  9.77958E+00
   9.86787E+00  9.95705E+00  1.00467E+01  1.01374E+01  1.02282E+01  1.03196E+01  1.04109E+01  1.05031E+01  1.05956E+01  1.06890E+01
   1.07823E+01  1.08761E+01  1.09698E+01  1.10645E+01  1.11594E+01  1.12550E+01  1.13505E+01  1.14464E+01  1.15424E+01  1.16395E+01
   1.17367E+01  1.18346E+01  1.19324E+01  1.20309E+01  1.21297E+01  1.22296E+01  1.23298E+01  1.24308E+01
 NY background values follow
    -9.395E+01   -9.356E+01   -9.317E+01   -9.278E+01   -9.239E+01   -9.200E+01   -9.161E+01   -9.122E+01   -9.082E+01   -9.043E+01
    -9.004E+01   -8.965E+01   -8.926E+01   -8.887E+01   -8.848E+01   -8.809E+01   -8.770E+01   -8.731E+01   -8.692E+01   -8.653E+01
    -8.614E+01   -8.575E+01   -8.536E+01   -8.497E+01   -8.458E+01   -8.419E+01   -8.380E+01   -8.341E+01   -8.302E+01   -8.263E+01
    -8.224E+01   -8.185E+01   -8.147E+01   -8.108E+01   -8.069E+01   -8.031E+01   -7.992E+01   -7.953E+01   -7.915E+01   -7.876E+01
    -7.838E+01   -7.799E+01   -7.761E+01   -7.722E+01   -7.684E+01   -7.646E+01   -7.608E+01   -7.569E+01   -7.531E+01   -7.493E+01
    -7.455E+01   -7.417E+01   -7.379E+01   -7.341E+01   -7.304E+01   -7.266E+01   -7.228E+01   -7.190E+01   -7.153E+01   -7.115E+01
    -7.078E+01   -7.040E+01   -7.003E+01   -6.966E+01   -6.929E+01   -6.892E+01   -6.855E+01   -6.818E+01   -6.781E+01   -6.744E+01
    -6.707E+01   -6.670E+01   -6.634E+01   -6.597E+01   -6.561E+01   -6.524E+01   -6.488E+01   -6.452E+01   -6.416E+01   -6.380E+01
    -6.344E+01   -6.308E+01   -6.272E+01   -6.237E+01   -6.201E+01   -6.166E+01   -6.130E+01   -6.095E+01   -6.060E+01   -6.025E+01
    -5.990E+01   -5.955E+01   -5.920E+01   -5.885E+01   -5.851E+01   -5.816E+01   -5.782E+01   -5.747E+01   -5.713E+01   -5.679E+01
    -5.645E+01   -5.611E+01   -5.578E+01   -5.544E+01   -5.510E+01   -5.477E+01   -5.444E+01   -5.410E+01   -5.377E+01   -5.344E+01
    -5.312E+01   -5.279E+01   -5.246E+01   -5.214E+01   -5.181E+01   -5.149E+01   -5.117E+01   -5.085E+01   -5.053E+01   -5.021E+01
    -4.989E+01   -4.958E+01   -4.926E+01   -4.895E+01   -4.864E+01   -4.833E+01   -4.802E+01   -4.771E+01   -4.740E+01   -4.709E+01
    -4.679E+01   -4.649E+01   -4.618E+01   -4.588E+01   -4.558E+01   -4.529E+01   -4.499E+01   -4.469E+01   -4.440E+01   -4.411E+01
    -4.381E+01   -4.352E+01   -4.323E+01   -4.295E+01   -4.266E+01   -4.237E+01   -4.209E+01   -4.181E+01   -4.153E+01   -4.124E+01
    -4.097E+01   -4.069E+01   -4.041E+01   -4.014E+01   -3.986E+01   -3.959E+01   -3.932E+01   -3.904E+01   -3.878E+01   -3.851E+01
    -3.824E+01   -3.797E+01   -3.771E+01   -3.744E+01   -3.718E+01   -3.692E+01   -3.666E+01   -3.640E+01   -3.614E+01   -3.588E+01
    -3.563E+01   -3.537E+01   -3.512E+01   -3.487E+01   -3.462E+01   -3.437E+01   -3.412E+01   -3.387E+01   -3.362E+01   -3.337E+01
    -3.313E+01   -3.288E+01   -3.264E+01   -3.240E+01   -3.216E+01   -3.192E+01   -3.168E+01   -3.144E+01   -3.120E+01   -3.097E+01
    -3.073E+01   -3.050E+01   -3.026E+01   -3.003E+01   -2.980E+01   -2.957E+01   -2.934E+01   -2.911E+01   -2.889E+01   -2.866E+01
    -2.844E+01   -2.821E+01   -2.799E+01   -2.777E+01   -2.755E+01   -2.733E+01   -2.711E+01   -2.689E+01   -2.667E+01   -2.646E+01
    -2.624E+01   -2.603E+01   -2.581E+01   -2.560E+01   -2.539E+01   -2.518E+01   -2.497E+01   -2.476E+01   -2.455E+01   -2.435E+01
    -2.414E+01   -2.394E+01   -2.373E+01   -2.353E+01   -2.333E+01   -2.313E+01   -2.293E+01   -2.273E+01   -2.253E+01   -2.233E+01
    -2.213E+01   -2.194E+01   -2.174E+01   -2.155E+01   -2.136E+01   -2.117E+01   -2.097E+01   -2.078E+01   -2.059E+01   -2.041E+01
    -2.022E+01   -2.003E+01   -1.984E+01   -1.966E+01   -1.948E+01   -1.929E+01   -1.911E+01   -1.893E+01   -1.874E+01   -1.856E+01
    -1.838E+01   -1.820E+01   -1.803E+01   -1.785E+01   -1.767E+01   -1.750E+01   -1.732E+01   -1.715E+01   -1.697E+01   -1.680E+01
    -1.662E+01   -1.645E+01   -1.628E+01   -1.611E+01   -1.594E+01   -1.577E+01   -1.560E+01   -1.543E+01   -1.527E+01   -1.510E+01
    -1.493E+01   -1.477E+01   -1.460E+01   -1.444E+01   -1.427E+01   -1.411E+01   -1.395E+01   -1.378E+01   -1.362E+01   -1.346E+01
    -1.330E+01   -1.314E+01   -1.298E+01   -1.282E+01   -1.266E+01   -1.250E+01   -1.235E+01   -1.219E+01   -1.203E+01   -1.188E+01
    -1.172E+01   -1.157E+01   -1.141E+01   -1.126E+01   -1.110E+01   -1.095E+01   -1.080E+01   -1.065E+01   -1.050E+01   -1.035E+01
    -1.020E+01   -1.005E+01   -9.897E+00   -9.748E+00   -9.599E+00   -9.452E+00   -9.304E+00   -9.157E+00   -9.011E+00   -8.865E+00
    -8.719E+00   -8.574E+00   -8.430E+00   -8.286E+00   -8.142E+00   -7.999E+00   -7.856E+00   -7.714E+00   -7.572E+00   -7.430E+00
    -7.289E+00   -7.149E+00   -7.008E+00   -6.869E+00   -6.729E+00   -6.591E+00   -6.452E+00   -6.314E+00   -6.177E+00   -6.039E+00
    -5.903E+00   -5.766E+00   -5.630E+00   -5.495E+00   -5.360E+00   -5.225E+00   -5.091E+00   -4.958E+00   -4.824E+00   -4.691E+00
    -4.559E+00   -4.427E+00   -4.295E+00   -4.164E+00   -4.033E+00   -3.903E+00   -3.773E+00   -3.643E+00   -3.514E+00   -3.385E+00
    -3.257E+00   -3.129E+00   -3.001E+00   -2.874E+00   -2.747E+00   -2.621E+00   -2.495E+00   -2.369E+00   -2.244E+00   -2.119E+00
    -1.995E+00   -1.871E+00   -1.747E+00   -1.624E+00   -1.501E+00   -1.379E+00   -1.257E+00   -1.135E+00   -1.014E+00   -8.931E-01
    -7.726E-01   -6.524E-01   -5.327E-01   -4.132E-01   -2.942E-01   -1.755E-01   -5.711E-02    6.089E-02    1.786E-01    2.959E-01
     4.128E-01    5.295E-01    6.458E-01    7.617E-01    8.774E-01    9.927E-01    1.108E+00    1.222E+00    1.337E+00    1.451E+00
     1.564E+00    1.678E+00    1.791E+00    1.904E+00    2.016E+00    2.129E+00    2.240E+00    2.352E+00    2.463E+00    2.575E+00
     2.685E+00    2.796E+00    2.906E+00    3.016E+00    3.126E+00    3.235E+00    3.344E+00    3.453E+00    3.562E+00    3.670E+00
     3.778E+00    3.886E+00    3.994E+00    4.101E+00    4.209E+00    4.316E+00    4.422E+00    4.529E+00    4.635E+00    4.741E+00
     4.847E+00    4.953E+00    5.058E+00    5.164E+00    5.269E+00    5.374E+00    5.478E+00    5.583E+00    5.687E+00    5.792E+00
     5.896E+00    6.000E+00    6.103E+00    6.207E+00    6.310E+00    6.414E+00    6.517E+00    6.620E+00    6.722E+00    6.825E+00
     6.928E+00    7.030E+00    7.133E+00    7.235E+00    7.337E+00    7.439E+00    7.541E+00    7.643E+00    7.745E+00    7.846E+00
     7.948E+00    8.049E+00    8.151E+00    8.252E+00    8.353E+00    8.454E+00    8.555E+00    8.657E+00    8.758E+00    8.858E+00
     8.959E+00    9.060E+00    9.161E+00    9.261E+00    9.362E+00    9.463E+00    9.563E+00    9.664E+00    9.764E+00    9.864E+00
     9.965E+00    1.007E+01    1.017E+01    1.027E+01    1.037E+01    1.047E+01    1.057E+01    1.067E+01    1.077E+01    1.087E+01
     1.097E+01    1.107E+01    1.117E+01    1.127E+01    1.137E+01    1.147E+01    1.157E+01    1.167E+01    1.177E+01    1.187E+01
     1.196E+01    1.206E+01    1.216E+01    1.226E+01    1.236E+01    1.246E+01    1.256E+01    1.266E+01
 Cr       Conc. = 1.87E+03
