 LCModel (Version 6.3-1L) Copyright: S.W. Provencher.          Ref.: Magn. Reson. Med. 30:672-679 (1993).                
 Slice#2 Row#10 Col#2  PD_05_press_2_raw_act
 36 lines in following concentration table = NCONC+1
    Conc.  %SD /Cr+PCr  Metabolite                                         
 1.00E+04  29%  25.819 Ala                                                 
   42.726 473%   0.110 Asp                                                 
  388.916  55%   1.000 Cr                                                  
    0.000 999%   0.000 PCr                                                 
    0.000 999%   0.000 GABA                                                
   32.692 370% 8.4E-02 Glc                                                 
 1.91E+04  10%  49.025 Gln                                                 
    0.000 999%   0.000 Glu                                                 
    0.000 999%   0.000 GPC                                                 
    0.000 999%   0.000 PCh                                                 
    0.000 999%   0.000 GSH                                                 
 2.01E+03  33%   5.166 Ins                                                 
 5.90E+03  48%  15.175 Lac                                                 
    0.000 999%   0.000 NAA                                                 
    0.000 999%   0.000 NAAG                                                
   79.589  47%   0.205 Scyllo                                              
  247.703  81%   0.637 Tau                                                 
    0.000 999%   0.000 -CrCH2                                              
    0.000 999%   0.000 GPC+PCh                                             
    0.000 999%   0.000 NAA+NAAG                                            
  388.916  55%   1.000 Cr+PCr                                              
 1.91E+04  10%  49.025 Glu+Gln                                             
 6.06E+04  16% 155.878 Lip13a                                              
    0.000 999%   0.000 Lip13b                                              
 1.10E+04  24%  28.364 Lip09                                               
 9.58E+03  19%  24.626 MM09                                                
 2.63E+04   9%  67.704+Lip20                                               
  637.708 261%   1.640 MM20                                                
 3.65E+03  70%   9.378 MM12                                                
 3.22E+04  16%  82.696 MM14                                                
 2.65E+04   5%  68.010 MM17                                                
 6.06E+04  16% 155.878 Lip13a+Lip13b                                       
 9.64E+04   9% 247.951 MM14+Lip13a+Lip13b+MM12                             
 2.06E+04  15%  52.990 MM09+Lip09                                          
 2.70E+04   9%  69.344 MM20+Lip20                                          
   6 lines in following misc. output table
  FWHM = 0.153 ppm    S/N =  26                                            
  Data shift = 0.191 ppm                                                   
  Ph: -15 deg      79.4 deg/ppm                                            
  alphaB,S = 5.1E-01,   1.9E+02                                            
    9 spline knots.   Ns = 9(2)                                            
  ( 9) 2 infls.   ( 3) 1 extrs.                                            
  498 points on ppm-axis = NY
      4.000000     3.992357     3.984714     3.977070     3.969427     3.961784     3.954141     3.946497     3.938854     3.931211
      3.923568     3.915925     3.908281     3.900638     3.892995     3.885352     3.877708     3.870065     3.862422     3.854779
      3.847136     3.839492     3.831849     3.824206     3.816563     3.808919     3.801276     3.793633     3.785990     3.778347
      3.770703     3.763060     3.755417     3.747774     3.740130     3.732487     3.724844     3.717201     3.709558     3.701914
      3.694271     3.686628     3.678985     3.671341     3.663698     3.656055     3.648412     3.640769     3.633125     3.625482
      3.617839     3.610196     3.602552     3.594909     3.587266     3.579623     3.571980     3.564336     3.556693     3.549050
      3.541407     3.533763     3.526120     3.518477     3.510834     3.503191     3.495547     3.487904     3.480261     3.472618
      3.464974     3.457331     3.449688     3.442045     3.434402     3.426758     3.419115     3.411472     3.403829     3.396185
      3.388542     3.380899     3.373256     3.365613     3.357969     3.350326     3.342683     3.335040     3.327396     3.319753
      3.312110     3.304467     3.296824     3.289180     3.281537     3.273894     3.266251     3.258607     3.250964     3.243321
      3.235678     3.228034     3.220391     3.212748     3.205105     3.197462     3.189818     3.182175     3.174532     3.166889
      3.159245     3.151602     3.143959     3.136316     3.128673     3.121029     3.113386     3.105743     3.098100     3.090456
      3.082813     3.075170     3.067527     3.059884     3.052240     3.044597     3.036954     3.029311     3.021667     3.014024
      3.006381     2.998738     2.991095     2.983451     2.975808     2.968165     2.960522     2.952878     2.945235     2.937592
      2.929949     2.922306     2.914662     2.907019     2.899376     2.891733     2.884089     2.876446     2.868803     2.861160
      2.853517     2.845873     2.838230     2.830587     2.822944     2.815300     2.807657     2.800014     2.792371     2.784728
      2.777084     2.769441     2.761798     2.754155     2.746511     2.738868     2.731225     2.723582     2.715939     2.708295
      2.700652     2.693009     2.685366     2.677722     2.670079     2.662436     2.654793     2.647150     2.639506     2.631863
      2.624220     2.616577     2.608933     2.601290     2.593647     2.586004     2.578361     2.570717     2.563074     2.555431
      2.547788     2.540144     2.532501     2.524858     2.517215     2.509572     2.501928     2.494285     2.486642     2.478999
      2.471355     2.463712     2.456069     2.448426     2.440783     2.433139     2.425496     2.417853     2.410210     2.402566
      2.394923     2.387280     2.379637     2.371994     2.364350     2.356707     2.349064     2.341421     2.333777     2.326134
      2.318491     2.310848     2.303205     2.295561     2.287918     2.280275     2.272632     2.264988     2.257345     2.249702
      2.242059     2.234416     2.226772     2.219129     2.211486     2.203843     2.196199     2.188556     2.180913     2.173270
      2.165627     2.157983     2.150340     2.142697     2.135054     2.127410     2.119767     2.112124     2.104481     2.096838
      2.089194     2.081551     2.073908     2.066265     2.058621     2.050978     2.043335     2.035692     2.028049     2.020405
      2.012762     2.005119     1.997476     1.989833     1.982190     1.974546     1.966903     1.959260     1.951617     1.943974
      1.936331     1.928688     1.921045     1.913402     1.905759     1.898115     1.890472     1.882829     1.875186     1.867543
      1.859900     1.852257     1.844614     1.836971     1.829327     1.821684     1.814041     1.806398     1.798755     1.791112
      1.783469     1.775826     1.768183     1.760540     1.752896     1.745253     1.737610     1.729967     1.722324     1.714681
      1.707038     1.699395     1.691752     1.684108     1.676465     1.668822     1.661179     1.653536     1.645893     1.638250
      1.630607     1.622964     1.615321     1.607677     1.600034     1.592391     1.584748     1.577105     1.569462     1.561819
      1.554176     1.546533     1.538890     1.531246     1.523603     1.515960     1.508317     1.500674     1.493031     1.485388
      1.477745     1.470102     1.462458     1.454815     1.447172     1.439529     1.431886     1.424243     1.416600     1.408957
      1.401314     1.393671     1.386027     1.378384     1.370741     1.363098     1.355455     1.347812     1.340169     1.332526
      1.324883     1.317240     1.309596     1.301953     1.294310     1.286667     1.279024     1.271381     1.263738     1.256095
      1.248452     1.240808     1.233165     1.225522     1.217879     1.210236     1.202593     1.194950     1.187307     1.179664
      1.172021     1.164377     1.156734     1.149091     1.141448     1.133805     1.126162     1.118519     1.110876     1.103233
      1.095590     1.087946     1.080303     1.072660     1.065017     1.057374     1.049731     1.042088     1.034445     1.026802
      1.019158     1.011515     1.003872     0.996229     0.988586     0.980943     0.973300     0.965657     0.958014     0.950371
      0.942727     0.935084     0.927441     0.919798     0.912155     0.904512     0.896869     0.889226     0.881583     0.873940
      0.866296     0.858653     0.851010     0.843367     0.835724     0.828081     0.820438     0.812795     0.805152     0.797508
      0.789865     0.782222     0.774579     0.766936     0.759293     0.751650     0.744007     0.736364     0.728721     0.721077
      0.713434     0.705791     0.698148     0.690505     0.682862     0.675219     0.667576     0.659933     0.652290     0.644646
      0.637003     0.629360     0.621717     0.614074     0.606431     0.598788     0.591145     0.583502     0.575858     0.568215
      0.560572     0.552929     0.545286     0.537643     0.530000     0.522357     0.514714     0.507071     0.499427     0.491784
      0.484141     0.476498     0.468855     0.461212     0.453569     0.445925     0.438282     0.430639     0.422996     0.415353
      0.407710     0.400067     0.392424     0.384780     0.377137     0.369494     0.361851     0.354208     0.346565     0.338922
      0.331278     0.323635     0.315992     0.308349     0.300706     0.293063     0.285420     0.277777     0.270133     0.262490
      0.254847     0.247204     0.239561     0.231918     0.224275     0.216631     0.208988     0.201345
 NY phased data points follow
  -1.32086E+02 -1.31151E+02 -1.32667E+02 -1.29773E+02 -1.27049E+02 -1.26280E+02 -1.20045E+02 -1.23391E+02 -1.15299E+02 -1.15979E+02
  -1.18263E+02 -1.12782E+02 -1.11999E+02 -1.15795E+02 -1.16378E+02 -1.11606E+02 -1.08996E+02 -1.07747E+02 -1.03239E+02 -1.02189E+02
  -1.02325E+02 -1.04045E+02 -1.00824E+02 -1.00181E+02 -9.86361E+01 -1.03094E+02 -9.37421E+01 -9.45368E+01 -9.03914E+01 -9.12570E+01
  -8.54781E+01 -8.79814E+01 -9.13829E+01 -9.02343E+01 -8.36446E+01 -8.55259E+01 -7.57099E+01 -7.99708E+01 -7.75696E+01 -7.73231E+01
  -7.64013E+01 -7.79911E+01 -7.77518E+01 -7.53880E+01 -7.28660E+01 -6.96703E+01 -6.63618E+01 -7.03576E+01 -7.04062E+01 -6.56749E+01
  -6.24216E+01 -6.33731E+01 -5.92449E+01 -6.03619E+01 -5.48641E+01 -5.81240E+01 -5.60511E+01 -5.84549E+01 -5.54116E+01 -5.20121E+01
  -5.07212E+01 -5.48039E+01 -5.33204E+01 -5.11640E+01 -4.61099E+01 -5.23673E+01 -5.00939E+01 -5.29439E+01 -4.66486E+01 -4.78637E+01
  -4.35783E+01 -4.32475E+01 -4.82893E+01 -4.43807E+01 -4.36837E+01 -3.99579E+01 -4.41698E+01 -4.19095E+01 -4.35107E+01 -4.75656E+01
  -4.48187E+01 -4.73224E+01 -4.25028E+01 -4.51021E+01 -4.41875E+01 -4.31169E+01 -3.82434E+01 -3.76848E+01 -3.59174E+01 -4.24982E+01
  -3.76598E+01 -4.13768E+01 -4.08351E+01 -3.80317E+01 -3.86019E+01 -4.13726E+01 -4.06163E+01 -3.61646E+01 -3.44882E+01 -3.93194E+01
  -3.80436E+01 -4.29690E+01 -4.23858E+01 -4.94568E+01 -4.89804E+01 -5.11320E+01 -4.85510E+01 -5.42910E+01 -5.37617E+01 -5.02714E+01
  -5.14501E+01 -5.09345E+01 -4.96569E+01 -4.48568E+01 -5.11925E+01 -4.67578E+01 -5.11034E+01 -4.89616E+01 -4.71893E+01 -4.97417E+01
  -5.22197E+01 -4.40185E+01 -4.87999E+01 -4.46844E+01 -4.14672E+01 -4.28134E+01 -3.99537E+01 -4.53305E+01 -3.63087E+01 -3.66879E+01
  -3.84793E+01 -4.11612E+01 -3.90796E+01 -3.20349E+01 -4.04878E+01 -3.21158E+01 -3.72873E+01 -3.30153E+01 -3.21267E+01 -3.38829E+01
  -3.93763E+01 -3.23549E+01 -3.36732E+01 -3.17031E+01 -3.31223E+01 -3.37150E+01 -3.36755E+01 -3.60734E+01 -3.33066E+01 -3.46418E+01
  -3.47479E+01 -3.29258E+01 -4.08324E+01 -3.61949E+01 -4.05345E+01 -4.10443E+01 -4.92049E+01 -4.10886E+01 -4.10145E+01 -4.98520E+01
  -4.84621E+01 -4.97614E+01 -5.27020E+01 -5.31394E+01 -5.68490E+01 -5.52306E+01 -6.11835E+01 -6.43223E+01 -6.42606E+01 -6.37328E+01
  -6.36709E+01 -6.52701E+01 -6.94391E+01 -7.16966E+01 -7.33006E+01 -7.21226E+01 -7.76273E+01 -8.13764E+01 -8.24231E+01 -7.66601E+01
  -8.02319E+01 -8.12802E+01 -7.99013E+01 -8.12742E+01 -8.22887E+01 -8.16690E+01 -8.37139E+01 -8.14771E+01 -8.20907E+01 -8.36901E+01
  -8.27454E+01 -8.45646E+01 -8.69040E+01 -8.52085E+01 -8.12381E+01 -8.16055E+01 -8.12031E+01 -8.95793E+01 -8.13400E+01 -8.29972E+01
  -8.47347E+01 -7.85772E+01 -7.66497E+01 -7.64638E+01 -7.33423E+01 -7.82128E+01 -7.48302E+01 -7.14421E+01 -6.53017E+01 -6.75445E+01
  -6.00287E+01 -5.94479E+01 -5.90270E+01 -5.05152E+01 -4.95231E+01 -4.37816E+01 -4.20875E+01 -3.48671E+01 -3.05832E+01 -3.15713E+01
  -2.66184E+01 -2.01200E+01 -2.19528E+01 -9.43753E+00 -7.85796E+00 -1.22807E+01 -4.48096E+00 -4.76638E+00  1.50593E+00 -2.89606E-02
   5.03011E+00 -1.00091E+00  1.86428E+00 -9.16378E+00 -4.66819E+00 -6.54016E+00  1.04647E+00  4.91418E+00 -3.66156E-01  3.17599E+00
   1.86173E+00  2.83866E+00  5.63405E+00  3.53419E+00  1.97195E+00  6.54609E-01  5.53424E+00  3.33733E+00  4.39615E+00 -3.11813E+00
  -4.06914E+00 -4.12306E+00 -1.83836E+00 -3.14047E+00 -4.42441E-01 -7.40928E+00 -9.76263E+00 -1.00712E+01 -1.41400E+01 -1.41147E+01
  -2.15554E+01 -1.98791E+01 -2.48030E+01 -2.48678E+01 -3.08573E+01 -3.23793E+01 -3.35484E+01 -4.03448E+01 -4.15378E+01 -3.97034E+01
  -4.16263E+01 -4.89338E+01 -5.05975E+01 -5.38334E+01 -5.55758E+01 -6.00456E+01 -6.03798E+01 -6.32479E+01 -6.77570E+01 -6.37135E+01
  -6.96034E+01 -7.82403E+01 -7.41806E+01 -7.93235E+01 -7.96430E+01 -9.02057E+01 -8.74317E+01 -8.03449E+01 -8.71448E+01 -8.75198E+01
  -8.79787E+01 -8.53916E+01 -8.93018E+01 -7.93943E+01 -7.81293E+01 -6.62137E+01 -6.36484E+01 -5.44722E+01 -4.46014E+01 -3.10403E+01
  -1.50171E+01 -4.25918E-01  1.45216E+01  3.48341E+01  4.93588E+01  6.83873E+01  9.62528E+01  1.06580E+02  1.25343E+02  1.44672E+02
   1.59829E+02  1.70391E+02  1.79421E+02  1.90159E+02  1.96059E+02  2.03626E+02  2.04588E+02  2.10728E+02  2.11955E+02  2.15114E+02
   2.11585E+02  2.09412E+02  2.06849E+02  2.06606E+02  2.05483E+02  1.99445E+02  1.93500E+02  1.93765E+02  1.86136E+02  1.88218E+02
   1.77936E+02  1.73276E+02  1.71343E+02  1.76763E+02  1.68469E+02  1.70418E+02  1.66448E+02  1.66405E+02  1.65757E+02  1.59849E+02
   1.55121E+02  1.59064E+02  1.55036E+02  1.57340E+02  1.51280E+02  1.48329E+02  1.44551E+02  1.45832E+02  1.51122E+02  1.47244E+02
   1.41815E+02  1.47463E+02  1.45017E+02  1.42331E+02  1.47977E+02  1.43858E+02  1.41618E+02  1.51057E+02  1.44910E+02  1.45142E+02
   1.42405E+02  1.45089E+02  1.44321E+02  1.43319E+02  1.43551E+02  1.39864E+02  1.38395E+02  1.44865E+02  1.43582E+02  1.44449E+02
   1.42761E+02  1.41607E+02  1.39804E+02  1.48572E+02  1.37684E+02  1.35192E+02  1.42204E+02  1.41237E+02  1.43473E+02  1.38590E+02
   1.37819E+02  1.38864E+02  1.34412E+02  1.34417E+02  1.31845E+02  1.27095E+02  1.26601E+02  1.22489E+02  1.26256E+02  1.27232E+02
   1.23866E+02  1.20738E+02  1.20720E+02  1.20047E+02  1.17250E+02  1.17034E+02  1.09278E+02  1.08151E+02  1.10009E+02  1.06479E+02
   1.03317E+02  9.75979E+01  9.96740E+01  9.67250E+01  1.00751E+02  9.29429E+01  9.46831E+01  9.63417E+01  8.71936E+01  9.00073E+01
   8.29113E+01  8.35446E+01  8.34919E+01  8.20350E+01  7.94910E+01  7.76839E+01  7.81499E+01  7.97932E+01  7.16372E+01  7.79622E+01
   6.76582E+01  6.76136E+01  6.36834E+01  6.61497E+01  6.44456E+01  6.11336E+01  6.65096E+01  5.77790E+01  5.17308E+01  5.74153E+01
   5.32938E+01  5.35849E+01  4.84416E+01  4.80708E+01  4.64931E+01  4.75431E+01  3.94935E+01  4.47962E+01  4.71500E+01  4.01092E+01
   3.81025E+01  3.77294E+01  4.33240E+01  3.79194E+01  3.79270E+01  3.85029E+01  3.58377E+01  3.01208E+01  3.48170E+01  3.10452E+01
   2.68940E+01  2.63857E+01  2.82961E+01  2.84308E+01  2.64978E+01  2.66379E+01  2.42963E+01  2.17421E+01  2.75123E+01  1.88828E+01
   2.25032E+01  2.13457E+01  2.28932E+01  1.93322E+01  1.84128E+01  1.44233E+01  1.94752E+01  1.52391E+01  1.64963E+01  1.84209E+01
   1.68714E+01  1.44638E+01  9.54467E+00  1.94414E+01  7.15581E+00  9.87503E+00  1.04474E+01  8.97267E+00  9.21818E+00  5.25665E+00
   1.26739E+01  4.67149E+00  5.56779E+00  8.43602E+00  9.01706E+00  2.90284E+00  4.57223E+00  8.29543E+00  3.59910E+00  7.83792E+00
   4.54759E+00  1.86941E-01  1.31068E-01  3.06369E+00  3.09786E+00  3.69601E+00 -1.50296E+00 -5.01038E+00
 NY points of the fit to the data follow
  -1.33358E+02 -1.29861E+02 -1.30354E+02 -1.27098E+02 -1.26946E+02 -1.23940E+02 -1.23709E+02 -1.21068E+02 -1.21099E+02 -1.18924E+02
  -1.18717E+02 -1.16579E+02 -1.16060E+02 -1.13249E+02 -1.12483E+02 -1.09115E+02 -1.08826E+02 -1.05201E+02 -1.05298E+02 -1.01730E+02
  -1.02595E+02 -9.88477E+01 -1.00666E+02 -9.70266E+01 -9.89613E+01 -9.49703E+01 -9.63943E+01 -9.19610E+01 -9.29652E+01 -8.84240E+01
  -8.95293E+01 -8.51637E+01 -8.67201E+01 -8.23159E+01 -8.38310E+01 -7.92644E+01 -8.09868E+01 -7.66056E+01 -7.83770E+01 -7.44298E+01
  -7.62159E+01 -7.22797E+01 -7.35806E+01 -6.97256E+01 -7.01650E+01 -6.63852E+01 -6.64042E+01 -6.33029E+01 -6.46530E+01 -6.29521E+01
  -6.45833E+01 -6.34805E+01 -6.44688E+01 -6.31103E+01 -6.19889E+01 -6.03566E+01 -5.91300E+01 -5.82791E+01 -5.72165E+01 -5.71364E+01
  -5.61699E+01 -5.58291E+01 -5.49733E+01 -5.46461E+01 -5.37119E+01 -5.33643E+01 -5.23729E+01 -5.19562E+01 -5.08159E+01 -5.02308E+01
  -4.89707E+01 -4.84695E+01 -4.73741E+01 -4.70532E+01 -4.61034E+01 -4.59430E+01 -4.51136E+01 -4.50833E+01 -4.43189E+01 -4.43943E+01
  -4.36973E+01 -4.38321E+01 -4.31374E+01 -4.34144E+01 -4.27940E+01 -4.32556E+01 -4.27473E+01 -4.33125E+01 -4.28837E+01 -4.34810E+01
  -4.31471E+01 -4.37067E+01 -4.34711E+01 -4.39811E+01 -4.38225E+01 -4.42628E+01 -4.42178E+01 -4.45692E+01 -4.46255E+01 -4.49275E+01
  -4.50815E+01 -4.53145E+01 -4.55167E+01 -4.56741E+01 -4.58897E+01 -4.59702E+01 -4.61548E+01 -4.61485E+01 -4.62150E+01 -4.61966E+01
  -4.62878E+01 -4.63140E+01 -4.63525E+01 -4.63006E+01 -4.62453E+01 -4.60939E+01 -4.59360E+01 -4.56628E+01 -4.53891E+01 -4.49639E+01
  -4.46103E+01 -4.40210E+01 -4.36276E+01 -4.29159E+01 -4.25170E+01 -4.18306E+01 -4.14457E+01 -4.08036E+01 -4.04014E+01 -3.98040E+01
  -3.93714E+01 -3.88497E+01 -3.83802E+01 -3.79014E+01 -3.74022E+01 -3.70009E+01 -3.64798E+01 -3.61132E+01 -3.55906E+01 -3.52732E+01
  -3.47984E+01 -3.45863E+01 -3.42091E+01 -3.41213E+01 -3.38986E+01 -3.39992E+01 -3.39652E+01 -3.42094E+01 -3.43429E+01 -3.45722E+01
  -3.49612E+01 -3.55176E+01 -3.62488E+01 -3.71454E+01 -3.82110E+01 -3.94234E+01 -4.07919E+01 -4.22769E+01 -4.38957E+01 -4.55920E+01
  -4.73946E+01 -4.92310E+01 -5.11395E+01 -5.30378E+01 -5.49766E+01 -5.68612E+01 -5.87510E+01 -6.05520E+01 -6.23301E+01 -6.39920E+01
  -6.56092E+01 -6.71033E+01 -6.85305E+01 -6.98257E+01 -7.10390E+01 -7.21467E+01 -7.32266E+01 -7.41593E+01 -7.51452E+01 -7.59834E+01
  -7.68631E+01 -7.75930E+01 -7.84613E+01 -7.90100E+01 -7.97281E+01 -8.02153E+01 -8.10185E+01 -8.13102E+01 -8.20894E+01 -8.23105E+01
  -8.31437E+01 -8.33469E+01 -8.44079E+01 -8.41057E+01 -8.42228E+01 -8.32975E+01 -8.29610E+01 -8.13165E+01 -8.05654E+01 -7.84966E+01
  -7.78644E+01 -7.58467E+01 -7.57883E+01 -7.42790E+01 -7.48389E+01 -7.36874E+01 -7.42987E+01 -7.27480E+01 -7.18992E+01 -6.97063E+01
  -6.72808E+01 -6.44468E+01 -6.05812E+01 -5.72110E+01 -5.20375E+01 -4.84278E+01 -4.30235E+01 -3.95514E+01 -3.44055E+01 -3.16686E+01
  -2.69125E+01 -2.46748E+01 -2.02921E+01 -1.77206E+01 -1.30655E+01 -1.06967E+01 -6.85056E+00 -4.43571E+00 -1.56488E+00 -3.91423E-01
   3.43437E-01 -5.39961E-01 -2.76407E+00 -3.99677E+00 -4.58456E+00 -5.57228E+00 -4.52760E+00 -5.78207E+00 -3.49117E+00 -5.86424E+00
  -2.47275E+00 -5.92450E+00 -1.75026E+00 -5.70859E+00 -5.70342E-01 -4.78886E+00  9.15953E-01 -3.27199E+00  2.49738E+00 -1.89035E+00
   3.63266E+00 -9.20447E-01  3.81154E+00 -1.11759E+00  2.65358E+00 -2.94326E+00 -6.14956E-01 -6.88780E+00 -7.13885E+00 -1.35232E+01
  -1.43617E+01 -1.95846E+01 -2.04002E+01 -2.40122E+01 -2.50075E+01 -2.92174E+01 -3.08792E+01 -3.54942E+01 -3.80154E+01 -4.28374E+01
  -4.56880E+01 -5.02445E+01 -5.30440E+01 -5.65367E+01 -5.88864E+01 -6.15362E+01 -6.36355E+01 -6.57023E+01 -6.77769E+01 -6.96939E+01
  -7.16955E+01 -7.36591E+01 -7.55448E+01 -7.73293E+01 -7.89844E+01 -8.04923E+01 -8.17913E+01 -8.28272E+01 -8.35293E+01 -8.38010E+01
  -8.35337E+01 -8.25910E+01 -8.08287E+01 -7.80767E+01 -7.41718E+01 -6.89355E+01 -6.22194E+01 -5.38781E+01 -4.38214E+01 -3.19933E+01
  -1.84236E+01 -3.19731E+00  1.35072E+01  3.14365E+01  5.02596E+01  6.95884E+01  8.89998E+01  1.08075E+02  1.26503E+02  1.43928E+02
   1.59005E+02  1.72634E+02  1.83616E+02  1.93353E+02  1.99672E+02  2.05453E+02  2.07214E+02  2.10570E+02  2.09467E+02  2.11247E+02
   2.07748E+02  2.09381E+02  2.04290E+02  2.06160E+02  1.99479E+02  2.00725E+02  1.93048E+02  1.93750E+02  1.86114E+02  1.87007E+02
   1.79912E+02  1.80436E+02  1.75230E+02  1.75235E+02  1.71259E+02  1.69656E+02  1.66721E+02  1.64666E+02  1.62985E+02  1.60112E+02
   1.58872E+02  1.55838E+02  1.55230E+02  1.52111E+02  1.51131E+02  1.47699E+02  1.47098E+02  1.45090E+02  1.45839E+02  1.47096E+02
   1.46545E+02  1.48107E+02  1.46789E+02  1.48220E+02  1.45393E+02  1.46000E+02  1.41730E+02  1.44287E+02  1.42017E+02  1.44923E+02
   1.43311E+02  1.45770E+02  1.44549E+02  1.46045E+02  1.44798E+02  1.45309E+02  1.44363E+02  1.44751E+02  1.44586E+02  1.45733E+02
   1.45134E+02  1.44755E+02  1.43747E+02  1.41950E+02  1.40438E+02  1.37659E+02  1.35759E+02  1.34493E+02  1.33629E+02  1.33047E+02
   1.32664E+02  1.32405E+02  1.32202E+02  1.31990E+02  1.31707E+02  1.31297E+02  1.30711E+02  1.29913E+02  1.28875E+02  1.27584E+02
   1.26041E+02  1.24257E+02  1.22256E+02  1.20070E+02  1.17740E+02  1.15308E+02  1.12823E+02  1.10327E+02  1.07863E+02  1.05467E+02
   1.03168E+02  1.00989E+02  9.89423E+01  9.70341E+01  9.52625E+01  9.36191E+01  9.20900E+01  9.06573E+01  8.93002E+01  8.79963E+01
   8.67231E+01  8.54590E+01  8.41842E+01  8.28815E+01  8.15365E+01  8.01385E+01  7.86802E+01  7.71580E+01  7.55713E+01  7.39227E+01
   7.22169E+01  7.04606E+01  6.86624E+01  6.68317E+01  6.49785E+01  6.31130E+01  6.12454E+01  5.93853E+01  5.75415E+01  5.57222E+01
   5.39344E+01  5.21843E+01  5.04767E+01  4.88154E+01  4.72037E+01  4.56433E+01  4.41357E+01  4.26812E+01  4.12796E+01  3.99305E+01
   3.86325E+01  3.73845E+01  3.61846E+01  3.50311E+01  3.39217E+01  3.28546E+01  3.18275E+01  3.08384E+01  2.98851E+01  2.89656E+01
   2.80778E+01  2.72199E+01  2.63900E+01  2.55863E+01  2.48071E+01  2.40508E+01  2.33160E+01  2.26012E+01  2.19050E+01  2.12262E+01
   2.05637E+01  1.99162E+01  1.92828E+01  1.86624E+01  1.80542E+01  1.74572E+01  1.68707E+01  1.62939E+01  1.57260E+01  1.51664E+01
   1.46145E+01  1.40695E+01  1.35311E+01  1.29985E+01  1.24714E+01  1.19492E+01  1.14315E+01  1.09178E+01  1.04077E+01  9.90079E+00
   9.39678E+00  8.89523E+00  8.39579E+00  7.89811E+00  7.40186E+00  6.90673E+00  6.41240E+00  5.91851E+00  5.42475E+00  4.93079E+00
   4.43631E+00  3.94094E+00  3.44432E+00  2.94603E+00  2.44564E+00  1.94265E+00  1.43656E+00  9.26675E-01
 NY background values follow
    -1.660E+02   -1.646E+02   -1.632E+02   -1.618E+02   -1.604E+02   -1.590E+02   -1.576E+02   -1.562E+02   -1.548E+02   -1.533E+02
    -1.519E+02   -1.504E+02   -1.490E+02   -1.475E+02   -1.461E+02   -1.446E+02   -1.431E+02   -1.416E+02   -1.402E+02   -1.387E+02
    -1.372E+02   -1.357E+02   -1.342E+02   -1.328E+02   -1.313E+02   -1.298E+02   -1.283E+02   -1.269E+02   -1.254E+02   -1.239E+02
    -1.224E+02   -1.210E+02   -1.195E+02   -1.181E+02   -1.166E+02   -1.152E+02   -1.138E+02   -1.124E+02   -1.110E+02   -1.096E+02
    -1.082E+02   -1.068E+02   -1.054E+02   -1.041E+02   -1.027E+02   -1.014E+02   -1.001E+02   -9.878E+01   -9.749E+01   -9.622E+01
    -9.496E+01   -9.372E+01   -9.250E+01   -9.129E+01   -9.011E+01   -8.894E+01   -8.779E+01   -8.667E+01   -8.556E+01   -8.448E+01
    -8.341E+01   -8.237E+01   -8.136E+01   -8.037E+01   -7.940E+01   -7.846E+01   -7.754E+01   -7.665E+01   -7.579E+01   -7.495E+01
    -7.414E+01   -7.337E+01   -7.262E+01   -7.190E+01   -7.121E+01   -7.056E+01   -6.993E+01   -6.934E+01   -6.878E+01   -6.826E+01
    -6.777E+01   -6.732E+01   -6.690E+01   -6.652E+01   -6.617E+01   -6.587E+01   -6.559E+01   -6.536E+01   -6.515E+01   -6.498E+01
    -6.485E+01   -6.474E+01   -6.467E+01   -6.462E+01   -6.461E+01   -6.463E+01   -6.468E+01   -6.475E+01   -6.485E+01   -6.498E+01
    -6.513E+01   -6.531E+01   -6.551E+01   -6.574E+01   -6.599E+01   -6.626E+01   -6.655E+01   -6.687E+01   -6.720E+01   -6.755E+01
    -6.793E+01   -6.832E+01   -6.872E+01   -6.914E+01   -6.958E+01   -7.004E+01   -7.050E+01   -7.098E+01   -7.148E+01   -7.198E+01
    -7.250E+01   -7.303E+01   -7.356E+01   -7.411E+01   -7.466E+01   -7.522E+01   -7.578E+01   -7.635E+01   -7.693E+01   -7.751E+01
    -7.810E+01   -7.868E+01   -7.927E+01   -7.986E+01   -8.045E+01   -8.104E+01   -8.162E+01   -8.221E+01   -8.279E+01   -8.337E+01
    -8.394E+01   -8.451E+01   -8.507E+01   -8.563E+01   -8.617E+01   -8.671E+01   -8.724E+01   -8.776E+01   -8.827E+01   -8.877E+01
    -8.925E+01   -8.972E+01   -9.018E+01   -9.062E+01   -9.104E+01   -9.145E+01   -9.184E+01   -9.222E+01   -9.257E+01   -9.291E+01
    -9.322E+01   -9.351E+01   -9.379E+01   -9.403E+01   -9.426E+01   -9.446E+01   -9.463E+01   -9.478E+01   -9.490E+01   -9.500E+01
    -9.507E+01   -9.512E+01   -9.515E+01   -9.516E+01   -9.514E+01   -9.510E+01   -9.504E+01   -9.496E+01   -9.487E+01   -9.475E+01
    -9.461E+01   -9.446E+01   -9.429E+01   -9.410E+01   -9.390E+01   -9.368E+01   -9.345E+01   -9.320E+01   -9.294E+01   -9.266E+01
    -9.238E+01   -9.208E+01   -9.177E+01   -9.144E+01   -9.111E+01   -9.077E+01   -9.042E+01   -9.006E+01   -8.970E+01   -8.932E+01
    -8.894E+01   -8.855E+01   -8.816E+01   -8.776E+01   -8.736E+01   -8.696E+01   -8.655E+01   -8.614E+01   -8.572E+01   -8.531E+01
    -8.489E+01   -8.448E+01   -8.406E+01   -8.365E+01   -8.323E+01   -8.282E+01   -8.241E+01   -8.201E+01   -8.161E+01   -8.121E+01
    -8.082E+01   -8.044E+01   -8.006E+01   -7.968E+01   -7.932E+01   -7.896E+01   -7.861E+01   -7.827E+01   -7.794E+01   -7.763E+01
    -7.732E+01   -7.702E+01   -7.674E+01   -7.646E+01   -7.621E+01   -7.596E+01   -7.573E+01   -7.552E+01   -7.532E+01   -7.513E+01
    -7.497E+01   -7.482E+01   -7.469E+01   -7.457E+01   -7.448E+01   -7.441E+01   -7.435E+01   -7.432E+01   -7.431E+01   -7.432E+01
    -7.435E+01   -7.440E+01   -7.447E+01   -7.457E+01   -7.468E+01   -7.481E+01   -7.497E+01   -7.513E+01   -7.532E+01   -7.552E+01
    -7.574E+01   -7.598E+01   -7.623E+01   -7.649E+01   -7.677E+01   -7.706E+01   -7.737E+01   -7.768E+01   -7.801E+01   -7.835E+01
    -7.870E+01   -7.906E+01   -7.943E+01   -7.981E+01   -8.019E+01   -8.059E+01   -8.099E+01   -8.139E+01   -8.181E+01   -8.223E+01
    -8.265E+01   -8.308E+01   -8.351E+01   -8.394E+01   -8.438E+01   -8.482E+01   -8.526E+01   -8.570E+01   -8.614E+01   -8.658E+01
    -8.702E+01   -8.746E+01   -8.790E+01   -8.833E+01   -8.877E+01   -8.919E+01   -8.962E+01   -9.004E+01   -9.045E+01   -9.086E+01
    -9.126E+01   -9.166E+01   -9.205E+01   -9.243E+01   -9.280E+01   -9.316E+01   -9.352E+01   -9.386E+01   -9.419E+01   -9.452E+01
    -9.483E+01   -9.512E+01   -9.541E+01   -9.568E+01   -9.594E+01   -9.618E+01   -9.641E+01   -9.663E+01   -9.682E+01   -9.701E+01
    -9.717E+01   -9.732E+01   -9.745E+01   -9.756E+01   -9.765E+01   -9.773E+01   -9.778E+01   -9.781E+01   -9.782E+01   -9.782E+01
    -9.778E+01   -9.773E+01   -9.765E+01   -9.755E+01   -9.743E+01   -9.729E+01   -9.713E+01   -9.694E+01   -9.673E+01   -9.651E+01
    -9.626E+01   -9.600E+01   -9.572E+01   -9.541E+01   -9.509E+01   -9.476E+01   -9.440E+01   -9.403E+01   -9.365E+01   -9.325E+01
    -9.283E+01   -9.240E+01   -9.195E+01   -9.149E+01   -9.102E+01   -9.053E+01   -9.003E+01   -8.952E+01   -8.900E+01   -8.847E+01
    -8.792E+01   -8.737E+01   -8.680E+01   -8.623E+01   -8.564E+01   -8.505E+01   -8.445E+01   -8.384E+01   -8.323E+01   -8.260E+01
    -8.197E+01   -8.134E+01   -8.069E+01   -8.005E+01   -7.940E+01   -7.874E+01   -7.808E+01   -7.741E+01   -7.675E+01   -7.608E+01
    -7.540E+01   -7.473E+01   -7.405E+01   -7.337E+01   -7.269E+01   -7.201E+01   -7.134E+01   -7.066E+01   -6.998E+01   -6.930E+01
    -6.862E+01   -6.795E+01   -6.728E+01   -6.661E+01   -6.594E+01   -6.528E+01   -6.462E+01   -6.397E+01   -6.331E+01   -6.267E+01
    -6.203E+01   -6.139E+01   -6.077E+01   -6.014E+01   -5.953E+01   -5.892E+01   -5.832E+01   -5.773E+01   -5.714E+01   -5.657E+01
    -5.600E+01   -5.544E+01   -5.489E+01   -5.435E+01   -5.382E+01   -5.331E+01   -5.280E+01   -5.230E+01   -5.182E+01   -5.134E+01
    -5.088E+01   -5.042E+01   -4.998E+01   -4.954E+01   -4.912E+01   -4.870E+01   -4.830E+01   -4.790E+01   -4.752E+01   -4.714E+01
    -4.678E+01   -4.642E+01   -4.608E+01   -4.574E+01   -4.542E+01   -4.510E+01   -4.479E+01   -4.449E+01   -4.420E+01   -4.392E+01
    -4.365E+01   -4.339E+01   -4.314E+01   -4.289E+01   -4.266E+01   -4.243E+01   -4.221E+01   -4.200E+01   -4.180E+01   -4.161E+01
    -4.142E+01   -4.125E+01   -4.108E+01   -4.092E+01   -4.077E+01   -4.063E+01   -4.049E+01   -4.037E+01   -4.025E+01   -4.014E+01
    -4.003E+01   -3.994E+01   -3.985E+01   -3.977E+01   -3.969E+01   -3.963E+01   -3.957E+01   -3.952E+01   -3.947E+01   -3.944E+01
    -3.941E+01   -3.938E+01   -3.937E+01   -3.936E+01   -3.936E+01   -3.936E+01   -3.937E+01   -3.939E+01   -3.942E+01   -3.945E+01
    -3.948E+01   -3.953E+01   -3.958E+01   -3.963E+01   -3.969E+01   -3.976E+01   -3.984E+01   -3.992E+01   -4.000E+01   -4.009E+01
    -4.019E+01   -4.029E+01   -4.040E+01   -4.052E+01   -4.064E+01   -4.076E+01   -4.089E+01   -4.103E+01
 Ala      Conc. = 1.00E+04
