 LCModel (Version 6.3-1L) Copyright: S.W. Provencher.          Ref.: Magn. Reson. Med. 30:672-679 (1993).                
 Slice#1 Row#3 Col#8  PD_05_press_2_raw_act
 36 lines in following concentration table = NCONC+1
    Conc.  %SD /Cr+PCr  Metabolite                                         
    0.000 999%   0.000 Ala                                                 
  380.132  92%   0.261 Asp                                                 
  964.651  54%   0.663 Cr                                                  
  489.585 109%   0.337 PCr                                                 
   97.273 222% 6.7E-02 GABA                                                
  147.338 147%   0.101 Glc                                                 
  443.232 135%   0.305 Gln                                                 
 1.46E+03  46%   1.004 Glu                                                 
  586.255   9%   0.403 GPC                                                 
    0.000 999%   0.000 PCh                                                 
  574.532  34%   0.395 GSH                                                 
  772.816  78%   0.531 Ins                                                 
    0.000 999%   0.000 Lac                                                 
 4.00E+03   7%   2.750 NAA                                                 
  125.725 253% 8.6E-02 NAAG                                                
  135.135  41% 9.3E-02 Scyllo                                              
   60.086 550% 4.1E-02 Tau                                                 
  324.687  71%   0.223 -CrCH2                                              
  586.255   9%   0.403 GPC+PCh                                             
 4.12E+03   5%   2.836 NAA+NAAG                                            
 1.45E+03  10%   1.000 Cr+PCr                                              
 1.90E+03  48%   1.309 Glu+Gln                                             
 1.42E+03  90%   0.978 Lip13a                                              
 2.33E+03  20%   1.603 Lip13b                                              
  883.434  53%   0.607 Lip09                                               
 1.46E+03  37%   1.002 MM09                                                
  582.687  54%   0.401 Lip20                                               
 2.34E+03  35%   1.608 MM20                                                
  449.143  70%   0.309 MM12                                                
 2.37E+03  31%   1.627 MM14                                                
 1.00E+03  44%   0.690 MM17                                                
 3.75E+03  26%   2.582 Lip13a+Lip13b                                       
 6.57E+03  11%   4.517 MM14+Lip13a+Lip13b+MM12                             
 2.34E+03  17%   1.609 MM09+Lip09                                          
 2.92E+03  27%   2.009 MM20+Lip20                                          
   6 lines in following misc. output table
  FWHM = 0.054 ppm    S/N =   7                                            
  Data shift = 0.038 ppm                                                   
  Ph: -58 deg      -5.8 deg/ppm                                            
  alphaB,S = 8.5E+01,   1.0E+02                                            
   14 spline knots.   Ns = 6(1)                                            
   2 inflections.     1 extrema                                            
  498 points on ppm-axis = NY
      4.000000     3.992357     3.984714     3.977070     3.969427     3.961784     3.954141     3.946497     3.938854     3.931211
      3.923568     3.915925     3.908281     3.900638     3.892995     3.885352     3.877708     3.870065     3.862422     3.854779
      3.847136     3.839492     3.831849     3.824206     3.816563     3.808919     3.801276     3.793633     3.785990     3.778347
      3.770703     3.763060     3.755417     3.747774     3.740130     3.732487     3.724844     3.717201     3.709558     3.701914
      3.694271     3.686628     3.678985     3.671341     3.663698     3.656055     3.648412     3.640769     3.633125     3.625482
      3.617839     3.610196     3.602552     3.594909     3.587266     3.579623     3.571980     3.564336     3.556693     3.549050
      3.541407     3.533763     3.526120     3.518477     3.510834     3.503191     3.495547     3.487904     3.480261     3.472618
      3.464974     3.457331     3.449688     3.442045     3.434402     3.426758     3.419115     3.411472     3.403829     3.396185
      3.388542     3.380899     3.373256     3.365613     3.357969     3.350326     3.342683     3.335040     3.327396     3.319753
      3.312110     3.304467     3.296824     3.289180     3.281537     3.273894     3.266251     3.258607     3.250964     3.243321
      3.235678     3.228034     3.220391     3.212748     3.205105     3.197462     3.189818     3.182175     3.174532     3.166889
      3.159245     3.151602     3.143959     3.136316     3.128673     3.121029     3.113386     3.105743     3.098100     3.090456
      3.082813     3.075170     3.067527     3.059884     3.052240     3.044597     3.036954     3.029311     3.021667     3.014024
      3.006381     2.998738     2.991095     2.983451     2.975808     2.968165     2.960522     2.952878     2.945235     2.937592
      2.929949     2.922306     2.914662     2.907019     2.899376     2.891733     2.884089     2.876446     2.868803     2.861160
      2.853517     2.845873     2.838230     2.830587     2.822944     2.815300     2.807657     2.800014     2.792371     2.784728
      2.777084     2.769441     2.761798     2.754155     2.746511     2.738868     2.731225     2.723582     2.715939     2.708295
      2.700652     2.693009     2.685366     2.677722     2.670079     2.662436     2.654793     2.647150     2.639506     2.631863
      2.624220     2.616577     2.608933     2.601290     2.593647     2.586004     2.578361     2.570717     2.563074     2.555431
      2.547788     2.540144     2.532501     2.524858     2.517215     2.509572     2.501928     2.494285     2.486642     2.478999
      2.471355     2.463712     2.456069     2.448426     2.440783     2.433139     2.425496     2.417853     2.410210     2.402566
      2.394923     2.387280     2.379637     2.371994     2.364350     2.356707     2.349064     2.341421     2.333777     2.326134
      2.318491     2.310848     2.303205     2.295561     2.287918     2.280275     2.272632     2.264988     2.257345     2.249702
      2.242059     2.234416     2.226772     2.219129     2.211486     2.203843     2.196199     2.188556     2.180913     2.173270
      2.165627     2.157983     2.150340     2.142697     2.135054     2.127410     2.119767     2.112124     2.104481     2.096838
      2.089194     2.081551     2.073908     2.066265     2.058621     2.050978     2.043335     2.035692     2.028049     2.020405
      2.012762     2.005119     1.997476     1.989833     1.982190     1.974546     1.966903     1.959260     1.951617     1.943974
      1.936331     1.928688     1.921045     1.913402     1.905759     1.898115     1.890472     1.882829     1.875186     1.867543
      1.859900     1.852257     1.844614     1.836971     1.829327     1.821684     1.814041     1.806398     1.798755     1.791112
      1.783469     1.775826     1.768183     1.760540     1.752896     1.745253     1.737610     1.729967     1.722324     1.714681
      1.707038     1.699395     1.691752     1.684108     1.676465     1.668822     1.661179     1.653536     1.645893     1.638250
      1.630607     1.622964     1.615321     1.607677     1.600034     1.592391     1.584748     1.577105     1.569462     1.561819
      1.554176     1.546533     1.538890     1.531246     1.523603     1.515960     1.508317     1.500674     1.493031     1.485388
      1.477745     1.470102     1.462458     1.454815     1.447172     1.439529     1.431886     1.424243     1.416600     1.408957
      1.401314     1.393671     1.386027     1.378384     1.370741     1.363098     1.355455     1.347812     1.340169     1.332526
      1.324883     1.317240     1.309596     1.301953     1.294310     1.286667     1.279024     1.271381     1.263738     1.256095
      1.248452     1.240808     1.233165     1.225522     1.217879     1.210236     1.202593     1.194950     1.187307     1.179664
      1.172021     1.164377     1.156734     1.149091     1.141448     1.133805     1.126162     1.118519     1.110876     1.103233
      1.095590     1.087946     1.080303     1.072660     1.065017     1.057374     1.049731     1.042088     1.034445     1.026802
      1.019158     1.011515     1.003872     0.996229     0.988586     0.980943     0.973300     0.965657     0.958014     0.950371
      0.942727     0.935084     0.927441     0.919798     0.912155     0.904512     0.896869     0.889226     0.881583     0.873940
      0.866296     0.858653     0.851010     0.843367     0.835724     0.828081     0.820438     0.812795     0.805152     0.797508
      0.789865     0.782222     0.774579     0.766936     0.759293     0.751650     0.744007     0.736364     0.728721     0.721077
      0.713434     0.705791     0.698148     0.690505     0.682862     0.675219     0.667576     0.659933     0.652290     0.644646
      0.637003     0.629360     0.621717     0.614074     0.606431     0.598788     0.591145     0.583502     0.575858     0.568215
      0.560572     0.552929     0.545286     0.537643     0.530000     0.522357     0.514714     0.507071     0.499427     0.491784
      0.484141     0.476498     0.468855     0.461212     0.453569     0.445925     0.438282     0.430639     0.422996     0.415353
      0.407710     0.400067     0.392424     0.384780     0.377137     0.369494     0.361851     0.354208     0.346565     0.338922
      0.331278     0.323635     0.315992     0.308349     0.300706     0.293063     0.285420     0.277777     0.270133     0.262490
      0.254847     0.247204     0.239561     0.231918     0.224275     0.216631     0.208988     0.201345
 NY phased data points follow
  -3.26626E+00  5.07800E+00  5.16262E-01  1.60551E+01  7.51797E-01 -2.06969E+00 -3.31906E+00 -9.22783E-01  2.35130E+01  9.23442E+00
   4.18460E+01  2.79845E+01  1.74386E+01  2.89287E+01  3.42194E+01 -1.13740E+00  1.64220E+01  8.25041E+00 -1.93175E+00  4.32453E+00
   1.25504E+01 -1.90623E+01  4.15080E+00 -4.84159E+00  1.30196E+01  7.65089E+00  9.74197E+00 -7.89076E+00  4.75346E+00  4.95409E+00
   3.32332E+01  1.65387E+01  1.33986E+01  1.24097E+01  3.32089E+00 -9.41593E+00  1.36594E+00  9.79042E-01  1.25058E+01  9.57555E+00
  -3.05460E-01 -9.29319E+00  3.95104E+00  1.51077E+01  8.78784E+00  2.47378E+01  5.01200E+00  1.63514E+01  1.22867E+01 -2.24237E-01
   1.81529E+01  1.20807E+01  1.39578E+01 -9.97948E+00  2.67192E+01  7.98443E+00  1.27023E+01  1.91479E+01  5.65359E+00  3.91110E+00
   3.75816E+00  3.66483E+00  1.28408E+01  5.34978E+00 -3.08432E+00 -1.40881E+00  8.89972E-01  9.81449E+00  4.10686E+00 -3.14493E+00
  -2.06889E+00  1.40336E+00 -1.08750E+01 -1.86264E+01 -1.32388E+01  2.14102E+00 -2.93353E+00  3.67881E+00 -5.46853E+00 -3.52314E+00
  -3.29704E+00  4.33400E+00  1.54199E+00  1.47270E+01  9.59199E+00  1.21169E+01  1.67305E+00 -2.79427E+00  6.62339E+00  1.21500E+01
   1.84473E+01 -1.51795E+00  3.10256E+00  1.40888E+01  1.27009E+01  3.04931E+00  7.51667E+00  9.97301E+00  2.69956E+00  8.00120E+00
   1.38098E+01  3.69299E+01  6.25928E+01  7.46047E+01  6.30033E+01  5.59922E+01  3.06886E+01  1.26323E+01  2.67672E+01  2.67342E+00
  -1.21046E+01  3.27406E+00  3.24096E+00 -1.40873E+00  2.98681E+00  9.53231E-01  7.15131E+00 -2.48729E+00  4.31613E+00  1.27688E+01
   4.46223E+00  1.29865E+01 -8.44857E+00  1.52003E+01  2.71339E+01  4.54355E+01  4.42869E+01  5.14130E+01  6.17744E+01  3.20648E+01
   4.10867E+01  3.17864E+01  2.96759E+01  2.12606E+01  1.24265E+01  1.70238E+01  1.40586E+01 -5.99202E+00  1.04479E+01  8.81944E+00
   3.21996E-01  3.75010E+00  1.71260E+01  1.43436E+01  9.78840E-01  1.13003E+00  2.94354E+01 -6.55546E+00  6.19540E+00  7.41556E+00
  -2.99681E+00  1.31166E+01  7.72739E+00  7.30848E+00 -4.25715E+00 -7.14859E+00  1.59097E+01  9.74973E+00  1.75465E+01 -5.52545E+00
  -1.21115E+01 -1.68963E+01 -8.50763E+00 -1.02529E+01 -8.83413E+00 -2.61451E+00  3.04730E+00 -1.74827E+01  5.97647E+00 -1.23269E+01
   3.73547E+00 -2.00888E+01 -1.16879E+01 -3.33446E+00 -1.57208E+01 -1.50673E+01 -2.48851E+01  4.36214E+00 -1.00047E+01 -1.81451E+01
  -2.60523E+01 -1.60445E+01  5.99494E-01 -2.48655E+01 -8.00711E+00 -1.18447E+01 -1.06600E+01 -1.17493E+01 -7.41973E+00 -1.10589E-01
  -1.17412E+01  4.02666E+00  7.30934E-01 -7.13276E+00 -4.53921E+00  1.32039E+00  3.14736E+00  3.34147E+00 -1.26065E+00 -6.38157E+00
  -1.65195E+01 -5.63547E+00 -3.35832E+00 -1.83080E+00 -6.81076E+00  6.28127E+00  2.76420E+01 -1.48485E+00 -8.58356E+00  8.87929E+00
  -3.45448E+00  1.77711E+01  1.90723E+00 -1.09081E+01  1.57234E+01  9.55759E+00  2.50846E+01  1.64150E+01  1.76826E+01  1.30974E+01
   1.02890E+01 -4.54553E+00 -9.21116E-02  9.46775E+00 -3.20683E+00  7.51549E+00 -5.29967E+00  8.51985E+00  5.42735E+00  1.21751E+01
   2.32684E+01  1.26706E+01  1.43328E+01 -2.58171E+00  1.67853E+01 -2.29815E+00  1.90934E+01  1.35459E+01  1.09789E+01  5.27250E+00
   4.04757E+00  2.49260E+00  1.76039E+00  1.06351E+01 -7.63963E+00 -1.49679E+00  6.69508E+00 -1.18124E+01  2.14789E+01  1.65764E+01
   2.36603E+01  8.99038E+00  5.07831E+00  1.62226E+01  1.70657E+01  4.49442E+01  5.76379E+01  6.30878E+01  1.14486E+02  1.22695E+02
   1.38868E+02  1.63762E+02  1.27450E+02  1.00207E+02  8.96096E+01  7.78809E+01  3.62310E+01  1.91531E+01  2.99172E+01  2.30788E+01
  -4.08782E+00 -5.77468E+00 -1.31006E+01 -6.40146E-01 -2.44723E+00 -3.67858E+00  1.13316E+01 -8.07973E-01  4.91254E+00  3.14672E+00
   4.96937E+00  9.49771E-01  5.72544E-01  9.43226E-01  2.27112E+00  8.80692E+00  1.21497E+01 -2.49064E+00  8.85418E+00  7.73125E+00
   1.21669E+01  5.67793E+00  1.25967E+00  6.44437E+00  2.24523E+01 -3.96710E+00  6.44419E-01  1.19707E+01 -2.47900E-01 -5.99862E+00
  -1.85476E-01  3.13324E+01  1.27261E+01  7.54013E+00  1.62641E+01  1.24183E+01 -4.70827E+00  4.87632E+00  1.46161E+01  1.42908E+01
   9.51425E+00  9.38827E+00  1.11963E+00 -6.90584E+00 -1.15421E+01 -1.07049E+01  2.61570E+01  3.33426E+00 -9.39637E-01 -6.33136E-01
  -3.30600E+00  2.46965E-01  1.09462E+01  4.08918E+00  1.10329E+01  2.50337E+01  3.53037E+01  3.74715E+01  2.95449E+01  2.07770E+01
   3.68021E+01  2.76569E+01  2.34296E+01 -2.91300E+00  5.29719E+00 -7.26857E+00 -1.09611E+00 -8.91145E+00  1.00712E+01  9.48563E-01
   1.15089E+01  1.34460E+01  3.66395E+01  2.02330E+01  1.67522E+01  2.53960E+01  1.52979E+01  1.77217E+01  4.12305E+01  4.29475E+01
   3.72274E+01  4.59160E+01  5.27261E+01  4.86007E+01  4.79863E+01  3.60040E+01  3.63451E+01  2.75279E+01  1.26732E+01  1.39897E+01
   4.13731E+00  8.34424E+00  2.23712E+01  2.48793E+01  1.35004E+01  2.52362E+01  1.67848E+01  1.68902E+01  6.89772E-01  2.95438E+00
   1.16627E+01  6.61096E-01  3.62721E+00  1.47748E+01 -4.96830E+00 -4.64376E-01  1.30493E+01 -8.10492E+00 -1.12598E+01  2.32453E-01
  -9.15266E+00  1.93558E+00 -1.04550E+01  1.87569E+01 -9.64929E+00  7.95696E-01 -3.14984E+00  1.89556E+01  1.76501E-01  7.71691E+00
   4.50759E+00  1.58466E+01  9.34196E+00  5.43101E+00  5.04073E-01  5.69204E+00  3.20383E+01 -1.95448E+00  1.08805E+01  1.22854E+01
   2.15821E+01 -8.82137E+00  1.41764E+01  8.16582E+00  7.97511E+00  7.11573E+00  1.41751E+01  1.26318E+01  1.40376E+01  1.47844E+01
   4.00042E+00  6.19995E+00  2.17193E+01  2.62527E+00  2.42920E+01  1.21416E+01  1.31160E+01  1.18548E+01  1.53062E+01  6.05178E+00
   1.57764E+01  8.21812E+00  2.39651E+00  6.16935E+00  5.92486E+00 -9.25189E+00  1.01233E+01 -4.43911E+00 -8.52175E+00  2.92728E+00
   7.75235E+00  1.63677E+01 -6.10289E+00 -9.60620E+00 -3.34847E+00 -1.98527E+00  5.00991E+00 -3.81565E+00  6.82086E+00  3.04152E+00
   4.26290E+00 -1.37341E+01 -1.18864E+01 -1.44088E+01  5.37217E-01 -1.39856E+00  2.15583E+01  7.66585E+00 -5.58055E+00  4.76344E+00
  -4.85757E-01 -9.02966E+00 -1.47690E-01  2.39363E+00 -1.65560E+01  2.08738E+00 -9.08817E+00 -5.65823E+00  2.63186E+00 -2.34920E+01
  -8.46260E+00  4.23003E+00  2.56613E+00  7.05793E+00 -8.90460E+00 -1.31121E+00  1.44544E+00  5.86117E-01 -1.26067E+01 -5.06011E+00
  -9.64505E+00 -1.90554E+00  1.07886E+01 -1.08574E+01 -6.71091E+00  7.57541E+00 -5.57291E+00 -8.76588E+00 -1.06997E+01 -9.02381E+00
  -1.72575E+01 -1.10029E+01  1.97018E+01 -9.95407E+00  3.66276E+00  5.71123E+00 -1.74636E+01 -1.03750E+01 -1.67826E+01 -4.00062E+00
  -3.40490E+00 -8.98430E+00 -2.03879E+00  1.67229E+01  1.33268E+01 -1.19954E+01  1.47262E+00 -6.17728E+00
 NY points of the fit to the data follow
   4.10631E-01  2.27385E-01  2.75481E-01  6.19701E-01  1.40834E+00  3.02867E+00  5.82157E+00  9.75380E+00  1.46685E+01  1.99969E+01
   2.46797E+01  2.75950E+01  2.80456E+01  2.61627E+01  2.27669E+01  1.86987E+01  1.44458E+01  1.04279E+01  7.19035E+00  5.27116E+00
   4.42135E+00  3.93924E+00  3.49561E+00  3.05791E+00  2.99273E+00  3.53530E+00  4.78431E+00  6.91379E+00  9.82317E+00  1.30722E+01
   1.58975E+01  1.75300E+01  1.76247E+01  1.63706E+01  1.41445E+01  1.12536E+01  8.10811E+00  5.44985E+00  3.86390E+00  3.15216E+00
   3.04811E+00  3.49399E+00  4.35063E+00  5.44921E+00  6.63002E+00  7.80874E+00  8.82928E+00  9.43537E+00  9.43594E+00  8.81658E+00
   7.78095E+00  6.55040E+00  5.22070E+00  3.96721E+00  3.03723E+00  2.53604E+00  2.41383E+00  2.54319E+00  2.80744E+00  3.04970E+00
   3.12012E+00  2.93100E+00  2.50328E+00  1.95379E+00  1.40195E+00  9.33937E-01  6.27873E-01  5.37344E-01  6.50672E-01  9.11500E-01
   1.24792E+00  1.56960E+00  1.81381E+00  1.94446E+00  1.95764E+00  1.87395E+00  1.70420E+00  1.46366E+00  1.18225E+00  9.53026E-01
   1.01452E+00  1.50436E+00  2.40382E+00  3.67992E+00  5.12988E+00  6.34505E+00  6.91285E+00  6.61044E+00  5.55041E+00  4.11364E+00
   2.65948E+00  1.33919E+00  2.16970E-01 -5.60587E-01 -8.43101E-01 -7.41588E-01  6.14071E-02  3.14937E+00  9.12734E+00  1.81756E+01
   2.99649E+01  4.25783E+01  5.29726E+01  5.82880E+01  5.71811E+01  5.07246E+01  4.13770E+01  3.10870E+01  2.08930E+01  1.19234E+01
   5.78510E+00  3.22467E+00  2.35449E+00  1.92199E+00  1.65389E+00  1.45911E+00  1.29930E+00  1.14899E+00  1.02348E+00  1.01432E+00
   1.52906E+00  3.85653E+00  8.68608E+00  1.60965E+01  2.58834E+01  3.66797E+01  4.60634E+01  5.16152E+01  5.19928E+01  4.77179E+01
   4.06646E+01  3.24716E+01  2.39166E+01  1.57281E+01  9.17932E+00  5.33809E+00  3.34130E+00  2.22340E+00  1.82982E+00  2.03135E+00
   2.63626E+00  3.42920E+00  4.16703E+00  4.62028E+00  4.72170E+00  4.50612E+00  4.04043E+00  3.44886E+00  2.85600E+00  2.32274E+00
   1.87743E+00  1.48791E+00  1.17101E+00  9.57851E-01  8.34499E-01  6.68049E-01  3.45104E-01 -1.86404E-01 -9.40588E-01 -1.75575E+00
  -2.41955E+00 -2.73029E+00 -2.57841E+00 -2.09984E+00 -1.59585E+00 -1.32681E+00 -1.38755E+00 -1.72554E+00 -2.27932E+00 -3.04928E+00
  -3.99425E+00 -5.02200E+00 -5.96839E+00 -6.75278E+00 -7.40378E+00 -7.87676E+00 -8.06342E+00 -7.95484E+00 -7.70398E+00 -7.50401E+00
  -7.41370E+00 -7.37499E+00 -7.28767E+00 -7.14809E+00 -7.01615E+00 -6.66024E+00 -5.66347E+00 -3.94199E+00 -1.73643E+00  4.92230E-01
   2.35904E+00  3.68934E+00  4.35610E+00  4.36101E+00  3.78354E+00  2.77953E+00  1.69843E+00  9.18499E-01  7.19460E-01  1.23915E+00
   2.41507E+00  3.97960E+00  5.57757E+00  6.87374E+00  7.45034E+00  7.03077E+00  5.56374E+00  3.29666E+00  6.96258E-01 -1.70956E+00
  -3.34824E+00 -3.72919E+00 -2.69644E+00 -4.89407E-01  2.35352E+00  5.02538E+00  6.64329E+00  6.62691E+00  4.99309E+00  2.38298E+00
  -5.26936E-01 -3.10101E+00 -4.56570E+00 -4.39578E+00 -2.63129E+00 -4.37923E-03  2.57511E+00  4.65170E+00  6.03127E+00  6.63201E+00
   6.51707E+00  6.09384E+00  5.94682E+00  6.33576E+00  7.12665E+00  8.08904E+00  8.96630E+00  9.43759E+00  9.28494E+00  8.49020E+00
   7.34272E+00  6.30157E+00  5.73115E+00  5.80677E+00  6.53541E+00  7.78621E+00  9.20992E+00  1.04243E+01  1.12922E+01  1.18993E+01
   1.24701E+01  1.31991E+01  1.44066E+01  1.67240E+01  2.25636E+01  3.45200E+01  5.25693E+01  7.64207E+01  1.03663E+02  1.28616E+02
   1.44521E+02  1.46587E+02  1.34688E+02  1.13612E+02  8.90310E+01  6.41892E+01  4.10878E+01  2.27165E+01  1.22988E+01  8.60882E+00
   7.01662E+00  6.10415E+00  5.59554E+00  5.33246E+00  5.17688E+00  5.05335E+00  4.89571E+00  4.67009E+00  4.37698E+00  4.04171E+00
   3.70012E+00  3.40409E+00  3.19830E+00  3.09233E+00  3.07228E+00  3.11860E+00  3.21460E+00  3.34764E+00  3.50616E+00  3.68302E+00
   3.88226E+00  4.10524E+00  4.34796E+00  4.60571E+00  4.87399E+00  5.14555E+00  5.41282E+00  5.67025E+00  5.91322E+00  6.13721E+00
   6.33934E+00  6.51558E+00  6.66044E+00  6.77065E+00  6.84493E+00  6.88407E+00  6.89090E+00  6.87071E+00  6.83146E+00  6.78190E+00
   6.73095E+00  6.68811E+00  6.66260E+00  6.66283E+00  6.69632E+00  6.76942E+00  6.88699E+00  7.05240E+00  7.26727E+00  7.53145E+00
   7.84276E+00  8.19722E+00  8.58914E+00  9.01164E+00  9.45664E+00  9.91516E+00  1.03775E+01  1.08336E+01  1.12738E+01  1.16889E+01
   1.20707E+01  1.24125E+01  1.27092E+01  1.29581E+01  1.31602E+01  1.33210E+01  1.34526E+01  1.35756E+01  1.37229E+01  1.39427E+01
   1.43013E+01  1.48839E+01  1.57901E+01  1.71252E+01  1.89820E+01  2.14185E+01  2.44298E+01  2.79250E+01  3.17126E+01  3.55061E+01
   3.89505E+01  4.16711E+01  4.33344E+01  4.37086E+01  4.27085E+01  4.04134E+01  3.70518E+01  3.29585E+01  2.85134E+01  2.40801E+01
   1.99547E+01  1.63370E+01  1.33247E+01  1.09259E+01  9.08450E+00  7.70791E+00  6.69204E+00  5.93944E+00  5.36931E+00  4.92112E+00
   4.55322E+00  4.23954E+00  3.96531E+00  3.72355E+00  3.51192E+00  3.33078E+00  3.18169E+00  3.06683E+00  2.98854E+00  2.94936E+00
   2.95176E+00  2.99827E+00  3.09125E+00  3.23312E+00  3.42618E+00  3.67274E+00  3.97475E+00  4.33378E+00  4.75063E+00  5.22531E+00
   5.75665E+00  6.34218E+00  6.97764E+00  7.65688E+00  8.37157E+00  9.11131E+00  9.86359E+00  1.06140E+01  1.13465E+01  1.20438E+01
   1.26879E+01  1.32611E+01  1.37467E+01  1.41294E+01  1.43964E+01  1.45380E+01  1.45478E+01  1.44236E+01  1.41672E+01  1.37844E+01
   1.32843E+01  1.26795E+01  1.19850E+01  1.12177E+01  1.03954E+01  9.53623E+00  8.65749E+00  7.77558E+00  6.90513E+00  6.05885E+00
   5.24711E+00  4.47797E+00  3.75713E+00  3.08826E+00  2.47310E+00  1.91186E+00  1.40329E+00  9.45165E-01  5.34432E-01  1.67688E-01
  -1.58786E-01 -4.48725E-01 -7.05931E-01 -9.33989E-01 -1.13631E+00 -1.31591E+00 -1.47559E+00 -1.61778E+00 -1.74476E+00 -1.85847E+00
  -1.96064E+00 -2.05265E+00 -2.13577E+00 -2.21109E+00 -2.27961E+00 -2.34213E+00 -2.39939E+00 -2.45191E+00 -2.50023E+00 -2.54481E+00
  -2.58611E+00 -2.62444E+00 -2.66012E+00 -2.69332E+00 -2.72432E+00 -2.75332E+00 -2.78057E+00 -2.80617E+00 -2.83029E+00 -2.85297E+00
  -2.87441E+00 -2.89469E+00 -2.91396E+00 -2.93223E+00 -2.94958E+00 -2.96603E+00 -2.98173E+00 -2.99670E+00 -3.01104E+00 -3.02472E+00
  -3.03778E+00 -3.05025E+00 -3.06222E+00 -3.07370E+00 -3.08475E+00 -3.09529E+00 -3.10540E+00 -3.11508E+00 -3.12442E+00 -3.13339E+00
  -3.14203E+00 -3.15026E+00 -3.15816E+00 -3.16572E+00 -3.17301E+00 -3.17998E+00 -3.18663E+00 -3.19292E+00 -3.19891E+00 -3.20458E+00
  -3.20999E+00 -3.21504E+00 -3.21975E+00 -3.22407E+00 -3.22804E+00 -3.23163E+00 -3.23485E+00 -3.23759E+00
 NY background values follow
    -6.696E-02   -7.197E-02   -7.697E-02   -8.198E-02   -8.698E-02   -9.199E-02   -9.700E-02   -1.020E-01   -1.070E-01   -1.120E-01
    -1.170E-01   -1.221E-01   -1.271E-01   -1.321E-01   -1.371E-01   -1.421E-01   -1.471E-01   -1.522E-01   -1.572E-01   -1.622E-01
    -1.672E-01   -1.722E-01   -1.773E-01   -1.823E-01   -1.873E-01   -1.923E-01   -1.974E-01   -2.024E-01   -2.074E-01   -2.125E-01
    -2.175E-01   -2.225E-01   -2.276E-01   -2.326E-01   -2.376E-01   -2.427E-01   -2.477E-01   -2.527E-01   -2.578E-01   -2.628E-01
    -2.679E-01   -2.729E-01   -2.779E-01   -2.830E-01   -2.880E-01   -2.931E-01   -2.981E-01   -3.032E-01   -3.082E-01   -3.133E-01
    -3.183E-01   -3.233E-01   -3.284E-01   -3.334E-01   -3.385E-01   -3.436E-01   -3.486E-01   -3.537E-01   -3.587E-01   -3.638E-01
    -3.688E-01   -3.739E-01   -3.789E-01   -3.840E-01   -3.890E-01   -3.941E-01   -3.992E-01   -4.042E-01   -4.093E-01   -4.143E-01
    -4.194E-01   -4.245E-01   -4.295E-01   -4.346E-01   -4.397E-01   -4.447E-01   -4.498E-01   -4.549E-01   -4.599E-01   -4.650E-01
    -4.701E-01   -4.751E-01   -4.802E-01   -4.853E-01   -4.903E-01   -4.954E-01   -5.005E-01   -5.056E-01   -5.106E-01   -5.157E-01
    -5.208E-01   -5.258E-01   -5.309E-01   -5.360E-01   -5.411E-01   -5.461E-01   -5.512E-01   -5.563E-01   -5.614E-01   -5.664E-01
    -5.715E-01   -5.766E-01   -5.817E-01   -5.868E-01   -5.918E-01   -5.969E-01   -6.020E-01   -6.071E-01   -6.122E-01   -6.172E-01
    -6.223E-01   -6.274E-01   -6.325E-01   -6.376E-01   -6.427E-01   -6.477E-01   -6.528E-01   -6.579E-01   -6.630E-01   -6.681E-01
    -6.732E-01   -6.782E-01   -6.833E-01   -6.884E-01   -6.935E-01   -6.986E-01   -7.037E-01   -7.088E-01   -7.139E-01   -7.189E-01
    -7.240E-01   -7.291E-01   -7.342E-01   -7.393E-01   -7.444E-01   -7.495E-01   -7.546E-01   -7.597E-01   -7.647E-01   -7.698E-01
    -7.749E-01   -7.800E-01   -7.851E-01   -7.902E-01   -7.953E-01   -8.004E-01   -8.055E-01   -8.106E-01   -8.156E-01   -8.207E-01
    -8.258E-01   -8.309E-01   -8.360E-01   -8.411E-01   -8.462E-01   -8.513E-01   -8.564E-01   -8.615E-01   -8.666E-01   -8.716E-01
    -8.767E-01   -8.818E-01   -8.869E-01   -8.920E-01   -8.971E-01   -9.022E-01   -9.073E-01   -9.124E-01   -9.175E-01   -9.226E-01
    -9.277E-01   -9.327E-01   -9.378E-01   -9.429E-01   -9.480E-01   -9.531E-01   -9.582E-01   -9.633E-01   -9.684E-01   -9.735E-01
    -9.786E-01   -9.837E-01   -9.887E-01   -9.938E-01   -9.989E-01   -1.004E+00   -1.009E+00   -1.014E+00   -1.019E+00   -1.024E+00
    -1.029E+00   -1.035E+00   -1.040E+00   -1.045E+00   -1.050E+00   -1.055E+00   -1.060E+00   -1.065E+00   -1.070E+00   -1.075E+00
    -1.080E+00   -1.085E+00   -1.091E+00   -1.096E+00   -1.101E+00   -1.106E+00   -1.111E+00   -1.116E+00   -1.121E+00   -1.126E+00
    -1.131E+00   -1.136E+00   -1.141E+00   -1.146E+00   -1.152E+00   -1.157E+00   -1.162E+00   -1.167E+00   -1.172E+00   -1.177E+00
    -1.182E+00   -1.187E+00   -1.192E+00   -1.197E+00   -1.202E+00   -1.207E+00   -1.213E+00   -1.218E+00   -1.223E+00   -1.228E+00
    -1.233E+00   -1.238E+00   -1.243E+00   -1.248E+00   -1.253E+00   -1.258E+00   -1.263E+00   -1.268E+00   -1.273E+00   -1.278E+00
    -1.284E+00   -1.289E+00   -1.294E+00   -1.299E+00   -1.304E+00   -1.309E+00   -1.314E+00   -1.319E+00   -1.324E+00   -1.329E+00
    -1.334E+00   -1.339E+00   -1.344E+00   -1.349E+00   -1.355E+00   -1.360E+00   -1.365E+00   -1.370E+00   -1.375E+00   -1.380E+00
    -1.385E+00   -1.390E+00   -1.395E+00   -1.400E+00   -1.405E+00   -1.410E+00   -1.415E+00   -1.420E+00   -1.425E+00   -1.430E+00
    -1.435E+00   -1.441E+00   -1.446E+00   -1.451E+00   -1.456E+00   -1.461E+00   -1.466E+00   -1.471E+00   -1.476E+00   -1.481E+00
    -1.486E+00   -1.491E+00   -1.496E+00   -1.501E+00   -1.506E+00   -1.511E+00   -1.516E+00   -1.521E+00   -1.526E+00   -1.531E+00
    -1.536E+00   -1.541E+00   -1.546E+00   -1.551E+00   -1.557E+00   -1.562E+00   -1.567E+00   -1.572E+00   -1.577E+00   -1.582E+00
    -1.587E+00   -1.592E+00   -1.597E+00   -1.602E+00   -1.607E+00   -1.612E+00   -1.617E+00   -1.622E+00   -1.627E+00   -1.632E+00
    -1.637E+00   -1.642E+00   -1.647E+00   -1.652E+00   -1.657E+00   -1.662E+00   -1.667E+00   -1.672E+00   -1.677E+00   -1.682E+00
    -1.687E+00   -1.692E+00   -1.697E+00   -1.702E+00   -1.707E+00   -1.712E+00   -1.717E+00   -1.722E+00   -1.727E+00   -1.732E+00
    -1.737E+00   -1.742E+00   -1.747E+00   -1.752E+00   -1.757E+00   -1.762E+00   -1.767E+00   -1.772E+00   -1.777E+00   -1.782E+00
    -1.787E+00   -1.792E+00   -1.797E+00   -1.802E+00   -1.807E+00   -1.812E+00   -1.817E+00   -1.822E+00   -1.827E+00   -1.832E+00
    -1.837E+00   -1.842E+00   -1.847E+00   -1.852E+00   -1.857E+00   -1.862E+00   -1.867E+00   -1.872E+00   -1.877E+00   -1.882E+00
    -1.887E+00   -1.892E+00   -1.897E+00   -1.901E+00   -1.906E+00   -1.911E+00   -1.916E+00   -1.921E+00   -1.926E+00   -1.931E+00
    -1.936E+00   -1.941E+00   -1.946E+00   -1.951E+00   -1.956E+00   -1.961E+00   -1.966E+00   -1.971E+00   -1.976E+00   -1.981E+00
    -1.986E+00   -1.991E+00   -1.995E+00   -2.000E+00   -2.005E+00   -2.010E+00   -2.015E+00   -2.020E+00   -2.025E+00   -2.030E+00
    -2.035E+00   -2.040E+00   -2.045E+00   -2.050E+00   -2.055E+00   -2.059E+00   -2.064E+00   -2.069E+00   -2.074E+00   -2.079E+00
    -2.084E+00   -2.089E+00   -2.094E+00   -2.099E+00   -2.104E+00   -2.109E+00   -2.113E+00   -2.118E+00   -2.123E+00   -2.128E+00
    -2.133E+00   -2.138E+00   -2.143E+00   -2.148E+00   -2.153E+00   -2.157E+00   -2.162E+00   -2.167E+00   -2.172E+00   -2.177E+00
    -2.182E+00   -2.187E+00   -2.192E+00   -2.196E+00   -2.201E+00   -2.206E+00   -2.211E+00   -2.216E+00   -2.221E+00   -2.226E+00
    -2.230E+00   -2.235E+00   -2.240E+00   -2.245E+00   -2.250E+00   -2.255E+00   -2.260E+00   -2.264E+00   -2.269E+00   -2.274E+00
    -2.279E+00   -2.284E+00   -2.289E+00   -2.293E+00   -2.298E+00   -2.303E+00   -2.308E+00   -2.313E+00   -2.318E+00   -2.322E+00
    -2.327E+00   -2.332E+00   -2.337E+00   -2.342E+00   -2.346E+00   -2.351E+00   -2.356E+00   -2.361E+00   -2.366E+00   -2.371E+00
    -2.375E+00   -2.380E+00   -2.385E+00   -2.390E+00   -2.394E+00   -2.399E+00   -2.404E+00   -2.409E+00   -2.414E+00   -2.418E+00
    -2.423E+00   -2.428E+00   -2.433E+00   -2.438E+00   -2.442E+00   -2.447E+00   -2.452E+00   -2.457E+00   -2.461E+00   -2.466E+00
    -2.471E+00   -2.476E+00   -2.480E+00   -2.485E+00   -2.490E+00   -2.495E+00   -2.499E+00   -2.504E+00   -2.509E+00   -2.514E+00
    -2.518E+00   -2.523E+00   -2.528E+00   -2.533E+00   -2.537E+00   -2.542E+00   -2.547E+00   -2.551E+00
 Asp      Conc. = 3.80E+02
