 LCModel (Version 6.3-1L) Copyright: S.W. Provencher.          Ref.: Magn. Reson. Med. 30:672-679 (1993).                
 Slice#3 Row#1 Col#3  PD_05_press_2_raw_act
 36 lines in following concentration table = NCONC+1
    Conc.  %SD /Cr+PCr  Metabolite                                         
    0.000 999%   0.000 Ala                                                 
   40.041 121% 9.8E-02 Asp                                                 
    0.000 999%   0.000 Cr                                                  
  407.871  34%   1.000 PCr                                                 
   25.273 116% 6.2E-02 GABA                                                
   26.345 111% 6.5E-02 Glc                                                 
    0.000 999%   0.000 Gln                                                 
    0.000 999%   0.000 Glu                                                 
  163.568  34%   0.401 GPC                                                 
    0.000 999%   0.000 PCh                                                 
  321.491  76%   0.788 GSH                                                 
 2.28E+03  24%   5.585 Ins                                                 
 3.60E+03  34%   8.823 Lac                                                 
    0.000 999%   0.000 NAA                                                 
    0.000 999%   0.000 NAAG                                                
    7.927 122% 1.9E-02 Scyllo                                              
   42.070 114%   0.103 Tau                                                 
    0.000 999%   0.000 -CrCH2                                              
  163.568  34%   0.401 GPC+PCh                                             
    0.000 999%   0.000 NAA+NAAG                                            
  407.871  34%   1.000 Cr+PCr                                              
    0.000 999%   0.000 Glu+Gln                                             
    0.000 999%   0.000 Lip13a                                              
 1.35E+03  51%   3.299 Lip13b                                              
  286.197  72%   0.702 Lip09                                               
    0.000 999%   0.000 MM09                                                
  223.373  66%   0.548 Lip20                                               
    0.000 999%   0.000 MM20                                                
    0.000 999%   0.000 MM12                                                
    0.000 999%   0.000 MM14                                                
    0.000 999%   0.000 MM17                                                
 1.35E+03  51%   3.299 Lip13a+Lip13b                                       
 1.35E+03  51%   3.299 MM14+Lip13a+Lip13b+MM12                             
  286.197  72%   0.702 MM09+Lip09                                          
  223.373  66%   0.548 MM20+Lip20                                          
   6 lines in following misc. output table
  FWHM = 0.107 ppm    S/N =   1                                            
  Data shift = 0.084 ppm                                                   
  Ph:-108 deg      -9.6 deg/ppm                                            
  alphaB,S = 8.5E+01,   8.9E+01                                            
   14 spline knots.   Ns = 7(2)                                            
   2 inflections.     1 extrema                                            
  498 points on ppm-axis = NY
      4.000000     3.992357     3.984714     3.977070     3.969427     3.961784     3.954141     3.946497     3.938854     3.931211
      3.923568     3.915925     3.908281     3.900638     3.892995     3.885352     3.877708     3.870065     3.862422     3.854779
      3.847136     3.839492     3.831849     3.824206     3.816563     3.808919     3.801276     3.793633     3.785990     3.778347
      3.770703     3.763060     3.755417     3.747774     3.740130     3.732487     3.724844     3.717201     3.709558     3.701914
      3.694271     3.686628     3.678985     3.671341     3.663698     3.656055     3.648412     3.640769     3.633125     3.625482
      3.617839     3.610196     3.602552     3.594909     3.587266     3.579623     3.571980     3.564336     3.556693     3.549050
      3.541407     3.533763     3.526120     3.518477     3.510834     3.503191     3.495547     3.487904     3.480261     3.472618
      3.464974     3.457331     3.449688     3.442045     3.434402     3.426758     3.419115     3.411472     3.403829     3.396185
      3.388542     3.380899     3.373256     3.365613     3.357969     3.350326     3.342683     3.335040     3.327396     3.319753
      3.312110     3.304467     3.296824     3.289180     3.281537     3.273894     3.266251     3.258607     3.250964     3.243321
      3.235678     3.228034     3.220391     3.212748     3.205105     3.197462     3.189818     3.182175     3.174532     3.166889
      3.159245     3.151602     3.143959     3.136316     3.128673     3.121029     3.113386     3.105743     3.098100     3.090456
      3.082813     3.075170     3.067527     3.059884     3.052240     3.044597     3.036954     3.029311     3.021667     3.014024
      3.006381     2.998738     2.991095     2.983451     2.975808     2.968165     2.960522     2.952878     2.945235     2.937592
      2.929949     2.922306     2.914662     2.907019     2.899376     2.891733     2.884089     2.876446     2.868803     2.861160
      2.853517     2.845873     2.838230     2.830587     2.822944     2.815300     2.807657     2.800014     2.792371     2.784728
      2.777084     2.769441     2.761798     2.754155     2.746511     2.738868     2.731225     2.723582     2.715939     2.708295
      2.700652     2.693009     2.685366     2.677722     2.670079     2.662436     2.654793     2.647150     2.639506     2.631863
      2.624220     2.616577     2.608933     2.601290     2.593647     2.586004     2.578361     2.570717     2.563074     2.555431
      2.547788     2.540144     2.532501     2.524858     2.517215     2.509572     2.501928     2.494285     2.486642     2.478999
      2.471355     2.463712     2.456069     2.448426     2.440783     2.433139     2.425496     2.417853     2.410210     2.402566
      2.394923     2.387280     2.379637     2.371994     2.364350     2.356707     2.349064     2.341421     2.333777     2.326134
      2.318491     2.310848     2.303205     2.295561     2.287918     2.280275     2.272632     2.264988     2.257345     2.249702
      2.242059     2.234416     2.226772     2.219129     2.211486     2.203843     2.196199     2.188556     2.180913     2.173270
      2.165627     2.157983     2.150340     2.142697     2.135054     2.127410     2.119767     2.112124     2.104481     2.096838
      2.089194     2.081551     2.073908     2.066265     2.058621     2.050978     2.043335     2.035692     2.028049     2.020405
      2.012762     2.005119     1.997476     1.989833     1.982190     1.974546     1.966903     1.959260     1.951617     1.943974
      1.936331     1.928688     1.921045     1.913402     1.905759     1.898115     1.890472     1.882829     1.875186     1.867543
      1.859900     1.852257     1.844614     1.836971     1.829327     1.821684     1.814041     1.806398     1.798755     1.791112
      1.783469     1.775826     1.768183     1.760540     1.752896     1.745253     1.737610     1.729967     1.722324     1.714681
      1.707038     1.699395     1.691752     1.684108     1.676465     1.668822     1.661179     1.653536     1.645893     1.638250
      1.630607     1.622964     1.615321     1.607677     1.600034     1.592391     1.584748     1.577105     1.569462     1.561819
      1.554176     1.546533     1.538890     1.531246     1.523603     1.515960     1.508317     1.500674     1.493031     1.485388
      1.477745     1.470102     1.462458     1.454815     1.447172     1.439529     1.431886     1.424243     1.416600     1.408957
      1.401314     1.393671     1.386027     1.378384     1.370741     1.363098     1.355455     1.347812     1.340169     1.332526
      1.324883     1.317240     1.309596     1.301953     1.294310     1.286667     1.279024     1.271381     1.263738     1.256095
      1.248452     1.240808     1.233165     1.225522     1.217879     1.210236     1.202593     1.194950     1.187307     1.179664
      1.172021     1.164377     1.156734     1.149091     1.141448     1.133805     1.126162     1.118519     1.110876     1.103233
      1.095590     1.087946     1.080303     1.072660     1.065017     1.057374     1.049731     1.042088     1.034445     1.026802
      1.019158     1.011515     1.003872     0.996229     0.988586     0.980943     0.973300     0.965657     0.958014     0.950371
      0.942727     0.935084     0.927441     0.919798     0.912155     0.904512     0.896869     0.889226     0.881583     0.873940
      0.866296     0.858653     0.851010     0.843367     0.835724     0.828081     0.820438     0.812795     0.805152     0.797508
      0.789865     0.782222     0.774579     0.766936     0.759293     0.751650     0.744007     0.736364     0.728721     0.721077
      0.713434     0.705791     0.698148     0.690505     0.682862     0.675219     0.667576     0.659933     0.652290     0.644646
      0.637003     0.629360     0.621717     0.614074     0.606431     0.598788     0.591145     0.583502     0.575858     0.568215
      0.560572     0.552929     0.545286     0.537643     0.530000     0.522357     0.514714     0.507071     0.499427     0.491784
      0.484141     0.476498     0.468855     0.461212     0.453569     0.445925     0.438282     0.430639     0.422996     0.415353
      0.407710     0.400067     0.392424     0.384780     0.377137     0.369494     0.361851     0.354208     0.346565     0.338922
      0.331278     0.323635     0.315992     0.308349     0.300706     0.293063     0.285420     0.277777     0.270133     0.262490
      0.254847     0.247204     0.239561     0.231918     0.224275     0.216631     0.208988     0.201345
 NY phased data points follow
   1.31112E+01  1.98690E+01  3.43669E+01  3.72187E+01  3.06728E+01  2.01902E+01  1.55729E+01  2.92359E+01  1.69399E+01  2.02877E+01
   2.46019E+01  1.89744E+01  2.69648E+01  3.16953E+01  2.46826E+01  1.75299E+01  2.06734E+01  2.44671E+01  1.61952E+01  1.51522E+01
   1.15131E+01  2.64266E+01  1.28510E+01  2.71907E+01  1.01665E+01  4.52937E+00  1.81880E+01  7.23388E+00  1.73657E+01  1.39584E+01
   2.19499E+01  1.06595E+01  1.83975E+01  1.25711E+01  1.85343E+01  2.57930E+01  1.33025E+01  1.24334E+01  1.40279E+01  2.62956E+01
   2.00642E+01  2.24518E+01  3.82932E+01  2.78815E+01  1.08371E+01  1.88109E+01  2.73270E+01  1.85654E+01  1.15631E+01  1.70967E+01
   1.61385E+01  3.29849E+01  1.23337E+01  2.19574E+01  1.20769E+01  9.66028E+00  2.48925E+01  5.89114E+00  1.12548E+01  1.24237E+01
   2.02775E+01  1.14379E+01  9.16519E+00  1.97358E+01  1.35761E+01  2.07355E+01  2.06120E+01  2.42247E+01  4.61380E+00  1.49846E+01
   1.62280E+01  1.93099E+01  9.41856E+00  1.83707E+01  2.04341E+01  9.76912E+00  1.81764E+01  1.49322E+01  1.12790E+01  2.28892E+01
   1.13766E+01  5.37214E+00  1.62873E+01  1.66242E+01  2.41696E+01  8.53717E+00  1.70758E+01  2.10704E+01  9.76087E+00  2.94380E+00
   1.02056E+01  9.61215E-01 -1.30746E+00  1.33320E+01 -2.83675E+00  1.54963E+01 -3.77708E+00  1.61772E+01  2.05294E+01  1.75391E+01
   1.22531E+01  2.23415E+01  1.56487E+01  1.85395E+01  1.09367E+01  1.76691E+01  2.72408E+01  1.45490E+01  1.29210E+01  8.85295E+00
   1.67486E+01  5.73578E+00  1.79589E+01  1.65600E+01  1.36877E+01  1.00027E+01  1.10356E+01  1.74482E+01  6.08733E+00  8.05361E+00
   1.48009E+01  1.11087E+01  2.28881E+01  1.30551E+01  1.55230E+01  1.50577E+01  1.36485E+01  2.11952E+01 -2.98298E-01  5.18957E+00
   1.22889E+00  8.96942E+00  1.37291E+01  1.46817E+01  2.17268E+01  8.08360E+00  4.21120E+00  2.19036E+01  2.59134E+01  2.26065E+01
   1.47199E+00  1.56410E+01  1.30716E+01  3.08296E+00  1.15020E+01  1.29570E+01  1.69279E+01  2.84341E+00  1.87889E+01  4.19893E+00
   2.16082E+01  1.26911E+01 -4.69229E-01  1.28670E+01  2.14221E+01  9.20764E+00  2.03075E+01  1.98243E+01  2.87893E+00  1.68536E+01
   6.90429E+00  1.55858E+01  1.18515E+01  2.08900E+01  1.71386E+01  8.58815E+00  9.77446E+00  1.79097E+01  1.18340E+01  1.98427E+00
   2.15237E+01  1.05804E+01  2.08194E+01 -1.41769E+00  2.54407E+01  6.04229E+00  9.54148E+00  1.29061E+01  1.09368E+01  1.26477E+01
   1.09170E+01  1.79298E+01  2.05448E+01  7.59032E+00  1.30924E+01  9.31640E+00  1.30872E+01  2.37210E+01  9.87038E+00  1.12057E+01
   1.96631E+01  4.22149E+00  1.78187E+01  1.20634E+01  1.45356E+01  1.19994E+01  1.84374E+01 -1.50062E+00  1.54601E+01  2.50185E+01
   2.05285E+01  1.21048E+01  1.00428E+01  1.75071E+01  6.45178E+00  8.80495E+00  1.67666E+01  1.04494E+01  1.27493E+01  1.91835E+01
   1.64452E+01  5.90506E-01  1.78769E+01  1.61401E+01 -3.25345E+00  1.09701E+01  6.19524E+00  1.91134E+01  1.00946E+01  1.77967E+01
   1.61649E+00  2.28304E+00  4.21694E+00 -1.69471E-01  1.15833E+01  9.18412E+00  7.51760E+00  1.88072E+00  1.05681E+01  2.09985E+01
   6.88246E+00  7.27233E+00  1.77805E+01  1.01759E+00  2.80510E+00  6.45475E+00  5.47110E+00  7.22143E+00  1.84472E+01  1.49644E+01
   1.40654E+01  8.45280E+00  1.08596E+01  1.77269E+01  1.70541E+01  6.79749E+00 -6.80354E-01  6.36901E-02  3.66904E+00 -1.14524E+00
  -8.21426E+00  2.17791E+00  5.46935E+00  9.67661E+00  8.92213E+00  2.42352E+00  3.16366E+00  1.46799E+00  4.70145E+00  9.34285E+00
   1.53850E+00  1.38975E+00 -3.98904E+00 -7.42330E-01  1.79244E+00  4.01361E+00  2.49726E+00  4.61993E+00 -1.89117E+00  1.53968E+01
   2.44628E+00 -6.22553E+00  4.36333E+00  1.23903E+00  4.15948E+00  1.11165E+01  2.16203E+01 -4.25638E-01 -5.78150E+00  4.58611E+00
   1.06787E+00  3.20743E+00 -1.20587E+01  1.29643E+00  2.86490E+00 -3.53599E-01 -5.59498E-01  6.05562E+00  5.50899E+00 -7.42414E+00
   1.35796E+01 -4.24005E+00  1.09227E+01  4.79089E+00  4.88928E-01  1.40022E+01  2.67063E+00 -1.10690E+00  6.76642E+00  1.48814E+00
   3.60503E-01  1.42847E+01  1.25220E+01  1.95241E+01  1.44600E+01  3.26255E+00 -8.84243E+00 -6.45104E+00  6.55897E+00  7.00347E+00
   1.35834E+01  1.34859E+00 -6.38934E-01  2.61121E+00 -4.55128E+00 -3.68078E+00 -5.45051E+00 -1.28678E+00 -6.75908E+00  2.57306E+00
  -8.95342E+00  1.17125E+01 -6.74977E-01 -3.26710E+00 -3.08481E+00  1.96066E-02  6.06142E+00  7.12457E+00  1.57226E+01  1.30583E+01
   9.09247E+00  7.33627E+00  8.51454E+00  8.49347E+00  8.56293E+00  1.03944E+01  1.37341E+01  1.06248E+01  5.34224E+00  7.17251E+00
   8.74959E+00  7.63778E+00  2.07986E+01  1.57735E+01  2.50729E+01  6.12380E+00  1.45816E+01  2.87913E+01  2.58674E+01  2.66333E+01
   8.25880E+00  2.72346E+01  2.00085E+01  2.07313E+01  1.19148E+01  2.07977E+01  7.77150E+00  1.84928E+01  1.72784E+01  1.96268E+01
   2.47739E+01  2.92776E+01  1.65791E+01  1.86082E+01  2.63344E+01  2.23438E+01  1.71626E+01  2.42344E+01  1.65903E+01  1.16724E+01
  -7.05215E+00  1.86252E+01  4.97509E+00  6.03931E+00  9.23577E+00  2.12588E+00  1.83003E+00  1.15978E+00 -6.40136E+00 -4.04222E+00
  -1.66416E+01 -2.36225E+00  1.04034E+01  1.21485E+00 -6.74230E+00 -5.33153E+00 -9.46383E+00  2.07199E+00 -9.30810E+00  4.92938E+00
   4.81350E+00 -4.42748E+00 -5.40518E+00 -6.56489E-01  7.09903E+00 -1.51759E+00 -2.09755E+00  1.01360E+01  3.12493E+00  9.68866E+00
  -3.26531E-02 -1.54543E+00  2.41406E+00  1.09346E+01  8.82805E+00  6.10344E+00  6.05756E+00  1.27015E-01  4.95579E+00 -4.59830E+00
   9.08547E+00 -3.15894E+00  4.03918E+00 -5.54582E+00 -6.61679E+00  2.00254E+00  1.11800E+01 -2.11871E+00  9.78566E+00 -2.99012E-01
   1.09050E+01  4.57034E+00  6.73275E+00 -2.37433E+00 -8.87235E-01 -5.47149E-01  2.63367E+00 -1.30398E+01  2.05621E+01 -4.40261E-01
   1.63777E+00  1.35623E+01 -1.09424E+00  5.41283E+00  1.35234E+01 -2.60780E+00  1.17298E+01  1.11198E+01 -4.69553E+00  5.76843E+00
   1.25641E+01  7.58846E+00  2.90757E+00 -1.58663E+00  5.10647E+00  3.24494E+00 -4.22461E+00  5.32150E+00  1.14737E+01  4.06478E+00
   6.18963E+00  1.63484E+01  4.27723E+00 -7.64270E+00 -1.10335E+00  6.67090E+00 -8.49686E-02 -9.42985E+00  9.43808E+00  3.30907E+00
   5.33799E+00 -2.82980E+00  3.27350E+00  4.20280E+00  6.63909E+00 -6.84691E-02  9.78160E+00  9.41366E+00 -4.89326E+00 -1.63058E-01
   8.11885E+00  1.64265E-02 -2.78247E+00  8.32697E+00  4.61892E+00 -2.13294E+00  9.37195E+00 -6.65546E+00 -5.25232E+00 -9.30020E-01
   4.54894E+00  4.04990E-01 -6.49544E+00 -2.00088E+00  2.95927E+00  5.87320E+00  2.45137E+00  8.16061E+00  1.79032E+00  8.75494E-01
   2.96304E+00  6.56243E-01 -2.06750E+00  5.93412E+00  6.47995E+00 -6.28603E+00  1.25255E+01  2.94000E+00
 NY points of the fit to the data follow
   2.21500E+01  2.32918E+01  2.13692E+01  2.18998E+01  2.00716E+01  2.03221E+01  1.88303E+01  1.91707E+01  1.81756E+01  1.90043E+01
   1.82812E+01  1.93198E+01  1.85985E+01  1.94212E+01  1.86050E+01  1.90235E+01  1.81992E+01  1.83143E+01  1.75874E+01  1.74760E+01
   1.69338E+01  1.66990E+01  1.64258E+01  1.61966E+01  1.62450E+01  1.61292E+01  1.64494E+01  1.64933E+01  1.69397E+01  1.69880E+01
   1.75641E+01  1.75659E+01  1.81817E+01  1.82563E+01  1.88922E+01  1.89162E+01  1.92862E+01  1.92071E+01  1.93519E+01  1.92254E+01
   1.92123E+01  1.90431E+01  1.89255E+01  1.88037E+01  1.87226E+01  1.87926E+01  1.89768E+01  1.93135E+01  1.98363E+01  2.01624E+01
   2.05862E+01  2.05951E+01  2.07083E+01  2.02918E+01  2.00783E+01  1.93731E+01  1.90178E+01  1.82000E+01  1.78839E+01  1.71489E+01
   1.70328E+01  1.64588E+01  1.66073E+01  1.62057E+01  1.66562E+01  1.63765E+01  1.69577E+01  1.65383E+01  1.69678E+01  1.64275E+01
   1.67772E+01  1.62358E+01  1.65802E+01  1.60206E+01  1.63144E+01  1.57378E+01  1.59626E+01  1.54021E+01  1.55561E+01  1.49369E+01
   1.49576E+01  1.42315E+01  1.41275E+01  1.33374E+01  1.31400E+01  1.23390E+01  1.21284E+01  1.13374E+01  1.12680E+01  1.07687E+01
   1.08235E+01  1.05858E+01  1.07269E+01  1.08467E+01  1.10665E+01  1.16185E+01  1.18069E+01  1.27062E+01  1.27487E+01  1.39598E+01
   1.37499E+01  1.51761E+01  1.47131E+01  1.63279E+01  1.55618E+01  1.70758E+01  1.59824E+01  1.71062E+01  1.58015E+01  1.63385E+01
   1.50233E+01  1.50420E+01  1.40066E+01  1.38800E+01  1.30768E+01  1.29020E+01  1.22779E+01  1.22319E+01  1.18400E+01  1.22518E+01
   1.20277E+01  1.29702E+01  1.26825E+01  1.38705E+01  1.34414E+01  1.48382E+01  1.42974E+01  1.59187E+01  1.51687E+01  1.68013E+01
   1.57439E+01  1.70724E+01  1.57325E+01  1.65062E+01  1.50859E+01  1.52689E+01  1.39707E+01  1.36638E+01  1.26317E+01  1.20052E+01
   1.13454E+01  1.06129E+01  1.04175E+01  9.83943E+00  1.00243E+01  9.71655E+00  9.94969E+00  9.68530E+00  9.87218E+00  9.65576E+00
   9.77307E+00  9.59562E+00  9.62737E+00  9.45144E+00  9.38176E+00  9.22855E+00  9.11153E+00  9.00904E+00  8.90890E+00  8.85209E+00
   8.78197E+00  8.74353E+00  8.68286E+00  8.65290E+00  8.59675E+00  8.57117E+00  8.51607E+00  8.49255E+00  8.43686E+00  8.40880E+00
   8.35502E+00  8.31181E+00  8.25726E+00  8.19987E+00  8.14672E+00  8.08085E+00  8.03915E+00  7.97479E+00  7.94746E+00  7.88097E+00
   7.86005E+00  7.78804E+00  7.77001E+00  7.68409E+00  7.65639E+00  7.58502E+00  7.56527E+00  7.52284E+00  7.50884E+00  7.50513E+00
   7.49400E+00  7.54057E+00  7.52442E+00  7.59633E+00  7.54145E+00  7.61714E+00  7.50262E+00  7.56317E+00  7.38980E+00  7.45838E+00
   7.27258E+00  7.36760E+00  7.21537E+00  7.33491E+00  7.23544E+00  7.36289E+00  7.31933E+00  7.43841E+00  7.44713E+00  7.54513E+00
   7.57567E+00  7.62507E+00  7.64194E+00  7.63336E+00  7.62130E+00  7.57308E+00  7.53893E+00  7.48390E+00  7.44827E+00  7.40020E+00
   7.36908E+00  7.33626E+00  7.31359E+00  7.30987E+00  7.30169E+00  7.29948E+00  7.28114E+00  7.26538E+00  7.22830E+00  7.19280E+00
   7.13319E+00  7.07616E+00  7.01333E+00  6.95297E+00  6.91199E+00  6.85975E+00  6.85829E+00  6.81866E+00  6.86208E+00  6.79417E+00
   6.84667E+00  6.72615E+00  6.76702E+00  6.60379E+00  6.63080E+00  6.47313E+00  6.51541E+00  6.39404E+00  6.45161E+00  6.37155E+00
   6.42874E+00  6.39913E+00  6.44760E+00  6.45506E+00  6.48235E+00  6.49890E+00  6.48915E+00  6.47032E+00  6.40767E+00  6.36541E+00
   6.27821E+00  6.23186E+00  6.14978E+00  6.11571E+00  6.06264E+00  6.03263E+00  5.99139E+00  5.95571E+00  5.91542E+00  5.87034E+00
   5.82285E+00  5.77135E+00  5.72055E+00  5.67017E+00  5.62106E+00  5.57450E+00  5.52948E+00  5.48731E+00  5.44659E+00  5.40830E+00
   5.37139E+00  5.33587E+00  5.30155E+00  5.26751E+00  5.23469E+00  5.20202E+00  5.17070E+00  5.14006E+00  5.11025E+00  5.08300E+00
   5.05603E+00  5.03232E+00  5.00851E+00  4.98802E+00  4.96670E+00  4.94860E+00  4.92850E+00  4.91147E+00  4.89246E+00  4.87611E+00
   4.85822E+00  4.84306E+00  4.82715E+00  4.81405E+00  4.80117E+00  4.79066E+00  4.78110E+00  4.77372E+00  4.76806E+00  4.76441E+00
   4.76307E+00  4.76400E+00  4.76774E+00  4.77437E+00  4.78450E+00  4.79835E+00  4.81657E+00  4.83963E+00  4.86838E+00  4.90367E+00
   4.94662E+00  4.99851E+00  5.06097E+00  5.13611E+00  5.22671E+00  5.33640E+00  5.47010E+00  5.63469E+00  5.84032E+00  6.10322E+00
   6.45207E+00  6.94825E+00  7.76740E+00  9.03110E+00  9.52048E+00  1.08637E+01  1.08946E+01  1.22612E+01  1.17304E+01  1.29968E+01
   1.17439E+01  1.39269E+01  1.22631E+01  1.54606E+01  1.31540E+01  1.73005E+01  1.44019E+01  1.97951E+01  1.58540E+01  2.16367E+01
   1.64751E+01  2.21459E+01  1.61463E+01  2.13295E+01  1.52992E+01  2.07709E+01  1.53355E+01  2.10819E+01  1.64108E+01  2.16828E+01
   1.78310E+01  2.17510E+01  1.88738E+01  2.14968E+01  1.93167E+01  2.06188E+01  1.82643E+01  1.75755E+01  1.53962E+01  1.34487E+01
   1.16048E+01  9.59154E+00  8.33277E+00  7.46858E+00  6.82394E+00  6.32062E+00  5.91533E+00  5.58158E+00  5.30200E+00  5.06492E+00
   4.86210E+00  4.68769E+00  4.53729E+00  4.40762E+00  4.29621E+00  4.20121E+00  4.12121E+00  4.05514E+00  4.00208E+00  3.96127E+00
   3.93205E+00  3.91380E+00  3.90588E+00  3.90757E+00  3.91797E+00  3.93607E+00  3.96067E+00  3.99042E+00  4.02377E+00  4.05899E+00
   4.09420E+00  4.12740E+00  4.15662E+00  4.17988E+00  4.19535E+00  4.20132E+00  4.19633E+00  4.17926E+00  4.14935E+00  4.10622E+00
   4.04992E+00  3.98084E+00  3.89977E+00  3.80780E+00  3.70633E+00  3.59693E+00  3.48126E+00  3.36106E+00  3.23800E+00  3.11373E+00
   2.98971E+00  2.86726E+00  2.74749E+00  2.63126E+00  2.51926E+00  2.41198E+00  2.30973E+00  2.21264E+00  2.12069E+00  2.03377E+00
   1.95169E+00  1.87419E+00  1.80098E+00  1.73174E+00  1.66614E+00  1.60383E+00  1.54454E+00  1.48795E+00  1.43381E+00  1.38185E+00
   1.33184E+00  1.28359E+00  1.23690E+00  1.19164E+00  1.14765E+00  1.10479E+00  1.06296E+00  1.02205E+00  9.81988E-01  9.42698E-01
   9.04105E-01  8.66144E-01  8.28757E-01  7.91906E-01  7.55549E-01  7.19650E-01  6.84163E-01  6.49060E-01  6.14308E-01  5.79894E-01
   5.45791E-01  5.11981E-01  4.78431E-01  4.45130E-01  4.12060E-01  3.79216E-01  3.46579E-01  3.14135E-01  2.81866E-01  2.49762E-01
   2.17821E-01  1.86032E-01  1.54387E-01  1.22870E-01  9.14730E-02  6.01903E-02  2.90223E-02 -2.04122E-03 -3.30070E-02 -6.38889E-02
  -9.46884E-02 -1.25411E-01 -1.56054E-01 -1.86631E-01 -2.17147E-01 -2.47612E-01 -2.78027E-01 -3.08395E-01 -3.38717E-01 -3.69007E-01
  -3.99269E-01 -4.29513E-01 -4.59736E-01 -4.89946E-01 -5.20148E-01 -5.50355E-01 -5.80572E-01 -6.10808E-01
 NY background values follow
     1.242E+01    1.239E+01    1.237E+01    1.234E+01    1.231E+01    1.229E+01    1.226E+01    1.223E+01    1.221E+01    1.218E+01
     1.215E+01    1.213E+01    1.210E+01    1.207E+01    1.204E+01    1.202E+01    1.199E+01    1.196E+01    1.194E+01    1.191E+01
     1.188E+01    1.186E+01    1.183E+01    1.180E+01    1.178E+01    1.175E+01    1.172E+01    1.170E+01    1.167E+01    1.164E+01
     1.162E+01    1.159E+01    1.156E+01    1.154E+01    1.151E+01    1.148E+01    1.145E+01    1.143E+01    1.140E+01    1.137E+01
     1.135E+01    1.132E+01    1.129E+01    1.127E+01    1.124E+01    1.121E+01    1.119E+01    1.116E+01    1.113E+01    1.111E+01
     1.108E+01    1.105E+01    1.103E+01    1.100E+01    1.097E+01    1.095E+01    1.092E+01    1.089E+01    1.087E+01    1.084E+01
     1.081E+01    1.078E+01    1.076E+01    1.073E+01    1.070E+01    1.068E+01    1.065E+01    1.062E+01    1.060E+01    1.057E+01
     1.054E+01    1.052E+01    1.049E+01    1.046E+01    1.044E+01    1.041E+01    1.038E+01    1.036E+01    1.033E+01    1.030E+01
     1.028E+01    1.025E+01    1.022E+01    1.020E+01    1.017E+01    1.014E+01    1.011E+01    1.009E+01    1.006E+01    1.003E+01
     1.001E+01    9.981E+00    9.954E+00    9.927E+00    9.900E+00    9.873E+00    9.847E+00    9.820E+00    9.793E+00    9.766E+00
     9.739E+00    9.713E+00    9.686E+00    9.659E+00    9.632E+00    9.605E+00    9.579E+00    9.552E+00    9.525E+00    9.498E+00
     9.471E+00    9.445E+00    9.418E+00    9.391E+00    9.364E+00    9.337E+00    9.311E+00    9.284E+00    9.257E+00    9.230E+00
     9.204E+00    9.177E+00    9.150E+00    9.123E+00    9.096E+00    9.070E+00    9.043E+00    9.016E+00    8.989E+00    8.962E+00
     8.936E+00    8.909E+00    8.882E+00    8.855E+00    8.828E+00    8.802E+00    8.775E+00    8.748E+00    8.721E+00    8.695E+00
     8.668E+00    8.641E+00    8.614E+00    8.587E+00    8.561E+00    8.534E+00    8.507E+00    8.480E+00    8.453E+00    8.427E+00
     8.400E+00    8.373E+00    8.346E+00    8.320E+00    8.293E+00    8.266E+00    8.239E+00    8.212E+00    8.186E+00    8.159E+00
     8.132E+00    8.105E+00    8.078E+00    8.052E+00    8.025E+00    7.998E+00    7.971E+00    7.945E+00    7.918E+00    7.891E+00
     7.864E+00    7.837E+00    7.811E+00    7.784E+00    7.757E+00    7.730E+00    7.704E+00    7.677E+00    7.650E+00    7.623E+00
     7.597E+00    7.570E+00    7.543E+00    7.516E+00    7.489E+00    7.463E+00    7.436E+00    7.409E+00    7.382E+00    7.356E+00
     7.329E+00    7.302E+00    7.275E+00    7.248E+00    7.222E+00    7.195E+00    7.168E+00    7.141E+00    7.115E+00    7.088E+00
     7.061E+00    7.034E+00    7.008E+00    6.981E+00    6.954E+00    6.927E+00    6.900E+00    6.874E+00    6.847E+00    6.820E+00
     6.793E+00    6.767E+00    6.740E+00    6.713E+00    6.686E+00    6.660E+00    6.633E+00    6.606E+00    6.579E+00    6.553E+00
     6.526E+00    6.499E+00    6.472E+00    6.446E+00    6.419E+00    6.392E+00    6.365E+00    6.338E+00    6.312E+00    6.285E+00
     6.258E+00    6.231E+00    6.205E+00    6.178E+00    6.151E+00    6.124E+00    6.098E+00    6.071E+00    6.044E+00    6.017E+00
     5.991E+00    5.964E+00    5.937E+00    5.910E+00    5.884E+00    5.857E+00    5.830E+00    5.803E+00    5.777E+00    5.750E+00
     5.723E+00    5.696E+00    5.670E+00    5.643E+00    5.616E+00    5.589E+00    5.563E+00    5.536E+00    5.509E+00    5.482E+00
     5.456E+00    5.429E+00    5.402E+00    5.375E+00    5.349E+00    5.322E+00    5.295E+00    5.269E+00    5.242E+00    5.215E+00
     5.188E+00    5.162E+00    5.135E+00    5.108E+00    5.081E+00    5.055E+00    5.028E+00    5.001E+00    4.974E+00    4.948E+00
     4.921E+00    4.894E+00    4.867E+00    4.841E+00    4.814E+00    4.787E+00    4.761E+00    4.734E+00    4.707E+00    4.680E+00
     4.654E+00    4.627E+00    4.600E+00    4.573E+00    4.547E+00    4.520E+00    4.493E+00    4.467E+00    4.440E+00    4.413E+00
     4.386E+00    4.360E+00    4.333E+00    4.306E+00    4.279E+00    4.253E+00    4.226E+00    4.199E+00    4.173E+00    4.146E+00
     4.119E+00    4.092E+00    4.066E+00    4.039E+00    4.012E+00    3.986E+00    3.959E+00    3.932E+00    3.905E+00    3.879E+00
     3.852E+00    3.825E+00    3.799E+00    3.772E+00    3.745E+00    3.718E+00    3.692E+00    3.665E+00    3.638E+00    3.612E+00
     3.585E+00    3.558E+00    3.531E+00    3.505E+00    3.478E+00    3.451E+00    3.425E+00    3.398E+00    3.371E+00    3.344E+00
     3.318E+00    3.291E+00    3.264E+00    3.238E+00    3.211E+00    3.184E+00    3.158E+00    3.131E+00    3.104E+00    3.077E+00
     3.051E+00    3.024E+00    2.997E+00    2.971E+00    2.944E+00    2.917E+00    2.891E+00    2.864E+00    2.837E+00    2.810E+00
     2.784E+00    2.757E+00    2.730E+00    2.704E+00    2.677E+00    2.650E+00    2.624E+00    2.597E+00    2.570E+00    2.544E+00
     2.517E+00    2.490E+00    2.464E+00    2.437E+00    2.410E+00    2.383E+00    2.357E+00    2.330E+00    2.303E+00    2.277E+00
     2.250E+00    2.223E+00    2.197E+00    2.170E+00    2.143E+00    2.117E+00    2.090E+00    2.063E+00    2.037E+00    2.010E+00
     1.983E+00    1.957E+00    1.930E+00    1.903E+00    1.877E+00    1.850E+00    1.823E+00    1.797E+00    1.770E+00    1.743E+00
     1.717E+00    1.690E+00    1.663E+00    1.637E+00    1.610E+00    1.583E+00    1.557E+00    1.530E+00    1.503E+00    1.477E+00
     1.450E+00    1.423E+00    1.397E+00    1.370E+00    1.343E+00    1.317E+00    1.290E+00    1.263E+00    1.237E+00    1.210E+00
     1.183E+00    1.157E+00    1.130E+00    1.103E+00    1.077E+00    1.050E+00    1.023E+00    9.967E-01    9.701E-01    9.434E-01
     9.168E-01    8.901E-01    8.635E-01    8.368E-01    8.102E-01    7.835E-01    7.569E-01    7.302E-01    7.036E-01    6.769E-01
     6.503E-01    6.236E-01    5.970E-01    5.703E-01    5.437E-01    5.171E-01    4.904E-01    4.638E-01    4.371E-01    4.105E-01
     3.839E-01    3.572E-01    3.306E-01    3.040E-01    2.773E-01    2.507E-01    2.240E-01    1.974E-01    1.708E-01    1.441E-01
     1.175E-01    9.088E-02    6.425E-02    3.762E-02    1.099E-02   -1.564E-02   -4.227E-02   -6.889E-02   -9.552E-02   -1.221E-01
    -1.488E-01   -1.754E-01   -2.020E-01   -2.286E-01   -2.553E-01   -2.819E-01   -3.085E-01   -3.351E-01   -3.618E-01   -3.884E-01
    -4.150E-01   -4.416E-01   -4.682E-01   -4.948E-01   -5.215E-01   -5.481E-01   -5.747E-01   -6.013E-01   -6.279E-01   -6.545E-01
    -6.811E-01   -7.078E-01   -7.344E-01   -7.610E-01   -7.876E-01   -8.142E-01   -8.408E-01   -8.674E-01
 Asp      Conc. = 4.00E+01
