 LCModel (Version 6.3-1L) Copyright: S.W. Provencher.          Ref.: Magn. Reson. Med. 30:672-679 (1993).                
 Slice#3 Row#4 Col#12  PD_05_press_2_raw_act
 36 lines in following concentration table = NCONC+1
    Conc.  %SD /Cr+PCr  Metabolite                                         
 2.57E+03  22%  11.787 Ala                                                 
   16.380 176% 7.5E-02 Asp                                                 
    0.000 999%   0.000 Cr                                                  
  217.928  36%   1.000 PCr                                                 
   12.031 144% 5.5E-02 GABA                                                
   12.848 135% 5.9E-02 Glc                                                 
 2.57E+03  30%  11.773 Gln                                                 
 2.14E+03  42%   9.840 Glu                                                 
    8.259 365% 3.8E-02 GPC                                                 
    0.000 999%   0.000 PCh                                                 
   34.241 448%   0.157 GSH                                                 
  631.473  53%   2.898 Ins                                                 
 2.23E+03  42%  10.217 Lac                                                 
  167.243  53%   0.767 NAA                                                 
    0.000 999%   0.000 NAAG                                                
    4.123 140% 1.9E-02 Scyllo                                              
   23.700 121%   0.109 Tau                                                 
   29.455 195%   0.135 -CrCH2                                              
    8.259 365% 3.8E-02 GPC+PCh                                             
  167.243  53%   0.767 NAA+NAAG                                            
  217.928  36%   1.000 Cr+PCr                                              
 4.71E+03  29%  21.614 Glu+Gln                                             
 1.86E+03  54%   8.517 Lip13a                                              
 1.45E+03  22%   6.649 Lip13b                                              
  613.439  30%   2.815 Lip09                                               
    0.000 999%   0.000 MM09                                                
  495.894  32%   2.275 Lip20                                               
    0.000 999%   0.000 MM20                                                
 4.20E-02 999% 1.9E-04 MM12                                                
    5.014 470% 2.3E-02 MM14                                                
    0.880 999% 4.0E-03 MM17                                                
 3.30E+03  23%  15.166 Lip13a+Lip13b                                       
 3.31E+03  23%  15.189 MM14+Lip13a+Lip13b+MM12                             
  613.439  30%   2.815 MM09+Lip09                                          
  495.894  32%   2.275 MM20+Lip20                                          
   6 lines in following misc. output table
  FWHM = 0.122 ppm    S/N =   4                                            
  Data shift =-0.015 ppm                                                   
  Ph: -55 deg     -23.5 deg/ppm                                            
  alphaB,S = 8.5E+01,   2.0E+02                                            
   14 spline knots.   Ns = 7(2)                                            
   2 inflections.     1 extrema                                            
  498 points on ppm-axis = NY
      4.000000     3.992357     3.984714     3.977070     3.969427     3.961784     3.954141     3.946497     3.938854     3.931211
      3.923568     3.915925     3.908281     3.900638     3.892995     3.885352     3.877708     3.870065     3.862422     3.854779
      3.847136     3.839492     3.831849     3.824206     3.816563     3.808919     3.801276     3.793633     3.785990     3.778347
      3.770703     3.763060     3.755417     3.747774     3.740130     3.732487     3.724844     3.717201     3.709558     3.701914
      3.694271     3.686628     3.678985     3.671341     3.663698     3.656055     3.648412     3.640769     3.633125     3.625482
      3.617839     3.610196     3.602552     3.594909     3.587266     3.579623     3.571980     3.564336     3.556693     3.549050
      3.541407     3.533763     3.526120     3.518477     3.510834     3.503191     3.495547     3.487904     3.480261     3.472618
      3.464974     3.457331     3.449688     3.442045     3.434402     3.426758     3.419115     3.411472     3.403829     3.396185
      3.388542     3.380899     3.373256     3.365613     3.357969     3.350326     3.342683     3.335040     3.327396     3.319753
      3.312110     3.304467     3.296824     3.289180     3.281537     3.273894     3.266251     3.258607     3.250964     3.243321
      3.235678     3.228034     3.220391     3.212748     3.205105     3.197462     3.189818     3.182175     3.174532     3.166889
      3.159245     3.151602     3.143959     3.136316     3.128673     3.121029     3.113386     3.105743     3.098100     3.090456
      3.082813     3.075170     3.067527     3.059884     3.052240     3.044597     3.036954     3.029311     3.021667     3.014024
      3.006381     2.998738     2.991095     2.983451     2.975808     2.968165     2.960522     2.952878     2.945235     2.937592
      2.929949     2.922306     2.914662     2.907019     2.899376     2.891733     2.884089     2.876446     2.868803     2.861160
      2.853517     2.845873     2.838230     2.830587     2.822944     2.815300     2.807657     2.800014     2.792371     2.784728
      2.777084     2.769441     2.761798     2.754155     2.746511     2.738868     2.731225     2.723582     2.715939     2.708295
      2.700652     2.693009     2.685366     2.677722     2.670079     2.662436     2.654793     2.647150     2.639506     2.631863
      2.624220     2.616577     2.608933     2.601290     2.593647     2.586004     2.578361     2.570717     2.563074     2.555431
      2.547788     2.540144     2.532501     2.524858     2.517215     2.509572     2.501928     2.494285     2.486642     2.478999
      2.471355     2.463712     2.456069     2.448426     2.440783     2.433139     2.425496     2.417853     2.410210     2.402566
      2.394923     2.387280     2.379637     2.371994     2.364350     2.356707     2.349064     2.341421     2.333777     2.326134
      2.318491     2.310848     2.303205     2.295561     2.287918     2.280275     2.272632     2.264988     2.257345     2.249702
      2.242059     2.234416     2.226772     2.219129     2.211486     2.203843     2.196199     2.188556     2.180913     2.173270
      2.165627     2.157983     2.150340     2.142697     2.135054     2.127410     2.119767     2.112124     2.104481     2.096838
      2.089194     2.081551     2.073908     2.066265     2.058621     2.050978     2.043335     2.035692     2.028049     2.020405
      2.012762     2.005119     1.997476     1.989833     1.982190     1.974546     1.966903     1.959260     1.951617     1.943974
      1.936331     1.928688     1.921045     1.913402     1.905759     1.898115     1.890472     1.882829     1.875186     1.867543
      1.859900     1.852257     1.844614     1.836971     1.829327     1.821684     1.814041     1.806398     1.798755     1.791112
      1.783469     1.775826     1.768183     1.760540     1.752896     1.745253     1.737610     1.729967     1.722324     1.714681
      1.707038     1.699395     1.691752     1.684108     1.676465     1.668822     1.661179     1.653536     1.645893     1.638250
      1.630607     1.622964     1.615321     1.607677     1.600034     1.592391     1.584748     1.577105     1.569462     1.561819
      1.554176     1.546533     1.538890     1.531246     1.523603     1.515960     1.508317     1.500674     1.493031     1.485388
      1.477745     1.470102     1.462458     1.454815     1.447172     1.439529     1.431886     1.424243     1.416600     1.408957
      1.401314     1.393671     1.386027     1.378384     1.370741     1.363098     1.355455     1.347812     1.340169     1.332526
      1.324883     1.317240     1.309596     1.301953     1.294310     1.286667     1.279024     1.271381     1.263738     1.256095
      1.248452     1.240808     1.233165     1.225522     1.217879     1.210236     1.202593     1.194950     1.187307     1.179664
      1.172021     1.164377     1.156734     1.149091     1.141448     1.133805     1.126162     1.118519     1.110876     1.103233
      1.095590     1.087946     1.080303     1.072660     1.065017     1.057374     1.049731     1.042088     1.034445     1.026802
      1.019158     1.011515     1.003872     0.996229     0.988586     0.980943     0.973300     0.965657     0.958014     0.950371
      0.942727     0.935084     0.927441     0.919798     0.912155     0.904512     0.896869     0.889226     0.881583     0.873940
      0.866296     0.858653     0.851010     0.843367     0.835724     0.828081     0.820438     0.812795     0.805152     0.797508
      0.789865     0.782222     0.774579     0.766936     0.759293     0.751650     0.744007     0.736364     0.728721     0.721077
      0.713434     0.705791     0.698148     0.690505     0.682862     0.675219     0.667576     0.659933     0.652290     0.644646
      0.637003     0.629360     0.621717     0.614074     0.606431     0.598788     0.591145     0.583502     0.575858     0.568215
      0.560572     0.552929     0.545286     0.537643     0.530000     0.522357     0.514714     0.507071     0.499427     0.491784
      0.484141     0.476498     0.468855     0.461212     0.453569     0.445925     0.438282     0.430639     0.422996     0.415353
      0.407710     0.400067     0.392424     0.384780     0.377137     0.369494     0.361851     0.354208     0.346565     0.338922
      0.331278     0.323635     0.315992     0.308349     0.300706     0.293063     0.285420     0.277777     0.270133     0.262490
      0.254847     0.247204     0.239561     0.231918     0.224275     0.216631     0.208988     0.201345
 NY phased data points follow
   8.10929E+00  1.18753E+01  5.78652E+00  7.10250E+00  8.40276E+00  1.43162E+01  1.10701E+01  9.44614E+00  8.09330E+00  1.25153E+01
   1.11272E+01  1.38938E+01  1.22907E+01  2.78014E+00  1.37803E+01  1.13647E+01  1.49871E+01  9.75854E+00  1.02873E+01  1.36089E+01
   6.16175E+00  1.12661E+01  1.47103E+01  1.52934E+01  1.30660E+01  9.71526E+00  7.22932E+00  2.14552E+00  2.86821E+00  1.42568E+01
   9.75958E+00  1.54791E+01  8.27779E+00  1.30416E+01  1.29130E+01  1.45003E+01  8.08216E+00  1.20347E+01  6.59676E+00  1.19151E+01
   1.29246E+01  1.14148E+01  9.11369E+00  8.74030E+00  1.01952E+01  1.07978E+01  3.43813E+00  8.65796E+00  1.26151E+01  7.99392E+00
   1.02396E+01  1.41375E+01  1.25622E+01  1.70541E+01  6.95867E+00  1.39363E+01  5.02384E+00  8.27388E+00  1.44025E+01  1.51543E+00
   1.02466E+01  8.98415E+00  1.88867E+01  4.70359E+00  1.30100E+01  5.65335E+00  6.57676E+00  7.99144E+00  9.64319E+00  7.91418E+00
   1.52806E+01  9.95683E+00  1.04927E+01  8.69548E+00  8.25750E+00  4.61060E+00  1.23630E+01  1.03462E+01  1.06611E+01  9.02424E+00
   9.19802E+00  6.56660E+00  3.98967E+00  1.04488E+01  9.50442E+00 -1.68097E+00  9.01115E+00  1.86940E+00  1.08241E+01  9.47936E+00
   8.70833E+00  7.79383E+00  1.75182E+00  3.32819E+00  5.29684E+00  6.32495E+00 -6.58149E-01  1.09877E+01  9.49834E+00  5.60114E+00
   6.26523E+00  3.87630E+00  7.31780E+00  8.97444E+00  2.08998E+00  6.39077E+00  3.08708E+00  5.58774E+00  5.09026E+00  9.00834E+00
   4.45230E+00  5.45627E+00  1.12261E+01  5.69282E+00  6.79668E+00  7.36772E+00  6.63470E+00  8.52559E+00  2.91171E+00  6.17947E+00
   8.42364E+00  8.49163E+00  1.12754E+01  1.01069E+00  9.76890E+00 -9.55909E-01  7.79416E+00  9.56890E+00  1.14685E+01  6.79139E+00
   1.23327E+01  8.15032E+00  5.74084E+00  1.17311E+01  5.99244E+00  1.16757E+01  8.83578E+00  8.67082E+00  1.16429E+01  9.36943E+00
   1.00555E+01  4.97275E+00  5.39163E+00  1.11177E+01  7.21427E+00  6.71644E+00  8.78493E+00  1.17724E+01  6.96367E+00  9.45904E+00
   2.90630E+00  6.71349E+00  1.04131E+01  8.23997E+00  8.59044E+00  9.65802E+00  1.04013E+01 -3.35736E-01  7.53246E+00  3.96572E+00
   1.94232E+01  5.15071E+00  6.31496E+00  8.28901E+00  9.38776E+00  1.04141E+01  5.25262E+00  5.71040E+00  5.37280E+00  8.01383E+00
   6.38741E+00  5.44621E+00 -2.57741E-01  3.78583E+00  1.35929E+01  7.80148E+00  3.19811E+00  5.94363E+00  6.38790E+00  7.79113E+00
   6.12988E+00  7.90271E+00  5.11682E+00 -1.25369E+00  6.13491E+00  2.16539E+00  2.36477E+00  4.87303E+00  6.42231E+00  4.55034E+00
   4.98049E+00  9.51156E+00  1.58536E+00  6.78850E+00  1.05974E+00  1.02686E+01 -3.67444E-01  4.68377E-01  3.38223E+00  1.87114E+00
   3.55789E+00  3.76818E+00  4.87742E+00  5.11948E+00 -3.93603E-01  2.02780E+00  3.66804E+00  1.20429E+00  1.71965E-01  5.15149E+00
   3.14563E+00  2.25547E+00 -9.06548E-01  7.18309E+00  4.95729E+00  1.10619E+01  5.04048E+00  7.72532E+00  6.63918E+00  5.42747E+00
  -2.70229E+00  3.82344E+00  9.46982E-01  6.52286E+00  5.88470E+00  7.28782E+00  2.02030E+00  9.59920E+00  6.88966E+00  4.66679E+00
   9.57362E+00  8.48246E+00  1.02798E+00  3.78388E+00  3.29227E-01  3.87452E-01  8.28036E+00  5.27880E+00  6.25207E+00  6.39228E+00
   8.47094E+00  1.11125E+01  1.26529E+00  1.98123E+00  1.89341E+00  4.85475E+00  3.77158E+00  5.50331E+00  6.82612E+00 -2.47872E+00
   5.32500E+00  1.92438E+00  1.37488E+00  3.14499E-01  5.74035E+00 -4.79258E-01  5.89231E+00  1.06022E+00  7.03175E+00  6.70561E+00
   1.13730E+01  1.03459E+01  7.12607E+00  7.16882E+00  1.23174E+01  1.98331E+01  1.69294E+01  4.76030E+00  1.20389E+01  6.36947E+00
   1.00375E+01  6.98239E+00  1.40277E+01  5.23640E+00  1.83117E+00  4.15215E+00  7.10060E+00  3.55837E+00  8.16606E+00  3.25517E+00
   1.44528E+01  1.18014E+01  7.02496E+00  8.38189E+00  9.69045E+00  5.91545E+00  7.50957E+00 -3.19633E-01  2.98115E-01  2.31392E+00
   5.00615E+00  7.63656E+00  7.36729E+00  1.34820E+01  1.03632E+01  3.58763E+00  7.79849E+00  4.25588E+00  6.52898E+00  8.92253E+00
   2.24067E+00  7.31167E+00  1.12329E+01  6.99531E+00  9.29309E+00  8.29671E+00  7.86501E+00  2.60864E+00  1.04051E+01  1.07168E+01
   5.30324E+00  5.37962E+00  4.21196E+00  8.73440E+00  4.93521E+00  1.50753E+00  2.88145E+00  1.18198E+01  1.07310E+01  7.35121E+00
   7.28696E+00  1.31877E+01  1.02053E+01  1.51572E+01  1.75192E+01  1.41566E+01  1.96490E+01  1.56733E+01  1.89938E+01  1.45391E+01
   1.30996E+01  1.62326E+01  1.13617E+01  1.16355E+01  9.06432E+00  1.74402E+00  1.06373E+01  1.11048E+01  9.94283E+00  1.32471E+01
   1.69049E+01  1.87034E+01  2.59520E+01  1.90171E+01  1.73724E+01  2.44715E+01  2.78430E+01  3.10840E+01  2.09543E+01  2.96221E+01
   2.78427E+01  3.09316E+01  2.93999E+01  3.36421E+01  3.36726E+01  3.78834E+01  3.54852E+01  3.11617E+01  2.96785E+01  3.46730E+01
   2.84097E+01  2.58710E+01  2.43284E+01  2.34451E+01  2.22639E+01  1.47968E+01  1.86972E+01  1.36863E+01  1.25628E+01  1.69792E+01
   1.02801E+01  7.39216E+00  1.24537E+01  1.02710E+01  1.51372E+01  1.20907E+01  5.78998E+00  1.29554E+01  7.69432E+00  8.66028E+00
   8.99856E+00  7.04940E+00  6.06156E+00  8.48339E+00  6.33471E+00  1.08019E+01  1.32502E+00  7.52038E+00  6.99275E+00  9.50558E+00
   7.07603E-02  1.62944E+00  6.67372E+00  6.00894E-01  2.73060E+00  5.32427E+00  4.25284E+00  2.84971E+00  8.05555E+00  6.15970E+00
   2.28241E+00  6.05866E+00  1.12889E+00  7.90872E+00  4.44101E+00  7.43866E+00  6.96798E+00  9.88452E+00  2.33151E+00  5.54627E+00
   3.79613E+00  6.67107E+00  1.35001E+00  4.61331E+00  1.04475E+01  3.69380E+00  6.10165E+00  9.21448E-01  8.18675E+00  4.21631E+00
  -5.92426E+00  6.09493E+00  6.67451E+00  8.05187E+00  6.01893E+00  4.33045E+00  6.71559E-01  9.82111E+00  1.07667E+00  3.32859E-01
   2.49882E+00  4.12484E+00  7.91178E+00 -6.59716E+00  1.09036E+00  1.40452E+00 -9.82085E-01  4.01989E+00  2.10460E+00  6.22256E+00
   7.59891E+00  3.50475E+00  4.16424E+00  6.23378E+00 -3.13945E-01  9.80646E-01 -1.40087E+00  3.78817E-02  1.90580E-01  7.20886E-01
  -1.34772E+00 -3.35076E-01  7.10822E+00  5.78504E+00 -5.32513E-01 -2.85382E+00  4.17314E+00 -1.59953E-01 -2.32941E+00  1.66185E-01
  -2.93533E+00  1.96219E+00  2.43368E+00  1.54715E+00 -4.38258E+00  3.35128E+00  9.02499E-01  8.70571E-01  6.85428E+00  1.54006E+00
   5.93861E-01 -1.71213E+00  1.27729E-01 -8.87945E-01  1.31359E+00  2.95614E+00 -3.30867E+00  1.69297E+00 -2.54973E+00  7.61159E+00
   1.69921E-02 -3.93072E+00  6.38606E+00  2.69055E+00 -1.63442E+00  7.38334E+00 -7.30021E-01 -2.13181E+00  4.02130E+00  6.29227E+00
   6.63004E+00 -4.71259E+00  3.11242E+00 -1.84612E+00  7.11404E-02  7.48161E+00  7.04782E+00  5.75998E+00
 NY points of the fit to the data follow
   1.07154E+01  1.14185E+01  1.08537E+01  1.11690E+01  1.06515E+01  1.06944E+01  1.03875E+01  1.02663E+01  1.03063E+01  1.03941E+01
   1.08067E+01  1.10878E+01  1.13155E+01  1.13106E+01  1.13808E+01  1.11659E+01  1.10236E+01  1.09187E+01  1.09721E+01  1.11787E+01
   1.12784E+01  1.14757E+01  1.14170E+01  1.13565E+01  1.11321E+01  1.09828E+01  1.07761E+01  1.05272E+01  1.06841E+01  1.03118E+01
   1.08375E+01  1.02719E+01  1.11033E+01  1.04206E+01  1.13941E+01  1.06122E+01  1.14226E+01  1.06946E+01  1.13780E+01  1.08249E+01
   1.13866E+01  1.11389E+01  1.16114E+01  1.17074E+01  1.15644E+01  1.13714E+01  1.09383E+01  1.07006E+01  1.02707E+01  1.02399E+01
   1.01847E+01  1.03085E+01  1.03478E+01  1.02113E+01  1.01508E+01  9.76079E+00  9.64992E+00  9.41547E+00  9.28721E+00  9.02419E+00
   8.93416E+00  8.67746E+00  8.63400E+00  8.40970E+00  8.44530E+00  8.32357E+00  8.47055E+00  8.35462E+00  8.47740E+00  8.32635E+00
   8.42823E+00  8.25815E+00  8.34020E+00  8.14246E+00  8.18856E+00  7.97881E+00  7.99710E+00  7.81305E+00  7.83431E+00  7.65967E+00
   7.66783E+00  7.46232E+00  7.43860E+00  7.19784E+00  7.13685E+00  6.87988E+00  6.80724E+00  6.55977E+00  6.50744E+00  6.30198E+00
   6.29537E+00  6.13605E+00  6.15355E+00  6.04418E+00  6.07018E+00  6.00975E+00  6.02516E+00  6.01430E+00  6.00552E+00  6.04224E+00
   6.00897E+00  6.08454E+00  6.02668E+00  6.11882E+00  6.03907E+00  6.09991E+00  5.99597E+00  6.02583E+00  5.93331E+00  5.94940E+00
   5.88901E+00  5.90388E+00  5.91542E+00  6.06270E+00  6.15941E+00  6.30064E+00  6.41747E+00  6.55233E+00  6.69049E+00  6.83050E+00
   7.00978E+00  7.21315E+00  7.43470E+00  7.68532E+00  7.95338E+00  8.20082E+00  8.49015E+00  8.64929E+00  8.91349E+00  8.90488E+00
   9.10300E+00  8.91754E+00  9.02896E+00  8.67153E+00  8.68777E+00  8.20759E+00  8.14513E+00  7.61899E+00  7.50413E+00  6.98076E+00
   6.83902E+00  6.37379E+00  6.24241E+00  5.92060E+00  5.86258E+00  5.81984E+00  5.83930E+00  5.81281E+00  5.83269E+00  5.81179E+00
   5.82667E+00  5.81068E+00  5.81397E+00  5.79044E+00  5.77605E+00  5.74526E+00  5.71462E+00  5.68009E+00  5.64239E+00  5.60666E+00
   5.56452E+00  5.52493E+00  5.47430E+00  5.43326E+00  5.37853E+00  5.33496E+00  5.27482E+00  5.22653E+00  5.16493E+00  5.11475E+00
   5.05505E+00  5.00142E+00  4.94313E+00  4.88818E+00  4.84139E+00  4.78683E+00  4.75509E+00  4.70358E+00  4.68899E+00  4.62205E+00
   4.57120E+00  4.50851E+00  4.37115E+00  4.31060E+00  4.11830E+00  4.08398E+00  3.86901E+00  3.98186E+00  3.82290E+00  4.05755E+00
   3.84284E+00  4.26187E+00  3.87570E+00  4.36981E+00  3.76260E+00  4.15347E+00  3.20282E+00  3.86315E+00  3.03840E+00  4.05442E+00
   3.38742E+00  4.88989E+00  4.09808E+00  5.65644E+00  4.46238E+00  5.91450E+00  4.22354E+00  5.41673E+00  3.43492E+00  4.82359E+00
   2.93446E+00  4.60388E+00  2.88861E+00  4.77091E+00  3.13784E+00  4.98501E+00  3.48517E+00  5.11347E+00  3.89915E+00  5.35518E+00
   4.63077E+00  5.76408E+00  5.32747E+00  6.31368E+00  6.17117E+00  6.73836E+00  6.67266E+00  6.75709E+00  6.39250E+00  6.42400E+00
   6.35725E+00  6.50184E+00  6.52553E+00  7.07130E+00  6.85391E+00  7.41555E+00  6.86652E+00  7.42362E+00  6.57601E+00  6.89106E+00
   5.87061E+00  6.22658E+00  5.34762E+00  5.51142E+00  4.88621E+00  4.90197E+00  4.68710E+00  4.62303E+00  4.75989E+00  4.63386E+00
   5.11312E+00  4.92329E+00  5.68142E+00  5.30884E+00  6.13804E+00  5.83161E+00  6.97504E+00  6.76214E+00  8.09265E+00  8.01838E+00
   9.12892E+00  8.84660E+00  9.70306E+00  9.22237E+00  9.69380E+00  9.12268E+00  9.26775E+00  8.61755E+00  8.54168E+00  8.04433E+00
   7.91857E+00  7.57180E+00  7.37880E+00  7.10950E+00  6.82933E+00  6.53382E+00  6.30242E+00  6.07749E+00  6.07122E+00  5.97312E+00
   5.97200E+00  5.94464E+00  5.89991E+00  5.88694E+00  5.83878E+00  5.82412E+00  5.76392E+00  5.74020E+00  5.67332E+00  5.64187E+00
   5.60065E+00  5.59530E+00  5.58032E+00  5.58874E+00  5.59442E+00  5.61342E+00  5.63436E+00  5.65701E+00  5.68805E+00  5.72507E+00
   5.77200E+00  5.82774E+00  5.89542E+00  5.97533E+00  6.07072E+00  6.18203E+00  6.31555E+00  6.47492E+00  6.66907E+00  6.90823E+00
   7.21625E+00  7.63458E+00  8.28249E+00  9.25450E+00  9.58116E+00  1.02985E+01  1.03765E+01  1.09450E+01  1.07439E+01  1.10689E+01
   1.05443E+01  1.14344E+01  1.12397E+01  1.21987E+01  1.18378E+01  1.24691E+01  1.17407E+01  1.16436E+01  1.05446E+01  9.81471E+00
   8.97017E+00  8.09902E+00  8.32345E+00  7.89280E+00  8.95645E+00  8.50911E+00  1.05776E+01  1.01894E+01  1.28136E+01  1.23746E+01
   1.54006E+01  1.60145E+01  1.90612E+01  2.06119E+01  2.30182E+01  2.56660E+01  2.62080E+01  2.85450E+01  2.76020E+01  3.02000E+01
   2.83138E+01  3.16188E+01  2.90892E+01  3.35732E+01  3.12738E+01  3.53530E+01  3.23038E+01  3.49412E+01  3.09222E+01  3.19534E+01
   2.75750E+01  2.75021E+01  2.37059E+01  2.33336E+01  2.07557E+01  2.06873E+01  1.84175E+01  1.76357E+01  1.57784E+01  1.43900E+01
   1.28544E+01  1.11223E+01  1.00172E+01  9.23273E+00  8.62101E+00  8.12191E+00  7.70178E+00  7.34346E+00  7.03378E+00  6.76658E+00
   6.53499E+00  6.33664E+00  6.16692E+00  6.02485E+00  5.90684E+00  5.81268E+00  5.73936E+00  5.68706E+00  5.65296E+00  5.63729E+00
   5.63724E+00  5.65299E+00  5.68159E+00  5.72299E+00  5.77389E+00  5.83381E+00  5.89909E+00  5.96892E+00  6.03934E+00  6.10925E+00
   6.17444E+00  6.23375E+00  6.28307E+00  6.32151E+00  6.34536E+00  6.35427E+00  6.34520E+00  6.31862E+00  6.27245E+00  6.20814E+00
   6.12461E+00  6.02423E+00  5.90679E+00  5.77547E+00  5.63072E+00  5.47622E+00  5.31273E+00  5.14406E+00  4.97096E+00  4.79708E+00
   4.62290E+00  4.45172E+00  4.28352E+00  4.12107E+00  3.96385E+00  3.81412E+00  3.67090E+00  3.53599E+00  3.40800E+00  3.28835E+00
   3.17540E+00  3.07037E+00  2.97144E+00  2.87971E+00  2.79325E+00  2.71314E+00  2.63743E+00  2.56724E+00  2.50064E+00  2.43878E+00
   2.37976E+00  2.32479E+00  2.27204E+00  2.22278E+00  2.17524E+00  2.13070E+00  2.08742E+00  2.04677E+00  2.00706E+00  1.96966E+00
   1.93292E+00  1.89825E+00  1.86399E+00  1.83159E+00  1.79945E+00  1.76901E+00  1.73866E+00  1.70987E+00  1.68106E+00  1.65369E+00
   1.62621E+00  1.60009E+00  1.57377E+00  1.54872E+00  1.52340E+00  1.49930E+00  1.47488E+00  1.45162E+00  1.42799E+00  1.40546E+00
   1.38252E+00  1.36067E+00  1.33836E+00  1.31710E+00  1.29535E+00  1.27462E+00  1.25338E+00  1.23314E+00  1.21236E+00  1.19256E+00
   1.17219E+00  1.15279E+00  1.13282E+00  1.11380E+00  1.09420E+00  1.07552E+00  1.05625E+00  1.03790E+00  1.01896E+00  1.00094E+00
   9.82307E-01  9.64594E-01  9.46274E-01  9.28884E-01  9.10897E-01  8.93849E-01  8.76216E-01  8.59546E-01
 NY background values follow
     7.587E+00    7.573E+00    7.559E+00    7.545E+00    7.531E+00    7.517E+00    7.503E+00    7.489E+00    7.475E+00    7.461E+00
     7.446E+00    7.432E+00    7.418E+00    7.404E+00    7.390E+00    7.376E+00    7.362E+00    7.348E+00    7.334E+00    7.320E+00
     7.306E+00    7.292E+00    7.278E+00    7.264E+00    7.250E+00    7.236E+00    7.222E+00    7.208E+00    7.194E+00    7.180E+00
     7.166E+00    7.152E+00    7.138E+00    7.124E+00    7.110E+00    7.096E+00    7.082E+00    7.068E+00    7.054E+00    7.040E+00
     7.026E+00    7.012E+00    6.998E+00    6.984E+00    6.970E+00    6.956E+00    6.942E+00    6.927E+00    6.913E+00    6.899E+00
     6.885E+00    6.871E+00    6.857E+00    6.843E+00    6.829E+00    6.815E+00    6.801E+00    6.787E+00    6.773E+00    6.759E+00
     6.745E+00    6.731E+00    6.717E+00    6.703E+00    6.689E+00    6.675E+00    6.661E+00    6.647E+00    6.633E+00    6.619E+00
     6.605E+00    6.591E+00    6.577E+00    6.563E+00    6.549E+00    6.535E+00    6.521E+00    6.507E+00    6.493E+00    6.479E+00
     6.465E+00    6.451E+00    6.437E+00    6.423E+00    6.408E+00    6.394E+00    6.380E+00    6.366E+00    6.352E+00    6.338E+00
     6.324E+00    6.310E+00    6.296E+00    6.282E+00    6.268E+00    6.254E+00    6.240E+00    6.226E+00    6.212E+00    6.198E+00
     6.184E+00    6.170E+00    6.156E+00    6.142E+00    6.128E+00    6.114E+00    6.100E+00    6.086E+00    6.072E+00    6.058E+00
     6.044E+00    6.030E+00    6.016E+00    6.002E+00    5.988E+00    5.974E+00    5.960E+00    5.946E+00    5.932E+00    5.918E+00
     5.903E+00    5.889E+00    5.875E+00    5.861E+00    5.847E+00    5.833E+00    5.819E+00    5.805E+00    5.791E+00    5.777E+00
     5.763E+00    5.749E+00    5.735E+00    5.721E+00    5.707E+00    5.693E+00    5.679E+00    5.665E+00    5.651E+00    5.637E+00
     5.623E+00    5.609E+00    5.595E+00    5.581E+00    5.567E+00    5.553E+00    5.539E+00    5.525E+00    5.511E+00    5.497E+00
     5.483E+00    5.469E+00    5.455E+00    5.441E+00    5.427E+00    5.413E+00    5.398E+00    5.384E+00    5.370E+00    5.356E+00
     5.342E+00    5.328E+00    5.314E+00    5.300E+00    5.286E+00    5.272E+00    5.258E+00    5.244E+00    5.230E+00    5.216E+00
     5.202E+00    5.188E+00    5.174E+00    5.160E+00    5.146E+00    5.132E+00    5.118E+00    5.104E+00    5.090E+00    5.076E+00
     5.062E+00    5.048E+00    5.034E+00    5.020E+00    5.006E+00    4.992E+00    4.978E+00    4.964E+00    4.950E+00    4.936E+00
     4.922E+00    4.907E+00    4.893E+00    4.879E+00    4.865E+00    4.851E+00    4.837E+00    4.823E+00    4.809E+00    4.795E+00
     4.781E+00    4.767E+00    4.753E+00    4.739E+00    4.725E+00    4.711E+00    4.697E+00    4.683E+00    4.669E+00    4.655E+00
     4.641E+00    4.627E+00    4.613E+00    4.599E+00    4.585E+00    4.571E+00    4.557E+00    4.543E+00    4.529E+00    4.515E+00
     4.501E+00    4.487E+00    4.473E+00    4.459E+00    4.445E+00    4.430E+00    4.416E+00    4.402E+00    4.388E+00    4.374E+00
     4.360E+00    4.346E+00    4.332E+00    4.318E+00    4.304E+00    4.290E+00    4.276E+00    4.262E+00    4.248E+00    4.234E+00
     4.220E+00    4.206E+00    4.192E+00    4.178E+00    4.164E+00    4.150E+00    4.136E+00    4.122E+00    4.108E+00    4.094E+00
     4.080E+00    4.066E+00    4.052E+00    4.038E+00    4.024E+00    4.010E+00    3.996E+00    3.982E+00    3.968E+00    3.953E+00
     3.939E+00    3.925E+00    3.911E+00    3.897E+00    3.883E+00    3.869E+00    3.855E+00    3.841E+00    3.827E+00    3.813E+00
     3.799E+00    3.785E+00    3.771E+00    3.757E+00    3.743E+00    3.729E+00    3.715E+00    3.701E+00    3.687E+00    3.673E+00
     3.659E+00    3.645E+00    3.631E+00    3.617E+00    3.603E+00    3.589E+00    3.575E+00    3.561E+00    3.547E+00    3.533E+00
     3.519E+00    3.505E+00    3.491E+00    3.476E+00    3.462E+00    3.448E+00    3.434E+00    3.420E+00    3.406E+00    3.392E+00
     3.378E+00    3.364E+00    3.350E+00    3.336E+00    3.322E+00    3.308E+00    3.294E+00    3.280E+00    3.266E+00    3.252E+00
     3.238E+00    3.224E+00    3.210E+00    3.196E+00    3.182E+00    3.168E+00    3.154E+00    3.140E+00    3.126E+00    3.112E+00
     3.098E+00    3.084E+00    3.070E+00    3.056E+00    3.042E+00    3.028E+00    3.014E+00    2.999E+00    2.985E+00    2.971E+00
     2.957E+00    2.943E+00    2.929E+00    2.915E+00    2.901E+00    2.887E+00    2.873E+00    2.859E+00    2.845E+00    2.831E+00
     2.817E+00    2.803E+00    2.789E+00    2.775E+00    2.761E+00    2.747E+00    2.733E+00    2.719E+00    2.705E+00    2.691E+00
     2.677E+00    2.663E+00    2.649E+00    2.635E+00    2.621E+00    2.607E+00    2.593E+00    2.579E+00    2.565E+00    2.551E+00
     2.536E+00    2.522E+00    2.508E+00    2.494E+00    2.480E+00    2.466E+00    2.452E+00    2.438E+00    2.424E+00    2.410E+00
     2.396E+00    2.382E+00    2.368E+00    2.354E+00    2.340E+00    2.326E+00    2.312E+00    2.298E+00    2.284E+00    2.270E+00
     2.256E+00    2.242E+00    2.228E+00    2.214E+00    2.200E+00    2.186E+00    2.172E+00    2.158E+00    2.144E+00    2.130E+00
     2.116E+00    2.102E+00    2.088E+00    2.074E+00    2.059E+00    2.045E+00    2.031E+00    2.017E+00    2.003E+00    1.989E+00
     1.975E+00    1.961E+00    1.947E+00    1.933E+00    1.919E+00    1.905E+00    1.891E+00    1.877E+00    1.863E+00    1.849E+00
     1.835E+00    1.821E+00    1.807E+00    1.793E+00    1.779E+00    1.765E+00    1.751E+00    1.737E+00    1.723E+00    1.709E+00
     1.695E+00    1.681E+00    1.667E+00    1.653E+00    1.639E+00    1.625E+00    1.611E+00    1.596E+00    1.582E+00    1.568E+00
     1.554E+00    1.540E+00    1.526E+00    1.512E+00    1.498E+00    1.484E+00    1.470E+00    1.456E+00    1.442E+00    1.428E+00
     1.414E+00    1.400E+00    1.386E+00    1.372E+00    1.358E+00    1.344E+00    1.330E+00    1.316E+00    1.302E+00    1.288E+00
     1.274E+00    1.260E+00    1.246E+00    1.232E+00    1.218E+00    1.204E+00    1.190E+00    1.176E+00    1.162E+00    1.148E+00
     1.134E+00    1.119E+00    1.105E+00    1.091E+00    1.077E+00    1.063E+00    1.049E+00    1.035E+00    1.021E+00    1.007E+00
     9.932E-01    9.792E-01    9.652E-01    9.511E-01    9.371E-01    9.231E-01    9.090E-01    8.950E-01    8.810E-01    8.669E-01
     8.529E-01    8.389E-01    8.249E-01    8.108E-01    7.968E-01    7.828E-01    7.687E-01    7.547E-01    7.407E-01    7.267E-01
     7.126E-01    6.986E-01    6.846E-01    6.705E-01    6.565E-01    6.425E-01    6.284E-01    6.144E-01
 Ala      Conc. = 2.57E+03
