 LCModel (Version 6.3-1L) Copyright: S.W. Provencher.          Ref.: Magn. Reson. Med. 30:672-679 (1993).                
 Slice#1 Row#3 Col#12  PD_05_press_2_raw_act
 36 lines in following concentration table = NCONC+1
    Conc.  %SD /Cr+PCr  Metabolite                                         
  155.522  83%   0.000 Ala                                                 
    5.149 673%   0.000 Asp                                                 
    0.000 999%   0.000 Cr                                                  
    0.000 999%   0.000 PCr                                                 
    4.136 502%   0.000 GABA                                                
    0.000 999%   0.000 Glc                                                 
  170.056 148%   0.000 Gln                                                 
    0.000 999%   0.000 Glu                                                 
    0.000 999%   0.000 GPC                                                 
    0.000 999%   0.000 PCh                                                 
   91.645  95%   0.000 GSH                                                 
    0.000 999%   0.000 Ins                                                 
    0.000 999%   0.000 Lac                                                 
  113.741  62%   0.000 NAA                                                 
    0.000 999%   0.000 NAAG                                                
    2.072 329%   0.000 Scyllo                                              
    0.000 999%   0.000 Tau                                                 
    0.000 999%   0.000 -CrCH2                                              
    0.000 999%   0.000 GPC+PCh                                             
  113.741  62%   0.000 NAA+NAAG                                            
    0.000 999%   0.000 Cr+PCr                                              
  170.056 148%   0.000 Glu+Gln                                             
    0.000 999%   0.000 Lip13a                                              
  478.088  28%   0.000 Lip13b                                              
    0.000 999%   0.000 Lip09                                               
  900.725  18%   0.000 MM09                                                
  106.924  78%   0.000 Lip20                                               
 1.44E+03  18%   0.000 MM20                                                
  259.340  26%   0.000 MM12                                                
 1.26E+03  13%   0.000 MM14                                                
  471.883  30%   0.000 MM17                                                
  478.088  28%   0.000 Lip13a+Lip13b                                       
 2.00E+03  12%   0.000 MM14+Lip13a+Lip13b+MM12                             
  900.725  18%   0.000 MM09+Lip09                                          
 1.54E+03  17%   0.000 MM20+Lip20                                          
   6 lines in following misc. output table
  FWHM = 0.046 ppm    S/N =   1                                            
  Data shift = 0.023 ppm                                                   
  Ph: 113 deg      -1.1 deg/ppm                                            
  alphaB,S = 8.5E+01,   3.5E+01                                            
   14 spline knots.   Ns = 5(1)                                            
  (12) 8 infls.   (11) 7 extrs.                                            
  498 points on ppm-axis = NY
      4.000000     3.992357     3.984714     3.977070     3.969427     3.961784     3.954141     3.946497     3.938854     3.931211
      3.923568     3.915925     3.908281     3.900638     3.892995     3.885352     3.877708     3.870065     3.862422     3.854779
      3.847136     3.839492     3.831849     3.824206     3.816563     3.808919     3.801276     3.793633     3.785990     3.778347
      3.770703     3.763060     3.755417     3.747774     3.740130     3.732487     3.724844     3.717201     3.709558     3.701914
      3.694271     3.686628     3.678985     3.671341     3.663698     3.656055     3.648412     3.640769     3.633125     3.625482
      3.617839     3.610196     3.602552     3.594909     3.587266     3.579623     3.571980     3.564336     3.556693     3.549050
      3.541407     3.533763     3.526120     3.518477     3.510834     3.503191     3.495547     3.487904     3.480261     3.472618
      3.464974     3.457331     3.449688     3.442045     3.434402     3.426758     3.419115     3.411472     3.403829     3.396185
      3.388542     3.380899     3.373256     3.365613     3.357969     3.350326     3.342683     3.335040     3.327396     3.319753
      3.312110     3.304467     3.296824     3.289180     3.281537     3.273894     3.266251     3.258607     3.250964     3.243321
      3.235678     3.228034     3.220391     3.212748     3.205105     3.197462     3.189818     3.182175     3.174532     3.166889
      3.159245     3.151602     3.143959     3.136316     3.128673     3.121029     3.113386     3.105743     3.098100     3.090456
      3.082813     3.075170     3.067527     3.059884     3.052240     3.044597     3.036954     3.029311     3.021667     3.014024
      3.006381     2.998738     2.991095     2.983451     2.975808     2.968165     2.960522     2.952878     2.945235     2.937592
      2.929949     2.922306     2.914662     2.907019     2.899376     2.891733     2.884089     2.876446     2.868803     2.861160
      2.853517     2.845873     2.838230     2.830587     2.822944     2.815300     2.807657     2.800014     2.792371     2.784728
      2.777084     2.769441     2.761798     2.754155     2.746511     2.738868     2.731225     2.723582     2.715939     2.708295
      2.700652     2.693009     2.685366     2.677722     2.670079     2.662436     2.654793     2.647150     2.639506     2.631863
      2.624220     2.616577     2.608933     2.601290     2.593647     2.586004     2.578361     2.570717     2.563074     2.555431
      2.547788     2.540144     2.532501     2.524858     2.517215     2.509572     2.501928     2.494285     2.486642     2.478999
      2.471355     2.463712     2.456069     2.448426     2.440783     2.433139     2.425496     2.417853     2.410210     2.402566
      2.394923     2.387280     2.379637     2.371994     2.364350     2.356707     2.349064     2.341421     2.333777     2.326134
      2.318491     2.310848     2.303205     2.295561     2.287918     2.280275     2.272632     2.264988     2.257345     2.249702
      2.242059     2.234416     2.226772     2.219129     2.211486     2.203843     2.196199     2.188556     2.180913     2.173270
      2.165627     2.157983     2.150340     2.142697     2.135054     2.127410     2.119767     2.112124     2.104481     2.096838
      2.089194     2.081551     2.073908     2.066265     2.058621     2.050978     2.043335     2.035692     2.028049     2.020405
      2.012762     2.005119     1.997476     1.989833     1.982190     1.974546     1.966903     1.959260     1.951617     1.943974
      1.936331     1.928688     1.921045     1.913402     1.905759     1.898115     1.890472     1.882829     1.875186     1.867543
      1.859900     1.852257     1.844614     1.836971     1.829327     1.821684     1.814041     1.806398     1.798755     1.791112
      1.783469     1.775826     1.768183     1.760540     1.752896     1.745253     1.737610     1.729967     1.722324     1.714681
      1.707038     1.699395     1.691752     1.684108     1.676465     1.668822     1.661179     1.653536     1.645893     1.638250
      1.630607     1.622964     1.615321     1.607677     1.600034     1.592391     1.584748     1.577105     1.569462     1.561819
      1.554176     1.546533     1.538890     1.531246     1.523603     1.515960     1.508317     1.500674     1.493031     1.485388
      1.477745     1.470102     1.462458     1.454815     1.447172     1.439529     1.431886     1.424243     1.416600     1.408957
      1.401314     1.393671     1.386027     1.378384     1.370741     1.363098     1.355455     1.347812     1.340169     1.332526
      1.324883     1.317240     1.309596     1.301953     1.294310     1.286667     1.279024     1.271381     1.263738     1.256095
      1.248452     1.240808     1.233165     1.225522     1.217879     1.210236     1.202593     1.194950     1.187307     1.179664
      1.172021     1.164377     1.156734     1.149091     1.141448     1.133805     1.126162     1.118519     1.110876     1.103233
      1.095590     1.087946     1.080303     1.072660     1.065017     1.057374     1.049731     1.042088     1.034445     1.026802
      1.019158     1.011515     1.003872     0.996229     0.988586     0.980943     0.973300     0.965657     0.958014     0.950371
      0.942727     0.935084     0.927441     0.919798     0.912155     0.904512     0.896869     0.889226     0.881583     0.873940
      0.866296     0.858653     0.851010     0.843367     0.835724     0.828081     0.820438     0.812795     0.805152     0.797508
      0.789865     0.782222     0.774579     0.766936     0.759293     0.751650     0.744007     0.736364     0.728721     0.721077
      0.713434     0.705791     0.698148     0.690505     0.682862     0.675219     0.667576     0.659933     0.652290     0.644646
      0.637003     0.629360     0.621717     0.614074     0.606431     0.598788     0.591145     0.583502     0.575858     0.568215
      0.560572     0.552929     0.545286     0.537643     0.530000     0.522357     0.514714     0.507071     0.499427     0.491784
      0.484141     0.476498     0.468855     0.461212     0.453569     0.445925     0.438282     0.430639     0.422996     0.415353
      0.407710     0.400067     0.392424     0.384780     0.377137     0.369494     0.361851     0.354208     0.346565     0.338922
      0.331278     0.323635     0.315992     0.308349     0.300706     0.293063     0.285420     0.277777     0.270133     0.262490
      0.254847     0.247204     0.239561     0.231918     0.224275     0.216631     0.208988     0.201345
 NY phased data points follow
  -4.55869E+00  3.70298E+00  1.31815E+01  3.74097E+00 -1.30791E+00 -5.73373E+00  1.05914E+00  6.08308E+00  1.49868E+00  7.72030E+00
   2.45389E+00  1.18964E+01  4.27116E+00 -3.86243E+00 -8.50471E+00 -5.76569E+00  8.67345E-01 -3.85360E+00 -1.01220E+00 -9.57830E-01
  -1.88735E+00 -2.59185E+00 -6.61191E-01  1.91627E+00  4.60568E+00  1.57477E+00  3.05713E+00  4.80679E+00 -2.49879E+00  2.23307E+00
   1.05116E+00  3.82240E+00 -2.69209E+00 -1.35201E+01 -4.71988E+00 -1.13746E+01  1.03590E+01 -2.08226E+00  1.28964E+00  3.01090E+00
   3.16004E+00  3.20760E+00  2.39762E+00  3.50811E+00  1.64534E+01  7.70011E+00  8.37112E+00 -6.33877E+00 -3.20724E-01 -1.39670E+00
   2.46166E+00  2.31516E+00  1.81249E+00  1.48978E+00  9.12997E+00  5.47785E+00  5.96307E+00  1.62786E+00  1.84715E+00  1.41759E+00
  -3.60100E+00  5.81701E+00  3.35633E+00  6.10705E+00 -8.37433E-01  3.74142E-01  1.27281E+00  8.08148E-01  2.02989E+00  4.66063E+00
   1.81864E-02  6.73514E+00  5.54515E-01  3.20891E+00 -1.20392E+00  2.43596E+00  4.80204E+00  3.53721E+00  3.36258E-01 -1.79990E+00
   7.28597E+00  5.49566E+00 -2.41377E-01 -1.82321E+00 -2.34108E+00 -8.79429E-01  5.20246E+00  3.08364E+00 -5.97509E-01 -4.90074E+00
  -8.28125E-01 -3.68192E+00 -4.27950E+00 -1.60392E+00  3.83414E+00 -2.65492E+00 -7.36818E+00  8.14262E+00 -4.23045E+00  5.73059E+00
   7.26426E+00  6.51048E+00  1.02167E+01  8.73444E+00 -7.24863E-02  1.91959E+00 -8.35915E+00  8.21333E+00 -5.25951E+00  3.84650E+00
  -9.48534E-01 -1.33889E+00 -8.01940E-01  7.37653E+00 -2.71447E+00 -1.67668E+00 -6.94385E+00  4.09863E+00  5.29264E-01 -6.61249E-01
   5.91932E+00 -2.28702E+00 -4.11679E+00  2.09983E+00 -3.40936E+00  1.42285E+01  5.99305E+00  1.35919E+01  2.22697E+00 -5.68123E+00
  -6.18022E+00  2.19467E-01  4.49893E+00  1.61033E-01 -4.89651E+00  2.88803E+00 -1.42880E+00  1.43831E+00  7.47691E-01 -2.29612E+00
  -2.87356E+00  3.35179E+00  5.12352E+00 -4.55382E+00 -2.02177E-01 -2.86527E+00  2.63805E+00  1.01168E+00 -2.70620E+00  4.24913E+00
  -3.37292E-01 -5.56985E+00 -2.50451E+00  5.49699E+00 -1.78791E+00  3.45041E+00 -4.24986E+00 -8.55470E+00 -8.77197E+00 -1.34038E+00
  -4.99002E+00 -8.93731E+00 -2.81582E+00  9.79578E-01 -3.78949E+00 -6.94222E+00 -6.46025E+00 -8.54916E+00 -5.53591E+00 -1.08602E+01
   7.23115E+00  2.84356E-01 -3.74054E+00 -5.83923E+00 -1.48040E+01 -1.07720E+01 -5.16556E+00  1.52178E+00 -6.40490E-01 -1.13462E+01
  -3.82832E+00 -9.29184E+00 -1.30319E+01 -4.44883E+00 -5.83532E+00 -8.17182E+00 -1.88309E+00  1.12173E+00  7.24307E+00 -5.98366E+00
  -2.54431E+00 -4.82972E+00 -6.97575E+00 -9.59916E+00 -7.43951E+00 -2.93258E+00 -3.70654E+00 -5.63102E+00 -9.70145E-01  1.75346E+00
  -6.24527E+00 -1.27701E+01 -7.73842E+00 -5.43018E+00 -9.78408E+00 -8.70331E+00 -9.04768E+00 -8.47221E+00 -6.60755E+00  1.35945E-01
  -3.84358E+00 -7.39687E+00 -6.62898E+00 -9.30622E-01 -1.02188E+01 -5.67744E+00 -4.23894E+00 -1.03887E+01 -5.25520E+00 -5.24710E+00
  -1.02721E+01 -6.77340E+00 -7.80232E+00 -4.79123E+00 -1.48692E+01 -1.67694E-01 -7.95913E+00 -8.78368E+00 -6.35065E+00 -1.04297E+01
   4.43141E+00 -7.87608E+00  1.06094E+00 -8.83926E+00 -9.31716E+00 -1.41101E+00 -3.52418E+00 -5.95615E+00 -1.01956E+01 -1.31672E+01
  -6.79161E+00 -1.49234E+01 -1.68793E+01 -1.14018E+01 -6.02091E+00 -1.97290E+01 -1.13080E+01 -6.20050E+00 -9.69499E+00 -2.94284E+00
  -5.45767E+00 -7.84957E+00 -4.23524E+00 -9.10122E+00 -9.81637E+00 -3.36185E+00 -8.16998E+00 -1.32567E+01  1.19970E-01 -4.60020E+00
  -1.21049E+01 -1.36432E+01 -6.89650E+00 -2.62555E+00 -6.25137E+00 -5.09603E+00 -1.84496E+00  1.25336E+00 -8.38153E+00  2.65074E+00
  -6.06943E+00 -5.86455E+00 -3.23585E+00  5.66778E-01  1.12234E+00 -2.22233E+00 -2.53257E+00  2.91824E+00 -3.37482E+00 -3.24809E+00
   7.22381E-01 -9.90523E-01 -2.76721E+00 -1.20039E+01 -2.61393E+00  1.69691E+00 -4.92404E+00 -2.53018E+00 -7.75995E+00 -4.28708E+00
  -8.16300E+00 -9.36512E+00 -3.96818E+00 -9.00974E+00 -9.37665E+00 -1.36689E+01 -6.55314E+00 -3.56070E+00 -8.16207E+00 -4.57618E+00
   5.33872E+00  1.92372E+00  6.47350E+00  2.38966E+00 -2.54945E+00 -5.35877E+00 -4.23416E+00 -6.72303E+00 -8.18371E+00 -4.92717E+00
  -1.35278E+01 -1.51874E+01 -9.22077E+00 -1.42917E+01 -1.47829E+01 -6.96275E+00 -1.89377E+00 -5.28569E-01 -8.81711E+00 -1.79039E+00
  -1.39120E+01 -3.57537E+00 -5.43158E+00 -3.86124E+00 -7.85534E+00 -9.31989E+00  3.13782E+00  2.56411E+00  1.71830E+00  6.22031E+00
   6.44393E+00  1.22860E+01  6.17027E+00  2.65891E+00  4.62219E+00  7.69534E+00 -2.15123E+00  1.44797E+01  5.44431E+00  1.04441E+01
   4.92117E+00  7.10034E+00  5.46629E+00  8.13377E+00 -3.18007E+00  1.14755E+01  6.14343E+00 -7.69896E+00 -1.41624E+00 -4.74826E-01
  -3.50379E+00 -2.82323E-01  3.66476E+00  6.94906E+00  1.47647E+01  8.43941E+00  8.44604E+00 -6.52857E-01  1.08835E+01 -2.89345E+00
   1.62049E+01  1.41326E+01  9.28724E+00 -4.78679E-01  1.25792E+01  1.00580E+01  1.88328E+01  3.06464E+00  5.22344E+00  6.77019E+00
   4.80980E+00  1.07568E+01  3.88032E+00  1.97738E+00  3.21109E+00 -7.23597E+00 -6.17606E+00 -2.25835E+00  2.28858E+00  2.81469E+00
   5.02925E+00 -4.35294E-01  1.06950E+00  2.45379E+00  1.13003E+01 -1.53363E+00  2.52132E+00  3.57017E+00 -4.92998E-01  4.32126E+00
   1.88215E+00  2.29630E+00  5.21360E+00  2.12429E+00  4.28026E+00  2.60940E-01  1.37652E+01  4.05226E+00  4.20504E+00  4.10502E+00
   6.25850E+00  6.41185E+00  6.95017E+00 -1.91630E+00  5.96587E+00  2.41056E+00  5.97637E+00  5.88062E+00  6.09550E+00  3.08276E+00
  -7.52255E-01 -1.47860E-01  7.25951E+00  5.89647E+00  5.66632E+00  3.11556E+00  4.76722E+00  7.16870E+00  5.03947E+00  3.44665E+00
  -1.39959E+00  8.76439E+00  2.77489E+00  7.82733E+00 -2.53707E+00  2.25380E+00  5.93601E+00  6.24071E+00  7.34390E+00  7.04701E+00
   2.72762E-01 -2.37518E-01  4.62678E+00  4.51368E+00 -1.83586E-01  5.81145E+00  2.95249E+00  1.04888E+01  2.07153E+00 -1.72264E+00
  -1.65080E+00  4.02581E+00  1.22451E+01  1.20924E+01  6.93293E+00  1.59728E+01  1.43973E+00  8.63185E+00  6.33395E+00  1.68950E+01
   4.54551E+00  4.37037E+00  2.99663E+00  1.10610E+01  1.33898E+00  6.79794E+00  7.41938E+00  4.90792E+00  2.12411E+00  8.53311E+00
   7.26853E+00  4.04199E+00  6.29680E+00  4.36462E+00  8.02687E+00  1.16207E+01  4.35742E+00  4.67840E+00  1.13111E+01 -2.32290E+00
   4.79725E+00  4.47277E+00  1.06480E+01  3.42255E+00  6.41938E-01  2.32724E+00  1.53935E+01  5.36999E+00  4.53162E-01  7.64825E+00
  -7.26145E-01  2.25150E-02 -4.40903E+00  9.37898E-01 -1.53200E+00  7.73604E+00  3.63510E+00 -1.35763E+00  2.87917E+00  1.82540E+00
   2.52734E+00  5.87732E+00  1.28353E+01  3.32232E+00  6.56208E+00  1.08267E-01  5.05649E-01  1.01514E+01
 NY points of the fit to the data follow
   1.83483E+00  1.84118E+00  1.84688E+00  1.85202E+00  1.85704E+00  1.86247E+00  1.86878E+00  1.87618E+00  1.88454E+00  1.89326E+00
   1.90137E+00  1.90747E+00  1.91045E+00  1.91374E+00  1.92571E+00  1.95402E+00  2.00176E+00  2.06454E+00  2.12831E+00  2.17240E+00
   2.16968E+00  2.09723E+00  1.96877E+00  1.83378E+00  1.76830E+00  1.81829E+00  1.94936E+00  2.08128E+00  2.10802E+00  1.91947E+00
   1.45858E+00  7.75508E-01  1.26764E-02 -6.03081E-01 -8.47770E-01 -6.82418E-01 -2.31227E-01  2.45195E-01  6.05732E-01  8.75105E-01
   1.02758E+00  1.07532E+00  1.07177E+00  1.06513E+00  1.07361E+00  1.09335E+00  1.10345E+00  1.09852E+00  1.10070E+00  1.10913E+00
   1.11829E+00  1.12648E+00  1.13323E+00  1.13841E+00  1.14207E+00  1.14431E+00  1.14525E+00  1.14502E+00  1.14371E+00  1.14142E+00
   1.13821E+00  1.13415E+00  1.12932E+00  1.12377E+00  1.11752E+00  1.11061E+00  1.10306E+00  1.09490E+00  1.08608E+00  1.07653E+00
   1.06622E+00  1.05520E+00  1.04360E+00  1.03164E+00  1.01956E+00  1.00753E+00  9.95618E-01  9.83735E-01  9.71711E-01  9.59340E-01
   9.46275E-01  9.30145E-01  9.06645E-01  8.72898E-01  8.28261E-01  7.74895E-01  7.18209E-01  6.66573E-01  6.28803E-01  6.10341E-01
   6.10788E-01  6.23604E-01  6.36918E-01  6.37078E-01  6.22689E-01  6.02177E-01  5.78486E-01  5.52363E-01  5.24030E-01  4.93517E-01
   4.60766E-01  4.25668E-01  3.88081E-01  3.47833E-01  3.04738E-01  2.58608E-01  2.09264E-01  1.56541E-01  1.00285E-01  4.03514E-02
  -2.33899E-02 -9.10615E-02 -1.62818E-01 -2.38963E-01 -3.19633E-01 -4.03357E-01 -4.87778E-01 -5.70509E-01 -6.49473E-01 -7.23950E-01
  -7.96291E-01 -8.70785E-01 -9.52001E-01 -1.04303E+00 -1.14412E+00 -1.25187E+00 -1.35913E+00 -1.45941E+00 -1.55986E+00 -1.67494E+00
  -1.80657E+00 -1.94119E+00 -2.05214E+00 -2.09956E+00 -2.05187E+00 -1.90501E+00 -1.69024E+00 -1.47530E+00 -1.33686E+00 -1.33510E+00
  -1.48787E+00 -1.73786E+00 -1.96745E+00 -2.09951E+00 -2.11378E+00 -2.02611E+00 -1.88822E+00 -1.75316E+00 -1.64790E+00 -1.58256E+00
  -1.53253E+00 -1.48637E+00 -1.44321E+00 -1.40633E+00 -1.38010E+00 -1.36837E+00 -1.36979E+00 -1.37506E+00 -1.37643E+00 -1.37109E+00
  -1.36140E+00 -1.35223E+00 -1.35072E+00 -1.36524E+00 -1.39462E+00 -1.42844E+00 -1.45435E+00 -1.46233E+00 -1.45087E+00 -1.43448E+00
  -1.42685E+00 -1.43143E+00 -1.44358E+00 -1.45171E+00 -1.45484E+00 -1.45968E+00 -1.47111E+00 -1.49345E+00 -1.52924E+00 -1.57692E+00
  -1.62805E+00 -1.67119E+00 -1.69879E+00 -1.71644E+00 -1.74642E+00 -1.81312E+00 -1.92645E+00 -2.08969E+00 -2.29424E+00 -2.51967E+00
  -2.72559E+00 -2.85479E+00 -2.85429E+00 -2.71414E+00 -2.47937E+00 -2.23884E+00 -2.09227E+00 -2.11914E+00 -2.35116E+00 -2.75722E+00
  -3.25590E+00 -3.74441E+00 -4.12725E+00 -4.31633E+00 -4.27102E+00 -4.01415E+00 -3.64114E+00 -3.25398E+00 -2.95636E+00 -2.82993E+00
  -2.91957E+00 -3.23269E+00 -3.72667E+00 -4.29151E+00 -4.80800E+00 -5.18659E+00 -5.38110E+00 -5.42768E+00 -5.45358E+00 -5.50599E+00
  -5.56167E+00 -5.62070E+00 -5.68795E+00 -5.76064E+00 -5.83361E+00 -5.90161E+00 -5.95735E+00 -5.99602E+00 -6.02404E+00 -6.05607E+00
  -6.10630E+00 -6.18437E+00 -6.31103E+00 -6.50517E+00 -6.76095E+00 -7.05301E+00 -7.34821E+00 -7.59860E+00 -7.75215E+00 -7.79441E+00
  -7.74118E+00 -7.60409E+00 -7.41187E+00 -7.24188E+00 -7.19310E+00 -7.26533E+00 -7.41145E+00 -7.60307E+00 -7.78485E+00 -7.87478E+00
  -7.84906E+00 -7.74403E+00 -7.58908E+00 -7.40703E+00 -7.24288E+00 -7.18925E+00 -7.29007E+00 -7.49626E+00 -7.68201E+00 -7.67555E+00
  -7.31739E+00 -6.51179E+00 -5.29054E+00 -3.83775E+00 -2.43887E+00 -1.38423E+00 -8.74036E-01 -8.92072E-01 -1.06779E+00 -1.17602E+00
  -1.24100E+00 -1.28850E+00 -1.33104E+00 -1.37437E+00 -1.42165E+00 -1.47439E+00 -1.53338E+00 -1.59997E+00 -1.67573E+00 -1.76166E+00
  -1.85872E+00 -1.96761E+00 -2.08860E+00 -2.22118E+00 -2.36362E+00 -2.51385E+00 -2.67003E+00 -2.83006E+00 -2.99172E+00 -3.15325E+00
  -3.31310E+00 -3.46976E+00 -3.62171E+00 -3.76713E+00 -3.90428E+00 -4.03184E+00 -4.14881E+00 -4.25444E+00 -4.34851E+00 -4.43165E+00
  -4.50504E+00 -4.57054E+00 -4.63071E+00 -4.68857E+00 -4.74740E+00 -4.81052E+00 -4.88095E+00 -4.96111E+00 -5.05251E+00 -5.15542E+00
  -5.26864E+00 -5.38930E+00 -5.51276E+00 -5.63257E+00 -5.74063E+00 -5.82757E+00 -5.88314E+00 -5.89683E+00 -5.85858E+00 -5.75949E+00
  -5.59256E+00 -5.35115E+00 -5.00517E+00 -4.47403E+00 -3.69611E+00 -2.65738E+00 -1.40066E+00 -3.17752E-02  1.27921E+00  2.31606E+00
   2.87086E+00  2.87678E+00  2.44045E+00  1.81892E+00  1.36841E+00  1.34311E+00  1.68738E+00  2.32543E+00  3.14213E+00  3.95209E+00
   4.53697E+00  4.70843E+00  4.44601E+00  3.99351E+00  3.48200E+00  2.94345E+00  2.41107E+00  1.92838E+00  1.54710E+00  1.32180E+00
   1.30189E+00  1.52185E+00  1.99183E+00  2.69125E+00  3.56752E+00  4.54139E+00  5.51829E+00  6.40339E+00  7.11695E+00  7.60622E+00
   7.85139E+00  7.86456E+00  7.68295E+00  7.35852E+00  6.94709E+00  6.49925E+00  6.05459E+00  5.63951E+00  5.26801E+00  4.94420E+00
   4.66558E+00  4.42610E+00  4.21847E+00  4.03572E+00  3.87205E+00  3.72307E+00  3.58584E+00  3.45864E+00  3.34076E+00  3.23231E+00
   3.13407E+00  3.04732E+00  2.97381E+00  2.91561E+00  2.87507E+00  2.85476E+00  2.85738E+00  2.88566E+00  2.94226E+00  3.02966E+00
   3.14995E+00  3.30474E+00  3.49500E+00  3.72088E+00  3.98158E+00  4.27524E+00  4.59889E+00  4.94843E+00  5.31868E+00  5.70348E+00
   6.09587E+00  6.48834E+00  6.87305E+00  7.24220E+00  7.58832E+00  7.90458E+00  8.18507E+00  8.42502E+00  8.62095E+00  8.77083E+00
   8.87401E+00  8.93126E+00  8.94454E+00  8.91689E+00  8.85223E+00  8.75507E+00  8.63031E+00  8.48301E+00  8.31815E+00  8.14046E+00
   7.95435E+00  7.76371E+00  7.57194E+00  7.38187E+00  7.19579E+00  7.01545E+00  6.84217E+00  6.67684E+00  6.51998E+00  6.37186E+00
   6.23248E+00  6.10168E+00  5.97919E+00  5.86463E+00  5.75757E+00  5.65755E+00  5.56412E+00  5.47680E+00  5.39515E+00  5.31875E+00
   5.24720E+00  5.18014E+00  5.11721E+00  5.05809E+00  5.00252E+00  4.95022E+00  4.90095E+00  4.85450E+00  4.81065E+00  4.76923E+00
   4.73007E+00  4.69302E+00  4.65794E+00  4.62470E+00  4.59317E+00  4.56326E+00  4.53487E+00  4.50790E+00  4.48226E+00  4.45788E+00
   4.43467E+00  4.41258E+00  4.39154E+00  4.37150E+00  4.35238E+00  4.33415E+00  4.31675E+00  4.30015E+00  4.28429E+00  4.26914E+00
   4.25465E+00  4.24079E+00  4.22753E+00  4.21483E+00  4.20268E+00  4.19103E+00  4.17986E+00  4.16914E+00  4.15885E+00  4.14898E+00
   4.13949E+00  4.13036E+00  4.12157E+00  4.11310E+00  4.10495E+00  4.09708E+00  4.08948E+00  4.08214E+00  4.07504E+00  4.06816E+00
   4.06150E+00  4.05504E+00  4.04876E+00  4.04265E+00  4.03671E+00  4.03092E+00  4.02527E+00  4.01975E+00
 NY background values follow
     3.114E-01    3.140E-01    3.165E-01    3.188E-01    3.209E-01    3.229E-01    3.247E-01    3.264E-01    3.278E-01    3.292E-01
     3.304E-01    3.314E-01    3.322E-01    3.329E-01    3.335E-01    3.339E-01    3.341E-01    3.342E-01    3.341E-01    3.339E-01
     3.335E-01    3.330E-01    3.323E-01    3.315E-01    3.305E-01    3.294E-01    3.281E-01    3.267E-01    3.251E-01    3.234E-01
     3.216E-01    3.196E-01    3.174E-01    3.151E-01    3.127E-01    3.102E-01    3.075E-01    3.046E-01    3.016E-01    2.985E-01
     2.953E-01    2.919E-01    2.884E-01    2.847E-01    2.810E-01    2.771E-01    2.730E-01    2.689E-01    2.646E-01    2.602E-01
     2.557E-01    2.510E-01    2.462E-01    2.413E-01    2.363E-01    2.312E-01    2.260E-01    2.206E-01    2.151E-01    2.096E-01
     2.039E-01    1.981E-01    1.922E-01    1.862E-01    1.800E-01    1.738E-01    1.675E-01    1.611E-01    1.546E-01    1.480E-01
     1.412E-01    1.344E-01    1.275E-01    1.206E-01    1.135E-01    1.063E-01    9.907E-02    9.174E-02    8.432E-02    7.682E-02
     6.924E-02    6.159E-02    5.386E-02    4.605E-02    3.817E-02    3.022E-02    2.220E-02    1.411E-02    5.959E-03   -2.259E-03
    -1.054E-02   -1.888E-02   -2.728E-02   -3.574E-02   -4.425E-02   -5.282E-02   -6.144E-02   -7.011E-02   -7.883E-02   -8.759E-02
    -9.640E-02   -1.053E-01   -1.141E-01   -1.231E-01   -1.321E-01   -1.411E-01   -1.501E-01   -1.592E-01   -1.683E-01   -1.774E-01
    -1.866E-01   -1.957E-01   -2.049E-01   -2.142E-01   -2.234E-01   -2.327E-01   -2.420E-01   -2.512E-01   -2.605E-01   -2.699E-01
    -2.792E-01   -2.885E-01   -2.978E-01   -3.071E-01   -3.165E-01   -3.258E-01   -3.351E-01   -3.444E-01   -3.537E-01   -3.630E-01
    -3.723E-01   -3.816E-01   -3.909E-01   -4.001E-01   -4.093E-01   -4.185E-01   -4.277E-01   -4.368E-01   -4.460E-01   -4.551E-01
    -4.641E-01   -4.732E-01   -4.822E-01   -4.911E-01   -5.000E-01   -5.089E-01   -5.178E-01   -5.266E-01   -5.353E-01   -5.440E-01
    -5.527E-01   -5.613E-01   -5.698E-01   -5.783E-01   -5.867E-01   -5.951E-01   -6.034E-01   -6.117E-01   -6.198E-01   -6.280E-01
    -6.360E-01   -6.440E-01   -6.519E-01   -6.597E-01   -6.675E-01   -6.752E-01   -6.828E-01   -6.903E-01   -6.977E-01   -7.051E-01
    -7.124E-01   -7.195E-01   -7.266E-01   -7.336E-01   -7.405E-01   -7.473E-01   -7.541E-01   -7.607E-01   -7.672E-01   -7.736E-01
    -7.799E-01   -7.861E-01   -7.922E-01   -7.982E-01   -8.041E-01   -8.099E-01   -8.155E-01   -8.211E-01   -8.265E-01   -8.318E-01
    -8.370E-01   -8.421E-01   -8.470E-01   -8.518E-01   -8.565E-01   -8.611E-01   -8.655E-01   -8.699E-01   -8.740E-01   -8.781E-01
    -8.820E-01   -8.858E-01   -8.894E-01   -8.929E-01   -8.963E-01   -8.995E-01   -9.026E-01   -9.056E-01   -9.084E-01   -9.110E-01
    -9.135E-01   -9.159E-01   -9.181E-01   -9.201E-01   -9.220E-01   -9.238E-01   -9.254E-01   -9.268E-01   -9.281E-01   -9.292E-01
    -9.302E-01   -9.310E-01   -9.316E-01   -9.321E-01   -9.324E-01   -9.326E-01   -9.326E-01   -9.324E-01   -9.321E-01   -9.316E-01
    -9.309E-01   -9.301E-01   -9.290E-01   -9.278E-01   -9.265E-01   -9.250E-01   -9.233E-01   -9.214E-01   -9.193E-01   -9.171E-01
    -9.147E-01   -9.121E-01   -9.093E-01   -9.064E-01   -9.033E-01   -9.000E-01   -8.965E-01   -8.928E-01   -8.890E-01   -8.850E-01
    -8.808E-01   -8.764E-01   -8.718E-01   -8.670E-01   -8.621E-01   -8.570E-01   -8.517E-01   -8.462E-01   -8.405E-01   -8.346E-01
    -8.286E-01   -8.223E-01   -8.159E-01   -8.093E-01   -8.025E-01   -7.955E-01   -7.883E-01   -7.810E-01   -7.734E-01   -7.657E-01
    -7.577E-01   -7.496E-01   -7.413E-01   -7.328E-01   -7.242E-01   -7.153E-01   -7.062E-01   -6.970E-01   -6.876E-01   -6.779E-01
    -6.681E-01   -6.582E-01   -6.480E-01   -6.376E-01   -6.271E-01   -6.163E-01   -6.054E-01   -5.943E-01   -5.830E-01   -5.715E-01
    -5.599E-01   -5.480E-01   -5.360E-01   -5.238E-01   -5.114E-01   -4.988E-01   -4.861E-01   -4.731E-01   -4.600E-01   -4.467E-01
    -4.333E-01   -4.196E-01   -4.058E-01   -3.918E-01   -3.776E-01   -3.632E-01   -3.487E-01   -3.340E-01   -3.191E-01   -3.041E-01
    -2.888E-01   -2.734E-01   -2.579E-01   -2.421E-01   -2.262E-01   -2.102E-01   -1.939E-01   -1.775E-01   -1.610E-01   -1.443E-01
    -1.274E-01   -1.103E-01   -9.313E-02   -7.577E-02   -5.825E-02   -4.058E-02   -2.275E-02   -4.763E-03    1.337E-02    3.166E-02
     5.009E-02    6.868E-02    8.741E-02    1.063E-01    1.253E-01    1.445E-01    1.638E-01    1.832E-01    2.028E-01    2.225E-01
     2.424E-01    2.624E-01    2.825E-01    3.027E-01    3.231E-01    3.436E-01    3.642E-01    3.850E-01    4.059E-01    4.269E-01
     4.480E-01    4.692E-01    4.906E-01    5.121E-01    5.336E-01    5.553E-01    5.771E-01    5.990E-01    6.211E-01    6.432E-01
     6.654E-01    6.877E-01    7.101E-01    7.326E-01    7.552E-01    7.779E-01    8.007E-01    8.236E-01    8.465E-01    8.695E-01
     8.927E-01    9.159E-01    9.391E-01    9.625E-01    9.859E-01    1.009E+00    1.033E+00    1.057E+00    1.080E+00    1.104E+00
     1.128E+00    1.152E+00    1.176E+00    1.200E+00    1.224E+00    1.248E+00    1.272E+00    1.296E+00    1.320E+00    1.345E+00
     1.369E+00    1.393E+00    1.418E+00    1.442E+00    1.466E+00    1.491E+00    1.515E+00    1.540E+00    1.564E+00    1.589E+00
     1.613E+00    1.638E+00    1.662E+00    1.687E+00    1.712E+00    1.736E+00    1.761E+00    1.785E+00    1.810E+00    1.834E+00
     1.859E+00    1.883E+00    1.908E+00    1.932E+00    1.957E+00    1.981E+00    2.006E+00    2.030E+00    2.055E+00    2.079E+00
     2.103E+00    2.127E+00    2.152E+00    2.176E+00    2.200E+00    2.224E+00    2.248E+00    2.272E+00    2.296E+00    2.320E+00
     2.343E+00    2.367E+00    2.391E+00    2.414E+00    2.438E+00    2.461E+00    2.484E+00    2.508E+00    2.531E+00    2.554E+00
     2.577E+00    2.600E+00    2.623E+00    2.645E+00    2.668E+00    2.690E+00    2.713E+00    2.735E+00    2.757E+00    2.779E+00
     2.801E+00    2.823E+00    2.845E+00    2.866E+00    2.888E+00    2.909E+00    2.930E+00    2.952E+00    2.972E+00    2.993E+00
     3.014E+00    3.034E+00    3.055E+00    3.075E+00    3.095E+00    3.115E+00    3.135E+00    3.154E+00    3.174E+00    3.193E+00
     3.212E+00    3.231E+00    3.250E+00    3.268E+00    3.287E+00    3.305E+00    3.323E+00    3.341E+00    3.358E+00    3.376E+00
     3.393E+00    3.410E+00    3.427E+00    3.444E+00    3.460E+00    3.476E+00    3.492E+00    3.508E+00    3.524E+00    3.539E+00
     3.555E+00    3.570E+00    3.584E+00    3.599E+00    3.613E+00    3.627E+00    3.641E+00    3.655E+00
 Ala      Conc. = 1.56E+02
