 LCModel (Version 6.3-1L) Copyright: S.W. Provencher.          Ref.: Magn. Reson. Med. 30:672-679 (1993).                
 Slice#2 Row#4 Col#6  PD_05_press_2_raw_act
 36 lines in following concentration table = NCONC+1
    Conc.  %SD /Cr+PCr  Metabolite                                         
   62.462 680% 2.1E-02 Ala                                                 
  521.041 107%   0.173 Asp                                                 
  444.196 176%   0.147 Cr                                                  
 2.57E+03  31%   0.853 PCr                                                 
  168.880 210% 5.6E-02 GABA                                                
  247.534 142% 8.2E-02 Glc                                                 
 1.05E+03  82%   0.349 Gln                                                 
 2.57E+03  38%   0.853 Glu                                                 
 1.36E+03   6%   0.451 GPC                                                 
    0.000 999%   0.000 PCh                                                 
  585.556  46%   0.194 GSH                                                 
 3.00E+03  29%   0.993 Ins                                                 
   78.944 597% 2.6E-02 Lac                                                 
 3.90E+03  10%   1.292 NAA                                                 
 1.02E+03  40%   0.338 NAAG                                                
  238.286  35% 7.9E-02 Scyllo                                              
  357.306 147%   0.118 Tau                                                 
  641.119  54%   0.212 -CrCH2                                              
 1.36E+03   6%   0.451 GPC+PCh                                             
 4.92E+03   6%   1.630 NAA+NAAG                                            
 3.02E+03   7%   1.000 Cr+PCr                                              
 3.63E+03  38%   1.201 Glu+Gln                                             
 8.36E+03  28%   2.769 Lip13a                                              
   81.645 999% 2.7E-02 Lip13b                                              
 1.24E+03  80%   0.411 Lip09                                               
 2.81E+03  34%   0.932 MM09                                                
 1.32E+03  55%   0.437 Lip20                                               
 5.38E+03  25%   1.781 MM20                                                
  850.764  60%   0.282 MM12                                                
 3.62E+03  37%   1.198 MM14                                                
 2.15E+03  30%   0.714 MM17                                                
 8.44E+03  23%   2.796 Lip13a+Lip13b                                       
 1.29E+04  10%   4.276 MM14+Lip13a+Lip13b+MM12                             
 4.05E+03  14%   1.343 MM09+Lip09                                          
 6.70E+03  18%   2.218 MM20+Lip20                                          
   6 lines in following misc. output table
  FWHM = 0.054 ppm    S/N =   6                                            
  Data shift = 0.031 ppm                                                   
  Ph: -43 deg      -8.4 deg/ppm                                            
  alphaB,S = 8.5E+01,   1.0E+02                                            
   14 spline knots.   Ns = 7(1)                                            
   2 inflections.     1 extrema                                            
  498 points on ppm-axis = NY
      4.000000     3.992357     3.984714     3.977070     3.969427     3.961784     3.954141     3.946497     3.938854     3.931211
      3.923568     3.915925     3.908281     3.900638     3.892995     3.885352     3.877708     3.870065     3.862422     3.854779
      3.847136     3.839492     3.831849     3.824206     3.816563     3.808919     3.801276     3.793633     3.785990     3.778347
      3.770703     3.763060     3.755417     3.747774     3.740130     3.732487     3.724844     3.717201     3.709558     3.701914
      3.694271     3.686628     3.678985     3.671341     3.663698     3.656055     3.648412     3.640769     3.633125     3.625482
      3.617839     3.610196     3.602552     3.594909     3.587266     3.579623     3.571980     3.564336     3.556693     3.549050
      3.541407     3.533763     3.526120     3.518477     3.510834     3.503191     3.495547     3.487904     3.480261     3.472618
      3.464974     3.457331     3.449688     3.442045     3.434402     3.426758     3.419115     3.411472     3.403829     3.396185
      3.388542     3.380899     3.373256     3.365613     3.357969     3.350326     3.342683     3.335040     3.327396     3.319753
      3.312110     3.304467     3.296824     3.289180     3.281537     3.273894     3.266251     3.258607     3.250964     3.243321
      3.235678     3.228034     3.220391     3.212748     3.205105     3.197462     3.189818     3.182175     3.174532     3.166889
      3.159245     3.151602     3.143959     3.136316     3.128673     3.121029     3.113386     3.105743     3.098100     3.090456
      3.082813     3.075170     3.067527     3.059884     3.052240     3.044597     3.036954     3.029311     3.021667     3.014024
      3.006381     2.998738     2.991095     2.983451     2.975808     2.968165     2.960522     2.952878     2.945235     2.937592
      2.929949     2.922306     2.914662     2.907019     2.899376     2.891733     2.884089     2.876446     2.868803     2.861160
      2.853517     2.845873     2.838230     2.830587     2.822944     2.815300     2.807657     2.800014     2.792371     2.784728
      2.777084     2.769441     2.761798     2.754155     2.746511     2.738868     2.731225     2.723582     2.715939     2.708295
      2.700652     2.693009     2.685366     2.677722     2.670079     2.662436     2.654793     2.647150     2.639506     2.631863
      2.624220     2.616577     2.608933     2.601290     2.593647     2.586004     2.578361     2.570717     2.563074     2.555431
      2.547788     2.540144     2.532501     2.524858     2.517215     2.509572     2.501928     2.494285     2.486642     2.478999
      2.471355     2.463712     2.456069     2.448426     2.440783     2.433139     2.425496     2.417853     2.410210     2.402566
      2.394923     2.387280     2.379637     2.371994     2.364350     2.356707     2.349064     2.341421     2.333777     2.326134
      2.318491     2.310848     2.303205     2.295561     2.287918     2.280275     2.272632     2.264988     2.257345     2.249702
      2.242059     2.234416     2.226772     2.219129     2.211486     2.203843     2.196199     2.188556     2.180913     2.173270
      2.165627     2.157983     2.150340     2.142697     2.135054     2.127410     2.119767     2.112124     2.104481     2.096838
      2.089194     2.081551     2.073908     2.066265     2.058621     2.050978     2.043335     2.035692     2.028049     2.020405
      2.012762     2.005119     1.997476     1.989833     1.982190     1.974546     1.966903     1.959260     1.951617     1.943974
      1.936331     1.928688     1.921045     1.913402     1.905759     1.898115     1.890472     1.882829     1.875186     1.867543
      1.859900     1.852257     1.844614     1.836971     1.829327     1.821684     1.814041     1.806398     1.798755     1.791112
      1.783469     1.775826     1.768183     1.760540     1.752896     1.745253     1.737610     1.729967     1.722324     1.714681
      1.707038     1.699395     1.691752     1.684108     1.676465     1.668822     1.661179     1.653536     1.645893     1.638250
      1.630607     1.622964     1.615321     1.607677     1.600034     1.592391     1.584748     1.577105     1.569462     1.561819
      1.554176     1.546533     1.538890     1.531246     1.523603     1.515960     1.508317     1.500674     1.493031     1.485388
      1.477745     1.470102     1.462458     1.454815     1.447172     1.439529     1.431886     1.424243     1.416600     1.408957
      1.401314     1.393671     1.386027     1.378384     1.370741     1.363098     1.355455     1.347812     1.340169     1.332526
      1.324883     1.317240     1.309596     1.301953     1.294310     1.286667     1.279024     1.271381     1.263738     1.256095
      1.248452     1.240808     1.233165     1.225522     1.217879     1.210236     1.202593     1.194950     1.187307     1.179664
      1.172021     1.164377     1.156734     1.149091     1.141448     1.133805     1.126162     1.118519     1.110876     1.103233
      1.095590     1.087946     1.080303     1.072660     1.065017     1.057374     1.049731     1.042088     1.034445     1.026802
      1.019158     1.011515     1.003872     0.996229     0.988586     0.980943     0.973300     0.965657     0.958014     0.950371
      0.942727     0.935084     0.927441     0.919798     0.912155     0.904512     0.896869     0.889226     0.881583     0.873940
      0.866296     0.858653     0.851010     0.843367     0.835724     0.828081     0.820438     0.812795     0.805152     0.797508
      0.789865     0.782222     0.774579     0.766936     0.759293     0.751650     0.744007     0.736364     0.728721     0.721077
      0.713434     0.705791     0.698148     0.690505     0.682862     0.675219     0.667576     0.659933     0.652290     0.644646
      0.637003     0.629360     0.621717     0.614074     0.606431     0.598788     0.591145     0.583502     0.575858     0.568215
      0.560572     0.552929     0.545286     0.537643     0.530000     0.522357     0.514714     0.507071     0.499427     0.491784
      0.484141     0.476498     0.468855     0.461212     0.453569     0.445925     0.438282     0.430639     0.422996     0.415353
      0.407710     0.400067     0.392424     0.384780     0.377137     0.369494     0.361851     0.354208     0.346565     0.338922
      0.331278     0.323635     0.315992     0.308349     0.300706     0.293063     0.285420     0.277777     0.270133     0.262490
      0.254847     0.247204     0.239561     0.231918     0.224275     0.216631     0.208988     0.201345
 NY phased data points follow
  -6.41352E+01 -2.39092E+01 -1.56066E+01 -1.69673E+01 -2.64773E+00  4.35725E+01  1.71593E+01  1.40488E+01  2.74446E+01  4.82469E+01
   4.77046E+01  2.94623E+01  2.63419E+01  3.83866E+01  1.60676E+01 -2.23327E+01 -5.36828E+00 -1.25937E+01 -9.23395E+00 -2.46450E+00
  -2.98426E+01 -1.67068E+01 -3.83470E+00 -4.56968E+00  2.17186E+00  9.81189E+00  1.04175E+01  3.36369E+00 -4.67945E+00 -9.98492E+00
   9.75907E+00  6.15704E+00  1.46733E+01 -6.16130E+00 -1.56924E+01 -1.30796E+01 -2.26977E+00  1.10700E+01 -5.37336E+00  1.55286E+01
   7.50920E+00  8.04031E+00  9.35797E+00  2.36352E+01  2.93189E+01  7.15995E+00  9.13480E+00  3.41034E+01  3.67541E+01  1.11896E+01
  -6.89021E+00  3.08242E+00  7.78211E+00 -3.28266E-01  1.51627E+01 -1.91575E+01  1.75203E+01  1.16759E+01  3.08037E+00  1.02843E+01
   8.20968E+00  3.23903E+00 -1.45508E+01 -2.79020E+01 -2.01613E+01 -2.07637E+01 -1.47493E+01 -1.25333E+01 -5.69380E+00 -2.55065E+01
  -3.14876E+01 -1.38425E+01 -7.15172E+00 -7.43547E-01 -1.31752E+01  1.10727E+01 -1.64246E+01  9.92380E-01 -1.46157E-01 -1.02260E+01
  -1.97389E+00 -1.83337E+01 -1.54430E+01 -5.65440E+00 -1.71676E+01 -1.03532E+00 -7.87399E+00  1.19115E+01  3.01213E+00  2.77460E+00
   1.49111E+01  1.26858E+01  1.15504E+01  1.66084E+01 -7.15775E+00  7.54776E-01  1.23923E+01  4.01399E+01  4.33887E+01  4.30605E+01
   7.15938E+01  9.08592E+01  1.07094E+02  1.21987E+02  1.18299E+02  1.06305E+02  4.37905E+01  2.97624E+01  3.01968E+01  2.76694E+01
   4.52895E+00  7.95773E+00 -7.59450E+00  1.35716E+01  1.39252E+01  1.26557E+01  2.39125E+01  7.58338E+00 -9.79518E+00  1.32776E+01
   1.52021E+01  7.03942E+00  2.57791E+01  3.60204E+01  7.47108E+01  7.91758E+01  9.57481E+01  1.11250E+02  8.80551E+01  5.59123E+01
   6.20387E+01  3.17999E+01  2.21392E+01  2.55248E+01  8.96355E+00  1.97401E+01 -4.98808E+00  5.37609E+00  6.32054E+00  6.87779E+00
  -2.89006E+00 -2.68839E-01 -9.42560E+00  6.74058E+00 -2.47996E+01  8.40386E+00  1.75556E+01 -1.40796E+01 -2.76602E+00  7.79106E+00
  -6.55469E+00  1.07667E+01 -2.72784E+00 -5.27571E+00  8.68653E+00 -1.32940E+01 -1.96100E+01  2.52997E+01 -7.03858E+00 -1.24500E+01
   9.05931E+00 -6.18863E+00 -3.48387E+01 -2.99488E-02  3.02430E+00 -2.65687E+00 -4.61647E+00  1.97335E+01  2.01551E+00  9.47209E+00
  -5.18438E+01 -1.80946E+01 -1.17917E+01 -2.32513E+01 -1.55590E+01 -2.82918E+01 -1.57912E+01 -3.09647E+01 -1.32017E+01 -2.04141E+01
  -1.81203E+01 -1.89958E+01 -2.13732E+01 -8.34843E+00 -1.13534E+01 -2.77953E+01  8.34017E+00 -1.23256E+01 -2.38887E+00 -5.97677E+00
  -1.94552E+01 -1.35542E+01 -7.88253E+00  3.39193E+00  1.97449E+00 -1.64224E+01  2.21881E+00 -7.38556E+00 -1.53728E+01  1.21871E+01
  -1.27102E+01 -6.48213E+00  2.24124E+01 -4.05437E-01  1.05712E+01 -1.30513E+00  1.11431E+01  1.38740E+01 -1.49289E+01  3.42972E+00
  -1.52586E+00  1.07193E+01  1.53703E-01  1.21056E+01  2.03340E+01  4.43802E+01 -1.10170E+01  1.82944E+01  3.21701E+01 -7.56576E+00
  -3.77253E+00  4.74771E+00  8.43640E+00 -1.67748E+00  4.76640E-01  7.21775E-01  2.14399E+01  1.62230E+01  2.15518E+01  9.21093E+00
   1.59714E+01  2.27747E+01  2.58041E+01  2.87654E+01  2.01522E+01  1.93423E+00  1.55859E+01  3.43096E+01  1.05207E+01  1.02398E+01
   1.49395E+01  2.45294E+01  9.70886E+00  1.44075E+01  5.23137E+00  3.85865E+01  2.13622E+01  1.21439E+01  2.99689E+01  4.89498E+01
   3.44674E+01  6.22111E+01  5.87606E+01  7.76233E+01  9.48555E+01  9.87363E+01  1.03571E+02  1.21877E+02  1.54744E+02  1.67492E+02
   1.79722E+02  1.57675E+02  1.37153E+02  1.07166E+02  5.73276E+01  5.06876E+01  4.62434E+01  3.75316E+01  2.26626E+01  2.16367E+01
   3.81780E+01  1.91855E+01  2.87696E+01  4.14374E+00  5.29253E+00  3.89799E+01  2.04731E+01  2.55831E+01  1.13030E+01  1.90513E+01
   4.20953E+00  2.08417E+01  3.02295E+01  2.60118E+01  7.95553E-01  3.38073E+01 -1.15915E+01  1.89224E+01 -1.52101E-01  1.09934E+01
   1.23030E+01  2.30064E+01  2.10988E+01  3.63085E+01  2.46232E+01  1.63398E+01  3.78024E+01  2.79183E+01  2.21073E+01  1.29329E+01
  -5.05567E-01  2.58450E+01  1.87341E+01  1.76414E+01  2.18329E+01  4.04752E+01  3.66537E+01  2.12956E+01  2.54969E+01  2.65819E+01
   3.16579E+01  2.26992E+01  9.10543E+00  3.11218E+01  8.36323E+00  1.32559E+01  3.85995E+01  4.26261E+01  3.12615E+01  1.93788E+01
   2.02684E+01  2.82555E+01  2.04671E+01  1.69502E+01  5.09664E+01  1.61657E+01  7.44125E+00 -5.05280E+00  5.48688E+01  2.50301E+01
   2.15988E+01  2.81030E+01  3.92475E+01  5.93754E+01  4.89562E+01  3.70145E+01  4.21664E+01  4.53482E+01  5.18713E+01  4.98914E+01
   5.97360E+01  4.50267E+01  4.30658E+01  5.17878E+01  5.82824E+01  5.53887E+01  4.30023E+01  5.68523E+01  8.92845E+01  5.86244E+01
   4.01369E+01  6.57776E+01  4.48647E+01  5.76026E+01  7.32107E+01  7.37150E+01  7.35520E+01  5.01463E+01  5.16438E+01  5.11554E+01
   5.56659E+01  2.52504E+01  4.44182E+01  5.47192E+01  4.02678E+01  4.38477E+01  6.25485E+01  1.84552E+01  2.94971E+01  5.00908E+01
   4.85914E+01  3.93539E+01  2.10605E+01  2.91438E+01  3.71623E+01  2.42952E+01  2.47878E+01  4.42828E+01  2.88992E+01  5.19550E+01
   2.81253E+01  2.71758E+01  2.80094E+01  2.62466E+01  2.86405E+01  2.15815E+01  1.93942E+01  1.63196E+01  1.72879E+01  2.57500E+01
   2.22596E+01  3.41146E+01  1.57582E+01  3.81864E+01  2.01257E+01  1.67311E+01  2.71712E+01  4.00041E+01  4.68739E+01  2.87368E+01
   2.64776E+01  3.52025E+01  6.43312E+01  4.09386E+01  4.31392E+01  4.58337E+01  5.06118E+01  3.88592E+01  5.06181E+01  3.23137E+01
   3.72629E+01  1.51283E+01  4.93311E+01  2.44434E+01  4.50481E+01  4.38489E+01  3.23123E+01  3.98190E+01  3.64657E+01  3.78442E+01
   1.01082E+01  3.68665E+01  3.02089E+01  3.02166E+01  1.41700E+01  1.98577E+01  1.45593E+01  3.04779E+01  3.94041E+01  1.81959E+01
   2.26203E+01  2.67532E+01  3.17684E+01  2.31927E+01  6.15008E+00  3.50660E+01  1.56806E+01  2.77813E+01  1.31014E+01  1.70344E+01
   4.36609E+01  1.08032E+01  1.02310E+01  1.25137E+01  3.88368E+01  1.38283E+01  2.39787E+01  2.03597E+01  7.24268E+00  1.63669E+00
   2.61046E+01  8.94976E+00  2.63713E+01  1.35619E+01  1.86830E+01  5.56484E+01  1.89625E+01 -1.76622E-01  2.23350E+01  2.87565E+01
   2.62057E+01  9.85228E+00  2.00653E+00  1.96071E+01  1.31533E+01  1.27618E+01  1.84801E+01  1.93621E+01 -2.89422E+00  1.51600E+01
   2.26801E+01  2.47271E+01  2.11512E+01  6.85206E+00  1.83353E+01  3.01613E+01  1.97983E+01  9.24500E+00  2.83654E+01  3.77500E+01
   1.52121E+01  2.69789E+01  3.49362E+01  1.46012E+01  1.69990E+01  2.02943E+01  1.45937E+01  1.38883E+01  9.74256E+00  2.10156E+01
   2.71765E+01 -2.77241E-02  1.31173E+01 -5.95445E+00  2.85786E+01  1.10355E+01  6.97456E+00  2.17038E+01
 NY points of the fit to the data follow
  -1.27313E+01 -1.22864E+01 -9.07501E+00 -3.62171E+00  3.10786E+00  1.11506E+01  2.02347E+01  2.94007E+01  3.70990E+01  4.14822E+01
   4.11431E+01  3.60416E+01  2.79053E+01  1.93090E+01  1.21200E+01  6.67265E+00  2.36571E+00 -1.16584E+00 -3.61364E+00 -5.23244E+00
  -6.31407E+00 -7.11389E+00 -7.64014E+00 -7.49052E+00 -7.03595E+00 -6.31171E+00 -4.90820E+00 -2.62402E+00  4.11109E-01  3.72903E+00
   6.76030E+00  8.62626E+00  8.65374E+00  7.04875E+00  4.30592E+00  1.11598E+00 -1.83216E+00 -4.31439E+00 -6.02973E+00 -6.16539E+00
  -4.41246E+00 -1.41819E+00  1.99328E+00  5.67147E+00  9.51882E+00  1.29920E+01  1.52475E+01  1.54066E+01  1.31208E+01  8.90878E+00
   3.90161E+00 -4.09744E-01 -3.05010E+00 -4.29322E+00 -4.67809E+00 -4.36482E+00 -3.42210E+00 -2.22305E+00 -1.24182E+00 -7.68485E-01
  -1.00437E+00 -2.09352E+00 -3.77504E+00 -5.55184E+00 -6.73785E+00 -7.00202E+00 -6.56736E+00 -5.76920E+00 -4.76039E+00 -3.66905E+00
  -2.70664E+00 -2.03532E+00 -1.71568E+00 -1.76424E+00 -2.14240E+00 -2.71275E+00 -3.37133E+00 -4.11150E+00 -4.85174E+00 -5.28738E+00
  -4.87134E+00 -4.06705E+00 -3.22274E+00 -2.29696E+00 -1.29973E+00 -4.96670E-01 -2.83424E-01 -9.51827E-01 -2.44637E+00 -4.23713E+00
  -5.77682E+00 -6.66718E+00 -6.92890E+00 -6.96404E+00 -6.76826E+00 -4.21788E+00  5.61382E+00  2.02728E+01  3.65053E+01  5.50777E+01
   7.65453E+01  9.81202E+01  1.14331E+02  1.19426E+02  1.10467E+02  8.98513E+01  6.46078E+01  4.23754E+01  2.65933E+01  1.57603E+01
   7.25151E+00  8.71480E-01 -2.13684E+00 -3.20780E+00 -3.74619E+00 -4.05518E+00 -4.21566E+00 -4.17984E+00 -3.68122E+00 -1.13106E+00
   7.09760E+00  1.89756E+01  3.20296E+01  4.68493E+01  6.37661E+01  8.05146E+01  9.29596E+01  9.67760E+01  8.96925E+01  7.36973E+01
   5.43499E+01  3.73638E+01  2.51202E+01  1.63002E+01  8.94229E+00  3.15913E+00  1.92322E-01 -8.08525E-01 -8.01136E-01 -1.93416E-01
   5.58750E-01  1.10229E+00  1.34565E+00  1.31820E+00  1.08355E+00  7.38413E-01  3.09703E-01 -2.52010E-01 -9.11744E-01 -1.53869E+00
  -2.04589E+00 -2.42292E+00 -2.70142E+00 -2.97230E+00 -3.35008E+00 -3.74377E+00 -4.07842E+00 -4.44133E+00 -4.87400E+00 -5.49698E+00
  -6.18749E+00 -6.60321E+00 -6.54969E+00 -6.16946E+00 -5.76668E+00 -5.65858E+00 -6.01035E+00 -6.68010E+00 -7.42018E+00 -8.16252E+00
  -8.85246E+00 -9.33011E+00 -9.73007E+00 -1.02252E+01 -1.08688E+01 -1.14660E+01 -1.16771E+01 -1.13571E+01 -1.07805E+01 -1.03710E+01
  -1.03422E+01 -1.03487E+01 -9.86611E+00 -8.77129E+00 -7.28825E+00 -5.69697E+00 -4.10312E+00 -2.35813E+00 -3.62724E-01  1.59864E+00
   2.97589E+00  3.27982E+00  2.66321E+00  1.64052E+00  6.70199E-01  4.44223E-02 -4.30794E-02  6.20574E-01  2.02036E+00  3.97536E+00
   6.15601E+00  8.15704E+00  9.44929E+00  9.39033E+00  8.05581E+00  5.70825E+00  2.40332E+00 -1.26225E+00 -4.18012E+00 -5.18986E+00
  -4.16639E+00 -1.49117E+00  2.48535E+00  7.08048E+00  1.11212E+01  1.32834E+01  1.28865E+01  1.02803E+01  6.27276E+00  1.76139E+00
  -1.86004E+00 -3.55170E+00 -3.00315E+00 -3.50769E-01  3.73764E+00  8.28647E+00  1.21554E+01  1.46110E+01  1.57080E+01  1.59174E+01
   1.58995E+01  1.60111E+01  1.64120E+01  1.72683E+01  1.85285E+01  1.97606E+01  2.04602E+01  2.07099E+01  2.07077E+01  2.04428E+01
   1.98931E+01  1.94594E+01  1.96061E+01  2.05129E+01  2.20871E+01  2.40425E+01  2.60944E+01  2.79847E+01  3.01524E+01  3.39591E+01
   3.89889E+01  4.46533E+01  5.19909E+01  6.52146E+01  8.46975E+01  1.04164E+02  1.21535E+02  1.37703E+02  1.52329E+02  1.62766E+02
   1.65178E+02  1.55958E+02  1.34777E+02  1.06549E+02  7.93791E+01  5.90745E+01  4.53752E+01  3.51377E+01  2.69011E+01  2.18346E+01
   1.98182E+01  1.88366E+01  1.82781E+01  1.79346E+01  1.75865E+01  1.71054E+01  1.65030E+01  1.58319E+01  1.51777E+01  1.46350E+01
   1.42467E+01  1.40013E+01  1.38889E+01  1.38979E+01  1.39950E+01  1.41556E+01  1.43631E+01  1.46229E+01  1.49579E+01  1.53843E+01
   1.59047E+01  1.65125E+01  1.71785E+01  1.78694E+01  1.85545E+01  1.92171E+01  1.98550E+01  2.04731E+01  2.10729E+01  2.16484E+01
   2.21927E+01  2.26980E+01  2.31430E+01  2.35030E+01  2.37648E+01  2.39285E+01  2.40023E+01  2.39947E+01  2.39166E+01  2.37865E+01
   2.36238E+01  2.34472E+01  2.32764E+01  2.31311E+01  2.30307E+01  2.29934E+01  2.30360E+01  2.31732E+01  2.34193E+01  2.37915E+01
   2.43086E+01  2.49370E+01  2.56430E+01  2.64312E+01  2.72936E+01  2.81950E+01  2.90950E+01  2.99736E+01  3.08817E+01  3.18974E+01
   3.30550E+01  3.43729E+01  3.58459E+01  3.74362E+01  3.90935E+01  4.07683E+01  4.24042E+01  4.39387E+01  4.53581E+01  4.67132E+01
   4.80770E+01  4.94376E+01  5.07362E+01  5.19674E+01  5.31368E+01  5.42098E+01  5.51220E+01  5.58415E+01  5.64316E+01  5.69609E+01
   5.74660E+01  5.79758E+01  5.84781E+01  5.89037E+01  5.91625E+01  5.91745E+01  5.88705E+01  5.81922E+01  5.71450E+01  5.58106E+01
   5.42796E+01  5.26068E+01  5.08162E+01  4.89367E+01  4.70204E+01  4.51009E+01  4.31954E+01  4.13234E+01  3.95043E+01  3.77553E+01
   3.60919E+01  3.45268E+01  3.30703E+01  3.17304E+01  3.05131E+01  2.94223E+01  2.84608E+01  2.76296E+01  2.69288E+01  2.63577E+01
   2.59154E+01  2.56010E+01  2.54138E+01  2.53527E+01  2.54173E+01  2.56069E+01  2.59212E+01  2.63594E+01  2.69205E+01  2.76017E+01
   2.83991E+01  2.93067E+01  3.03163E+01  3.14166E+01  3.25932E+01  3.38278E+01  3.50991E+01  3.63821E+01  3.76498E+01  3.88723E+01
   4.00190E+01  4.10587E+01  4.19617E+01  4.27009E+01  4.32530E+01  4.35994E+01  4.37273E+01  4.36303E+01  4.33094E+01  4.27720E+01
   4.20320E+01  4.11091E+01  4.00273E+01  3.88141E+01  3.74995E+01  3.61138E+01  3.46873E+01  3.32481E+01  3.18218E+01  3.04309E+01
   2.90943E+01  2.78267E+01  2.66392E+01  2.55388E+01  2.45294E+01  2.36119E+01  2.27850E+01  2.20455E+01  2.13887E+01  2.08086E+01
   2.02993E+01  1.98543E+01  1.94673E+01  1.91322E+01  1.88430E+01  1.85944E+01  1.83814E+01  1.81998E+01  1.80459E+01  1.79159E+01
   1.78071E+01  1.77166E+01  1.76423E+01  1.75822E+01  1.75348E+01  1.74985E+01  1.74720E+01  1.74541E+01  1.74440E+01  1.74409E+01
   1.74441E+01  1.74529E+01  1.74667E+01  1.74850E+01  1.75076E+01  1.75339E+01  1.75638E+01  1.75968E+01  1.76325E+01  1.76709E+01
   1.77119E+01  1.77551E+01  1.78004E+01  1.78475E+01  1.78963E+01  1.79468E+01  1.79991E+01  1.80527E+01  1.81076E+01  1.81637E+01
   1.82210E+01  1.82794E+01  1.83390E+01  1.83996E+01  1.84610E+01  1.85232E+01  1.85864E+01  1.86504E+01  1.87152E+01  1.87807E+01
   1.88468E+01  1.89136E+01  1.89811E+01  1.90493E+01  1.91182E+01  1.91875E+01  1.92575E+01  1.93279E+01  1.93992E+01  1.94710E+01
   1.95435E+01  1.96164E+01  1.96899E+01  1.97641E+01  1.98391E+01  1.99148E+01  1.99912E+01  2.00682E+01
 NY background values follow
    -1.825E+01   -1.818E+01   -1.810E+01   -1.802E+01   -1.794E+01   -1.786E+01   -1.779E+01   -1.771E+01   -1.763E+01   -1.755E+01
    -1.748E+01   -1.740E+01   -1.732E+01   -1.724E+01   -1.716E+01   -1.709E+01   -1.701E+01   -1.693E+01   -1.685E+01   -1.677E+01
    -1.670E+01   -1.662E+01   -1.654E+01   -1.646E+01   -1.638E+01   -1.630E+01   -1.623E+01   -1.615E+01   -1.607E+01   -1.599E+01
    -1.591E+01   -1.584E+01   -1.576E+01   -1.568E+01   -1.560E+01   -1.552E+01   -1.544E+01   -1.537E+01   -1.529E+01   -1.521E+01
    -1.513E+01   -1.505E+01   -1.498E+01   -1.490E+01   -1.482E+01   -1.474E+01   -1.466E+01   -1.458E+01   -1.451E+01   -1.443E+01
    -1.435E+01   -1.427E+01   -1.419E+01   -1.411E+01   -1.403E+01   -1.396E+01   -1.388E+01   -1.380E+01   -1.372E+01   -1.364E+01
    -1.356E+01   -1.349E+01   -1.341E+01   -1.333E+01   -1.325E+01   -1.317E+01   -1.309E+01   -1.301E+01   -1.294E+01   -1.286E+01
    -1.278E+01   -1.270E+01   -1.262E+01   -1.254E+01   -1.246E+01   -1.239E+01   -1.231E+01   -1.223E+01   -1.215E+01   -1.207E+01
    -1.199E+01   -1.191E+01   -1.184E+01   -1.176E+01   -1.168E+01   -1.160E+01   -1.152E+01   -1.144E+01   -1.136E+01   -1.129E+01
    -1.121E+01   -1.113E+01   -1.105E+01   -1.097E+01   -1.089E+01   -1.081E+01   -1.073E+01   -1.066E+01   -1.058E+01   -1.050E+01
    -1.042E+01   -1.034E+01   -1.026E+01   -1.018E+01   -1.010E+01   -1.003E+01   -9.946E+00   -9.868E+00   -9.789E+00   -9.710E+00
    -9.631E+00   -9.552E+00   -9.473E+00   -9.395E+00   -9.316E+00   -9.237E+00   -9.158E+00   -9.079E+00   -9.000E+00   -8.921E+00
    -8.843E+00   -8.764E+00   -8.685E+00   -8.606E+00   -8.527E+00   -8.448E+00   -8.369E+00   -8.290E+00   -8.211E+00   -8.132E+00
    -8.053E+00   -7.974E+00   -7.895E+00   -7.816E+00   -7.738E+00   -7.659E+00   -7.580E+00   -7.501E+00   -7.422E+00   -7.343E+00
    -7.264E+00   -7.185E+00   -7.106E+00   -7.027E+00   -6.948E+00   -6.869E+00   -6.790E+00   -6.711E+00   -6.632E+00   -6.553E+00
    -6.474E+00   -6.395E+00   -6.315E+00   -6.236E+00   -6.157E+00   -6.078E+00   -5.999E+00   -5.920E+00   -5.841E+00   -5.762E+00
    -5.683E+00   -5.604E+00   -5.525E+00   -5.446E+00   -5.367E+00   -5.288E+00   -5.209E+00   -5.129E+00   -5.050E+00   -4.971E+00
    -4.892E+00   -4.813E+00   -4.734E+00   -4.655E+00   -4.576E+00   -4.497E+00   -4.417E+00   -4.338E+00   -4.259E+00   -4.180E+00
    -4.101E+00   -4.022E+00   -3.943E+00   -3.864E+00   -3.784E+00   -3.705E+00   -3.626E+00   -3.547E+00   -3.468E+00   -3.389E+00
    -3.310E+00   -3.230E+00   -3.151E+00   -3.072E+00   -2.993E+00   -2.914E+00   -2.835E+00   -2.755E+00   -2.676E+00   -2.597E+00
    -2.518E+00   -2.439E+00   -2.359E+00   -2.280E+00   -2.201E+00   -2.122E+00   -2.043E+00   -1.964E+00   -1.884E+00   -1.805E+00
    -1.726E+00   -1.647E+00   -1.568E+00   -1.488E+00   -1.409E+00   -1.330E+00   -1.251E+00   -1.172E+00   -1.093E+00   -1.013E+00
    -9.341E-01   -8.549E-01   -7.757E-01   -6.966E-01   -6.174E-01   -5.382E-01   -4.590E-01   -3.798E-01   -3.006E-01   -2.214E-01
    -1.422E-01   -6.301E-02    1.618E-02    9.537E-02    1.746E-01    2.537E-01    3.329E-01    4.121E-01    4.913E-01    5.705E-01
     6.497E-01    7.289E-01    8.081E-01    8.872E-01    9.664E-01    1.046E+00    1.125E+00    1.204E+00    1.283E+00    1.362E+00
     1.441E+00    1.521E+00    1.600E+00    1.679E+00    1.758E+00    1.837E+00    1.917E+00    1.996E+00    2.075E+00    2.154E+00
     2.233E+00    2.312E+00    2.391E+00    2.471E+00    2.550E+00    2.629E+00    2.708E+00    2.787E+00    2.866E+00    2.945E+00
     3.025E+00    3.104E+00    3.183E+00    3.262E+00    3.341E+00    3.420E+00    3.499E+00    3.578E+00    3.658E+00    3.737E+00
     3.816E+00    3.895E+00    3.974E+00    4.053E+00    4.132E+00    4.211E+00    4.290E+00    4.369E+00    4.448E+00    4.528E+00
     4.607E+00    4.686E+00    4.765E+00    4.844E+00    4.923E+00    5.002E+00    5.081E+00    5.160E+00    5.239E+00    5.318E+00
     5.397E+00    5.476E+00    5.555E+00    5.634E+00    5.713E+00    5.792E+00    5.871E+00    5.950E+00    6.029E+00    6.108E+00
     6.187E+00    6.266E+00    6.345E+00    6.424E+00    6.503E+00    6.582E+00    6.661E+00    6.740E+00    6.819E+00    6.898E+00
     6.977E+00    7.056E+00    7.135E+00    7.213E+00    7.292E+00    7.371E+00    7.450E+00    7.529E+00    7.608E+00    7.687E+00
     7.766E+00    7.845E+00    7.923E+00    8.002E+00    8.081E+00    8.160E+00    8.239E+00    8.318E+00    8.397E+00    8.475E+00
     8.554E+00    8.633E+00    8.712E+00    8.791E+00    8.869E+00    8.948E+00    9.027E+00    9.106E+00    9.184E+00    9.263E+00
     9.342E+00    9.421E+00    9.499E+00    9.578E+00    9.657E+00    9.736E+00    9.814E+00    9.893E+00    9.972E+00    1.005E+01
     1.013E+01    1.021E+01    1.029E+01    1.037E+01    1.044E+01    1.052E+01    1.060E+01    1.068E+01    1.076E+01    1.084E+01
     1.092E+01    1.099E+01    1.107E+01    1.115E+01    1.123E+01    1.131E+01    1.139E+01    1.147E+01    1.154E+01    1.162E+01
     1.170E+01    1.178E+01    1.186E+01    1.194E+01    1.201E+01    1.209E+01    1.217E+01    1.225E+01    1.233E+01    1.241E+01
     1.249E+01    1.256E+01    1.264E+01    1.272E+01    1.280E+01    1.288E+01    1.296E+01    1.303E+01    1.311E+01    1.319E+01
     1.327E+01    1.335E+01    1.343E+01    1.350E+01    1.358E+01    1.366E+01    1.374E+01    1.382E+01    1.390E+01    1.397E+01
     1.405E+01    1.413E+01    1.421E+01    1.429E+01    1.436E+01    1.444E+01    1.452E+01    1.460E+01    1.468E+01    1.476E+01
     1.483E+01    1.491E+01    1.499E+01    1.507E+01    1.515E+01    1.522E+01    1.530E+01    1.538E+01    1.546E+01    1.554E+01
     1.561E+01    1.569E+01    1.577E+01    1.585E+01    1.593E+01    1.600E+01    1.608E+01    1.616E+01    1.624E+01    1.632E+01
     1.639E+01    1.647E+01    1.655E+01    1.663E+01    1.671E+01    1.678E+01    1.686E+01    1.694E+01    1.702E+01    1.709E+01
     1.717E+01    1.725E+01    1.733E+01    1.741E+01    1.748E+01    1.756E+01    1.764E+01    1.772E+01    1.779E+01    1.787E+01
     1.795E+01    1.803E+01    1.811E+01    1.818E+01    1.826E+01    1.834E+01    1.842E+01    1.849E+01    1.857E+01    1.865E+01
     1.873E+01    1.880E+01    1.888E+01    1.896E+01    1.904E+01    1.911E+01    1.919E+01    1.927E+01    1.935E+01    1.942E+01
     1.950E+01    1.958E+01    1.966E+01    1.973E+01    1.981E+01    1.989E+01    1.996E+01    2.004E+01    2.012E+01    2.020E+01
     2.027E+01    2.035E+01    2.043E+01    2.051E+01    2.058E+01    2.066E+01    2.074E+01    2.081E+01
 Ala      Conc. = 6.25E+01
