 LCModel (Version 6.3-1L) Copyright: S.W. Provencher.          Ref.: Magn. Reson. Med. 30:672-679 (1993).                
 Slice#1 Row#1 Col#2  PD_05_press_2_raw_act
 36 lines in following concentration table = NCONC+1
    Conc.  %SD /Cr+PCr  Metabolite                                         
    0.000 999%   0.000 Ala                                                 
   16.144 213%   0.000 Asp                                                 
    0.000 999%   0.000 Cr                                                  
    0.000 999%   0.000 PCr                                                 
   12.813 161%   0.000 GABA                                                
   11.790 175%   0.000 Glc                                                 
    0.000 999%   0.000 Gln                                                 
    0.000 999%   0.000 Glu                                                 
    0.000 999%   0.000 GPC                                                 
    0.000 999%   0.000 PCh                                                 
   63.685 228%   0.000 GSH                                                 
  466.204  87%   0.000 Ins                                                 
    0.000 999%   0.000 Lac                                                 
    0.000 999%   0.000 NAA                                                 
  388.522  31%   0.000 NAAG                                                
    5.246 130%   0.000 Scyllo                                              
   20.737 165%   0.000 Tau                                                 
    1.997 743%   0.000 -CrCH2                                              
    0.000 999%   0.000 GPC+PCh                                             
  388.522  31%   0.000 NAA+NAAG                                            
    0.000 999%   0.000 Cr+PCr                                              
    0.000 999%   0.000 Glu+Gln                                             
    0.000 999%   0.000 Lip13a                                              
  220.633  83%   0.000 Lip13b                                              
   59.480  86%   0.000 Lip09                                               
  608.121  35%   0.000 MM09                                                
   33.121  89%   0.000 Lip20                                               
 1.04E+03  40%   0.000 MM20                                                
   86.889 168%   0.000 MM12                                                
    0.000 999%   0.000 MM14                                                
    0.000 999%   0.000 MM17                                                
  220.633  83%   0.000 Lip13a+Lip13b                                       
  307.522  67%   0.000 MM14+Lip13a+Lip13b+MM12                             
  667.601  32%   0.000 MM09+Lip09                                          
 1.07E+03  39%   0.000 MM20+Lip20                                          
   6 lines in following misc. output table
  FWHM = 0.069 ppm    S/N =   1                                            
  Data shift = 0.038 ppm                                                   
  Ph: -89 deg     -35.1 deg/ppm                                            
  alphaB,S = 8.5E+01,   7.0E+01                                            
   14 spline knots.   Ns = 7(1)                                            
  ( 4) 2 infls.   ( 1) 1 extrs.                                            
  498 points on ppm-axis = NY
      4.000000     3.992357     3.984714     3.977070     3.969427     3.961784     3.954141     3.946497     3.938854     3.931211
      3.923568     3.915925     3.908281     3.900638     3.892995     3.885352     3.877708     3.870065     3.862422     3.854779
      3.847136     3.839492     3.831849     3.824206     3.816563     3.808919     3.801276     3.793633     3.785990     3.778347
      3.770703     3.763060     3.755417     3.747774     3.740130     3.732487     3.724844     3.717201     3.709558     3.701914
      3.694271     3.686628     3.678985     3.671341     3.663698     3.656055     3.648412     3.640769     3.633125     3.625482
      3.617839     3.610196     3.602552     3.594909     3.587266     3.579623     3.571980     3.564336     3.556693     3.549050
      3.541407     3.533763     3.526120     3.518477     3.510834     3.503191     3.495547     3.487904     3.480261     3.472618
      3.464974     3.457331     3.449688     3.442045     3.434402     3.426758     3.419115     3.411472     3.403829     3.396185
      3.388542     3.380899     3.373256     3.365613     3.357969     3.350326     3.342683     3.335040     3.327396     3.319753
      3.312110     3.304467     3.296824     3.289180     3.281537     3.273894     3.266251     3.258607     3.250964     3.243321
      3.235678     3.228034     3.220391     3.212748     3.205105     3.197462     3.189818     3.182175     3.174532     3.166889
      3.159245     3.151602     3.143959     3.136316     3.128673     3.121029     3.113386     3.105743     3.098100     3.090456
      3.082813     3.075170     3.067527     3.059884     3.052240     3.044597     3.036954     3.029311     3.021667     3.014024
      3.006381     2.998738     2.991095     2.983451     2.975808     2.968165     2.960522     2.952878     2.945235     2.937592
      2.929949     2.922306     2.914662     2.907019     2.899376     2.891733     2.884089     2.876446     2.868803     2.861160
      2.853517     2.845873     2.838230     2.830587     2.822944     2.815300     2.807657     2.800014     2.792371     2.784728
      2.777084     2.769441     2.761798     2.754155     2.746511     2.738868     2.731225     2.723582     2.715939     2.708295
      2.700652     2.693009     2.685366     2.677722     2.670079     2.662436     2.654793     2.647150     2.639506     2.631863
      2.624220     2.616577     2.608933     2.601290     2.593647     2.586004     2.578361     2.570717     2.563074     2.555431
      2.547788     2.540144     2.532501     2.524858     2.517215     2.509572     2.501928     2.494285     2.486642     2.478999
      2.471355     2.463712     2.456069     2.448426     2.440783     2.433139     2.425496     2.417853     2.410210     2.402566
      2.394923     2.387280     2.379637     2.371994     2.364350     2.356707     2.349064     2.341421     2.333777     2.326134
      2.318491     2.310848     2.303205     2.295561     2.287918     2.280275     2.272632     2.264988     2.257345     2.249702
      2.242059     2.234416     2.226772     2.219129     2.211486     2.203843     2.196199     2.188556     2.180913     2.173270
      2.165627     2.157983     2.150340     2.142697     2.135054     2.127410     2.119767     2.112124     2.104481     2.096838
      2.089194     2.081551     2.073908     2.066265     2.058621     2.050978     2.043335     2.035692     2.028049     2.020405
      2.012762     2.005119     1.997476     1.989833     1.982190     1.974546     1.966903     1.959260     1.951617     1.943974
      1.936331     1.928688     1.921045     1.913402     1.905759     1.898115     1.890472     1.882829     1.875186     1.867543
      1.859900     1.852257     1.844614     1.836971     1.829327     1.821684     1.814041     1.806398     1.798755     1.791112
      1.783469     1.775826     1.768183     1.760540     1.752896     1.745253     1.737610     1.729967     1.722324     1.714681
      1.707038     1.699395     1.691752     1.684108     1.676465     1.668822     1.661179     1.653536     1.645893     1.638250
      1.630607     1.622964     1.615321     1.607677     1.600034     1.592391     1.584748     1.577105     1.569462     1.561819
      1.554176     1.546533     1.538890     1.531246     1.523603     1.515960     1.508317     1.500674     1.493031     1.485388
      1.477745     1.470102     1.462458     1.454815     1.447172     1.439529     1.431886     1.424243     1.416600     1.408957
      1.401314     1.393671     1.386027     1.378384     1.370741     1.363098     1.355455     1.347812     1.340169     1.332526
      1.324883     1.317240     1.309596     1.301953     1.294310     1.286667     1.279024     1.271381     1.263738     1.256095
      1.248452     1.240808     1.233165     1.225522     1.217879     1.210236     1.202593     1.194950     1.187307     1.179664
      1.172021     1.164377     1.156734     1.149091     1.141448     1.133805     1.126162     1.118519     1.110876     1.103233
      1.095590     1.087946     1.080303     1.072660     1.065017     1.057374     1.049731     1.042088     1.034445     1.026802
      1.019158     1.011515     1.003872     0.996229     0.988586     0.980943     0.973300     0.965657     0.958014     0.950371
      0.942727     0.935084     0.927441     0.919798     0.912155     0.904512     0.896869     0.889226     0.881583     0.873940
      0.866296     0.858653     0.851010     0.843367     0.835724     0.828081     0.820438     0.812795     0.805152     0.797508
      0.789865     0.782222     0.774579     0.766936     0.759293     0.751650     0.744007     0.736364     0.728721     0.721077
      0.713434     0.705791     0.698148     0.690505     0.682862     0.675219     0.667576     0.659933     0.652290     0.644646
      0.637003     0.629360     0.621717     0.614074     0.606431     0.598788     0.591145     0.583502     0.575858     0.568215
      0.560572     0.552929     0.545286     0.537643     0.530000     0.522357     0.514714     0.507071     0.499427     0.491784
      0.484141     0.476498     0.468855     0.461212     0.453569     0.445925     0.438282     0.430639     0.422996     0.415353
      0.407710     0.400067     0.392424     0.384780     0.377137     0.369494     0.361851     0.354208     0.346565     0.338922
      0.331278     0.323635     0.315992     0.308349     0.300706     0.293063     0.285420     0.277777     0.270133     0.262490
      0.254847     0.247204     0.239561     0.231918     0.224275     0.216631     0.208988     0.201345
 NY phased data points follow
   1.78260E+01  3.64126E+00 -7.29833E+00 -1.37785E+01 -1.30916E+01  1.28125E+00  2.78471E+00  3.68684E+00 -2.56876E+00 -1.70666E+01
  -1.45985E+01  7.72945E-03  6.29162E+00  7.23498E+00  2.00035E+00 -1.63030E+01 -2.29984E+00 -6.24763E+00  4.92004E+00  5.24623E+00
   3.24522E+00  9.85125E+00  5.22870E+00  1.46049E+00 -7.01799E+00 -4.78771E+00  1.33738E+00  3.22692E+00  1.01552E+01 -1.81496E+00
   1.66185E+01 -3.21300E+00 -4.06247E+00 -6.51874E+00 -8.86759E+00 -7.87539E+00 -1.60248E-01  2.85128E-01 -2.26417E-01  6.48829E+00
  -1.06226E+01 -1.04356E+01 -1.12184E+01 -2.76416E+00 -7.16470E+00  2.39623E+00 -1.45590E+00  4.56540E+00 -1.31950E+00  1.19495E+01
   6.04568E+00  3.70326E+00 -1.10892E+01  8.87952E+00  1.43643E+00 -1.61000E+00 -4.24503E+00  3.11215E-01  2.37768E+00 -7.59719E-01
  -5.40139E+00  4.98063E+00 -3.63640E+00  2.49210E-01  5.55423E+00  3.42671E+00 -1.14157E+00 -4.95733E-01 -8.19359E-01  2.32272E+00
  -1.04167E+01 -4.62078E+00 -4.58566E+00 -1.30023E+00  7.80992E+00  1.91054E+00  1.80392E+00  6.88545E+00  1.12203E+00 -1.38228E+01
  -5.67513E+00 -5.66569E+00  5.31187E+00 -6.15202E+00 -2.52738E+00  5.14194E+00  2.80003E+00  1.93072E+00  3.57065E-01 -2.21733E+00
   6.12835E+00  2.64317E+00  1.49913E+00  9.41131E+00 -9.77531E+00  8.61077E+00 -1.54233E+01  1.94094E+00  1.97657E+00 -6.83692E+00
  -1.31546E+01 -4.12319E+00  4.11437E-01  3.37244E+00 -1.54312E+00 -8.66511E+00 -6.16898E+00 -8.44121E-01 -5.89632E-01 -1.77600E+00
  -1.00971E+01 -3.37969E+00 -7.25172E+00 -1.02046E+01 -1.94653E+00 -3.91804E+00 -1.07142E+01  3.84754E+00  1.51167E+00 -6.71082E-01
  -3.07160E+00  2.05732E+00 -6.50062E+00 -8.36323E+00 -4.09162E+00  3.04029E+00 -6.51700E+00  5.47986E-01  6.50048E+00  9.66720E-01
  -7.19336E+00 -1.08655E+00 -5.32294E+00 -1.22099E+01  7.55116E+00 -6.55605E+00 -8.17595E+00 -1.72702E+00 -4.71696E+00 -8.43425E+00
  -3.53034E+00 -1.64870E+00 -4.40753E+00  2.21843E+00  3.75592E-01  1.32687E+00 -5.22280E+00  1.34563E+00 -4.75456E+00 -4.92232E+00
   3.56922E+00  8.87707E+00  2.07341E+00  4.17232E+00  2.22741E+00 -2.97864E+00 -2.26419E+00  6.78405E+00 -2.21575E+00 -4.47573E+00
  -5.28995E+00  3.03708E+00  7.71284E-01 -2.70426E+00 -3.53961E-01 -5.75968E+00 -7.98079E+00 -2.51657E+00 -7.92853E+00 -6.74254E+00
  -3.62396E+00  2.75921E+00 -6.82975E+00 -1.26032E+01  1.26220E+00 -1.44656E+01 -6.90249E+00 -9.28436E+00  5.01683E+00 -6.62670E+00
  -4.13410E+00 -4.66237E+00 -5.24346E+00 -1.31923E+00 -1.54894E+01 -9.44078E+00 -9.49252E+00 -1.38681E+00 -1.07426E+00 -8.62885E+00
  -1.59484E+00  1.47066E+00 -1.20811E+01 -9.39342E+00 -4.32475E+00 -5.92452E+00 -1.50818E+01 -1.20387E+01 -7.28250E+00 -1.18542E+01
  -4.51244E+00 -4.64059E+00  1.15990E+00 -1.04375E+01 -6.69776E+00  3.24826E+00 -6.45483E+00 -7.87406E+00 -4.24621E+00 -1.18923E+01
  -3.00365E+00  6.40327E-01 -7.25880E+00 -7.02607E+00 -4.47743E+00 -1.21424E+01 -7.03326E+00 -3.30123E+00 -7.34554E+00 -1.74074E+01
   1.28460E+00  1.36817E+00 -8.64396E+00 -9.97732E+00 -4.95109E+00 -4.77609E+00  1.77066E+00  1.45302E+00 -1.61952E+01  4.80950E+00
  -1.02623E+01 -6.61728E+00  1.07540E+00 -6.89154E+00 -1.89679E+01 -8.91111E-01 -5.12478E+00 -6.03830E+00  2.95574E+00 -8.82156E+00
  -1.80414E+00  9.19255E-01  5.19250E+00  8.76766E-01  2.80131E+00  9.25748E+00  2.56861E+00  8.56011E-02  8.50158E+00  1.06981E+01
   5.64446E+00 -1.80586E-01  1.96325E+01  9.09309E+00 -8.57460E-01  6.47451E+00  9.05532E+00  1.11320E+01  1.79146E+00  9.17686E+00
   1.82780E+01 -2.84812E+00 -5.51105E+00 -2.34113E+00 -1.01732E+01 -1.06227E+01 -1.52325E+01 -3.62265E+00 -3.89717E+00 -1.91513E-01
  -7.48525E+00  7.26680E-01 -5.90449E+00  3.75033E+00 -5.89018E+00 -3.37529E+00 -2.97279E+00 -1.22337E+01 -4.75013E+00 -7.32177E+00
  -9.12440E-01 -8.40007E-01  3.45197E+00 -1.01971E+01 -1.38482E+01 -9.19014E+00 -2.61885E+00 -6.28505E+00  2.66455E+00 -1.14559E+01
  -1.21267E+01 -4.94276E+00 -7.30330E+00 -2.11017E+00 -1.28435E+01  1.07216E+00 -6.04413E+00 -5.73234E+00 -1.68727E+01 -1.20475E+01
  -1.07019E+00 -1.51167E+01 -7.79108E+00 -9.45291E+00 -1.08857E+01 -7.94910E+00 -1.67800E+01 -1.22782E+01 -1.54444E+01 -1.69979E+01
  -1.23551E+01 -1.01416E+01 -7.43762E+00 -1.88360E+01 -1.61469E+01 -1.21330E+01 -1.37053E+01 -2.85213E+01 -1.54986E+01 -1.24776E+01
  -1.13294E+00 -1.19461E+01 -9.67105E+00 -1.50702E+01 -1.23794E+01 -7.71188E+00 -1.65943E+01 -1.41614E+01 -1.07021E+01 -2.06720E+01
  -1.54732E+01 -1.00151E+01 -1.82363E+01 -1.08010E+01 -1.82007E+01 -1.44649E+01 -1.84602E+01 -1.25212E+01 -2.28243E+01 -2.32918E+00
  -1.39651E+01 -1.46085E+01 -1.60387E+01 -1.76954E+01 -1.16043E+01 -1.33770E+01 -1.26256E+01 -1.20604E+01 -2.01681E+01 -8.19858E+00
  -4.74580E+00 -1.92405E+01 -4.91026E-02 -9.17118E+00  9.58441E+00 -1.14645E+00  2.77168E+00 -4.07349E+00  2.00605E+00  1.84423E+00
  -8.31220E+00 -1.92387E+01 -1.89531E+01 -1.24245E+00 -3.14301E+00 -1.91069E+01 -1.19404E+01 -3.25431E+00 -9.03294E+00 -6.70939E+00
  -1.53433E+01 -9.33518E+00 -1.38544E+01 -1.02815E+01 -1.27455E+01 -7.79273E+00 -6.48999E+00 -6.90418E+00 -1.33396E+00 -1.10905E+01
   3.60161E+00 -3.76262E+00 -1.27605E+01  3.43848E+00  6.97656E+00 -3.58407E+00  1.13505E+01 -4.34963E+00 -7.09552E-02 -5.24910E+00
  -8.51389E+00 -3.71959E+00 -3.91062E+00 -8.64426E+00  5.63293E+00 -2.57127E+00  9.92715E+00 -4.86334E+00 -1.65507E+01 -1.27298E+01
  -9.18572E+00 -4.51958E+00 -7.69905E+00 -6.61981E+00 -4.05068E+00 -2.06594E+00 -5.51581E+00  3.49471E-01 -6.97544E+00  2.27234E+00
   5.13759E+00 -2.57457E+00 -8.18928E-01 -2.48573E+00 -7.68491E+00 -1.14652E+01 -5.66296E+00  3.30127E+00 -6.58015E+00 -6.67599E+00
   2.60255E+00 -1.89740E+00 -6.00692E-01 -6.46657E+00 -2.74926E+00 -1.19576E+01 -5.70319E+00 -1.33590E+01 -9.70178E+00  2.61271E+00
  -2.18617E+01 -1.02324E+01 -9.18144E+00 -1.59584E+01 -6.13084E-01 -2.00274E+01 -3.88936E+00 -1.58871E+01 -1.08609E+01 -1.08438E+01
  -5.84476E+00 -9.31433E+00 -5.42439E+00 -1.13490E+01 -1.49295E+01 -1.93988E+01 -1.90825E+01 -6.98257E+00 -6.85440E+00 -2.37738E+00
  -2.93498E+00 -9.82731E+00  7.15736E-01 -8.94742E+00 -1.08726E+01  3.10596E+00  5.34501E-01 -7.71176E+00 -2.06080E+01 -1.32903E+01
  -5.11716E-01 -4.82252E+00 -3.90505E+00 -6.20363E+00 -4.80388E+00 -1.30229E+01 -1.50283E+01 -6.86974E+00 -1.83690E+01 -8.55874E+00
  -1.08108E+01 -3.62435E-01 -4.30869E+00 -2.71450E+00  4.29742E+00 -2.99814E+00 -1.90029E+01 -3.45874E+00  1.20565E+00 -1.79866E+00
  -9.98453E+00 -2.22017E+00 -1.15326E+01 -1.36827E+01  1.48499E+00 -2.80343E+00 -1.02651E+01  4.46900E-01  3.78237E+00 -1.68798E+00
  -1.19919E+01 -5.11461E+00  3.84194E+00 -1.16080E+01 -6.01745E+00  2.52764E-01 -1.14033E+01 -1.73510E+01
 NY points of the fit to the data follow
   4.53370E-01  1.43607E-01 -1.02895E-01 -2.99487E-01 -4.48357E-01 -5.46543E-01 -6.12919E-01 -6.63725E-01 -7.05181E-01 -7.38981E-01
  -7.65987E-01 -7.87680E-01 -8.05674E-01 -8.21264E-01 -8.33460E-01 -8.40859E-01 -8.45143E-01 -8.53586E-01 -8.68838E-01 -8.87920E-01
  -9.05924E-01 -9.16582E-01 -8.99914E-01 -8.00350E-01 -6.15885E-01 -3.90475E-01 -1.63513E-01  3.68274E-02  1.99102E-01  3.22133E-01
   4.09872E-01  4.63546E-01  4.58386E-01  3.61192E-01  1.67971E-01 -9.77209E-02 -3.89488E-01 -6.56973E-01 -8.64925E-01 -9.91921E-01
  -1.00290E+00 -8.38216E-01 -5.11061E-01 -1.12605E-01  2.71000E-01  5.91480E-01  8.28253E-01  9.62024E-01  9.58817E-01  7.98523E-01
   4.89843E-01  5.60613E-02 -4.39618E-01 -8.96782E-01 -1.22023E+00 -1.33830E+00 -1.24925E+00 -1.02923E+00 -7.95432E-01 -6.28810E-01
  -5.46123E-01 -5.37842E-01 -5.90814E-01 -6.92821E-01 -8.30556E-01 -9.64873E-01 -1.06488E+00 -1.11214E+00 -1.08988E+00 -1.00419E+00
  -8.88086E-01 -7.77651E-01 -7.06282E-01 -6.90959E-01 -7.31784E-01 -8.15709E-01 -9.26216E-01 -1.05002E+00 -1.17280E+00 -1.27927E+00
  -1.38081E+00 -1.49845E+00 -1.65477E+00 -1.84712E+00 -2.05467E+00 -2.25599E+00 -2.43781E+00 -2.58871E+00 -2.69922E+00 -2.75708E+00
  -2.75410E+00 -2.70153E+00 -2.61425E+00 -2.51311E+00 -2.42218E+00 -2.36779E+00 -2.37783E+00 -2.45809E+00 -2.58884E+00 -2.73616E+00
  -2.87484E+00 -2.98524E+00 -3.05537E+00 -3.07898E+00 -3.05770E+00 -2.99897E+00 -2.91762E+00 -2.83070E+00 -2.74690E+00 -2.67265E+00
  -2.61120E+00 -2.56445E+00 -2.53251E+00 -2.51348E+00 -2.50225E+00 -2.49475E+00 -2.49120E+00 -2.48960E+00 -2.48718E+00 -2.48166E+00
  -2.47105E+00 -2.45396E+00 -2.43046E+00 -2.40037E+00 -2.36346E+00 -2.31970E+00 -2.26572E+00 -2.20156E+00 -2.14445E+00 -2.11240E+00
  -2.11439E+00 -2.15312E+00 -2.21952E+00 -2.29821E+00 -2.37857E+00 -2.45169E+00 -2.51715E+00 -2.57467E+00 -2.62145E+00 -2.65180E+00
  -2.66200E+00 -2.65485E+00 -2.63960E+00 -2.63373E+00 -2.65538E+00 -2.70924E+00 -2.79174E+00 -2.90353E+00 -3.03834E+00 -3.17744E+00
  -3.30540E+00 -3.40857E+00 -3.48022E+00 -3.53394E+00 -3.58211E+00 -3.62833E+00 -3.67242E+00 -3.71301E+00 -3.75089E+00 -3.79174E+00
  -3.84324E+00 -3.91369E+00 -4.01178E+00 -4.14439E+00 -4.28507E+00 -4.39422E+00 -4.45529E+00 -4.47068E+00 -4.46664E+00 -4.47159E+00
  -4.48202E+00 -4.48818E+00 -4.48621E+00 -4.47967E+00 -4.47868E+00 -4.49929E+00 -4.55147E+00 -4.61249E+00 -4.66146E+00 -4.68243E+00
  -4.66051E+00 -4.59993E+00 -4.51466E+00 -4.40993E+00 -4.28400E+00 -4.12703E+00 -3.94888E+00 -3.78316E+00 -3.65879E+00 -3.59642E+00
  -3.60682E+00 -3.68882E+00 -3.81045E+00 -3.92918E+00 -4.03636E+00 -4.13156E+00 -4.21194E+00 -4.26967E+00 -4.29076E+00 -4.26621E+00
  -4.20342E+00 -4.12947E+00 -4.08545E+00 -4.08729E+00 -4.13137E+00 -4.20721E+00 -4.29746E+00 -4.38153E+00 -4.43929E+00 -4.46382E+00
  -4.46070E+00 -4.43346E+00 -4.38454E+00 -4.31796E+00 -4.24059E+00 -4.16129E+00 -4.08702E+00 -4.02048E+00 -3.95815E+00 -3.88952E+00
  -3.81102E+00 -3.72977E+00 -3.64928E+00 -3.57340E+00 -3.51865E+00 -3.49181E+00 -3.48563E+00 -3.48513E+00 -3.46408E+00 -3.40505E+00
  -3.30914E+00 -3.18579E+00 -3.04704E+00 -2.90394E+00 -2.76743E+00 -2.65722E+00 -2.58030E+00 -2.52818E+00 -2.48892E+00 -2.45131E+00
  -2.40670E+00 -2.34014E+00 -2.23609E+00 -2.08081E+00 -1.87068E+00 -1.61556E+00 -1.33013E+00 -1.01414E+00 -5.25823E-01  5.28513E-01
   2.09145E+00  3.84683E+00  5.53213E+00  6.96193E+00  8.05424E+00  8.77780E+00  9.06042E+00  8.80756E+00  7.97576E+00  6.60271E+00
   4.79115E+00  2.73827E+00  7.39781E-01 -9.09502E-01 -2.00929E+00 -2.56295E+00 -2.86103E+00 -3.08306E+00 -3.26560E+00 -3.42402E+00
  -3.57484E+00 -3.72653E+00 -3.88168E+00 -4.04022E+00 -4.20200E+00 -4.36694E+00 -4.53262E+00 -4.69405E+00 -4.84634E+00 -4.98234E+00
  -5.09653E+00 -5.18740E+00 -5.25837E+00 -5.31794E+00 -5.37626E+00 -5.43763E+00 -5.50292E+00 -5.56888E+00 -5.63263E+00 -5.69247E+00
  -5.74593E+00 -5.79085E+00 -5.82893E+00 -5.86324E+00 -5.89700E+00 -5.93179E+00 -5.96980E+00 -6.01289E+00 -6.06084E+00 -6.11098E+00
  -6.15816E+00 -6.19736E+00 -6.22820E+00 -6.25199E+00 -6.27055E+00 -6.28647E+00 -6.30253E+00 -6.32110E+00 -6.34308E+00 -6.36683E+00
  -6.39112E+00 -6.41550E+00 -6.43968E+00 -6.46358E+00 -6.48721E+00 -6.51058E+00 -6.53369E+00 -6.55651E+00 -6.57899E+00 -6.60107E+00
  -6.62269E+00 -6.64385E+00 -6.66458E+00 -6.68495E+00 -6.70498E+00 -6.72466E+00 -6.74398E+00 -6.76295E+00 -6.78156E+00 -6.79977E+00
  -6.81758E+00 -6.83495E+00 -6.85186E+00 -6.86826E+00 -6.88408E+00 -6.89919E+00 -6.91339E+00 -6.92633E+00 -6.93736E+00 -6.94538E+00
  -6.94856E+00 -6.94401E+00 -6.92741E+00 -6.89274E+00 -6.83222E+00 -6.73662E+00 -6.59623E+00 -6.40256E+00 -6.15059E+00 -5.84141E+00
  -5.48442E+00 -5.09858E+00 -4.71179E+00 -4.35818E+00 -4.07338E+00 -3.88877E+00 -3.82573E+00 -3.89166E+00 -4.07851E+00 -4.36441E+00
  -4.71791E+00 -5.10368E+00 -5.48824E+00 -5.84453E+00 -6.15446E+00 -6.40934E+00 -6.60857E+00 -6.75735E+00 -6.86403E+00 -6.93793E+00
  -6.98766E+00 -7.02030E+00 -7.04104E+00 -7.05328E+00 -7.05896E+00 -7.05890E+00 -7.05314E+00 -7.04122E+00 -7.02231E+00 -6.99537E+00
  -6.95921E+00 -6.91254E+00 -6.85401E+00 -6.78226E+00 -6.69596E+00 -6.59385E+00 -6.47483E+00 -6.33805E+00 -6.18302E+00 -6.00967E+00
  -5.81851E+00 -5.61069E+00 -5.38812E+00 -5.15350E+00 -4.91038E+00 -4.66310E+00 -4.41673E+00 -4.17692E+00 -3.94976E+00 -3.74151E+00
  -3.55834E+00 -3.40604E+00 -3.28972E+00 -3.21358E+00 -3.18065E+00 -3.19263E+00 -3.24980E+00 -3.35100E+00 -3.49369E+00 -3.67414E+00
  -3.88758E+00 -4.12849E+00 -4.39088E+00 -4.66856E+00 -4.95544E+00 -5.24577E+00 -5.53432E+00 -5.81656E+00 -6.08873E+00 -6.34788E+00
  -6.59190E+00 -6.81939E+00 -7.02969E+00 -7.22267E+00 -7.39872E+00 -7.55855E+00 -7.70317E+00 -7.83374E+00 -7.95152E+00 -8.05779E+00
  -8.15378E+00 -8.24070E+00 -8.31965E+00 -8.39163E+00 -8.45755E+00 -8.51820E+00 -8.57428E+00 -8.62640E+00 -8.67508E+00 -8.72077E+00
  -8.76385E+00 -8.80467E+00 -8.84348E+00 -8.88055E+00 -8.91607E+00 -8.95023E+00 -8.98317E+00 -9.01502E+00 -9.04591E+00 -9.07592E+00
  -9.10516E+00 -9.13368E+00 -9.16157E+00 -9.18887E+00 -9.21564E+00 -9.24193E+00 -9.26778E+00 -9.29322E+00 -9.31828E+00 -9.34301E+00
  -9.36741E+00 -9.39152E+00 -9.41537E+00 -9.43896E+00 -9.46232E+00 -9.48546E+00 -9.50839E+00 -9.53114E+00 -9.55372E+00 -9.57613E+00
  -9.59838E+00 -9.62049E+00 -9.64246E+00 -9.66430E+00 -9.68603E+00 -9.70764E+00 -9.72915E+00 -9.75055E+00 -9.77186E+00 -9.79307E+00
  -9.81421E+00 -9.83526E+00 -9.85623E+00 -9.87713E+00 -9.89796E+00 -9.91873E+00 -9.93943E+00 -9.96007E+00 -9.98065E+00 -1.00012E+01
  -1.00217E+01 -1.00421E+01 -1.00624E+01 -1.00828E+01 -1.01030E+01 -1.01233E+01 -1.01435E+01 -1.01636E+01
 NY background values follow
    -7.934E-01   -8.124E-01   -8.314E-01   -8.504E-01   -8.694E-01   -8.884E-01   -9.074E-01   -9.264E-01   -9.453E-01   -9.643E-01
    -9.833E-01   -1.002E+00   -1.021E+00   -1.040E+00   -1.059E+00   -1.078E+00   -1.097E+00   -1.116E+00   -1.135E+00   -1.154E+00
    -1.173E+00   -1.192E+00   -1.211E+00   -1.230E+00   -1.249E+00   -1.268E+00   -1.287E+00   -1.306E+00   -1.325E+00   -1.344E+00
    -1.363E+00   -1.382E+00   -1.401E+00   -1.420E+00   -1.439E+00   -1.458E+00   -1.477E+00   -1.496E+00   -1.515E+00   -1.534E+00
    -1.553E+00   -1.572E+00   -1.591E+00   -1.610E+00   -1.629E+00   -1.648E+00   -1.667E+00   -1.686E+00   -1.705E+00   -1.724E+00
    -1.743E+00   -1.762E+00   -1.781E+00   -1.800E+00   -1.819E+00   -1.838E+00   -1.857E+00   -1.876E+00   -1.895E+00   -1.914E+00
    -1.933E+00   -1.952E+00   -1.971E+00   -1.990E+00   -2.009E+00   -2.028E+00   -2.047E+00   -2.066E+00   -2.085E+00   -2.104E+00
    -2.123E+00   -2.142E+00   -2.161E+00   -2.180E+00   -2.199E+00   -2.218E+00   -2.237E+00   -2.256E+00   -2.275E+00   -2.294E+00
    -2.313E+00   -2.332E+00   -2.351E+00   -2.370E+00   -2.389E+00   -2.408E+00   -2.427E+00   -2.446E+00   -2.465E+00   -2.484E+00
    -2.503E+00   -2.522E+00   -2.541E+00   -2.560E+00   -2.579E+00   -2.598E+00   -2.617E+00   -2.636E+00   -2.655E+00   -2.674E+00
    -2.693E+00   -2.712E+00   -2.731E+00   -2.750E+00   -2.769E+00   -2.788E+00   -2.807E+00   -2.826E+00   -2.845E+00   -2.864E+00
    -2.883E+00   -2.902E+00   -2.921E+00   -2.940E+00   -2.959E+00   -2.977E+00   -2.996E+00   -3.015E+00   -3.034E+00   -3.053E+00
    -3.072E+00   -3.091E+00   -3.110E+00   -3.129E+00   -3.148E+00   -3.167E+00   -3.186E+00   -3.205E+00   -3.224E+00   -3.243E+00
    -3.262E+00   -3.281E+00   -3.300E+00   -3.319E+00   -3.338E+00   -3.357E+00   -3.376E+00   -3.395E+00   -3.414E+00   -3.433E+00
    -3.452E+00   -3.471E+00   -3.490E+00   -3.509E+00   -3.528E+00   -3.547E+00   -3.566E+00   -3.585E+00   -3.604E+00   -3.623E+00
    -3.642E+00   -3.661E+00   -3.680E+00   -3.699E+00   -3.718E+00   -3.737E+00   -3.756E+00   -3.775E+00   -3.794E+00   -3.813E+00
    -3.832E+00   -3.851E+00   -3.870E+00   -3.889E+00   -3.908E+00   -3.927E+00   -3.946E+00   -3.965E+00   -3.984E+00   -4.003E+00
    -4.022E+00   -4.041E+00   -4.060E+00   -4.079E+00   -4.098E+00   -4.117E+00   -4.136E+00   -4.155E+00   -4.174E+00   -4.193E+00
    -4.212E+00   -4.231E+00   -4.250E+00   -4.269E+00   -4.288E+00   -4.307E+00   -4.326E+00   -4.345E+00   -4.364E+00   -4.383E+00
    -4.402E+00   -4.421E+00   -4.440E+00   -4.459E+00   -4.478E+00   -4.497E+00   -4.516E+00   -4.535E+00   -4.554E+00   -4.573E+00
    -4.592E+00   -4.611E+00   -4.630E+00   -4.649E+00   -4.668E+00   -4.687E+00   -4.706E+00   -4.725E+00   -4.744E+00   -4.763E+00
    -4.782E+00   -4.801E+00   -4.820E+00   -4.839E+00   -4.858E+00   -4.877E+00   -4.896E+00   -4.915E+00   -4.934E+00   -4.953E+00
    -4.972E+00   -4.991E+00   -5.010E+00   -5.029E+00   -5.048E+00   -5.067E+00   -5.086E+00   -5.105E+00   -5.124E+00   -5.143E+00
    -5.162E+00   -5.181E+00   -5.200E+00   -5.218E+00   -5.237E+00   -5.256E+00   -5.275E+00   -5.294E+00   -5.313E+00   -5.332E+00
    -5.351E+00   -5.370E+00   -5.389E+00   -5.408E+00   -5.427E+00   -5.446E+00   -5.465E+00   -5.484E+00   -5.503E+00   -5.522E+00
    -5.541E+00   -5.560E+00   -5.579E+00   -5.598E+00   -5.617E+00   -5.636E+00   -5.655E+00   -5.674E+00   -5.693E+00   -5.712E+00
    -5.731E+00   -5.750E+00   -5.769E+00   -5.788E+00   -5.807E+00   -5.826E+00   -5.845E+00   -5.864E+00   -5.883E+00   -5.902E+00
    -5.921E+00   -5.940E+00   -5.959E+00   -5.978E+00   -5.997E+00   -6.016E+00   -6.035E+00   -6.054E+00   -6.073E+00   -6.092E+00
    -6.111E+00   -6.130E+00   -6.149E+00   -6.168E+00   -6.187E+00   -6.206E+00   -6.225E+00   -6.244E+00   -6.263E+00   -6.282E+00
    -6.301E+00   -6.320E+00   -6.339E+00   -6.358E+00   -6.377E+00   -6.396E+00   -6.415E+00   -6.434E+00   -6.453E+00   -6.472E+00
    -6.491E+00   -6.510E+00   -6.529E+00   -6.548E+00   -6.567E+00   -6.586E+00   -6.605E+00   -6.624E+00   -6.643E+00   -6.662E+00
    -6.681E+00   -6.700E+00   -6.719E+00   -6.738E+00   -6.757E+00   -6.776E+00   -6.795E+00   -6.814E+00   -6.833E+00   -6.852E+00
    -6.871E+00   -6.890E+00   -6.909E+00   -6.928E+00   -6.947E+00   -6.966E+00   -6.985E+00   -7.004E+00   -7.023E+00   -7.041E+00
    -7.060E+00   -7.079E+00   -7.098E+00   -7.117E+00   -7.136E+00   -7.155E+00   -7.174E+00   -7.193E+00   -7.212E+00   -7.231E+00
    -7.250E+00   -7.269E+00   -7.288E+00   -7.307E+00   -7.326E+00   -7.345E+00   -7.364E+00   -7.383E+00   -7.402E+00   -7.421E+00
    -7.440E+00   -7.459E+00   -7.478E+00   -7.497E+00   -7.516E+00   -7.535E+00   -7.554E+00   -7.573E+00   -7.592E+00   -7.611E+00
    -7.630E+00   -7.649E+00   -7.668E+00   -7.687E+00   -7.706E+00   -7.725E+00   -7.744E+00   -7.763E+00   -7.782E+00   -7.801E+00
    -7.820E+00   -7.839E+00   -7.858E+00   -7.877E+00   -7.896E+00   -7.915E+00   -7.934E+00   -7.953E+00   -7.972E+00   -7.991E+00
    -8.010E+00   -8.029E+00   -8.048E+00   -8.067E+00   -8.086E+00   -8.105E+00   -8.124E+00   -8.143E+00   -8.162E+00   -8.181E+00
    -8.200E+00   -8.219E+00   -8.238E+00   -8.257E+00   -8.276E+00   -8.295E+00   -8.314E+00   -8.333E+00   -8.352E+00   -8.371E+00
    -8.390E+00   -8.409E+00   -8.428E+00   -8.447E+00   -8.466E+00   -8.485E+00   -8.503E+00   -8.522E+00   -8.541E+00   -8.560E+00
    -8.579E+00   -8.598E+00   -8.617E+00   -8.636E+00   -8.655E+00   -8.674E+00   -8.693E+00   -8.712E+00   -8.731E+00   -8.750E+00
    -8.769E+00   -8.788E+00   -8.807E+00   -8.826E+00   -8.845E+00   -8.864E+00   -8.883E+00   -8.902E+00   -8.921E+00   -8.940E+00
    -8.959E+00   -8.978E+00   -8.997E+00   -9.016E+00   -9.035E+00   -9.054E+00   -9.073E+00   -9.092E+00   -9.111E+00   -9.130E+00
    -9.149E+00   -9.168E+00   -9.187E+00   -9.206E+00   -9.225E+00   -9.244E+00   -9.263E+00   -9.282E+00   -9.301E+00   -9.320E+00
    -9.339E+00   -9.358E+00   -9.377E+00   -9.396E+00   -9.415E+00   -9.434E+00   -9.453E+00   -9.472E+00   -9.491E+00   -9.510E+00
    -9.529E+00   -9.548E+00   -9.567E+00   -9.586E+00   -9.605E+00   -9.624E+00   -9.643E+00   -9.662E+00   -9.681E+00   -9.700E+00
    -9.719E+00   -9.738E+00   -9.757E+00   -9.776E+00   -9.795E+00   -9.814E+00   -9.833E+00   -9.851E+00   -9.870E+00   -9.889E+00
    -9.908E+00   -9.927E+00   -9.946E+00   -9.965E+00   -9.984E+00   -1.000E+01   -1.002E+01   -1.004E+01   -1.006E+01   -1.008E+01
    -1.010E+01   -1.012E+01   -1.014E+01   -1.016E+01   -1.017E+01   -1.019E+01   -1.021E+01   -1.023E+01
 Asp      Conc. = 1.61E+01
