 LCModel (Version 6.3-1L) Copyright: S.W. Provencher.          Ref.: Magn. Reson. Med. 30:672-679 (1993).                
 Slice#1 Row#5 Col#1  PD_05_press_2_raw_act
 36 lines in following concentration table = NCONC+1
    Conc.  %SD /Cr+PCr  Metabolite                                         
 9.82E+03   9%  16.978 Ala                                                 
    0.000 999%   0.000 Asp                                                 
    0.000 999%   0.000 Cr                                                  
  578.640  21%   1.000 PCr                                                 
   56.195 198% 9.7E-02 GABA                                                
    0.000 999%   0.000 Glc                                                 
 2.71E+03  55%   4.683 Gln                                                 
 4.70E+03  38%   8.119 Glu                                                 
    0.000 999%   0.000 GPC                                                 
    0.000 999%   0.000 PCh                                                 
   73.660 349%   0.127 GSH                                                 
    0.000 999%   0.000 Ins                                                 
    0.000 999%   0.000 Lac                                                 
    0.000 999%   0.000 NAA                                                 
  786.114  24%   1.359 NAAG                                                
    0.000 999%   0.000 Scyllo                                              
    0.000 999%   0.000 Tau                                                 
    0.000 999%   0.000 -CrCH2                                              
    0.000 999%   0.000 GPC+PCh                                             
  786.114  24%   1.359 NAA+NAAG                                            
  578.640  21%   1.000 Cr+PCr                                              
 7.41E+03  38%  12.803 Glu+Gln                                             
    0.000 999%   0.000 Lip13a                                              
    0.000 999%   0.000 Lip13b                                              
    0.000 999%   0.000 Lip09                                               
 2.42E+03  12%   4.189 MM09                                                
    5.872 869% 1.0E-02 Lip20                                               
 3.64E+03  12%   6.283 MM20                                                
  727.108  12%   1.257 MM12                                                
 1.82E+03  12%   3.143 MM14                                                
  909.433  12%   1.572 MM17                                                
    0.000 999%   0.000 Lip13a+Lip13b                                       
 2.55E+03  12%   4.400 MM14+Lip13a+Lip13b+MM12                             
 2.42E+03  12%   4.189 MM09+Lip09                                          
 3.64E+03  12%   6.293 MM20+Lip20                                          
   6 lines in following misc. output table
  FWHM = 0.168 ppm    S/N =   3                                            
  Data shift = 0.161 ppm                                                   
  Ph: 128 deg      14.8 deg/ppm                                            
  alphaB,S = 1.8E+00,   3.0E+02                                            
    9 spline knots.   Ns = 9(2)                                            
  (15) 2 infls.   ( 5) 1 extrs.                                            
  498 points on ppm-axis = NY
      4.000000     3.992357     3.984714     3.977070     3.969427     3.961784     3.954141     3.946497     3.938854     3.931211
      3.923568     3.915925     3.908281     3.900638     3.892995     3.885352     3.877708     3.870065     3.862422     3.854779
      3.847136     3.839492     3.831849     3.824206     3.816563     3.808919     3.801276     3.793633     3.785990     3.778347
      3.770703     3.763060     3.755417     3.747774     3.740130     3.732487     3.724844     3.717201     3.709558     3.701914
      3.694271     3.686628     3.678985     3.671341     3.663698     3.656055     3.648412     3.640769     3.633125     3.625482
      3.617839     3.610196     3.602552     3.594909     3.587266     3.579623     3.571980     3.564336     3.556693     3.549050
      3.541407     3.533763     3.526120     3.518477     3.510834     3.503191     3.495547     3.487904     3.480261     3.472618
      3.464974     3.457331     3.449688     3.442045     3.434402     3.426758     3.419115     3.411472     3.403829     3.396185
      3.388542     3.380899     3.373256     3.365613     3.357969     3.350326     3.342683     3.335040     3.327396     3.319753
      3.312110     3.304467     3.296824     3.289180     3.281537     3.273894     3.266251     3.258607     3.250964     3.243321
      3.235678     3.228034     3.220391     3.212748     3.205105     3.197462     3.189818     3.182175     3.174532     3.166889
      3.159245     3.151602     3.143959     3.136316     3.128673     3.121029     3.113386     3.105743     3.098100     3.090456
      3.082813     3.075170     3.067527     3.059884     3.052240     3.044597     3.036954     3.029311     3.021667     3.014024
      3.006381     2.998738     2.991095     2.983451     2.975808     2.968165     2.960522     2.952878     2.945235     2.937592
      2.929949     2.922306     2.914662     2.907019     2.899376     2.891733     2.884089     2.876446     2.868803     2.861160
      2.853517     2.845873     2.838230     2.830587     2.822944     2.815300     2.807657     2.800014     2.792371     2.784728
      2.777084     2.769441     2.761798     2.754155     2.746511     2.738868     2.731225     2.723582     2.715939     2.708295
      2.700652     2.693009     2.685366     2.677722     2.670079     2.662436     2.654793     2.647150     2.639506     2.631863
      2.624220     2.616577     2.608933     2.601290     2.593647     2.586004     2.578361     2.570717     2.563074     2.555431
      2.547788     2.540144     2.532501     2.524858     2.517215     2.509572     2.501928     2.494285     2.486642     2.478999
      2.471355     2.463712     2.456069     2.448426     2.440783     2.433139     2.425496     2.417853     2.410210     2.402566
      2.394923     2.387280     2.379637     2.371994     2.364350     2.356707     2.349064     2.341421     2.333777     2.326134
      2.318491     2.310848     2.303205     2.295561     2.287918     2.280275     2.272632     2.264988     2.257345     2.249702
      2.242059     2.234416     2.226772     2.219129     2.211486     2.203843     2.196199     2.188556     2.180913     2.173270
      2.165627     2.157983     2.150340     2.142697     2.135054     2.127410     2.119767     2.112124     2.104481     2.096838
      2.089194     2.081551     2.073908     2.066265     2.058621     2.050978     2.043335     2.035692     2.028049     2.020405
      2.012762     2.005119     1.997476     1.989833     1.982190     1.974546     1.966903     1.959260     1.951617     1.943974
      1.936331     1.928688     1.921045     1.913402     1.905759     1.898115     1.890472     1.882829     1.875186     1.867543
      1.859900     1.852257     1.844614     1.836971     1.829327     1.821684     1.814041     1.806398     1.798755     1.791112
      1.783469     1.775826     1.768183     1.760540     1.752896     1.745253     1.737610     1.729967     1.722324     1.714681
      1.707038     1.699395     1.691752     1.684108     1.676465     1.668822     1.661179     1.653536     1.645893     1.638250
      1.630607     1.622964     1.615321     1.607677     1.600034     1.592391     1.584748     1.577105     1.569462     1.561819
      1.554176     1.546533     1.538890     1.531246     1.523603     1.515960     1.508317     1.500674     1.493031     1.485388
      1.477745     1.470102     1.462458     1.454815     1.447172     1.439529     1.431886     1.424243     1.416600     1.408957
      1.401314     1.393671     1.386027     1.378384     1.370741     1.363098     1.355455     1.347812     1.340169     1.332526
      1.324883     1.317240     1.309596     1.301953     1.294310     1.286667     1.279024     1.271381     1.263738     1.256095
      1.248452     1.240808     1.233165     1.225522     1.217879     1.210236     1.202593     1.194950     1.187307     1.179664
      1.172021     1.164377     1.156734     1.149091     1.141448     1.133805     1.126162     1.118519     1.110876     1.103233
      1.095590     1.087946     1.080303     1.072660     1.065017     1.057374     1.049731     1.042088     1.034445     1.026802
      1.019158     1.011515     1.003872     0.996229     0.988586     0.980943     0.973300     0.965657     0.958014     0.950371
      0.942727     0.935084     0.927441     0.919798     0.912155     0.904512     0.896869     0.889226     0.881583     0.873940
      0.866296     0.858653     0.851010     0.843367     0.835724     0.828081     0.820438     0.812795     0.805152     0.797508
      0.789865     0.782222     0.774579     0.766936     0.759293     0.751650     0.744007     0.736364     0.728721     0.721077
      0.713434     0.705791     0.698148     0.690505     0.682862     0.675219     0.667576     0.659933     0.652290     0.644646
      0.637003     0.629360     0.621717     0.614074     0.606431     0.598788     0.591145     0.583502     0.575858     0.568215
      0.560572     0.552929     0.545286     0.537643     0.530000     0.522357     0.514714     0.507071     0.499427     0.491784
      0.484141     0.476498     0.468855     0.461212     0.453569     0.445925     0.438282     0.430639     0.422996     0.415353
      0.407710     0.400067     0.392424     0.384780     0.377137     0.369494     0.361851     0.354208     0.346565     0.338922
      0.331278     0.323635     0.315992     0.308349     0.300706     0.293063     0.285420     0.277777     0.270133     0.262490
      0.254847     0.247204     0.239561     0.231918     0.224275     0.216631     0.208988     0.201345
 NY phased data points follow
   8.37217E+01  8.25929E+01  8.06593E+01  8.59938E+01  7.67369E+01  7.80950E+01  7.82461E+01  7.53544E+01  8.08063E+01  8.08361E+01
   7.20912E+01  7.44594E+01  7.81330E+01  6.67495E+01  7.76100E+01  7.04579E+01  7.40356E+01  6.71338E+01  6.97617E+01  7.94735E+01
   7.47651E+01  6.98753E+01  7.42485E+01  6.15408E+01  6.09528E+01  6.85214E+01  6.82888E+01  6.83067E+01  7.14396E+01  7.03919E+01
   6.94454E+01  6.57995E+01  6.53974E+01  6.78236E+01  7.31548E+01  6.61294E+01  6.29858E+01  6.98444E+01  6.33035E+01  6.61212E+01
   6.28819E+01  6.16277E+01  6.22028E+01  5.70486E+01  5.79436E+01  6.10005E+01  5.99157E+01  6.07085E+01  6.57707E+01  6.90695E+01
   6.71445E+01  6.23328E+01  5.94098E+01  5.97478E+01  5.55960E+01  6.00869E+01  5.27635E+01  5.08690E+01  5.35870E+01  5.28732E+01
   4.99809E+01  5.50786E+01  5.16236E+01  4.70346E+01  5.07234E+01  5.91465E+01  5.26303E+01  4.03954E+01  4.84534E+01  5.03151E+01
   4.69579E+01  4.82348E+01  5.19257E+01  4.70827E+01  4.41179E+01  5.52442E+01  4.80104E+01  4.48477E+01  4.83049E+01  4.25574E+01
   4.27905E+01  4.25472E+01  4.47917E+01  5.05188E+01  4.91918E+01  4.42962E+01  4.06918E+01  4.23394E+01  4.94891E+01  5.01579E+01
   4.40385E+01  4.61903E+01  4.17066E+01  4.97731E+01  4.26770E+01  4.21443E+01  4.58238E+01  4.27516E+01  4.78441E+01  4.21174E+01
   3.55283E+01  4.37455E+01  3.63068E+01  4.31171E+01  4.44092E+01  4.40452E+01  4.03566E+01  4.16275E+01  4.13274E+01  4.13235E+01
   4.14096E+01  4.31780E+01  4.42102E+01  5.26509E+01  4.75163E+01  4.80508E+01  4.93923E+01  5.03215E+01  4.69689E+01  5.41270E+01
   4.49585E+01  4.66940E+01  4.73789E+01  4.52239E+01  4.52084E+01  4.78078E+01  4.12619E+01  4.04044E+01  4.18551E+01  4.53822E+01
   4.14611E+01  4.13943E+01  3.95018E+01  4.21942E+01  4.18527E+01  3.33928E+01  4.33336E+01  4.01771E+01  3.68184E+01  4.01506E+01
   4.74247E+01  4.21581E+01  4.03083E+01  3.83132E+01  4.08115E+01  3.76394E+01  3.58451E+01  4.23683E+01  3.89396E+01  4.30555E+01
   4.12362E+01  4.77078E+01  4.39346E+01  3.77464E+01  3.30651E+01  3.59082E+01  3.97069E+01  3.25348E+01  3.10530E+01  3.82337E+01
   3.30693E+01  3.43375E+01  3.14922E+01  3.91670E+01  2.98293E+01  3.26254E+01  3.59554E+01  2.88609E+01  3.06605E+01  2.65644E+01
   3.34007E+01  2.57680E+01  2.98419E+01  2.77151E+01  2.06450E+01  2.89573E+01  1.84531E+01  2.98929E+01  2.48429E+01  2.30988E+01
   2.34044E+01  2.04648E+01  1.98823E+01  2.78356E+01  2.08137E+01  2.29760E+01  1.86485E+01  2.58891E+01  1.97495E+01  2.08240E+01
   1.72822E+01  1.94796E+01  1.57262E+01  2.11336E+01  2.72704E+01  2.80787E+01  1.85221E+01  1.86447E+01  2.03971E+01  2.34421E+01
   2.43324E+01  2.40740E+01  1.58504E+01  1.99994E+01  1.90700E+01  1.64995E+01  2.14947E+01  2.49331E+01  1.96612E+01  1.89139E+01
   2.11976E+01  2.27150E+01  2.84719E+01  1.81132E+01  2.29597E+01  2.17112E+01  2.48808E+01  2.64192E+01  2.17644E+01  2.16708E+01
   1.63883E+01  2.48233E+01  1.96816E+01  2.17159E+01  2.56112E+01  2.42875E+01  2.87930E+01  2.27471E+01  2.68699E+01  1.82891E+01
   2.30653E+01  2.87639E+01  1.86450E+01  2.45650E+01  1.75023E+01  2.63584E+01  2.28070E+01  1.62092E+01  2.13430E+01  3.23766E+01
   4.08395E+01  3.68375E+01  3.52627E+01  3.43984E+01  4.15795E+01  4.55416E+01  5.57523E+01  4.41122E+01  4.52093E+01  4.87027E+01
   4.81290E+01  4.05521E+01  4.04445E+01  3.93824E+01  3.98766E+01  3.46578E+01  3.85637E+01  3.24201E+01  3.49398E+01  2.91190E+01
   3.78235E+01  2.63335E+01  3.46323E+01  2.92687E+01  3.19357E+01  2.97520E+01  2.70668E+01  2.58541E+01  2.93835E+01  1.99021E+01
   1.75953E+01  1.68829E+01  1.57822E+01  1.99689E+01  3.01748E+01  2.31272E+01  2.15855E+01  2.11318E+01  1.76184E+01  2.50865E+01
   1.55651E+01  2.51595E+01  2.10057E+01  2.04073E+01  1.54530E+01  2.10407E+01  1.99388E+01  2.08676E+01  2.07577E+01  2.74902E+01
   2.59659E+01  2.42033E+01  1.88385E+01  2.76627E+01  2.64833E+01  2.03563E+01  3.25869E+01  2.47953E+01  2.81062E+01  3.39453E+01
   2.88152E+01  1.78979E+01  3.78257E+01  3.14998E+01  3.90582E+01  3.32597E+01  3.55586E+01  4.09149E+01  3.70965E+01  4.35602E+01
   3.72952E+01  3.99408E+01  3.84896E+01  4.27148E+01  4.00718E+01  4.05261E+01  3.78999E+01  4.39865E+01  4.46598E+01  4.20362E+01
   3.60367E+01  3.62695E+01  2.79290E+01  2.95277E+01  2.21844E+01  2.17590E+01  2.13512E+01  1.20093E+01  1.83577E+01  1.75617E+01
   1.09498E+01  1.45384E+01  1.23543E+01  1.87532E+01  2.60784E+01  1.28443E+01  2.23898E+01  1.85753E+01  1.36086E+01  1.38711E+01
   1.32199E+01  7.16535E+00  1.74984E+01  1.16054E+01  1.98501E+01  1.13580E+01  1.88374E+01  1.60565E+01  1.56673E+01  1.22817E+01
   1.24141E+01  1.16122E+01  2.55435E+00  1.44824E+01  8.89957E+00  8.95317E+00  6.56028E+00  1.87004E+00  6.94221E+00  8.72602E+00
  -3.36823E-03  5.99402E+00  9.18445E+00  1.35300E+01  1.34828E+01  9.54343E+00  1.18806E+01  1.91694E+00  9.41310E+00  1.20078E+01
   6.91248E+00  4.59279E+00  1.55372E+01  8.13283E+00  8.69008E+00  1.12365E+01  3.63215E+00  1.00121E+01  1.12107E+01  1.23376E+01
   1.14448E+01  4.38331E+00  5.86520E+00  6.64492E+00  3.70430E+00  9.96036E+00  5.64500E+00  2.25224E+00  3.12711E+00  1.04691E+01
   6.32302E+00 -2.55830E-02  9.15882E+00  3.02814E+00  3.00368E+00  1.04518E+01  9.29243E-01  6.11558E+00 -1.33466E+00  1.80848E+00
  -3.29993E+00  3.50414E+00  2.31791E+00  2.75136E+00  4.85624E+00  3.69214E+00  4.66097E+00 -7.71864E-01  5.53089E+00 -2.01122E+00
   7.80477E+00  2.33826E+00 -2.39371E+00 -8.09285E+00  2.58758E+00 -7.12613E+00 -2.12228E+00 -3.11984E+00  5.52453E+00 -1.04807E+01
  -1.64156E-01  2.10395E+00  3.50183E+00 -1.28072E+00 -2.48675E+00 -3.60245E+00 -6.25526E+00 -4.89845E+00 -3.17885E+00 -3.67187E+00
  -5.36211E+00 -5.50549E+00 -2.18498E+00  8.38618E-01 -6.26132E+00 -4.36758E+00  6.53640E+00 -5.86764E+00 -4.50294E+00 -4.16796E-01
  -4.92025E+00  1.97174E+00 -7.05222E-03 -4.01392E+00 -1.38644E+00 -3.56232E+00  3.25865E+00 -5.80452E-01 -3.72668E+00  4.03656E+00
  -1.14147E+00 -1.99491E+00 -5.05955E+00 -3.60234E+00 -1.05203E+01 -9.20302E+00 -3.40685E+00 -1.69776E+00 -6.04200E+00 -1.68506E-01
  -3.15851E+00 -3.01523E+00 -9.67874E-01 -5.02276E+00 -2.01770E+00 -1.48407E+00 -4.21360E+00  5.88120E-01 -2.42004E-01  3.27130E+00
   2.50851E+00 -3.99089E+00 -3.88289E+00  3.63542E+00 -3.24086E+00 -2.04980E+00 -3.35674E+00 -7.17117E+00  9.87920E+00 -3.62670E+00
  -5.04346E+00 -6.49614E+00 -1.56407E+01 -8.21819E-01 -2.03637E+00 -1.52794E+00 -4.85435E+00 -4.76728E+00 -5.46378E+00 -6.20723E+00
  -1.76468E+00 -7.61115E+00 -3.92002E+00 -4.83854E+00 -5.48409E+00 -8.35399E+00 -4.56126E+00 -4.45455E+00
 NY points of the fit to the data follow
   7.45025E+01  7.52255E+01  7.44489E+01  7.53285E+01  7.44593E+01  7.54944E+01  7.47321E+01  7.62545E+01  7.52848E+01  7.64078E+01
   7.50406E+01  7.56854E+01  7.41923E+01  7.45066E+01  7.31847E+01  7.37482E+01  7.31591E+01  7.35685E+01  7.31537E+01  7.28418E+01
   7.23372E+01  7.13123E+01  7.10189E+01  6.94080E+01  6.97127E+01  6.77900E+01  6.88311E+01  6.67648E+01  6.84279E+01  6.62960E+01
   6.84330E+01  6.63041E+01  6.85333E+01  6.60908E+01  6.80711E+01  6.52752E+01  6.69398E+01  6.39712E+01  6.54603E+01  6.26516E+01
   6.41001E+01  6.17512E+01  6.32621E+01  6.13849E+01  6.27544E+01  6.12344E+01  6.23044E+01  6.10947E+01  6.15808E+01  6.02206E+01
   6.01975E+01  5.88757E+01  5.86138E+01  5.75098E+01  5.72298E+01  5.66130E+01  5.65680E+01  5.61644E+01  5.60083E+01  5.56373E+01
   5.53232E+01  5.49890E+01  5.46153E+01  5.42349E+01  5.38705E+01  5.35072E+01  5.31612E+01  5.28138E+01  5.24832E+01  5.21485E+01
   5.18299E+01  5.15054E+01  5.11959E+01  5.08795E+01  5.05772E+01  5.02675E+01  4.99710E+01  4.96683E+01  4.93773E+01  4.90815E+01
   4.87958E+01  4.85066E+01  4.82261E+01  4.79436E+01  4.76684E+01  4.73925E+01  4.71227E+01  4.68537E+01  4.65895E+01  4.63272E+01
   4.60689E+01  4.58137E+01  4.55622E+01  4.53148E+01  4.50711E+01  4.48322E+01  4.45975E+01  4.43684E+01  4.41446E+01  4.39271E+01
   4.37164E+01  4.35124E+01  4.33146E+01  4.31288E+01  4.29499E+01  4.27880E+01  4.26445E+01  4.25634E+01  4.27083E+01  4.29159E+01
   4.30562E+01  4.34409E+01  4.35158E+01  4.40681E+01  4.40936E+01  4.48495E+01  4.48386E+01  4.58162E+01  4.56610E+01  4.67960E+01
   4.63604E+01  4.75399E+01  4.67720E+01  4.78880E+01  4.68117E+01  4.77736E+01  4.64229E+01  4.71596E+01  4.56527E+01  4.61634E+01
   4.46273E+01  4.49484E+01  4.34887E+01  4.36643E+01  4.22808E+01  4.23071E+01  4.09628E+01  4.08233E+01  3.95218E+01  3.92138E+01
   3.80099E+01  3.75662E+01  3.65095E+01  3.59868E+01  3.51116E+01  3.45722E+01  3.39000E+01  3.34211E+01  3.30153E+01  3.26666E+01
   3.22724E+01  3.19501E+01  3.15431E+01  3.12646E+01  3.08599E+01  3.06197E+01  3.02133E+01  2.99821E+01  2.95707E+01  2.93612E+01
   2.89538E+01  2.87763E+01  2.83875E+01  2.82379E+01  2.78677E+01  2.77390E+01  2.74171E+01  2.73029E+01  2.70249E+01  2.69212E+01
   2.66879E+01  2.65853E+01  2.64034E+01  2.63053E+01  2.61925E+01  2.60670E+01  2.59559E+01  2.58097E+01  2.56610E+01  2.54883E+01
   2.53420E+01  2.51898E+01  2.50699E+01  2.50259E+01  2.49810E+01  2.50220E+01  2.49571E+01  2.51496E+01  2.50388E+01  2.52533E+01
   2.50061E+01  2.51485E+01  2.44682E+01  2.48634E+01  2.41038E+01  2.47946E+01  2.40196E+01  2.50415E+01  2.44152E+01  2.54555E+01
   2.44757E+01  2.54566E+01  2.41494E+01  2.50583E+01  2.34966E+01  2.43738E+01  2.32349E+01  2.43318E+01  2.35758E+01  2.47120E+01
   2.41109E+01  2.50190E+01  2.43095E+01  2.48350E+01  2.39618E+01  2.42911E+01  2.33380E+01  2.37472E+01  2.28198E+01  2.36455E+01
   2.30744E+01  2.43986E+01  2.42623E+01  2.58832E+01  2.58240E+01  2.71487E+01  2.69817E+01  2.79796E+01  2.75746E+01  2.82283E+01
   2.77617E+01  2.82170E+01  2.77965E+01  2.82928E+01  2.83994E+01  2.89587E+01  2.97430E+01  3.04851E+01  3.21736E+01  3.23331E+01
   3.42426E+01  3.37662E+01  3.59362E+01  3.50877E+01  3.74867E+01  3.64505E+01  3.93250E+01  3.80545E+01  4.10459E+01  3.92724E+01
   4.21256E+01  3.97269E+01  4.22437E+01  3.92837E+01  4.13413E+01  3.80732E+01  3.96086E+01  3.63299E+01  3.72794E+01  3.43165E+01
   3.48158E+01  3.22831E+01  3.23983E+01  3.01986E+01  2.99444E+01  2.79143E+01  2.74613E+01  2.56600E+01  2.50312E+01  2.35142E+01
   2.28096E+01  2.16473E+01  2.09103E+01  2.01320E+01  1.94502E+01  1.90646E+01  1.85155E+01  1.85108E+01  1.81909E+01  1.81965E+01
   1.79541E+01  1.79980E+01  1.79433E+01  1.80770E+01  1.81991E+01  1.84128E+01  1.87010E+01  1.89806E+01  1.93899E+01  1.97780E+01
   2.03026E+01  2.07940E+01  2.14240E+01  2.20148E+01  2.27309E+01  2.34143E+01  2.42039E+01  2.49451E+01  2.57645E+01  2.65355E+01
   2.73764E+01  2.81841E+01  2.90686E+01  2.99597E+01  3.09762E+01  3.20818E+01  3.34219E+01  3.50583E+01  3.73100E+01  4.00064E+01
   4.04452E+01  4.20952E+01  4.11855E+01  4.20706E+01  4.00484E+01  4.02461E+01  3.70368E+01  3.88830E+01  3.55472E+01  3.68485E+01
   3.24297E+01  3.23236E+01  2.72408E+01  2.62019E+01  2.16229E+01  2.06937E+01  1.78401E+01  1.72222E+01  1.68794E+01  1.63331E+01
   1.81975E+01  1.73166E+01  2.05817E+01  1.90466E+01  2.25421E+01  1.96515E+01  2.25988E+01  1.85203E+01  2.09412E+01  1.63721E+01
   1.88829E+01  1.49033E+01  1.80912E+01  1.49961E+01  1.86146E+01  1.60903E+01  1.95896E+01  1.71842E+01  1.99524E+01  1.74573E+01
   1.78934E+01  1.47093E+01  1.40376E+01  1.10856E+01  9.93101E+00  7.68312E+00  6.64606E+00  6.25962E+00  6.10489E+00  6.06014E+00
   6.07425E+00  6.12021E+00  6.18220E+00  6.25047E+00  6.31917E+00  6.38507E+00  6.44697E+00  6.50511E+00  6.56096E+00  6.61672E+00
   6.67514E+00  6.73923E+00  6.81207E+00  6.89655E+00  6.99517E+00  7.10981E+00  7.24158E+00  7.39069E+00  7.55641E+00  7.73698E+00
   7.92962E+00  8.13051E+00  8.33486E+00  8.53706E+00  8.73080E+00  8.90928E+00  9.06532E+00  9.19166E+00  9.28117E+00  9.32711E+00
   9.32343E+00  9.26493E+00  9.14754E+00  8.96845E+00  8.72631E+00  8.42130E+00  8.05513E+00  7.63108E+00  7.15381E+00  6.62925E+00
   6.06442E+00  5.46713E+00  4.84577E+00  4.20898E+00  3.56537E+00  2.92322E+00  2.29034E+00  1.67377E+00  1.07971E+00  5.13318E-01
  -2.12728E-02 -5.20984E-01 -9.83755E-01 -1.40846E+00 -1.79486E+00 -2.14344E+00 -2.45534E+00 -2.73216E+00 -2.97590E+00 -3.18880E+00
  -3.37325E+00 -3.53173E+00 -3.66671E+00 -3.78058E+00 -3.87562E+00 -3.95397E+00 -4.01762E+00 -4.06840E+00 -4.10795E+00 -4.13776E+00
  -4.15911E+00 -4.17318E+00 -4.18099E+00 -4.18343E+00 -4.18130E+00 -4.17524E+00 -4.16587E+00 -4.15366E+00 -4.13907E+00 -4.12248E+00
  -4.10421E+00 -4.08453E+00 -4.06369E+00 -4.04186E+00 -4.01929E+00 -3.99606E+00 -3.97235E+00 -3.94822E+00 -3.92381E+00 -3.89916E+00
  -3.87440E+00 -3.84952E+00 -3.82462E+00 -3.79969E+00 -3.77482E+00 -3.74999E+00 -3.72527E+00 -3.70062E+00 -3.67611E+00 -3.65170E+00
  -3.62744E+00 -3.60330E+00 -3.57931E+00 -3.55543E+00 -3.53170E+00 -3.50806E+00 -3.48454E+00 -3.46112E+00 -3.43779E+00 -3.41452E+00
  -3.39130E+00 -3.36810E+00 -3.34492E+00 -3.32171E+00 -3.29846E+00 -3.27513E+00 -3.25168E+00 -3.22807E+00 -3.20427E+00 -3.18023E+00
  -3.15590E+00 -3.13121E+00 -3.10609E+00 -3.08048E+00 -3.05430E+00 -3.02744E+00 -2.99981E+00 -2.97127E+00 -2.94169E+00 -2.91090E+00
  -2.87873E+00 -2.84493E+00 -2.80924E+00 -2.77132E+00 -2.73079E+00 -2.68717E+00 -2.63983E+00 -2.58796E+00
 NY background values follow
     7.284E+01    7.254E+01    7.225E+01    7.196E+01    7.166E+01    7.137E+01    7.108E+01    7.078E+01    7.048E+01    7.019E+01
     6.989E+01    6.959E+01    6.930E+01    6.900E+01    6.870E+01    6.840E+01    6.810E+01    6.780E+01    6.750E+01    6.721E+01
     6.690E+01    6.660E+01    6.630E+01    6.600E+01    6.570E+01    6.540E+01    6.510E+01    6.480E+01    6.450E+01    6.420E+01
     6.389E+01    6.359E+01    6.329E+01    6.299E+01    6.269E+01    6.238E+01    6.208E+01    6.178E+01    6.148E+01    6.118E+01
     6.088E+01    6.057E+01    6.027E+01    5.997E+01    5.967E+01    5.937E+01    5.907E+01    5.877E+01    5.847E+01    5.817E+01
     5.787E+01    5.757E+01    5.727E+01    5.697E+01    5.668E+01    5.638E+01    5.608E+01    5.578E+01    5.549E+01    5.519E+01
     5.490E+01    5.460E+01    5.431E+01    5.401E+01    5.372E+01    5.343E+01    5.313E+01    5.284E+01    5.255E+01    5.226E+01
     5.197E+01    5.168E+01    5.139E+01    5.111E+01    5.082E+01    5.053E+01    5.025E+01    4.996E+01    4.968E+01    4.940E+01
     4.911E+01    4.883E+01    4.855E+01    4.827E+01    4.799E+01    4.772E+01    4.744E+01    4.716E+01    4.689E+01    4.662E+01
     4.634E+01    4.607E+01    4.580E+01    4.553E+01    4.526E+01    4.499E+01    4.472E+01    4.446E+01    4.419E+01    4.392E+01
     4.366E+01    4.340E+01    4.313E+01    4.287E+01    4.261E+01    4.235E+01    4.209E+01    4.183E+01    4.157E+01    4.132E+01
     4.106E+01    4.081E+01    4.055E+01    4.030E+01    4.005E+01    3.979E+01    3.954E+01    3.929E+01    3.904E+01    3.879E+01
     3.855E+01    3.830E+01    3.805E+01    3.781E+01    3.756E+01    3.732E+01    3.707E+01    3.683E+01    3.659E+01    3.635E+01
     3.611E+01    3.587E+01    3.563E+01    3.539E+01    3.515E+01    3.492E+01    3.468E+01    3.444E+01    3.421E+01    3.398E+01
     3.374E+01    3.351E+01    3.328E+01    3.305E+01    3.282E+01    3.259E+01    3.236E+01    3.213E+01    3.190E+01    3.167E+01
     3.145E+01    3.122E+01    3.099E+01    3.077E+01    3.055E+01    3.032E+01    3.010E+01    2.988E+01    2.966E+01    2.944E+01
     2.921E+01    2.899E+01    2.878E+01    2.856E+01    2.834E+01    2.812E+01    2.790E+01    2.769E+01    2.747E+01    2.726E+01
     2.704E+01    2.683E+01    2.662E+01    2.640E+01    2.619E+01    2.598E+01    2.577E+01    2.556E+01    2.535E+01    2.514E+01
     2.493E+01    2.473E+01    2.452E+01    2.432E+01    2.411E+01    2.391E+01    2.370E+01    2.350E+01    2.330E+01    2.310E+01
     2.290E+01    2.270E+01    2.250E+01    2.231E+01    2.211E+01    2.192E+01    2.172E+01    2.153E+01    2.134E+01    2.115E+01
     2.096E+01    2.077E+01    2.058E+01    2.039E+01    2.020E+01    2.002E+01    1.984E+01    1.965E+01    1.947E+01    1.929E+01
     1.911E+01    1.893E+01    1.875E+01    1.858E+01    1.840E+01    1.823E+01    1.806E+01    1.788E+01    1.771E+01    1.755E+01
     1.738E+01    1.721E+01    1.704E+01    1.688E+01    1.672E+01    1.656E+01    1.640E+01    1.624E+01    1.608E+01    1.592E+01
     1.577E+01    1.561E+01    1.546E+01    1.531E+01    1.516E+01    1.501E+01    1.486E+01    1.472E+01    1.457E+01    1.443E+01
     1.429E+01    1.415E+01    1.401E+01    1.387E+01    1.374E+01    1.360E+01    1.347E+01    1.334E+01    1.321E+01    1.308E+01
     1.295E+01    1.283E+01    1.270E+01    1.258E+01    1.246E+01    1.234E+01    1.222E+01    1.210E+01    1.199E+01    1.187E+01
     1.176E+01    1.165E+01    1.154E+01    1.143E+01    1.132E+01    1.121E+01    1.111E+01    1.100E+01    1.090E+01    1.080E+01
     1.070E+01    1.060E+01    1.050E+01    1.040E+01    1.031E+01    1.021E+01    1.012E+01    1.002E+01    9.933E+00    9.842E+00
     9.752E+00    9.663E+00    9.576E+00    9.489E+00    9.403E+00    9.318E+00    9.234E+00    9.152E+00    9.069E+00    8.988E+00
     8.908E+00    8.829E+00    8.750E+00    8.672E+00    8.595E+00    8.519E+00    8.444E+00    8.369E+00    8.295E+00    8.222E+00
     8.150E+00    8.078E+00    8.007E+00    7.937E+00    7.868E+00    7.799E+00    7.731E+00    7.663E+00    7.596E+00    7.530E+00
     7.464E+00    7.399E+00    7.334E+00    7.270E+00    7.206E+00    7.143E+00    7.081E+00    7.019E+00    6.957E+00    6.896E+00
     6.835E+00    6.775E+00    6.715E+00    6.656E+00    6.597E+00    6.539E+00    6.481E+00    6.423E+00    6.365E+00    6.308E+00
     6.251E+00    6.195E+00    6.139E+00    6.083E+00    6.028E+00    5.972E+00    5.917E+00    5.863E+00    5.808E+00    5.754E+00
     5.701E+00    5.647E+00    5.594E+00    5.542E+00    5.489E+00    5.437E+00    5.385E+00    5.334E+00    5.283E+00    5.232E+00
     5.181E+00    5.131E+00    5.081E+00    5.032E+00    4.983E+00    4.934E+00    4.885E+00    4.837E+00    4.789E+00    4.742E+00
     4.694E+00    4.648E+00    4.601E+00    4.555E+00    4.509E+00    4.464E+00    4.418E+00    4.374E+00    4.329E+00    4.285E+00
     4.241E+00    4.198E+00    4.155E+00    4.112E+00    4.070E+00    4.028E+00    3.986E+00    3.945E+00    3.904E+00    3.863E+00
     3.823E+00    3.783E+00    3.743E+00    3.704E+00    3.665E+00    3.627E+00    3.588E+00    3.551E+00    3.513E+00    3.476E+00
     3.439E+00    3.403E+00    3.367E+00    3.331E+00    3.296E+00    3.261E+00    3.227E+00    3.192E+00    3.159E+00    3.125E+00
     3.092E+00    3.059E+00    3.027E+00    2.995E+00    2.963E+00    2.932E+00    2.901E+00    2.870E+00    2.840E+00    2.810E+00
     2.781E+00    2.751E+00    2.723E+00    2.694E+00    2.666E+00    2.638E+00    2.611E+00    2.584E+00    2.557E+00    2.531E+00
     2.505E+00    2.479E+00    2.454E+00    2.429E+00    2.404E+00    2.379E+00    2.355E+00    2.331E+00    2.307E+00    2.284E+00
     2.261E+00    2.238E+00    2.215E+00    2.192E+00    2.170E+00    2.148E+00    2.126E+00    2.104E+00    2.083E+00    2.061E+00
     2.040E+00    2.019E+00    1.998E+00    1.978E+00    1.957E+00    1.937E+00    1.917E+00    1.897E+00    1.877E+00    1.857E+00
     1.837E+00    1.817E+00    1.798E+00    1.778E+00    1.759E+00    1.740E+00    1.721E+00    1.701E+00    1.682E+00    1.663E+00
     1.645E+00    1.626E+00    1.607E+00    1.588E+00    1.569E+00    1.551E+00    1.532E+00    1.513E+00    1.495E+00    1.476E+00
     1.457E+00    1.439E+00    1.420E+00    1.401E+00    1.383E+00    1.364E+00    1.345E+00    1.327E+00    1.308E+00    1.289E+00
     1.270E+00    1.252E+00    1.233E+00    1.214E+00    1.195E+00    1.176E+00    1.157E+00    1.137E+00    1.118E+00    1.099E+00
     1.080E+00    1.060E+00    1.041E+00    1.021E+00    1.001E+00    9.817E-01    9.619E-01    9.419E-01
 Ala      Conc. = 9.82E+03
