 LCModel (Version 6.3-1L) Copyright: S.W. Provencher.          Ref.: Magn. Reson. Med. 30:672-679 (1993).                
 Slice#1 Row#2 Col#4  PD_05_press_2_raw_act
 36 lines in following concentration table = NCONC+1
    Conc.  %SD /Cr+PCr  Metabolite                                         
    0.000 999%   0.000 Ala                                                 
  160.491  92%   0.259 Asp                                                 
    0.000 999%   0.000 Cr                                                  
  618.701  18%   1.000 PCr                                                 
   80.595 111%   0.130 GABA                                                
   70.391 127%   0.114 Glc                                                 
  821.440  62%   1.328 Gln                                                 
 1.09E+03  52%   1.764 Glu                                                 
  167.689  27%   0.271 GPC                                                 
    0.000 999%   0.000 PCh                                                 
  177.082  94%   0.286 GSH                                                 
  661.833  76%   1.070 Ins                                                 
    0.000 999%   0.000 Lac                                                 
 1.58E+03   9%   2.562 NAA                                                 
    0.000 999%   0.000 NAAG                                                
   19.186 144% 3.1E-02 Scyllo                                              
   47.482 306% 7.7E-02 Tau                                                 
    0.000 999%   0.000 -CrCH2                                              
  167.689  27%   0.271 GPC+PCh                                             
 1.58E+03   9%   2.562 NAA+NAAG                                            
  618.701  18%   1.000 Cr+PCr                                              
 1.91E+03  40%   3.092 Glu+Gln                                             
    0.000 999%   0.000 Lip13a                                              
    0.000 999%   0.000 Lip13b                                              
    0.000 999%   0.000 Lip09                                               
 1.42E+03  21%   2.292 MM09                                                
 9.14E-03 999% 1.5E-05 Lip20                                               
 3.48E+03  16%   5.625 MM20                                                
  195.823  87%   0.317 MM12                                                
  936.447  44%   1.514 MM14                                                
  303.916 112%   0.491 MM17                                                
    0.000 999%   0.000 Lip13a+Lip13b                                       
 1.13E+03  41%   1.830 MM14+Lip13a+Lip13b+MM12                             
 1.42E+03  21%   2.292 MM09+Lip09                                          
 3.48E+03  16%   5.625 MM20+Lip20                                          
   6 lines in following misc. output table
  FWHM = 0.054 ppm    S/N =   3                                            
  Data shift = 0.023 ppm                                                   
  Ph: -72 deg     -25.8 deg/ppm                                            
  alphaB,S = 8.5E+01,   7.1E+01                                            
   14 spline knots.   Ns = 6(1)                                            
  ( 4) 2 infls.   ( 1) 1 extrs.                                            
  498 points on ppm-axis = NY
      4.000000     3.992357     3.984714     3.977070     3.969427     3.961784     3.954141     3.946497     3.938854     3.931211
      3.923568     3.915925     3.908281     3.900638     3.892995     3.885352     3.877708     3.870065     3.862422     3.854779
      3.847136     3.839492     3.831849     3.824206     3.816563     3.808919     3.801276     3.793633     3.785990     3.778347
      3.770703     3.763060     3.755417     3.747774     3.740130     3.732487     3.724844     3.717201     3.709558     3.701914
      3.694271     3.686628     3.678985     3.671341     3.663698     3.656055     3.648412     3.640769     3.633125     3.625482
      3.617839     3.610196     3.602552     3.594909     3.587266     3.579623     3.571980     3.564336     3.556693     3.549050
      3.541407     3.533763     3.526120     3.518477     3.510834     3.503191     3.495547     3.487904     3.480261     3.472618
      3.464974     3.457331     3.449688     3.442045     3.434402     3.426758     3.419115     3.411472     3.403829     3.396185
      3.388542     3.380899     3.373256     3.365613     3.357969     3.350326     3.342683     3.335040     3.327396     3.319753
      3.312110     3.304467     3.296824     3.289180     3.281537     3.273894     3.266251     3.258607     3.250964     3.243321
      3.235678     3.228034     3.220391     3.212748     3.205105     3.197462     3.189818     3.182175     3.174532     3.166889
      3.159245     3.151602     3.143959     3.136316     3.128673     3.121029     3.113386     3.105743     3.098100     3.090456
      3.082813     3.075170     3.067527     3.059884     3.052240     3.044597     3.036954     3.029311     3.021667     3.014024
      3.006381     2.998738     2.991095     2.983451     2.975808     2.968165     2.960522     2.952878     2.945235     2.937592
      2.929949     2.922306     2.914662     2.907019     2.899376     2.891733     2.884089     2.876446     2.868803     2.861160
      2.853517     2.845873     2.838230     2.830587     2.822944     2.815300     2.807657     2.800014     2.792371     2.784728
      2.777084     2.769441     2.761798     2.754155     2.746511     2.738868     2.731225     2.723582     2.715939     2.708295
      2.700652     2.693009     2.685366     2.677722     2.670079     2.662436     2.654793     2.647150     2.639506     2.631863
      2.624220     2.616577     2.608933     2.601290     2.593647     2.586004     2.578361     2.570717     2.563074     2.555431
      2.547788     2.540144     2.532501     2.524858     2.517215     2.509572     2.501928     2.494285     2.486642     2.478999
      2.471355     2.463712     2.456069     2.448426     2.440783     2.433139     2.425496     2.417853     2.410210     2.402566
      2.394923     2.387280     2.379637     2.371994     2.364350     2.356707     2.349064     2.341421     2.333777     2.326134
      2.318491     2.310848     2.303205     2.295561     2.287918     2.280275     2.272632     2.264988     2.257345     2.249702
      2.242059     2.234416     2.226772     2.219129     2.211486     2.203843     2.196199     2.188556     2.180913     2.173270
      2.165627     2.157983     2.150340     2.142697     2.135054     2.127410     2.119767     2.112124     2.104481     2.096838
      2.089194     2.081551     2.073908     2.066265     2.058621     2.050978     2.043335     2.035692     2.028049     2.020405
      2.012762     2.005119     1.997476     1.989833     1.982190     1.974546     1.966903     1.959260     1.951617     1.943974
      1.936331     1.928688     1.921045     1.913402     1.905759     1.898115     1.890472     1.882829     1.875186     1.867543
      1.859900     1.852257     1.844614     1.836971     1.829327     1.821684     1.814041     1.806398     1.798755     1.791112
      1.783469     1.775826     1.768183     1.760540     1.752896     1.745253     1.737610     1.729967     1.722324     1.714681
      1.707038     1.699395     1.691752     1.684108     1.676465     1.668822     1.661179     1.653536     1.645893     1.638250
      1.630607     1.622964     1.615321     1.607677     1.600034     1.592391     1.584748     1.577105     1.569462     1.561819
      1.554176     1.546533     1.538890     1.531246     1.523603     1.515960     1.508317     1.500674     1.493031     1.485388
      1.477745     1.470102     1.462458     1.454815     1.447172     1.439529     1.431886     1.424243     1.416600     1.408957
      1.401314     1.393671     1.386027     1.378384     1.370741     1.363098     1.355455     1.347812     1.340169     1.332526
      1.324883     1.317240     1.309596     1.301953     1.294310     1.286667     1.279024     1.271381     1.263738     1.256095
      1.248452     1.240808     1.233165     1.225522     1.217879     1.210236     1.202593     1.194950     1.187307     1.179664
      1.172021     1.164377     1.156734     1.149091     1.141448     1.133805     1.126162     1.118519     1.110876     1.103233
      1.095590     1.087946     1.080303     1.072660     1.065017     1.057374     1.049731     1.042088     1.034445     1.026802
      1.019158     1.011515     1.003872     0.996229     0.988586     0.980943     0.973300     0.965657     0.958014     0.950371
      0.942727     0.935084     0.927441     0.919798     0.912155     0.904512     0.896869     0.889226     0.881583     0.873940
      0.866296     0.858653     0.851010     0.843367     0.835724     0.828081     0.820438     0.812795     0.805152     0.797508
      0.789865     0.782222     0.774579     0.766936     0.759293     0.751650     0.744007     0.736364     0.728721     0.721077
      0.713434     0.705791     0.698148     0.690505     0.682862     0.675219     0.667576     0.659933     0.652290     0.644646
      0.637003     0.629360     0.621717     0.614074     0.606431     0.598788     0.591145     0.583502     0.575858     0.568215
      0.560572     0.552929     0.545286     0.537643     0.530000     0.522357     0.514714     0.507071     0.499427     0.491784
      0.484141     0.476498     0.468855     0.461212     0.453569     0.445925     0.438282     0.430639     0.422996     0.415353
      0.407710     0.400067     0.392424     0.384780     0.377137     0.369494     0.361851     0.354208     0.346565     0.338922
      0.331278     0.323635     0.315992     0.308349     0.300706     0.293063     0.285420     0.277777     0.270133     0.262490
      0.254847     0.247204     0.239561     0.231918     0.224275     0.216631     0.208988     0.201345
 NY phased data points follow
   1.52485E+01  2.28646E+00 -3.99793E+00 -1.61063E+00  1.93143E+01  1.71914E+01 -2.23310E+00  1.32950E+01  9.83313E+00  1.44482E+01
   2.22829E+01  2.41322E+01  3.42122E+01  2.06494E+01  8.98630E+00  2.40797E+00  8.87818E+00 -4.45485E+00  1.66372E+01  7.89881E+00
   1.01502E+00  8.26522E+00 -5.73529E+00  1.96799E+00  1.68088E+01 -7.96190E+00  6.53782E+00 -9.81578E-01 -3.22985E+00 -4.47225E+00
   1.19365E+01  1.75929E+01  1.63207E+01  6.61185E+00 -2.36502E+00  2.24963E-01  1.00867E+01  1.06269E+01 -4.52438E-01 -5.33951E+00
   5.84979E+00  1.09047E+01  1.00987E+01 -5.08966E+00 -4.69882E+00  2.19214E+00  1.26195E+01  9.22839E+00  7.92072E+00  1.09677E+01
   9.45445E+00  6.10678E+00 -5.57000E-01 -6.81117E+00  2.65327E+01 -3.43596E+00  2.06284E+01 -4.39271E+00  4.42052E+00  2.07545E+00
   8.45506E-01 -6.41998E+00  1.34645E+01  5.80247E+00 -1.74303E+00 -1.07252E+01  7.22662E+00  2.95366E+00  3.04346E+00  2.15088E+00
   1.76466E+01  1.29531E+01 -4.58540E+00 -1.36209E+01  1.14344E+00 -1.92591E+00 -7.16964E+00  1.01925E+00 -1.22699E+00  1.14170E+01
  -4.52071E+00  3.24647E+00  1.05078E+01 -1.52105E+01  8.90459E+00 -3.65172E+00 -1.02277E+01  5.75031E-01  1.15419E+01  3.06264E+00
  -2.38292E+00 -5.80853E+00 -3.65403E+00 -1.07975E+00  4.39112E+00 -2.92106E+00 -8.67439E+00 -1.11953E+01  1.04491E+01 -2.88259E+00
  -3.72155E+00  1.28840E+01  1.94105E+01  1.60552E+01  1.87425E+01  1.75114E+01  1.42156E+01  4.23346E+00  1.27454E+01  1.35829E+01
   1.26941E+01 -7.81169E+00 -1.16609E+01 -8.81015E+00 -2.10553E+00 -5.77041E+00 -1.53114E+01 -6.58874E+00  4.77793E-01 -9.74565E+00
  -2.36816E+00 -9.76222E+00 -1.11657E+01  5.81542E+00  1.59474E+00 -8.93326E-01  9.97507E+00  3.69695E+01  2.07975E+01  2.41381E+01
   2.25116E+01  5.69365E+00  1.47735E+01  2.27394E+01  1.14491E+01 -6.87999E+00  5.74777E+00  5.07711E+00  5.31049E+00  1.34689E+00
   6.59720E+00  1.41710E+00  1.45570E+00 -3.34847E+00 -9.68054E+00  2.60951E+00  5.96543E+00  2.67235E+00 -9.70458E+00  5.72848E-01
  -6.53435E+00 -1.12889E+01 -3.95667E+00 -1.31996E+00  1.42878E+00 -1.92334E-01  4.87977E+00 -2.94100E+00  8.25619E+00  4.27281E+00
   3.16436E+00  1.41084E+01 -1.61216E+01 -9.96035E+00 -1.29391E+00  7.08506E+00  3.85313E+00  7.51933E+00 -1.48205E+01  1.32431E+00
   1.56444E+01 -3.74783E+00  1.23592E+01  6.93531E+00 -1.61982E+00 -1.00239E+01  2.31508E+00 -6.26750E+00  8.10878E+00 -1.21553E+01
   3.82756E+00 -1.75416E-01  6.29587E+00 -1.21049E+01  1.26096E+01 -9.29148E+00  3.23266E+00 -4.56510E+00  1.80169E+00 -1.96971E+00
  -7.81300E+00  1.23868E+01  1.28575E+01 -1.50486E+01  7.11426E+00 -1.33062E+01  3.64445E+00 -5.36492E+00  8.68358E+00  8.19381E+00
   4.30691E+00  3.84618E+00  1.05827E+01  5.09855E+00 -4.24188E+00 -9.38529E-01  2.29269E+01  4.98335E+00 -8.23454E-05 -9.43777E-01
  -3.17022E+00 -7.66330E+00  8.24810E+00  1.53747E+01  2.18957E+01  1.94421E+01  2.19156E+01  1.71395E+01  1.18704E+01  2.26933E+01
   3.30529E+01  7.06836E+00  7.73540E+00  6.19150E+00  2.07589E+01  7.35594E+00  1.62743E+01  1.98584E+01  1.55340E+01  1.28935E+01
   1.94647E+01  1.07509E+01  1.65469E+01  1.44076E+01  2.91397E+01  6.17485E-02  1.63071E+01  2.74908E+01  2.32137E+01  6.22058E+00
   2.63755E+01 -9.60567E-01  8.73686E+00  2.47124E+01  4.32139E+00  2.59826E+01  2.73997E+01  2.11000E+01  1.58434E+01  1.70099E+01
   1.77545E+01  1.77332E+01  1.11389E+01 -2.64093E+00  1.88934E+01  7.68923E+00  1.55440E+01  2.28343E+01  3.71310E+01  5.05198E+01
   5.44127E+01  6.31273E+01  7.10934E+01  7.04427E+01  3.49379E+01  5.15847E+01  4.67441E+01  3.26787E+01  2.61199E+01  1.72922E+01
   1.80273E+01  2.16801E+01  1.73322E+01  4.71327E+00  1.56311E+01  8.40682E+00  1.72446E+01  8.62844E+00  8.74502E+00  1.04561E+01
   9.14580E-01  1.67036E+01  4.02791E+00  6.22100E+00  3.42908E+00 -4.08332E+00 -2.93576E+00  1.06611E+01  9.91008E+00  1.84080E+01
   5.54847E+00  2.88916E+00  2.43648E+01  3.93265E-01  1.63018E+01  2.87098E+00 -7.16333E+00 -6.21312E+00  9.20826E+00 -6.18999E+00
   1.07457E+01 -8.00659E+00 -1.92919E+01 -9.46196E+00 -4.96215E+00  3.83464E+00  7.10880E-01 -9.37031E+00  1.45832E+01 -6.50203E+00
   1.80118E+00 -7.24759E+00  1.17322E+01  1.68914E+01  1.45348E+01  7.78896E+00  2.12505E+01  5.64938E+00  5.69445E+00  2.78730E+00
   1.15204E+01  9.84224E+00 -5.62602E-01  1.40511E+01  1.78210E+01 -2.38100E+00  8.33068E+00  1.75163E+01  1.55011E+01  2.44998E+01
   7.50290E+00  1.42550E+01  1.35421E+01  1.40592E+01  2.96168E+00 -5.34390E+00  1.17440E+01  2.47236E-01  4.02783E+00  1.06442E+00
   5.73619E+00  2.63575E+00  1.27537E+01 -1.88321E+01 -7.36512E+00 -6.18219E+00 -2.32170E-01 -2.90018E+00 -1.66868E+00  8.45724E-01
   3.09865E+00 -5.57562E+00 -8.29097E+00 -1.97473E+01 -2.28609E+00  5.03573E-01 -1.30819E+00 -6.40112E+00 -1.39348E+01 -1.15205E+01
  -4.67699E+00 -1.10556E+01 -4.44865E+00  6.99336E+00 -7.53954E+00 -1.89461E+01  3.90600E+00 -3.44264E+00 -2.94245E+00 -3.71505E+00
   9.28339E-01 -3.78594E+00 -2.16804E+01 -1.20955E+01 -1.07096E+01 -3.86910E+00 -1.19886E+00 -3.82287E+00  2.39940E-01 -9.95382E-01
  -4.06435E+00  4.76479E+00  1.84529E+01  1.63110E+01  1.91945E+01  1.03638E+01  6.33337E+00  7.45138E+00  1.05438E+01  1.55040E+01
   9.32162E+00  1.31004E+01  1.58305E+01  1.15609E+01  9.05330E+00  8.15101E+00  2.12346E+01  1.23283E+00  3.12238E+01  2.36940E+01
   5.48764E+00  2.72843E+00  7.73759E+00  1.52961E+01  9.80737E+00 -1.19015E+00  4.09998E+00  6.19715E+00  8.86768E+00  1.49485E+01
  -2.05297E+00  3.84532E+00  1.24012E+01  8.13614E+00  4.79448E+00  1.55966E+01  9.10210E+00 -3.46461E+00 -7.95080E-01 -7.61605E+00
   5.03506E+00  6.92022E+00  1.71370E-01  5.63635E-01  4.08855E-01  4.15707E+00 -3.05260E+00  3.06884E+00 -9.62968E+00  1.28280E+01
  -1.89587E+00  1.06116E+01  6.72385E-01  7.48677E+00  7.53445E+00  1.67316E+00  1.05010E+01 -3.13853E+00  1.76735E+01 -7.64433E+00
   5.47741E+00 -5.07788E+00 -7.62251E+00 -2.79583E+00  1.03469E+01  9.90771E+00 -1.06898E+01  9.35092E-01  1.52855E+01  1.49433E+01
   5.08038E+00 -4.24712E-01 -7.91394E+00 -1.63098E+00 -1.10145E+00 -1.60316E-01  3.45903E-01  7.95784E+00  5.73149E+00 -1.41300E+00
   7.83286E+00 -3.10301E+00  2.72988E+01  2.07002E+00  7.00002E+00 -6.51726E+00  1.16568E+01 -3.19147E-01  1.49989E+01  6.10772E+00
   7.63730E+00  9.89879E+00 -2.31016E-01  9.29315E+00  2.08137E+00 -4.56208E+00  3.72353E+00 -5.19424E+00  5.54636E-01  8.97829E+00
   8.87934E+00  8.18632E+00  1.05088E+01  2.76364E+00  1.81346E+01 -1.09886E+00  8.60092E+00 -5.18005E+00  5.42610E+00  7.97687E+00
  -1.16695E+01  2.93249E+00  1.66121E+01  6.01120E+00 -1.87069E+00  7.55903E+00 -5.99935E+00 -8.76091E+00
 NY points of the fit to the data follow
   2.78362E+00  2.44807E+00  2.25269E+00  2.18196E+00  2.52840E+00  3.71689E+00  5.87774E+00  8.80815E+00  1.19681E+01  1.46482E+01
   1.62408E+01  1.64371E+01  1.53261E+01  1.33295E+01  1.08523E+01  8.04449E+00  5.25324E+00  3.44529E+00  2.91798E+00  2.80996E+00
   2.89944E+00  3.10326E+00  3.30296E+00  3.34572E+00  3.13291E+00  2.75506E+00  2.39884E+00  2.37664E+00  2.95817E+00  4.24323E+00
   6.03638E+00  7.86681E+00  9.22144E+00  9.77049E+00  9.33982E+00  7.99105E+00  5.93998E+00  3.77743E+00  2.14525E+00  1.20567E+00
   1.04123E+00  1.44155E+00  2.20497E+00  3.21490E+00  4.34582E+00  5.47592E+00  6.44712E+00  7.15300E+00  7.48658E+00  7.27718E+00
   6.56062E+00  5.54461E+00  4.37536E+00  3.13856E+00  2.05553E+00  1.45075E+00  1.43818E+00  1.82212E+00  2.36280E+00  2.89409E+00
   3.29503E+00  3.46224E+00  3.36317E+00  3.06137E+00  2.66928E+00  2.26022E+00  1.88407E+00  1.67093E+00  1.69734E+00  1.92408E+00
   2.27840E+00  2.64609E+00  2.95172E+00  3.14666E+00  3.21356E+00  3.17731E+00  3.06105E+00  2.89099E+00  2.66899E+00  2.43445E+00
   2.26987E+00  2.18602E+00  2.17032E+00  2.19983E+00  2.21238E+00  2.12136E+00  1.88733E+00  1.53967E+00  1.14942E+00  8.14795E-01
   6.19415E-01  5.85646E-01  6.93673E-01  9.35688E-01  1.31682E+00  1.69540E+00  1.93130E+00  2.05524E+00  2.62735E+00  4.22345E+00
   6.96492E+00  1.04815E+01  1.40187E+01  1.67374E+01  1.80375E+01  1.76954E+01  1.59478E+01  1.33348E+01  1.01923E+01  6.75694E+00
   3.81251E+00  2.52500E+00  2.33390E+00  2.37081E+00  2.47450E+00  2.59471E+00  2.71671E+00  2.82913E+00  2.93369E+00  3.04394E+00
   3.17880E+00  3.36534E+00  4.07834E+00  6.06131E+00  9.54261E+00  1.41575E+01  1.90191E+01  2.30270E+01  2.52908E+01  2.54362E+01
   2.36525E+01  2.05333E+01  1.65663E+01  1.19672E+01  7.44884E+00  4.58763E+00  3.48367E+00  2.91171E+00  2.60082E+00  2.49732E+00
   2.55306E+00  2.74775E+00  3.01268E+00  3.20831E+00  3.28099E+00  3.21267E+00  3.00489E+00  2.72278E+00  2.43004E+00  2.16197E+00
   1.93225E+00  1.71364E+00  1.51620E+00  1.36063E+00  1.26601E+00  1.21135E+00  1.14173E+00  9.95050E-01  7.31864E-01  3.63729E-01
  -1.52258E-02 -2.80335E-01 -3.64937E-01 -2.71053E-01 -5.97401E-02  1.68477E-01  3.33406E-01  4.09800E-01  3.81378E-01  1.94820E-01
  -1.41701E-01 -5.41046E-01 -9.75146E-01 -1.34861E+00 -1.63951E+00 -1.86267E+00 -1.96853E+00 -1.96926E+00 -1.89948E+00 -1.79244E+00
  -1.66718E+00 -1.51841E+00 -1.34246E+00 -1.19557E+00 -1.15783E+00 -1.20079E+00 -1.05821E+00 -5.87424E-01  1.62645E-01  9.77695E-01
   1.67614E+00  2.19993E+00  2.50972E+00  2.58508E+00  2.39960E+00  1.95157E+00  1.42530E+00  1.15772E+00  1.30137E+00  1.92613E+00
   3.01747E+00  4.41463E+00  5.85222E+00  7.05638E+00  7.68247E+00  7.40469E+00  6.05631E+00  3.83323E+00  1.24095E+00 -1.07010E+00
  -2.57658E+00 -2.85885E+00 -1.67313E+00  7.82466E-01  3.85532E+00  6.84408E+00  9.15703E+00  1.00619E+01  9.10256E+00  6.96734E+00
   4.43670E+00  1.97043E+00  1.39896E-01 -4.26827E-01  5.64856E-01  2.51735E+00  4.75329E+00  6.85647E+00  8.58407E+00  9.70682E+00
   9.98068E+00  9.54879E+00  8.95372E+00  8.56470E+00  8.47076E+00  8.78022E+00  9.54026E+00  1.06814E+01  1.19022E+01  1.28041E+01
   1.32013E+01  1.32208E+01  1.30034E+01  1.25803E+01  1.20445E+01  1.17659E+01  1.18573E+01  1.22075E+01  1.27963E+01  1.36575E+01
   1.45649E+01  1.52820E+01  1.59330E+01  1.65197E+01  1.69106E+01  1.75870E+01  2.05138E+01  2.69056E+01  3.65336E+01  4.77673E+01
   5.80432E+01  6.48776E+01  6.66707E+01  6.32325E+01  5.57930E+01  4.59668E+01  3.45038E+01  2.25426E+01  1.34333E+01  9.71687E+00
   8.29938E+00  7.47194E+00  6.98310E+00  6.68619E+00  6.48374E+00  6.35384E+00  6.23186E+00  6.06392E+00  5.82352E+00  5.50665E+00
   5.12442E+00  4.73530E+00  4.39723E+00  4.12568E+00  3.92472E+00  3.79168E+00  3.71124E+00  3.66746E+00  3.64274E+00  3.62234E+00
   3.60790E+00  3.59815E+00  3.59025E+00  3.58907E+00  3.60137E+00  3.62662E+00  3.66093E+00  3.70443E+00  3.75737E+00  3.81578E+00
   3.87711E+00  3.94062E+00  4.00269E+00  4.06156E+00  4.11633E+00  4.16669E+00  4.21295E+00  4.25598E+00  4.29690E+00  4.33704E+00
   4.37842E+00  4.42395E+00  4.47608E+00  4.53675E+00  4.60784E+00  4.69076E+00  4.78663E+00  4.89618E+00  5.01939E+00  5.15539E+00
   5.30255E+00  5.45858E+00  5.62068E+00  5.78551E+00  5.94922E+00  6.10750E+00  6.25587E+00  6.38999E+00  6.50581E+00  6.59960E+00
   6.66812E+00  6.70867E+00  6.71940E+00  6.69944E+00  6.64887E+00  6.56856E+00  6.46013E+00  6.32596E+00  6.16917E+00  5.99346E+00
   5.80294E+00  5.60181E+00  5.39427E+00  5.18443E+00  4.97629E+00  4.77351E+00  4.57930E+00  4.39631E+00  4.22659E+00  4.07170E+00
   3.93273E+00  3.81026E+00  3.70434E+00  3.61453E+00  3.54003E+00  3.47982E+00  3.43276E+00  3.39751E+00  3.37261E+00  3.35654E+00
   3.34788E+00  3.34538E+00  3.34799E+00  3.35479E+00  3.36507E+00  3.37834E+00  3.39445E+00  3.41363E+00  3.43640E+00  3.46352E+00
   3.49603E+00  3.53528E+00  3.58300E+00  3.64126E+00  3.71236E+00  3.79883E+00  3.90342E+00  4.02913E+00  4.17918E+00  4.35693E+00
   4.56564E+00  4.80841E+00  5.08809E+00  5.40706E+00  5.76708E+00  6.16893E+00  6.61213E+00  7.09471E+00  7.61305E+00  8.16175E+00
   8.73347E+00  9.31887E+00  9.90677E+00  1.04844E+01  1.10380E+01  1.15530E+01  1.20149E+01  1.24098E+01  1.27251E+01  1.29503E+01
   1.30775E+01  1.31019E+01  1.30219E+01  1.28395E+01  1.25599E+01  1.21915E+01  1.17450E+01  1.12335E+01  1.06711E+01  1.00724E+01
   9.45199E+00  8.82381E+00  8.20051E+00  7.59312E+00  7.01071E+00  6.46034E+00  5.94710E+00  5.47426E+00  5.04337E+00  4.65452E+00
   4.30659E+00  3.99754E+00  3.72479E+00  3.48535E+00  3.27606E+00  3.09366E+00  2.93497E+00  2.79702E+00  2.67712E+00  2.57285E+00
   2.48204E+00  2.40277E+00  2.33335E+00  2.27236E+00  2.21865E+00  2.17121E+00  2.12917E+00  2.09177E+00  2.05835E+00  2.02843E+00
   2.00159E+00  1.97749E+00  1.95576E+00  1.93611E+00  1.91830E+00  1.90216E+00  1.88754E+00  1.87429E+00  1.86223E+00  1.85122E+00
   1.84118E+00  1.83205E+00  1.82377E+00  1.81625E+00  1.80939E+00  1.80313E+00  1.79745E+00  1.79232E+00  1.78772E+00  1.78357E+00
   1.77980E+00  1.77640E+00  1.77337E+00  1.77071E+00  1.76839E+00  1.76635E+00  1.76455E+00  1.76301E+00  1.76172E+00  1.76069E+00
   1.75988E+00  1.75923E+00  1.75875E+00  1.75846E+00  1.75837E+00  1.75847E+00  1.75871E+00  1.75906E+00  1.75955E+00  1.76018E+00
   1.76097E+00  1.76189E+00  1.76291E+00  1.76401E+00  1.76522E+00  1.76657E+00  1.76804E+00  1.76962E+00  1.77126E+00  1.77299E+00
   1.77483E+00  1.77680E+00  1.77888E+00  1.78105E+00  1.78329E+00  1.78563E+00  1.78811E+00  1.79073E+00
 NY background values follow
     7.253E-02    7.591E-02    7.930E-02    8.268E-02    8.607E-02    8.945E-02    9.284E-02    9.622E-02    9.961E-02    1.030E-01
     1.064E-01    1.098E-01    1.131E-01    1.165E-01    1.199E-01    1.233E-01    1.267E-01    1.301E-01    1.335E-01    1.368E-01
     1.402E-01    1.436E-01    1.470E-01    1.504E-01    1.538E-01    1.571E-01    1.605E-01    1.639E-01    1.673E-01    1.707E-01
     1.741E-01    1.775E-01    1.808E-01    1.842E-01    1.876E-01    1.910E-01    1.944E-01    1.978E-01    2.012E-01    2.045E-01
     2.079E-01    2.113E-01    2.147E-01    2.181E-01    2.215E-01    2.248E-01    2.282E-01    2.316E-01    2.350E-01    2.384E-01
     2.418E-01    2.452E-01    2.485E-01    2.519E-01    2.553E-01    2.587E-01    2.621E-01    2.655E-01    2.688E-01    2.722E-01
     2.756E-01    2.790E-01    2.824E-01    2.858E-01    2.892E-01    2.925E-01    2.959E-01    2.993E-01    3.027E-01    3.061E-01
     3.095E-01    3.128E-01    3.162E-01    3.196E-01    3.230E-01    3.264E-01    3.298E-01    3.332E-01    3.365E-01    3.399E-01
     3.433E-01    3.467E-01    3.501E-01    3.535E-01    3.568E-01    3.602E-01    3.636E-01    3.670E-01    3.704E-01    3.738E-01
     3.772E-01    3.805E-01    3.839E-01    3.873E-01    3.907E-01    3.941E-01    3.975E-01    4.008E-01    4.042E-01    4.076E-01
     4.110E-01    4.144E-01    4.178E-01    4.212E-01    4.245E-01    4.279E-01    4.313E-01    4.347E-01    4.381E-01    4.415E-01
     4.448E-01    4.482E-01    4.516E-01    4.550E-01    4.584E-01    4.618E-01    4.652E-01    4.685E-01    4.719E-01    4.753E-01
     4.787E-01    4.821E-01    4.855E-01    4.888E-01    4.922E-01    4.956E-01    4.990E-01    5.024E-01    5.058E-01    5.092E-01
     5.125E-01    5.159E-01    5.193E-01    5.227E-01    5.261E-01    5.295E-01    5.328E-01    5.362E-01    5.396E-01    5.430E-01
     5.464E-01    5.498E-01    5.532E-01    5.565E-01    5.599E-01    5.633E-01    5.667E-01    5.701E-01    5.735E-01    5.768E-01
     5.802E-01    5.836E-01    5.870E-01    5.904E-01    5.938E-01    5.972E-01    6.005E-01    6.039E-01    6.073E-01    6.107E-01
     6.141E-01    6.175E-01    6.208E-01    6.242E-01    6.276E-01    6.310E-01    6.344E-01    6.378E-01    6.412E-01    6.445E-01
     6.479E-01    6.513E-01    6.547E-01    6.581E-01    6.615E-01    6.648E-01    6.682E-01    6.716E-01    6.750E-01    6.784E-01
     6.818E-01    6.851E-01    6.885E-01    6.919E-01    6.953E-01    6.987E-01    7.021E-01    7.054E-01    7.088E-01    7.122E-01
     7.156E-01    7.190E-01    7.224E-01    7.258E-01    7.291E-01    7.325E-01    7.359E-01    7.393E-01    7.427E-01    7.461E-01
     7.494E-01    7.528E-01    7.562E-01    7.596E-01    7.630E-01    7.664E-01    7.697E-01    7.731E-01    7.765E-01    7.799E-01
     7.833E-01    7.867E-01    7.900E-01    7.934E-01    7.968E-01    8.002E-01    8.036E-01    8.070E-01    8.103E-01    8.137E-01
     8.171E-01    8.205E-01    8.239E-01    8.273E-01    8.306E-01    8.340E-01    8.374E-01    8.408E-01    8.442E-01    8.476E-01
     8.509E-01    8.543E-01    8.577E-01    8.611E-01    8.645E-01    8.678E-01    8.712E-01    8.746E-01    8.780E-01    8.814E-01
     8.848E-01    8.881E-01    8.915E-01    8.949E-01    8.983E-01    9.017E-01    9.051E-01    9.084E-01    9.118E-01    9.152E-01
     9.186E-01    9.220E-01    9.253E-01    9.287E-01    9.321E-01    9.355E-01    9.389E-01    9.423E-01    9.456E-01    9.490E-01
     9.524E-01    9.558E-01    9.592E-01    9.625E-01    9.659E-01    9.693E-01    9.727E-01    9.761E-01    9.795E-01    9.828E-01
     9.862E-01    9.896E-01    9.930E-01    9.964E-01    9.997E-01    1.003E+00    1.007E+00    1.010E+00    1.013E+00    1.017E+00
     1.020E+00    1.023E+00    1.027E+00    1.030E+00    1.034E+00    1.037E+00    1.040E+00    1.044E+00    1.047E+00    1.050E+00
     1.054E+00    1.057E+00    1.061E+00    1.064E+00    1.067E+00    1.071E+00    1.074E+00    1.078E+00    1.081E+00    1.084E+00
     1.088E+00    1.091E+00    1.094E+00    1.098E+00    1.101E+00    1.105E+00    1.108E+00    1.111E+00    1.115E+00    1.118E+00
     1.121E+00    1.125E+00    1.128E+00    1.132E+00    1.135E+00    1.138E+00    1.142E+00    1.145E+00    1.149E+00    1.152E+00
     1.155E+00    1.159E+00    1.162E+00    1.165E+00    1.169E+00    1.172E+00    1.176E+00    1.179E+00    1.182E+00    1.186E+00
     1.189E+00    1.192E+00    1.196E+00    1.199E+00    1.203E+00    1.206E+00    1.209E+00    1.213E+00    1.216E+00    1.220E+00
     1.223E+00    1.226E+00    1.230E+00    1.233E+00    1.236E+00    1.240E+00    1.243E+00    1.247E+00    1.250E+00    1.253E+00
     1.257E+00    1.260E+00    1.263E+00    1.267E+00    1.270E+00    1.274E+00    1.277E+00    1.280E+00    1.284E+00    1.287E+00
     1.290E+00    1.294E+00    1.297E+00    1.301E+00    1.304E+00    1.307E+00    1.311E+00    1.314E+00    1.318E+00    1.321E+00
     1.324E+00    1.328E+00    1.331E+00    1.334E+00    1.338E+00    1.341E+00    1.345E+00    1.348E+00    1.351E+00    1.355E+00
     1.358E+00    1.361E+00    1.365E+00    1.368E+00    1.372E+00    1.375E+00    1.378E+00    1.382E+00    1.385E+00    1.389E+00
     1.392E+00    1.395E+00    1.399E+00    1.402E+00    1.405E+00    1.409E+00    1.412E+00    1.416E+00    1.419E+00    1.422E+00
     1.426E+00    1.429E+00    1.432E+00    1.436E+00    1.439E+00    1.443E+00    1.446E+00    1.449E+00    1.453E+00    1.456E+00
     1.460E+00    1.463E+00    1.466E+00    1.470E+00    1.473E+00    1.476E+00    1.480E+00    1.483E+00    1.487E+00    1.490E+00
     1.493E+00    1.497E+00    1.500E+00    1.503E+00    1.507E+00    1.510E+00    1.514E+00    1.517E+00    1.520E+00    1.524E+00
     1.527E+00    1.530E+00    1.534E+00    1.537E+00    1.541E+00    1.544E+00    1.547E+00    1.551E+00    1.554E+00    1.558E+00
     1.561E+00    1.564E+00    1.568E+00    1.571E+00    1.574E+00    1.578E+00    1.581E+00    1.585E+00    1.588E+00    1.591E+00
     1.595E+00    1.598E+00    1.601E+00    1.605E+00    1.608E+00    1.612E+00    1.615E+00    1.618E+00    1.622E+00    1.625E+00
     1.629E+00    1.632E+00    1.635E+00    1.639E+00    1.642E+00    1.645E+00    1.649E+00    1.652E+00    1.656E+00    1.659E+00
     1.662E+00    1.666E+00    1.669E+00    1.672E+00    1.676E+00    1.679E+00    1.683E+00    1.686E+00    1.689E+00    1.693E+00
     1.696E+00    1.699E+00    1.703E+00    1.706E+00    1.710E+00    1.713E+00    1.716E+00    1.720E+00    1.723E+00    1.727E+00
     1.730E+00    1.733E+00    1.737E+00    1.740E+00    1.743E+00    1.747E+00    1.750E+00    1.754E+00
 Asp      Conc. = 1.60E+02
