 LCModel (Version 6.3-1L) Copyright: S.W. Provencher.          Ref.: Magn. Reson. Med. 30:672-679 (1993).                
 Slice#2 Row#4 Col#10  PD_05_press_2_raw_act
 36 lines in following concentration table = NCONC+1
    Conc.  %SD /Cr+PCr  Metabolite                                         
 2.78E+03  23%   0.809 Ala                                                 
    0.000 999%   0.000 Asp                                                 
 1.10E+03  67%   0.319 Cr                                                  
 2.34E+03  31%   0.681 PCr                                                 
  379.205 111%   0.110 GABA                                                
  218.453 185% 6.4E-02 Glc                                                 
 5.81E+03  22%   1.693 Gln                                                 
 6.50E+03  22%   1.894 Glu                                                 
 1.24E+03   6%   0.362 GPC                                                 
    0.000 999%   0.000 PCh                                                 
  966.198  31%   0.281 GSH                                                 
 4.39E+03  21%   1.278 Ins                                                 
    0.000 999%   0.000 Lac                                                 
 4.47E+03   9%   1.302 NAA                                                 
  202.605 217% 5.9E-02 NAAG                                                
  527.991  17%   0.154 Scyllo                                              
  291.676 188% 8.5E-02 Tau                                                 
 1.23E+03  31%   0.358 -CrCH2                                              
 1.24E+03   6%   0.362 GPC+PCh                                             
 4.67E+03   6%   1.361 NAA+NAAG                                            
 3.43E+03   6%   1.000 Cr+PCr                                              
 1.23E+04  19%   3.587 Glu+Gln                                             
 1.10E+04  13%   3.210 Lip13a                                              
    0.000 999%   0.000 Lip13b                                              
    0.000 999%   0.000-Lip09                                               
 3.06E+03  16%   0.892 MM09                                                
 1.61E+03  36%   0.468 Lip20                                               
 5.31E+03  17%   1.548 MM20                                                
  946.977  31%   0.276 MM12                                                
 6.57E+03  14%   1.914+MM14                                                
 3.43E+03  18%   1.000 MM17                                                
 1.10E+04  13%   3.210 Lip13a+Lip13b                                       
 1.85E+04   7%   5.400 MM14+Lip13a+Lip13b+MM12                             
 3.06E+03  16%   0.892 MM09+Lip09                                          
 6.92E+03  14%   2.015 MM20+Lip20                                          
   6 lines in following misc. output table
  FWHM = 0.084 ppm    S/N =   7                                            
  Data shift = 0.015 ppm                                                   
  Ph: -67 deg     -25.3 deg/ppm                                            
  alphaB,S = 1.2E+00,   9.4E+01                                            
   14 spline knots.   Ns =10(1)                                            
  ( 9) 7 infls.   ( 7) 3 extrs.                                            
  498 points on ppm-axis = NY
      4.000000     3.992357     3.984714     3.977070     3.969427     3.961784     3.954141     3.946497     3.938854     3.931211
      3.923568     3.915925     3.908281     3.900638     3.892995     3.885352     3.877708     3.870065     3.862422     3.854779
      3.847136     3.839492     3.831849     3.824206     3.816563     3.808919     3.801276     3.793633     3.785990     3.778347
      3.770703     3.763060     3.755417     3.747774     3.740130     3.732487     3.724844     3.717201     3.709558     3.701914
      3.694271     3.686628     3.678985     3.671341     3.663698     3.656055     3.648412     3.640769     3.633125     3.625482
      3.617839     3.610196     3.602552     3.594909     3.587266     3.579623     3.571980     3.564336     3.556693     3.549050
      3.541407     3.533763     3.526120     3.518477     3.510834     3.503191     3.495547     3.487904     3.480261     3.472618
      3.464974     3.457331     3.449688     3.442045     3.434402     3.426758     3.419115     3.411472     3.403829     3.396185
      3.388542     3.380899     3.373256     3.365613     3.357969     3.350326     3.342683     3.335040     3.327396     3.319753
      3.312110     3.304467     3.296824     3.289180     3.281537     3.273894     3.266251     3.258607     3.250964     3.243321
      3.235678     3.228034     3.220391     3.212748     3.205105     3.197462     3.189818     3.182175     3.174532     3.166889
      3.159245     3.151602     3.143959     3.136316     3.128673     3.121029     3.113386     3.105743     3.098100     3.090456
      3.082813     3.075170     3.067527     3.059884     3.052240     3.044597     3.036954     3.029311     3.021667     3.014024
      3.006381     2.998738     2.991095     2.983451     2.975808     2.968165     2.960522     2.952878     2.945235     2.937592
      2.929949     2.922306     2.914662     2.907019     2.899376     2.891733     2.884089     2.876446     2.868803     2.861160
      2.853517     2.845873     2.838230     2.830587     2.822944     2.815300     2.807657     2.800014     2.792371     2.784728
      2.777084     2.769441     2.761798     2.754155     2.746511     2.738868     2.731225     2.723582     2.715939     2.708295
      2.700652     2.693009     2.685366     2.677722     2.670079     2.662436     2.654793     2.647150     2.639506     2.631863
      2.624220     2.616577     2.608933     2.601290     2.593647     2.586004     2.578361     2.570717     2.563074     2.555431
      2.547788     2.540144     2.532501     2.524858     2.517215     2.509572     2.501928     2.494285     2.486642     2.478999
      2.471355     2.463712     2.456069     2.448426     2.440783     2.433139     2.425496     2.417853     2.410210     2.402566
      2.394923     2.387280     2.379637     2.371994     2.364350     2.356707     2.349064     2.341421     2.333777     2.326134
      2.318491     2.310848     2.303205     2.295561     2.287918     2.280275     2.272632     2.264988     2.257345     2.249702
      2.242059     2.234416     2.226772     2.219129     2.211486     2.203843     2.196199     2.188556     2.180913     2.173270
      2.165627     2.157983     2.150340     2.142697     2.135054     2.127410     2.119767     2.112124     2.104481     2.096838
      2.089194     2.081551     2.073908     2.066265     2.058621     2.050978     2.043335     2.035692     2.028049     2.020405
      2.012762     2.005119     1.997476     1.989833     1.982190     1.974546     1.966903     1.959260     1.951617     1.943974
      1.936331     1.928688     1.921045     1.913402     1.905759     1.898115     1.890472     1.882829     1.875186     1.867543
      1.859900     1.852257     1.844614     1.836971     1.829327     1.821684     1.814041     1.806398     1.798755     1.791112
      1.783469     1.775826     1.768183     1.760540     1.752896     1.745253     1.737610     1.729967     1.722324     1.714681
      1.707038     1.699395     1.691752     1.684108     1.676465     1.668822     1.661179     1.653536     1.645893     1.638250
      1.630607     1.622964     1.615321     1.607677     1.600034     1.592391     1.584748     1.577105     1.569462     1.561819
      1.554176     1.546533     1.538890     1.531246     1.523603     1.515960     1.508317     1.500674     1.493031     1.485388
      1.477745     1.470102     1.462458     1.454815     1.447172     1.439529     1.431886     1.424243     1.416600     1.408957
      1.401314     1.393671     1.386027     1.378384     1.370741     1.363098     1.355455     1.347812     1.340169     1.332526
      1.324883     1.317240     1.309596     1.301953     1.294310     1.286667     1.279024     1.271381     1.263738     1.256095
      1.248452     1.240808     1.233165     1.225522     1.217879     1.210236     1.202593     1.194950     1.187307     1.179664
      1.172021     1.164377     1.156734     1.149091     1.141448     1.133805     1.126162     1.118519     1.110876     1.103233
      1.095590     1.087946     1.080303     1.072660     1.065017     1.057374     1.049731     1.042088     1.034445     1.026802
      1.019158     1.011515     1.003872     0.996229     0.988586     0.980943     0.973300     0.965657     0.958014     0.950371
      0.942727     0.935084     0.927441     0.919798     0.912155     0.904512     0.896869     0.889226     0.881583     0.873940
      0.866296     0.858653     0.851010     0.843367     0.835724     0.828081     0.820438     0.812795     0.805152     0.797508
      0.789865     0.782222     0.774579     0.766936     0.759293     0.751650     0.744007     0.736364     0.728721     0.721077
      0.713434     0.705791     0.698148     0.690505     0.682862     0.675219     0.667576     0.659933     0.652290     0.644646
      0.637003     0.629360     0.621717     0.614074     0.606431     0.598788     0.591145     0.583502     0.575858     0.568215
      0.560572     0.552929     0.545286     0.537643     0.530000     0.522357     0.514714     0.507071     0.499427     0.491784
      0.484141     0.476498     0.468855     0.461212     0.453569     0.445925     0.438282     0.430639     0.422996     0.415353
      0.407710     0.400067     0.392424     0.384780     0.377137     0.369494     0.361851     0.354208     0.346565     0.338922
      0.331278     0.323635     0.315992     0.308349     0.300706     0.293063     0.285420     0.277777     0.270133     0.262490
      0.254847     0.247204     0.239561     0.231918     0.224275     0.216631     0.208988     0.201345
 NY phased data points follow
   3.61680E+01  3.61495E+01  4.30758E+01  3.02277E+01  2.93416E+01  4.28037E+01  5.69252E+01  5.10116E+01  5.83837E+01  4.86339E+01
   4.20539E+01  5.21647E+01  4.33988E+01  4.72548E+01  4.26185E+01  5.28972E+01  4.83151E+01  3.08134E+01  2.61230E+01  2.90111E+01
   3.46879E+01  2.92164E+01  3.82308E+01  3.47229E+01  3.63145E+01  4.08007E+01  3.23118E+01  2.45728E+01  3.45088E+01  3.22899E+01
   2.88259E+01  3.30886E+01  4.56412E+01  4.67707E+01  3.13803E+01  3.86431E+01  4.28218E+01  3.49428E+01  3.53798E+01  3.66590E+01
   3.85963E+01  3.48301E+01  3.83283E+01  4.67956E+01  6.61523E+01  4.39494E+01  4.62940E+01  3.70690E+01  3.82902E+01  3.39510E+01
   3.54555E+01  3.51434E+01  3.19124E+01  2.98276E+01  3.71789E+01  3.38917E+01  3.35464E+01  3.36832E+01  3.85787E+01  2.83015E+01
   1.90749E+01  1.88643E+01  2.54827E+01  1.30025E+01  8.68210E+00  1.00173E+01  6.98472E+00  1.42262E+01  2.08117E+01  7.83815E+00
   1.59964E+01  1.84519E+01  2.39525E+01  1.19784E+01  2.82722E+01  3.35979E+01  2.02116E+01  2.32521E+01  1.17370E+01  3.50239E+01
   2.56518E+01  3.52231E+01  3.02557E+01  2.48405E+01  2.21532E+01  2.21567E+01  2.97340E+01  3.18395E+01  3.41743E+01  4.20359E+01
   3.04353E+01  3.57859E+01  3.87550E+01  3.98879E+01  3.52894E+01  4.82348E+01  4.57288E+01  6.51997E+01  6.70081E+01  6.06299E+01
   6.47901E+01  7.81050E+01  8.79438E+01  9.05094E+01  8.14163E+01  8.49565E+01  5.76361E+01  5.13746E+01  4.33672E+01  4.04187E+01
   2.47290E+01  2.90081E+01  2.87605E+01  3.82269E+01  2.40620E+01  2.74804E+01  3.63812E+01  2.44582E+01  3.04341E+01  4.26627E+01
   4.86496E+01  5.26061E+01  6.05105E+01  5.74375E+01  5.93019E+01  7.99727E+01  9.19884E+01  8.78583E+01  9.95011E+01  8.71763E+01
   7.14497E+01  6.09822E+01  4.72533E+01  4.24463E+01  2.40286E+01  2.50320E+01  2.79617E+01  1.73245E+01  7.75697E+00  2.17210E+01
   1.86471E+01  1.62743E+01  1.94323E+01  1.59411E+01  1.87915E+01  2.19301E+01  1.49363E+01  1.56247E+01  1.97773E+01  2.14024E+01
   2.27168E+01  2.08299E+01  1.71674E+01  1.05990E+01  2.24155E+01  1.16485E+01  3.92387E+00  8.22350E+00  1.41400E+01  2.22857E+01
   1.87938E+01  1.70793E+01 -1.22928E+00  3.43651E+00 -4.39016E+00  1.23079E+01  2.80742E+00 -2.61596E+00 -2.13199E+00 -8.37655E+00
  -1.83290E+00 -1.21093E+01 -9.13486E+00 -5.91913E+00 -6.49492E+00 -5.61566E+00 -1.75692E+01 -2.99345E+00  1.02570E+00 -6.41067E+00
   1.50650E+00 -6.55254E+00 -7.63923E+00 -7.72562E+00  1.50497E+00 -7.79726E+00 -5.72808E+00 -8.86959E+00 -9.33903E+00 -2.20843E+00
   4.58848E+00  1.74467E+00  3.66697E+00  1.47544E+01  8.96295E+00  1.19070E+01 -8.53212E+00 -7.36757E+00 -3.84892E+00 -4.04905E+00
   6.45363E+00  9.93661E+00  3.15204E+00  1.02596E+01  1.55204E+01  1.93062E+01  1.02148E+01  1.58160E+01  1.02142E+01  1.58958E+01
   1.14512E+01  1.27375E+01  1.39607E+01  1.95149E+01  2.75025E+01  3.06308E+01  2.48641E+01  2.25159E+01  3.08975E+01  2.45134E+01
   2.22556E+01  1.30721E+01  5.88298E+00  1.88778E+01  1.58067E+01  2.47905E+01  1.96444E+01  2.59054E+01  3.04940E+01  2.71464E+01
   3.06074E+01  3.86767E+01  2.26401E+01  2.66907E+01  2.34035E+01  1.73305E+01  2.09933E+01  1.47689E+01  3.15938E+01  2.78789E+01
   3.03840E+01  2.10502E+01  2.76011E+01  2.40267E+01  3.36940E+01  3.97829E+01  3.06373E+01  4.22199E+01  4.60631E+01  5.91306E+01
   5.63250E+01  5.49949E+01  6.80651E+01  7.43576E+01  8.12961E+01  1.00375E+02  1.03358E+02  1.13619E+02  1.28440E+02  1.39131E+02
   1.37464E+02  1.43449E+02  1.38657E+02  1.21295E+02  1.04661E+02  7.47245E+01  5.66285E+01  4.78346E+01  3.47406E+01  4.13262E+01
   4.71766E+01  5.68572E+01  4.23633E+01  3.47154E+01  3.30106E+01  3.55253E+01  3.82156E+01  3.57666E+01  3.07526E+01  3.28009E+01
   3.40351E+01  2.42145E+01  3.83673E+01  2.03460E+01  2.72450E+01  2.57263E+01  2.44346E+01  2.54185E+01  2.23409E+01  2.11093E+01
   2.75172E+01  2.95795E+01  1.79089E+01  2.54141E+01  2.39935E+01  2.30653E+01  2.51544E+01  4.24058E+01  4.19094E+01  2.56110E+01
   3.18454E+01  3.34214E+01  4.71026E+01  4.14214E+01  5.29893E+01  4.82241E+01  5.22528E+01  5.22965E+01  5.46746E+01  5.20203E+01
   4.13124E+01  5.47689E+01  5.17124E+01  5.50875E+01  5.30300E+01  4.72729E+01  6.21868E+01  5.78041E+01  7.69700E+01  6.95364E+01
   6.95382E+01  6.83294E+01  6.12281E+01  7.99183E+01  6.71285E+01  4.76891E+01  5.91500E+01  6.88024E+01  6.87646E+01  6.95492E+01
   6.88497E+01  7.34584E+01  6.63210E+01  6.91168E+01  6.01026E+01  6.59806E+01  6.29642E+01  7.32512E+01  8.01499E+01  7.76576E+01
   7.92592E+01  9.86285E+01  8.55424E+01  9.69478E+01  8.74253E+01  8.34824E+01  8.11202E+01  7.57026E+01  9.03393E+01  8.15995E+01
   8.02884E+01  8.37766E+01  7.70455E+01  8.05868E+01  7.85122E+01  7.56428E+01  6.75234E+01  6.64970E+01  6.48426E+01  5.77147E+01
   6.28393E+01  5.25697E+01  5.24144E+01  5.49871E+01  5.96537E+01  5.82131E+01  3.53208E+01  4.88236E+01  4.74452E+01  4.75803E+01
   3.96784E+01  3.85405E+01  4.08264E+01  3.56031E+01  3.91011E+01  3.11551E+01  2.08156E+01  3.50734E+01  2.42697E+01  1.91240E+01
   1.48698E+01  1.15482E+01  2.66527E+01  1.06417E+01  2.02404E+01  1.19527E+01  1.40943E+01  2.66629E+01  2.37635E+01  1.37632E+01
   6.56892E+00  2.72446E+01  1.54511E+01  1.14901E+01  2.31863E+01  2.30596E+01  2.21812E+01  2.31312E+01  2.28015E+01  3.22259E+01
   3.45579E+01  3.32469E+01  2.83016E+01  2.81884E+01  2.78204E+01  3.30768E+01  3.35383E+01  3.40302E+01  2.30469E+01  2.53275E+01
   3.14513E+01  2.72832E+01  3.30985E+01  3.26052E+01  2.76430E+01  2.05578E+01  2.86044E+01  2.56912E+01  4.36877E+01  2.26852E+01
   2.45229E+01  2.80173E+01  3.14298E+01  1.83384E+01  2.59476E+01  2.43283E+01  3.25944E+01  1.63805E+01  1.17178E+01  7.90188E+00
   1.40205E+01  1.38956E+01  1.49106E+01  1.91714E+01  1.80969E+01  2.06079E+01  1.24271E+01  1.86127E+01  1.92832E+01  1.16246E+01
   2.28447E+01  2.09128E+01  1.94677E+01  8.52093E+00  1.17797E+01  1.34353E+01  6.80527E+00  2.15315E+01  2.62713E+01  2.40249E+01
   1.78560E+01  1.61649E+01  1.83600E+01  1.62328E+01  1.90147E+01  1.36101E+01  9.41603E+00  7.00792E+00  2.09416E+01  1.72003E+01
   1.55721E+01  6.92305E+00  1.48658E+01  6.14032E+00  2.03849E+01  1.17714E+01  2.17949E+01  1.56968E+01  1.89084E+01  3.07470E+01
   1.40942E+01  6.23301E+00  1.85392E+01  2.32413E+01  9.30755E+00  5.00001E+00  1.15013E+01  2.87540E+01  9.10653E+00  1.69905E+01
   6.31151E+00  4.47463E+00  1.09580E+01  1.49280E+01  1.34245E+01  1.10716E+01  2.31725E+01  1.05418E+01  1.73857E+01  5.25745E+00
   1.79463E+01  2.02359E+01  8.41443E+00  1.52229E+01  8.69743E+00  1.39778E+01  1.31930E+01  1.10903E+01
 NY points of the fit to the data follow
   3.08295E+01  3.21957E+01  3.51061E+01  3.71149E+01  3.87593E+01  4.15660E+01  4.50961E+01  4.83257E+01  5.07328E+01  5.23258E+01
   5.30645E+01  5.23981E+01  5.03431E+01  4.76193E+01  4.48044E+01  4.20789E+01  3.97113E+01  3.76690E+01  3.42623E+01  2.99752E+01
   2.87747E+01  3.04374E+01  3.16573E+01  3.26066E+01  3.47238E+01  3.65681E+01  3.62532E+01  3.45830E+01  3.37022E+01  3.46022E+01
   3.72067E+01  4.05889E+01  4.37861E+01  4.56208E+01  4.46144E+01  4.09997E+01  3.65467E+01  3.32076E+01  3.21567E+01  3.36955E+01
   3.58908E+01  3.72234E+01  3.77494E+01  3.79828E+01  3.86553E+01  3.93522E+01  4.03129E+01  4.15271E+01  4.17588E+01  4.05929E+01
   3.79949E+01  3.42495E+01  3.04473E+01  2.73506E+01  2.54279E+01  2.50279E+01  2.53899E+01  2.54177E+01  2.47293E+01  2.42552E+01
   2.42657E+01  2.43830E+01  2.41472E+01  2.33199E+01  2.21989E+01  2.12561E+01  2.07967E+01  2.09035E+01  2.15996E+01  2.24696E+01
   2.29644E+01  2.30723E+01  2.28441E+01  2.25407E+01  2.22474E+01  2.19372E+01  2.18580E+01  2.30023E+01  2.41461E+01  2.45831E+01
   2.49974E+01  2.57077E+01  2.60661E+01  2.61325E+01  2.68131E+01  2.83201E+01  2.99374E+01  3.06712E+01  3.03083E+01  2.89091E+01
   2.66747E+01  2.47931E+01  2.71244E+01  3.43935E+01  4.08604E+01  4.68207E+01  5.32963E+01  5.83449E+01  6.03438E+01  6.30795E+01
   6.95267E+01  7.83131E+01  8.59589E+01  8.97068E+01  8.81940E+01  8.08589E+01  6.87304E+01  5.47916E+01  4.24427E+01  3.35307E+01
   2.89402E+01  2.84310E+01  2.80185E+01  2.28621E+01  1.64593E+01  1.54707E+01  1.96875E+01  2.76018E+01  3.52539E+01  4.16947E+01
   4.80641E+01  5.40430E+01  5.88502E+01  6.37674E+01  7.08369E+01  7.94773E+01  8.70112E+01  9.09098E+01  8.96534E+01  8.28770E+01
   7.17627E+01  5.89504E+01  4.72305E+01  3.82905E+01  3.31092E+01  3.12567E+01  2.94840E+01  2.41579E+01  1.78959E+01  1.50353E+01
   1.48266E+01  1.53926E+01  1.60071E+01  1.62351E+01  1.57976E+01  1.49777E+01  1.43020E+01  1.37965E+01  1.34950E+01  1.33756E+01
   1.31601E+01  1.26172E+01  1.18843E+01  1.11606E+01  1.06878E+01  1.04948E+01  1.03508E+01  1.01587E+01  9.90045E+00  9.44227E+00
   8.75121E+00  8.03343E+00  7.51069E+00  7.24412E+00  7.11589E+00  6.92245E+00  6.41386E+00  5.57976E+00  4.70975E+00  3.76356E+00
   2.79060E+00  2.00277E+00  1.66922E+00  1.50014E+00  1.13647E+00  4.68324E-01 -2.37496E-01 -5.68937E-01 -4.62511E-01 -3.34714E-02
   5.98936E-01  1.40198E+00  2.28827E+00  2.96004E+00  3.31157E+00  3.46954E+00  3.56754E+00  4.01485E+00  4.42429E+00  4.85812E+00
   5.80828E+00  7.40040E+00  9.09356E+00  1.01521E+01  1.09819E+01  1.18386E+01  1.26499E+01  1.35554E+01  1.47419E+01  1.52915E+01
   1.50059E+01  1.55502E+01  1.60468E+01  1.54925E+01  1.44552E+01  1.33009E+01  1.22657E+01  9.89072E+00  6.46895E+00  4.67097E+00
   5.07592E+00  6.85289E+00  9.37670E+00  1.34904E+01  1.92465E+01  2.42358E+01  2.64178E+01  2.58963E+01  2.33106E+01  1.96089E+01
   1.59434E+01  1.20590E+01  8.41002E+00  8.23487E+00  1.16701E+01  1.62741E+01  2.05395E+01  2.40454E+01  2.72917E+01  2.94364E+01
   3.00579E+01  2.99371E+01  2.93327E+01  2.91670E+01  2.94748E+01  2.94235E+01  2.95085E+01  3.05559E+01  3.23115E+01  3.37794E+01
   3.38153E+01  3.22887E+01  3.00595E+01  2.77690E+01  2.59666E+01  2.63357E+01  2.96802E+01  3.41795E+01  3.79531E+01  4.23664E+01
   5.17688E+01  6.47505E+01  7.49341E+01  8.45656E+01  9.47942E+01  1.03176E+02  1.08095E+02  1.12491E+02  1.19875E+02  1.28956E+02
   1.35718E+02  1.37484E+02  1.32975E+02  1.21437E+02  1.04238E+02  8.53875E+01  6.85754E+01  5.60405E+01  4.94716E+01  4.83986E+01
   4.65303E+01  3.81655E+01  2.94545E+01  2.68404E+01  2.60350E+01  2.54992E+01  2.52457E+01  2.50377E+01  2.44703E+01  2.37647E+01
   2.30830E+01  2.25229E+01  2.21696E+01  2.20688E+01  2.20591E+01  2.20814E+01  2.22090E+01  2.24460E+01  2.27745E+01  2.31978E+01
   2.37277E+01  2.44116E+01  2.52600E+01  2.62245E+01  2.73200E+01  2.85568E+01  2.99082E+01  3.13573E+01  3.29088E+01  3.45500E+01
   3.62406E+01  3.79531E+01  3.96629E+01  4.13309E+01  4.29244E+01  4.44258E+01  4.58081E+01  4.70589E+01  4.81765E+01  4.91743E+01
   5.00735E+01  5.09062E+01  5.17165E+01  5.25636E+01  5.35189E+01  5.46887E+01  5.62426E+01  5.85496E+01  6.20137E+01  6.46693E+01
   6.56678E+01  6.63121E+01  6.67591E+01  6.64802E+01  6.55610E+01  6.47696E+01  6.55845E+01  6.73729E+01  6.73946E+01  6.55711E+01
   6.29642E+01  6.01857E+01  5.77518E+01  5.70011E+01  5.94227E+01  6.50923E+01  7.26034E+01  7.97602E+01  8.42618E+01  8.57150E+01
   8.64337E+01  8.64589E+01  8.50417E+01  8.32038E+01  8.21146E+01  8.26507E+01  8.38555E+01  8.32028E+01  8.12101E+01  8.00064E+01
   7.92037E+01  7.84593E+01  7.76303E+01  7.66413E+01  7.54454E+01  7.40181E+01  7.23481E+01  7.04396E+01  6.83057E+01  6.59711E+01
   6.34655E+01  6.08268E+01  5.80936E+01  5.53081E+01  5.25092E+01  4.97362E+01  4.70226E+01  4.44000E+01  4.18926E+01  3.95217E+01
   3.73012E+01  3.52420E+01  3.33490E+01  3.16252E+01  3.00684E+01  2.86758E+01  2.74407E+01  2.63571E+01  2.54165E+01  2.46123E+01
   2.39354E+01  2.33795E+01  2.29366E+01  2.26015E+01  2.23680E+01  2.22326E+01  2.21903E+01  2.22389E+01  2.23746E+01  2.25960E+01
   2.28998E+01  2.32846E+01  2.37460E+01  2.42811E+01  2.48837E+01  2.55484E+01  2.62661E+01  2.70276E+01  2.78196E+01  2.86292E+01
   2.94392E+01  3.02335E+01  3.09923E+01  3.16974E+01  3.23287E+01  3.28687E+01  3.32997E+01  3.36083E+01  3.37821E+01  3.38141E+01
   3.36991E+01  3.34386E+01  3.30359E+01  3.25004E+01  3.18431E+01  3.10797E+01  3.02266E+01  2.93033E+01  2.83285E+01  2.73224E+01
   2.63024E+01  2.52867E+01  2.42894E+01  2.33245E+01  2.24016E+01  2.15299E+01  2.07140E+01  1.99585E+01  1.92640E+01  1.86313E+01
   1.80581E+01  1.75428E+01  1.70811E+01  1.66702E+01  1.63050E+01  1.59824E+01  1.56974E+01  1.54469E+01  1.52260E+01  1.50326E+01
   1.48624E+01  1.47136E+01  1.45828E+01  1.44687E+01  1.43683E+01  1.42809E+01  1.42040E+01  1.41375E+01  1.40790E+01  1.40286E+01
   1.39845E+01  1.39468E+01  1.39142E+01  1.38868E+01  1.38633E+01  1.38441E+01  1.38279E+01  1.38155E+01  1.38055E+01  1.37986E+01
   1.37936E+01  1.37912E+01  1.37904E+01  1.37920E+01  1.37949E+01  1.37998E+01  1.38057E+01  1.38134E+01  1.38219E+01  1.38322E+01
   1.38430E+01  1.38554E+01  1.38683E+01  1.38826E+01  1.38973E+01  1.39135E+01  1.39299E+01  1.39477E+01  1.39656E+01  1.39848E+01
   1.40043E+01  1.40251E+01  1.40460E+01  1.40681E+01  1.40904E+01  1.41140E+01  1.41378E+01  1.41629E+01  1.41883E+01  1.42149E+01
   1.42419E+01  1.42704E+01  1.42994E+01  1.43298E+01  1.43609E+01  1.43937E+01  1.44275E+01  1.44634E+01
 NY background values follow
     1.201E+01    1.197E+01    1.194E+01    1.190E+01    1.187E+01    1.184E+01    1.180E+01    1.177E+01    1.173E+01    1.170E+01
     1.167E+01    1.163E+01    1.160E+01    1.156E+01    1.153E+01    1.150E+01    1.146E+01    1.143E+01    1.139E+01    1.136E+01
     1.133E+01    1.129E+01    1.126E+01    1.123E+01    1.119E+01    1.116E+01    1.112E+01    1.109E+01    1.106E+01    1.102E+01
     1.099E+01    1.096E+01    1.092E+01    1.089E+01    1.085E+01    1.082E+01    1.079E+01    1.075E+01    1.072E+01    1.069E+01
     1.065E+01    1.062E+01    1.059E+01    1.055E+01    1.052E+01    1.049E+01    1.045E+01    1.042E+01    1.039E+01    1.035E+01
     1.032E+01    1.029E+01    1.026E+01    1.022E+01    1.019E+01    1.016E+01    1.012E+01    1.009E+01    1.006E+01    1.003E+01
     9.994E+00    9.962E+00    9.929E+00    9.897E+00    9.865E+00    9.833E+00    9.801E+00    9.769E+00    9.737E+00    9.705E+00
     9.674E+00    9.642E+00    9.611E+00    9.579E+00    9.548E+00    9.517E+00    9.486E+00    9.455E+00    9.424E+00    9.393E+00
     9.362E+00    9.332E+00    9.301E+00    9.271E+00    9.241E+00    9.211E+00    9.181E+00    9.151E+00    9.121E+00    9.092E+00
     9.062E+00    9.033E+00    9.004E+00    8.974E+00    8.946E+00    8.917E+00    8.888E+00    8.860E+00    8.831E+00    8.803E+00
     8.775E+00    8.748E+00    8.720E+00    8.692E+00    8.665E+00    8.638E+00    8.611E+00    8.585E+00    8.558E+00    8.532E+00
     8.506E+00    8.480E+00    8.455E+00    8.429E+00    8.404E+00    8.379E+00    8.355E+00    8.330E+00    8.306E+00    8.282E+00
     8.259E+00    8.236E+00    8.212E+00    8.190E+00    8.167E+00    8.145E+00    8.123E+00    8.101E+00    8.080E+00    8.059E+00
     8.038E+00    8.018E+00    7.998E+00    7.978E+00    7.958E+00    7.939E+00    7.920E+00    7.902E+00    7.884E+00    7.866E+00
     7.848E+00    7.831E+00    7.815E+00    7.798E+00    7.783E+00    7.767E+00    7.752E+00    7.738E+00    7.724E+00    7.710E+00
     7.697E+00    7.684E+00    7.672E+00    7.661E+00    7.649E+00    7.639E+00    7.629E+00    7.619E+00    7.611E+00    7.602E+00
     7.595E+00    7.587E+00    7.581E+00    7.575E+00    7.570E+00    7.565E+00    7.561E+00    7.558E+00    7.555E+00    7.553E+00
     7.552E+00    7.551E+00    7.552E+00    7.553E+00    7.554E+00    7.557E+00    7.560E+00    7.564E+00    7.568E+00    7.574E+00
     7.580E+00    7.587E+00    7.595E+00    7.604E+00    7.613E+00    7.624E+00    7.635E+00    7.647E+00    7.659E+00    7.673E+00
     7.687E+00    7.702E+00    7.717E+00    7.734E+00    7.751E+00    7.768E+00    7.787E+00    7.806E+00    7.825E+00    7.846E+00
     7.867E+00    7.888E+00    7.910E+00    7.933E+00    7.957E+00    7.981E+00    8.005E+00    8.031E+00    8.056E+00    8.082E+00
     8.109E+00    8.137E+00    8.164E+00    8.193E+00    8.222E+00    8.251E+00    8.281E+00    8.311E+00    8.342E+00    8.373E+00
     8.405E+00    8.437E+00    8.469E+00    8.502E+00    8.535E+00    8.569E+00    8.603E+00    8.638E+00    8.672E+00    8.707E+00
     8.743E+00    8.779E+00    8.815E+00    8.851E+00    8.888E+00    8.925E+00    8.962E+00    8.999E+00    9.037E+00    9.075E+00
     9.113E+00    9.151E+00    9.190E+00    9.228E+00    9.267E+00    9.306E+00    9.345E+00    9.385E+00    9.424E+00    9.464E+00
     9.503E+00    9.543E+00    9.582E+00    9.622E+00    9.662E+00    9.702E+00    9.742E+00    9.782E+00    9.822E+00    9.861E+00
     9.901E+00    9.941E+00    9.981E+00    1.002E+01    1.006E+01    1.010E+01    1.014E+01    1.018E+01    1.022E+01    1.026E+01
     1.030E+01    1.033E+01    1.037E+01    1.041E+01    1.045E+01    1.049E+01    1.053E+01    1.056E+01    1.060E+01    1.064E+01
     1.068E+01    1.071E+01    1.075E+01    1.079E+01    1.082E+01    1.086E+01    1.089E+01    1.093E+01    1.097E+01    1.100E+01
     1.104E+01    1.107E+01    1.111E+01    1.114E+01    1.117E+01    1.121E+01    1.124E+01    1.127E+01    1.131E+01    1.134E+01
     1.137E+01    1.141E+01    1.144E+01    1.147E+01    1.150E+01    1.153E+01    1.156E+01    1.159E+01    1.162E+01    1.165E+01
     1.168E+01    1.171E+01    1.174E+01    1.177E+01    1.180E+01    1.183E+01    1.186E+01    1.188E+01    1.191E+01    1.194E+01
     1.196E+01    1.199E+01    1.202E+01    1.204E+01    1.207E+01    1.209E+01    1.212E+01    1.214E+01    1.217E+01    1.219E+01
     1.222E+01    1.224E+01    1.226E+01    1.229E+01    1.231E+01    1.233E+01    1.235E+01    1.238E+01    1.240E+01    1.242E+01
     1.244E+01    1.246E+01    1.249E+01    1.251E+01    1.253E+01    1.255E+01    1.257E+01    1.259E+01    1.261E+01    1.263E+01
     1.265E+01    1.267E+01    1.269E+01    1.271E+01    1.273E+01    1.275E+01    1.277E+01    1.279E+01    1.281E+01    1.283E+01
     1.285E+01    1.287E+01    1.289E+01    1.291E+01    1.293E+01    1.295E+01    1.297E+01    1.298E+01    1.300E+01    1.302E+01
     1.304E+01    1.306E+01    1.308E+01    1.310E+01    1.312E+01    1.314E+01    1.316E+01    1.318E+01    1.319E+01    1.321E+01
     1.323E+01    1.325E+01    1.327E+01    1.329E+01    1.331E+01    1.333E+01    1.335E+01    1.337E+01    1.339E+01    1.341E+01
     1.343E+01    1.345E+01    1.347E+01    1.349E+01    1.351E+01    1.353E+01    1.355E+01    1.357E+01    1.359E+01    1.361E+01
     1.363E+01    1.365E+01    1.367E+01    1.369E+01    1.371E+01    1.374E+01    1.376E+01    1.378E+01    1.380E+01    1.382E+01
     1.384E+01    1.387E+01    1.389E+01    1.391E+01    1.393E+01    1.396E+01    1.398E+01    1.400E+01    1.403E+01    1.405E+01
     1.407E+01    1.410E+01    1.412E+01    1.414E+01    1.417E+01    1.419E+01    1.422E+01    1.424E+01    1.426E+01    1.429E+01
     1.431E+01    1.434E+01    1.436E+01    1.438E+01    1.441E+01    1.443E+01    1.446E+01    1.448E+01    1.450E+01    1.453E+01
     1.455E+01    1.458E+01    1.460E+01    1.463E+01    1.465E+01    1.467E+01    1.470E+01    1.472E+01    1.475E+01    1.477E+01
     1.479E+01    1.482E+01    1.484E+01    1.487E+01    1.489E+01    1.491E+01    1.494E+01    1.496E+01    1.498E+01    1.501E+01
     1.503E+01    1.505E+01    1.508E+01    1.510E+01    1.512E+01    1.515E+01    1.517E+01    1.519E+01    1.521E+01    1.524E+01
     1.526E+01    1.528E+01    1.531E+01    1.533E+01    1.535E+01    1.537E+01    1.540E+01    1.542E+01    1.544E+01    1.546E+01
     1.549E+01    1.551E+01    1.553E+01    1.555E+01    1.558E+01    1.560E+01    1.562E+01    1.564E+01    1.567E+01    1.569E+01
     1.571E+01    1.573E+01    1.575E+01    1.578E+01    1.580E+01    1.582E+01    1.584E+01    1.587E+01
 Ala      Conc. = 2.78E+03
