 LCModel (Version 6.3-1L) Copyright: S.W. Provencher.          Ref.: Magn. Reson. Med. 30:672-679 (1993).                
 Slice#3 Row#11 Col#2  PD_05_press_2_raw_act
 36 lines in following concentration table = NCONC+1
    Conc.  %SD /Cr+PCr  Metabolite                                         
  581.427  23%   6.748 Ala                                                 
    1.185 999% 1.4E-02 Asp                                                 
   86.167  26%   1.000 Cr                                                  
    0.000 999%   0.000 PCr                                                 
    0.000 999%   0.000 GABA                                                
    0.000 999%   0.000 Glc                                                 
  367.131  40%   4.261 Gln                                                 
    0.000 999%   0.000 Glu                                                 
    1.338 500% 1.6E-02 GPC                                                 
    0.000 999%   0.000 PCh                                                 
  102.827  36%   1.193 GSH                                                 
  238.091  44%   2.763 Ins                                                 
    0.000 999%   0.000 Lac                                                 
   58.893  37%   0.683 NAA                                                 
    0.000 999%   0.000 NAAG                                                
    0.000 999%   0.000 Scyllo                                              
    4.620 882% 5.4E-02 Tau                                                 
  116.868  38%   1.356 -CrCH2                                              
    1.338 500% 1.6E-02 GPC+PCh                                             
   58.893  37%   0.683 NAA+NAAG                                            
   86.167  26%   1.000 Cr+PCr                                              
  367.131  40%   4.261 Glu+Gln                                             
  874.937  45%  10.154 Lip13a                                              
    0.000 999%   0.000 Lip13b                                              
    0.000 999%   0.000 Lip09                                               
 2.11E+03  10%  24.447 MM09                                                
  322.884  46%   3.747 Lip20                                               
 6.77E+03   5%  78.581 MM20                                                
 1.15E+03  21%  13.330 MM12                                                
 6.16E+03   2%  71.480 MM14                                                
    0.000 999%   0.000 MM17                                                
  874.937  45%  10.154 Lip13a+Lip13b                                       
 8.18E+03   4%  94.964 MM14+Lip13a+Lip13b+MM12                             
 2.11E+03  10%  24.447 MM09+Lip09                                          
 7.09E+03   5%  82.328 MM20+Lip20                                          
   6 lines in following misc. output table
  FWHM = 0.092 ppm    S/N =   6                                            
  Data shift =-0.008 ppm                                                   
  Ph:  59 deg     -24.9 deg/ppm                                            
  alphaB,S = 4.3E+01,   1.3E+01                                            
   11 spline knots.   Ns = 9(2)                                            
  (14) 3 infls.   (10) 2 extrs.                                            
  498 points on ppm-axis = NY
      4.000000     3.992357     3.984714     3.977070     3.969427     3.961784     3.954141     3.946497     3.938854     3.931211
      3.923568     3.915925     3.908281     3.900638     3.892995     3.885352     3.877708     3.870065     3.862422     3.854779
      3.847136     3.839492     3.831849     3.824206     3.816563     3.808919     3.801276     3.793633     3.785990     3.778347
      3.770703     3.763060     3.755417     3.747774     3.740130     3.732487     3.724844     3.717201     3.709558     3.701914
      3.694271     3.686628     3.678985     3.671341     3.663698     3.656055     3.648412     3.640769     3.633125     3.625482
      3.617839     3.610196     3.602552     3.594909     3.587266     3.579623     3.571980     3.564336     3.556693     3.549050
      3.541407     3.533763     3.526120     3.518477     3.510834     3.503191     3.495547     3.487904     3.480261     3.472618
      3.464974     3.457331     3.449688     3.442045     3.434402     3.426758     3.419115     3.411472     3.403829     3.396185
      3.388542     3.380899     3.373256     3.365613     3.357969     3.350326     3.342683     3.335040     3.327396     3.319753
      3.312110     3.304467     3.296824     3.289180     3.281537     3.273894     3.266251     3.258607     3.250964     3.243321
      3.235678     3.228034     3.220391     3.212748     3.205105     3.197462     3.189818     3.182175     3.174532     3.166889
      3.159245     3.151602     3.143959     3.136316     3.128673     3.121029     3.113386     3.105743     3.098100     3.090456
      3.082813     3.075170     3.067527     3.059884     3.052240     3.044597     3.036954     3.029311     3.021667     3.014024
      3.006381     2.998738     2.991095     2.983451     2.975808     2.968165     2.960522     2.952878     2.945235     2.937592
      2.929949     2.922306     2.914662     2.907019     2.899376     2.891733     2.884089     2.876446     2.868803     2.861160
      2.853517     2.845873     2.838230     2.830587     2.822944     2.815300     2.807657     2.800014     2.792371     2.784728
      2.777084     2.769441     2.761798     2.754155     2.746511     2.738868     2.731225     2.723582     2.715939     2.708295
      2.700652     2.693009     2.685366     2.677722     2.670079     2.662436     2.654793     2.647150     2.639506     2.631863
      2.624220     2.616577     2.608933     2.601290     2.593647     2.586004     2.578361     2.570717     2.563074     2.555431
      2.547788     2.540144     2.532501     2.524858     2.517215     2.509572     2.501928     2.494285     2.486642     2.478999
      2.471355     2.463712     2.456069     2.448426     2.440783     2.433139     2.425496     2.417853     2.410210     2.402566
      2.394923     2.387280     2.379637     2.371994     2.364350     2.356707     2.349064     2.341421     2.333777     2.326134
      2.318491     2.310848     2.303205     2.295561     2.287918     2.280275     2.272632     2.264988     2.257345     2.249702
      2.242059     2.234416     2.226772     2.219129     2.211486     2.203843     2.196199     2.188556     2.180913     2.173270
      2.165627     2.157983     2.150340     2.142697     2.135054     2.127410     2.119767     2.112124     2.104481     2.096838
      2.089194     2.081551     2.073908     2.066265     2.058621     2.050978     2.043335     2.035692     2.028049     2.020405
      2.012762     2.005119     1.997476     1.989833     1.982190     1.974546     1.966903     1.959260     1.951617     1.943974
      1.936331     1.928688     1.921045     1.913402     1.905759     1.898115     1.890472     1.882829     1.875186     1.867543
      1.859900     1.852257     1.844614     1.836971     1.829327     1.821684     1.814041     1.806398     1.798755     1.791112
      1.783469     1.775826     1.768183     1.760540     1.752896     1.745253     1.737610     1.729967     1.722324     1.714681
      1.707038     1.699395     1.691752     1.684108     1.676465     1.668822     1.661179     1.653536     1.645893     1.638250
      1.630607     1.622964     1.615321     1.607677     1.600034     1.592391     1.584748     1.577105     1.569462     1.561819
      1.554176     1.546533     1.538890     1.531246     1.523603     1.515960     1.508317     1.500674     1.493031     1.485388
      1.477745     1.470102     1.462458     1.454815     1.447172     1.439529     1.431886     1.424243     1.416600     1.408957
      1.401314     1.393671     1.386027     1.378384     1.370741     1.363098     1.355455     1.347812     1.340169     1.332526
      1.324883     1.317240     1.309596     1.301953     1.294310     1.286667     1.279024     1.271381     1.263738     1.256095
      1.248452     1.240808     1.233165     1.225522     1.217879     1.210236     1.202593     1.194950     1.187307     1.179664
      1.172021     1.164377     1.156734     1.149091     1.141448     1.133805     1.126162     1.118519     1.110876     1.103233
      1.095590     1.087946     1.080303     1.072660     1.065017     1.057374     1.049731     1.042088     1.034445     1.026802
      1.019158     1.011515     1.003872     0.996229     0.988586     0.980943     0.973300     0.965657     0.958014     0.950371
      0.942727     0.935084     0.927441     0.919798     0.912155     0.904512     0.896869     0.889226     0.881583     0.873940
      0.866296     0.858653     0.851010     0.843367     0.835724     0.828081     0.820438     0.812795     0.805152     0.797508
      0.789865     0.782222     0.774579     0.766936     0.759293     0.751650     0.744007     0.736364     0.728721     0.721077
      0.713434     0.705791     0.698148     0.690505     0.682862     0.675219     0.667576     0.659933     0.652290     0.644646
      0.637003     0.629360     0.621717     0.614074     0.606431     0.598788     0.591145     0.583502     0.575858     0.568215
      0.560572     0.552929     0.545286     0.537643     0.530000     0.522357     0.514714     0.507071     0.499427     0.491784
      0.484141     0.476498     0.468855     0.461212     0.453569     0.445925     0.438282     0.430639     0.422996     0.415353
      0.407710     0.400067     0.392424     0.384780     0.377137     0.369494     0.361851     0.354208     0.346565     0.338922
      0.331278     0.323635     0.315992     0.308349     0.300706     0.293063     0.285420     0.277777     0.270133     0.262490
      0.254847     0.247204     0.239561     0.231918     0.224275     0.216631     0.208988     0.201345
 NY phased data points follow
  -4.48020E+01 -5.13007E+01 -4.30727E+01 -4.54858E+01 -4.41365E+01 -4.37834E+01 -4.06128E+01 -4.33222E+01 -4.04123E+01 -3.87396E+01
  -3.95083E+01 -3.55317E+01 -4.15695E+01 -4.11920E+01 -4.00510E+01 -3.77341E+01 -3.48271E+01 -3.88999E+01 -3.23882E+01 -3.43864E+01
  -3.36442E+01 -3.64948E+01 -3.27914E+01 -3.46334E+01 -3.10833E+01 -3.07848E+01 -3.01502E+01 -3.29137E+01 -2.48444E+01 -2.47027E+01
  -2.43764E+01 -2.75014E+01 -2.81231E+01 -2.82110E+01 -2.70504E+01 -2.95111E+01 -2.36749E+01 -2.36431E+01 -2.35383E+01 -2.27702E+01
  -2.43021E+01 -2.11983E+01 -2.52351E+01 -2.31387E+01 -1.95359E+01 -2.03008E+01 -1.84810E+01 -2.11383E+01 -1.68466E+01 -2.01708E+01
  -1.88529E+01 -1.76821E+01 -1.69186E+01 -2.05595E+01 -1.96818E+01 -2.06584E+01 -1.83661E+01 -1.76476E+01 -1.24895E+01 -1.95379E+01
  -1.20645E+01 -1.67641E+01 -1.47785E+01 -1.91128E+01 -1.64276E+01 -1.47804E+01 -1.37923E+01 -1.30794E+01 -9.68257E+00 -1.47266E+01
  -1.40290E+01 -1.20809E+01 -1.35638E+01 -1.37222E+01 -1.37677E+01 -1.65612E+01 -1.30151E+01 -1.14973E+01 -9.33392E+00 -1.28699E+01
  -9.85289E+00 -1.42557E+01 -1.05267E+01 -1.31029E+01 -7.16575E+00 -1.17689E+01 -7.20998E+00 -1.16793E+01 -9.11965E+00 -1.11730E+01
  -7.50148E+00 -1.22434E+01 -4.23537E+00 -6.32048E+00 -1.04198E+01 -1.34209E+01 -6.75787E+00 -5.09008E+00 -3.98337E+00 -5.05418E+00
  -7.77230E+00 -4.69505E+00 -2.05454E+00 -4.80795E+00 -6.61769E+00 -3.44584E+00 -4.19629E+00 -3.30798E+00  5.20223E-01 -4.31211E+00
  -2.91532E+00  3.21377E-01 -1.06011E+00 -2.93339E+00 -1.35399E+00 -9.64959E-01  2.15667E+00 -1.77657E+00  2.39093E+00  8.36149E-01
   4.10819E+00  3.41900E-01  6.57530E+00  6.41852E+00  9.71160E+00  1.11755E+01  1.03269E+01  8.44664E+00  4.89092E+00  6.44300E+00
   1.08544E+01  7.35146E+00  1.04900E+01  4.93992E+00  1.16878E+01  9.94027E+00  1.17131E+01  7.83693E+00  7.85564E+00  1.03905E+01
   5.34985E+00  1.06847E+01  8.87693E+00  1.02723E+01  1.14376E+01  8.30583E+00  1.07403E+01  9.82008E+00  5.84196E+00  8.70500E+00
   8.72736E+00  6.25710E+00  7.02134E+00  8.27038E+00  4.46128E+00  6.69035E+00  8.06375E+00  7.54329E+00  8.62527E+00  3.12469E+00
   8.12546E+00  5.35763E+00  5.26342E+00  9.44793E+00  7.16207E+00  7.52013E+00  8.21865E+00  8.97959E+00  8.90119E+00  6.63779E+00
   5.16010E+00  4.93688E+00  1.20451E+01  7.31740E+00  1.21152E+01  4.44803E+00  7.90891E+00  8.25040E+00  1.12714E+01  1.06013E+01
   1.44380E+01  1.10422E+01  1.33770E+01  1.22655E+01  1.55645E+01  1.28615E+01  1.76620E+01  1.93414E+01  2.09052E+01  1.99979E+01
   1.71150E+01  1.96899E+01  1.81228E+01  2.12804E+01  2.17712E+01  2.74092E+01  2.64559E+01  2.30915E+01  2.64344E+01  2.19597E+01
   2.40194E+01  2.66922E+01  2.83043E+01  2.78185E+01  2.97972E+01  2.78454E+01  2.78302E+01  2.64490E+01  2.47116E+01  2.87741E+01
   2.69667E+01  2.89338E+01  3.50077E+01  2.97569E+01  3.10128E+01  3.63353E+01  3.37416E+01  3.25595E+01  3.71619E+01  3.34970E+01
   3.39759E+01  3.59421E+01  3.56001E+01  3.42644E+01  4.30237E+01  4.34259E+01  3.83728E+01  3.83529E+01  4.18312E+01  3.88619E+01
   4.10767E+01  4.09418E+01  4.06383E+01  3.95836E+01  4.34943E+01  3.82245E+01  4.38601E+01  3.97695E+01  3.61524E+01  3.53018E+01
   4.12492E+01  3.96057E+01  3.47317E+01  3.21258E+01  3.71007E+01  3.61215E+01  3.29722E+01  3.22001E+01  3.66916E+01  3.66077E+01
   3.26561E+01  3.09152E+01  3.27174E+01  3.03142E+01  2.94697E+01  2.61306E+01  2.55520E+01  2.77576E+01  2.95071E+01  2.82240E+01
   2.64240E+01  2.98307E+01  2.61301E+01  2.28216E+01  1.61735E+01  2.09909E+01  2.38625E+01  2.10845E+01  2.54674E+01  2.32659E+01
   2.26684E+01  2.33523E+01  2.45344E+01  2.11631E+01  2.05571E+01  2.02488E+01  1.79090E+01  1.90674E+01  1.97756E+01  2.37802E+01
   2.21605E+01  1.88138E+01  2.01333E+01  2.13643E+01  2.40586E+01  2.46731E+01  2.04288E+01  1.97046E+01  2.16151E+01  2.07540E+01
   2.10016E+01  2.27731E+01  1.96202E+01  2.49230E+01  2.77109E+01  2.37531E+01  2.72769E+01  2.42395E+01  2.22838E+01  3.03839E+01
   2.97375E+01  2.83280E+01  3.06830E+01  2.74213E+01  3.40195E+01  3.17288E+01  3.69155E+01  3.39426E+01  3.80239E+01  4.10905E+01
   4.52640E+01  4.30125E+01  4.87917E+01  5.02583E+01  5.26180E+01  5.34379E+01  5.55938E+01  5.82140E+01  5.98241E+01  5.75505E+01
   6.34629E+01  6.60666E+01  6.39136E+01  6.68835E+01  6.85178E+01  6.46252E+01  6.53789E+01  5.73820E+01  6.31157E+01  5.55371E+01
   5.69692E+01  5.08830E+01  5.08206E+01  4.90083E+01  4.53520E+01  4.17942E+01  3.65628E+01  3.37556E+01  2.73175E+01  2.88560E+01
   2.17327E+01  2.36298E+01  2.35350E+01  2.60345E+01  2.31014E+01  1.81424E+01  1.65988E+01  1.73003E+01  1.54815E+01  1.39368E+01
   1.39472E+01  1.48882E+01  1.40358E+01  1.27032E+01  1.27972E+01  1.06144E+01  1.56515E+01  1.09750E+01  1.71929E+01  1.27880E+01
   1.85421E+01  1.78615E+01  1.69171E+01  1.90516E+01  2.18637E+01  1.61877E+01  1.37872E+01  1.69162E+01  1.81836E+01  1.66591E+01
   2.17378E+01  1.62449E+01  1.69302E+01  1.74152E+01  1.93631E+01  1.60169E+01  1.70939E+01  1.84068E+01  1.61171E+01  1.85837E+01
   2.00489E+01  2.13413E+01  2.22979E+01  1.85289E+01  2.01017E+01  1.94672E+01  1.84624E+01  2.24937E+01  2.22355E+01  1.86732E+01
   2.29995E+01  2.07869E+01  2.06023E+01  1.99012E+01  2.25824E+01  1.93499E+01  2.55847E+01  1.60257E+01  2.05977E+01  2.16413E+01
   2.16622E+01  2.10042E+01  2.00999E+01  1.69199E+01  2.29597E+01  1.93274E+01  2.18556E+01  2.14630E+01  2.28297E+01  2.02797E+01
   2.24732E+01  1.85179E+01  1.65198E+01  1.84787E+01  2.16329E+01  1.85539E+01  1.93389E+01  2.22782E+01  2.10566E+01  1.95192E+01
   1.88349E+01  1.69247E+01  1.99220E+01  1.53035E+01  1.78689E+01  1.67679E+01  1.31329E+01  1.61019E+01  1.18492E+01  1.84986E+01
   1.56906E+01  1.77894E+01  1.96221E+01  1.99604E+01  1.20729E+01  1.39781E+01  1.62909E+01  1.70034E+01  1.05501E+01  1.63542E+01
   1.44054E+01  1.35270E+01  1.44413E+01  1.62911E+01  1.81906E+01  1.79889E+01  1.68224E+01  1.40412E+01  1.11922E+01  1.74507E+01
   1.41026E+01  1.39450E+01  1.33972E+01  1.47304E+01  1.50335E+01  1.17224E+01  1.18355E+01  1.25177E+01  1.21266E+01  1.50505E+01
   1.28609E+01  1.28201E+01  1.28967E+01  1.68151E+01  1.29723E+01  1.69074E+01  1.10267E+01  1.62758E+01  1.02098E+01  1.27939E+01
   1.47729E+01  1.20964E+01  1.59709E+01  1.46251E+01  1.12156E+01  1.40406E+01  1.35171E+01  1.14135E+01  1.44060E+01  1.26956E+01
   1.70122E+01  1.45647E+01  1.38456E+01  1.32409E+01  1.14014E+01  1.63798E+01  1.23723E+01  1.38182E+01  1.45094E+01  1.33167E+01
   1.53969E+01  1.08894E+01  1.25452E+01  1.21308E+01  1.36868E+01  1.44191E+01  1.21426E+01  1.26922E+01
 NY points of the fit to the data follow
  -3.92752E+01 -3.89767E+01 -3.99150E+01 -3.95379E+01 -4.08263E+01 -4.03187E+01 -4.17210E+01 -4.04266E+01 -4.09860E+01 -3.96935E+01
  -3.99313E+01 -3.93620E+01 -3.98855E+01 -3.93048E+01 -3.94689E+01 -3.87546E+01 -3.81454E+01 -3.71699E+01 -3.57911E+01 -3.50351E+01
  -3.36709E+01 -3.32855E+01 -3.18708E+01 -3.19208E+01 -3.06474E+01 -3.05975E+01 -2.91551E+01 -2.87177E+01 -2.71939E+01 -2.72689E+01
  -2.64756E+01 -2.66609E+01 -2.59377E+01 -2.57864E+01 -2.53854E+01 -2.51525E+01 -2.46389E+01 -2.43033E+01 -2.37760E+01 -2.36959E+01
  -2.32452E+01 -2.32650E+01 -2.30450E+01 -2.30235E+01 -2.27623E+01 -2.22727E+01 -2.18433E+01 -2.19507E+01 -2.21395E+01 -2.22689E+01
  -2.25083E+01 -2.19444E+01 -2.17990E+01 -2.11949E+01 -2.06552E+01 -2.00025E+01 -1.96832E+01 -1.93544E+01 -1.92647E+01 -1.89274E+01
  -1.87076E+01 -1.85734E+01 -1.83598E+01 -1.80778E+01 -1.77517E+01 -1.73597E+01 -1.70198E+01 -1.65147E+01 -1.59468E+01 -1.51422E+01
  -1.46367E+01 -1.40977E+01 -1.37951E+01 -1.33934E+01 -1.31514E+01 -1.27815E+01 -1.25671E+01 -1.22024E+01 -1.20446E+01 -1.17139E+01
  -1.15353E+01 -1.12095E+01 -1.10470E+01 -1.07686E+01 -1.06912E+01 -1.04660E+01 -1.03728E+01 -1.01309E+01 -9.92815E+00 -9.62808E+00
  -9.34124E+00 -9.03557E+00 -8.71224E+00 -8.36830E+00 -7.99599E+00 -7.69097E+00 -7.24084E+00 -6.89337E+00 -6.34912E+00 -5.96376E+00
  -5.37121E+00 -4.98365E+00 -4.40982E+00 -4.07233E+00 -3.55080E+00 -3.28148E+00 -2.82993E+00 -2.64698E+00 -2.46204E+00 -2.70528E+00
  -2.30539E+00 -2.12129E+00 -1.57361E+00 -1.14867E+00 -6.24376E-01 -1.79767E-01  4.84730E-01  1.18351E+00  2.00368E+00  2.89600E+00
   3.70346E+00  4.61063E+00  5.37066E+00  6.30561E+00  7.02529E+00  8.00493E+00  8.43694E+00  9.08770E+00  9.22928E+00  9.52377E+00
   9.52617E+00  9.68235E+00  9.55204E+00  9.55305E+00  9.29044E+00  9.15681E+00  8.67957E+00  8.21057E+00  7.69176E+00  7.12816E+00
   6.67573E+00  6.10151E+00  5.75638E+00  5.29049E+00  5.08159E+00  4.79303E+00  4.73837E+00  4.61709E+00  5.02615E+00  5.57556E+00
   5.87136E+00  6.23380E+00  6.45726E+00  6.74892E+00  7.05545E+00  7.41712E+00  7.68278E+00  7.93060E+00  8.16633E+00  8.31882E+00
   8.59303E+00  8.80156E+00  9.16744E+00  9.48927E+00  9.86302E+00  1.01778E+01  1.05433E+01  1.08772E+01  1.12002E+01  1.15287E+01
   1.18030E+01  1.20948E+01  1.23004E+01  1.26124E+01  1.28620E+01  1.33372E+01  1.36174E+01  1.41925E+01  1.45059E+01  1.50104E+01
   1.52367E+01  1.55137E+01  1.56266E+01  1.57743E+01  1.60642E+01  1.63291E+01  1.67428E+01  1.71262E+01  1.77133E+01  1.81354E+01
   1.89245E+01  1.94446E+01  1.98577E+01  2.00383E+01  2.05329E+01  2.08539E+01  2.15568E+01  2.21004E+01  2.27937E+01  2.32807E+01
   2.37192E+01  2.38842E+01  2.41783E+01  2.42066E+01  2.45032E+01  2.46632E+01  2.51159E+01  2.55100E+01  2.62535E+01  2.68871E+01
   2.76487E+01  2.83086E+01  2.90376E+01  2.96716E+01  3.02765E+01  3.08233E+01  3.15670E+01  3.22716E+01  3.29045E+01  3.36304E+01
   3.41929E+01  3.50355E+01  3.56291E+01  3.67337E+01  3.74060E+01  3.82721E+01  3.89697E+01  3.94305E+01  3.98923E+01  4.00341E+01
   4.01255E+01  3.97460E+01  4.01989E+01  3.99962E+01  4.06287E+01  4.04364E+01  4.10188E+01  4.07075E+01  4.09769E+01  4.03935E+01
   4.02869E+01  3.95237E+01  3.89474E+01  3.85525E+01  3.81204E+01  3.79202E+01  3.72478E+01  3.68812E+01  3.58313E+01  3.53328E+01
   3.39316E+01  3.35829E+01  3.21827E+01  3.19479E+01  3.08131E+01  3.07564E+01  2.96733E+01  2.94073E+01  2.87464E+01  2.83927E+01
   2.77366E+01  2.72531E+01  2.67636E+01  2.60441E+01  2.54732E+01  2.47414E+01  2.42127E+01  2.35199E+01  2.31170E+01  2.23071E+01
   2.18278E+01  2.11870E+01  2.08987E+01  2.04732E+01  2.03268E+01  2.01414E+01  2.01598E+01  2.01062E+01  2.02214E+01  2.03025E+01
   2.04623E+01  2.10218E+01  2.15616E+01  2.20593E+01  2.25541E+01  2.30426E+01  2.35411E+01  2.40358E+01  2.45430E+01  2.50467E+01
   2.55628E+01  2.60748E+01  2.65999E+01  2.71207E+01  2.76550E+01  2.81852E+01  2.87313E+01  2.92766E+01  2.98402E+01  3.04050E+01
   3.09919E+01  3.15834E+01  3.21986E+01  3.28191E+01  3.34608E+01  3.40986E+01  3.47353E+01  3.53311E+01  3.61325E+01  3.87758E+01
   4.11291E+01  4.38250E+01  4.65763E+01  4.88762E+01  5.16228E+01  5.36551E+01  5.50460E+01  5.59933E+01  5.85991E+01  5.90619E+01
   6.23089E+01  6.19938E+01  6.47004E+01  6.29273E+01  6.45373E+01  6.10529E+01  6.16393E+01  5.77978E+01  5.78068E+01  5.44369E+01
   5.41635E+01  5.10848E+01  5.00829E+01  4.72317E+01  4.42465E+01  4.10500E+01  3.60803E+01  3.39752E+01  2.90367E+01  2.84784E+01
   2.41531E+01  2.50248E+01  2.14046E+01  2.30370E+01  1.88123E+01  2.04627E+01  1.65558E+01  1.90593E+01  1.64151E+01  1.70421E+01
   1.44882E+01  1.48742E+01  1.28830E+01  1.29746E+01  1.10621E+01  1.08927E+01  1.15289E+01  1.22485E+01  1.29557E+01  1.36045E+01
   1.41935E+01  1.47024E+01  1.51431E+01  1.55044E+01  1.58053E+01  1.60400E+01  1.62313E+01  1.63760E+01  1.64979E+01  1.65942E+01
   1.66881E+01  1.67754E+01  1.68773E+01  1.69873E+01  1.71237E+01  1.72773E+01  1.74637E+01  1.76709E+01  1.79118E+01  1.81725E+01
   1.84637E+01  1.87699E+01  1.91004E+01  1.94389E+01  1.97939E+01  2.01486E+01  2.05110E+01  2.08642E+01  2.12161E+01  2.15497E+01
   2.18730E+01  2.21689E+01  2.24453E+01  2.26854E+01  2.28971E+01  2.30641E+01  2.31945E+01  2.32727E+01  2.33076E+01  2.32846E+01
   2.32140E+01  2.30827E+01  2.29029E+01  2.26634E+01  2.23784E+01  2.20391E+01  2.16616E+01  2.12392E+01  2.07900E+01  2.03088E+01
   1.98147E+01  1.93035E+01  1.87947E+01  1.82840E+01  1.77902E+01  1.73080E+01  1.68549E+01  1.64242E+01  1.60314E+01  1.56678E+01
   1.53469E+01  1.50581E+01  1.48129E+01  1.45992E+01  1.44269E+01  1.42827E+01  1.41756E+01  1.40914E+01  1.40387E+01  1.40031E+01
   1.39931E+01  1.39945E+01  1.40158E+01  1.40433E+01  1.40859E+01  1.41303E+01  1.41859E+01  1.42398E+01  1.43018E+01  1.43595E+01
   1.44231E+01  1.44806E+01  1.45424E+01  1.45968E+01  1.46544E+01  1.47039E+01  1.47559E+01  1.47992E+01  1.48446E+01  1.48811E+01
   1.49195E+01  1.49489E+01  1.49801E+01  1.50022E+01  1.50261E+01  1.50411E+01  1.50578E+01  1.50657E+01  1.50754E+01  1.50764E+01
   1.50794E+01  1.50737E+01  1.50701E+01  1.50580E+01  1.50480E+01  1.50297E+01  1.50135E+01  1.49892E+01  1.49671E+01  1.49370E+01
   1.49092E+01  1.48734E+01  1.48401E+01  1.47989E+01  1.47601E+01  1.47137E+01  1.46697E+01  1.46180E+01  1.45689E+01  1.45123E+01
   1.44582E+01  1.43966E+01  1.43375E+01  1.42710E+01  1.42071E+01  1.41357E+01  1.40669E+01  1.39907E+01  1.39170E+01  1.38357E+01
   1.37569E+01  1.36705E+01  1.35863E+01  1.34944E+01  1.34043E+01  1.33060E+01  1.32091E+01  1.31032E+01
 NY background values follow
    -4.555E+01   -4.518E+01   -4.480E+01   -4.443E+01   -4.406E+01   -4.369E+01   -4.333E+01   -4.296E+01   -4.259E+01   -4.222E+01
    -4.186E+01   -4.149E+01   -4.113E+01   -4.077E+01   -4.041E+01   -4.005E+01   -3.968E+01   -3.933E+01   -3.897E+01   -3.861E+01
    -3.825E+01   -3.790E+01   -3.754E+01   -3.719E+01   -3.683E+01   -3.648E+01   -3.613E+01   -3.578E+01   -3.543E+01   -3.508E+01
    -3.473E+01   -3.438E+01   -3.403E+01   -3.369E+01   -3.334E+01   -3.300E+01   -3.266E+01   -3.231E+01   -3.197E+01   -3.163E+01
    -3.129E+01   -3.095E+01   -3.061E+01   -3.028E+01   -2.994E+01   -2.960E+01   -2.927E+01   -2.894E+01   -2.860E+01   -2.827E+01
    -2.794E+01   -2.761E+01   -2.728E+01   -2.695E+01   -2.662E+01   -2.630E+01   -2.597E+01   -2.565E+01   -2.532E+01   -2.500E+01
    -2.468E+01   -2.435E+01   -2.403E+01   -2.371E+01   -2.340E+01   -2.308E+01   -2.276E+01   -2.244E+01   -2.213E+01   -2.182E+01
    -2.150E+01   -2.119E+01   -2.088E+01   -2.057E+01   -2.026E+01   -1.995E+01   -1.964E+01   -1.933E+01   -1.903E+01   -1.872E+01
    -1.842E+01   -1.811E+01   -1.781E+01   -1.751E+01   -1.721E+01   -1.691E+01   -1.661E+01   -1.631E+01   -1.602E+01   -1.572E+01
    -1.542E+01   -1.513E+01   -1.484E+01   -1.454E+01   -1.425E+01   -1.396E+01   -1.367E+01   -1.338E+01   -1.310E+01   -1.281E+01
    -1.252E+01   -1.224E+01   -1.196E+01   -1.167E+01   -1.139E+01   -1.111E+01   -1.083E+01   -1.055E+01   -1.027E+01   -9.993E+00
    -9.717E+00   -9.441E+00   -9.167E+00   -8.893E+00   -8.620E+00   -8.349E+00   -8.078E+00   -7.808E+00   -7.539E+00   -7.271E+00
    -7.004E+00   -6.738E+00   -6.473E+00   -6.209E+00   -5.946E+00   -5.683E+00   -5.422E+00   -5.162E+00   -4.902E+00   -4.644E+00
    -4.387E+00   -4.130E+00   -3.875E+00   -3.620E+00   -3.367E+00   -3.114E+00   -2.863E+00   -2.612E+00   -2.362E+00   -2.114E+00
    -1.866E+00   -1.619E+00   -1.373E+00   -1.128E+00   -8.847E-01   -6.418E-01   -4.000E-01   -1.591E-01    8.083E-02    3.197E-01
     5.577E-01    7.946E-01    1.031E+00    1.266E+00    1.500E+00    1.733E+00    1.965E+00    2.196E+00    2.426E+00    2.655E+00
     2.883E+00    3.110E+00    3.336E+00    3.561E+00    3.785E+00    4.008E+00    4.230E+00    4.451E+00    4.672E+00    4.891E+00
     5.109E+00    5.326E+00    5.542E+00    5.757E+00    5.971E+00    6.184E+00    6.396E+00    6.607E+00    6.817E+00    7.026E+00
     7.234E+00    7.441E+00    7.647E+00    7.852E+00    8.056E+00    8.259E+00    8.461E+00    8.662E+00    8.862E+00    9.061E+00
     9.259E+00    9.456E+00    9.652E+00    9.847E+00    1.004E+01    1.023E+01    1.043E+01    1.062E+01    1.081E+01    1.099E+01
     1.118E+01    1.137E+01    1.155E+01    1.174E+01    1.192E+01    1.211E+01    1.229E+01    1.247E+01    1.265E+01    1.282E+01
     1.300E+01    1.318E+01    1.335E+01    1.353E+01    1.370E+01    1.387E+01    1.404E+01    1.421E+01    1.438E+01    1.455E+01
     1.472E+01    1.488E+01    1.505E+01    1.521E+01    1.538E+01    1.554E+01    1.570E+01    1.586E+01    1.602E+01    1.617E+01
     1.633E+01    1.649E+01    1.664E+01    1.679E+01    1.695E+01    1.710E+01    1.725E+01    1.740E+01    1.755E+01    1.769E+01
     1.784E+01    1.798E+01    1.813E+01    1.827E+01    1.841E+01    1.855E+01    1.869E+01    1.883E+01    1.897E+01    1.911E+01
     1.924E+01    1.938E+01    1.951E+01    1.964E+01    1.977E+01    1.990E+01    2.003E+01    2.016E+01    2.029E+01    2.041E+01
     2.054E+01    2.066E+01    2.078E+01    2.090E+01    2.102E+01    2.114E+01    2.126E+01    2.138E+01    2.150E+01    2.161E+01
     2.172E+01    2.184E+01    2.195E+01    2.206E+01    2.217E+01    2.228E+01    2.239E+01    2.249E+01    2.260E+01    2.270E+01
     2.281E+01    2.291E+01    2.301E+01    2.311E+01    2.321E+01    2.331E+01    2.340E+01    2.350E+01    2.359E+01    2.369E+01
     2.378E+01    2.387E+01    2.396E+01    2.405E+01    2.414E+01    2.422E+01    2.431E+01    2.439E+01    2.448E+01    2.456E+01
     2.464E+01    2.472E+01    2.480E+01    2.488E+01    2.496E+01    2.503E+01    2.511E+01    2.518E+01    2.525E+01    2.533E+01
     2.540E+01    2.547E+01    2.553E+01    2.560E+01    2.567E+01    2.573E+01    2.580E+01    2.586E+01    2.592E+01    2.598E+01
     2.604E+01    2.610E+01    2.616E+01    2.621E+01    2.627E+01    2.632E+01    2.637E+01    2.643E+01    2.648E+01    2.653E+01
     2.658E+01    2.662E+01    2.667E+01    2.671E+01    2.676E+01    2.680E+01    2.684E+01    2.688E+01    2.692E+01    2.696E+01
     2.700E+01    2.703E+01    2.707E+01    2.710E+01    2.714E+01    2.717E+01    2.720E+01    2.723E+01    2.726E+01    2.728E+01
     2.731E+01    2.734E+01    2.736E+01    2.738E+01    2.740E+01    2.743E+01    2.744E+01    2.746E+01    2.748E+01    2.750E+01
     2.751E+01    2.753E+01    2.754E+01    2.755E+01    2.756E+01    2.757E+01    2.758E+01    2.758E+01    2.759E+01    2.760E+01
     2.760E+01    2.760E+01    2.760E+01    2.760E+01    2.760E+01    2.760E+01    2.760E+01    2.759E+01    2.759E+01    2.758E+01
     2.758E+01    2.757E+01    2.756E+01    2.755E+01    2.753E+01    2.752E+01    2.751E+01    2.749E+01    2.748E+01    2.746E+01
     2.744E+01    2.742E+01    2.740E+01    2.738E+01    2.735E+01    2.733E+01    2.730E+01    2.728E+01    2.725E+01    2.722E+01
     2.719E+01    2.716E+01    2.713E+01    2.709E+01    2.706E+01    2.702E+01    2.699E+01    2.695E+01    2.691E+01    2.687E+01
     2.683E+01    2.678E+01    2.674E+01    2.670E+01    2.665E+01    2.660E+01    2.655E+01    2.650E+01    2.645E+01    2.640E+01
     2.635E+01    2.630E+01    2.624E+01    2.618E+01    2.613E+01    2.607E+01    2.601E+01    2.595E+01    2.589E+01    2.582E+01
     2.576E+01    2.569E+01    2.563E+01    2.556E+01    2.549E+01    2.542E+01    2.535E+01    2.528E+01    2.521E+01    2.513E+01
     2.506E+01    2.498E+01    2.490E+01    2.482E+01    2.474E+01    2.466E+01    2.458E+01    2.450E+01    2.441E+01    2.433E+01
     2.424E+01    2.415E+01    2.406E+01    2.397E+01    2.388E+01    2.379E+01    2.369E+01    2.360E+01    2.350E+01    2.340E+01
     2.331E+01    2.321E+01    2.311E+01    2.300E+01    2.290E+01    2.280E+01    2.269E+01    2.259E+01    2.248E+01    2.237E+01
     2.226E+01    2.215E+01    2.204E+01    2.192E+01    2.181E+01    2.169E+01    2.158E+01    2.146E+01    2.134E+01    2.122E+01
     2.110E+01    2.098E+01    2.085E+01    2.073E+01    2.060E+01    2.048E+01    2.035E+01    2.022E+01    2.009E+01    1.996E+01
     1.983E+01    1.969E+01    1.956E+01    1.942E+01    1.928E+01    1.915E+01    1.901E+01    1.887E+01
 Ala      Conc. = 5.81E+02
