 LCModel (Version 6.3-1L) Copyright: S.W. Provencher.          Ref.: Magn. Reson. Med. 30:672-679 (1993).                
 Slice#2 Row#4 Col#11  PD_05_press_2_raw_act
 36 lines in following concentration table = NCONC+1
    Conc.  %SD /Cr+PCr  Metabolite                                         
 1.28E+03  24%   1.589 Ala                                                 
  118.661  77%   0.147 Asp                                                 
  432.063  92%   0.535 Cr                                                  
  376.114 107%   0.465 PCr                                                 
   80.113  69% 9.9E-02 GABA                                                
   87.126  63%   0.108 Glc                                                 
    0.000 999%   0.000 Gln                                                 
  950.851  64%   1.177 Glu                                                 
  240.617  16%   0.298 GPC                                                 
    0.000 999%   0.000 PCh                                                 
  505.159  30%   0.625 GSH                                                 
 1.94E+03  24%   2.397 Ins                                                 
    0.000 999%   0.000 Lac                                                 
  809.608  21%   1.002 NAA                                                 
  329.997  56%   0.408 NAAG                                                
   39.232  45% 4.9E-02 Scyllo                                              
  139.774  65%   0.173 Tau                                                 
   97.125 107%   0.120 -CrCH2                                              
  240.617  16%   0.298 GPC+PCh                                             
 1.14E+03  13%   1.410 NAA+NAAG                                            
  808.177  13%   1.000 Cr+PCr                                              
  950.851  64%   1.177 Glu+Gln                                             
 1.75E+04   8%  21.688 Lip13a                                              
    0.000 999%   0.000 Lip13b                                              
 3.38E+03  19%   4.183 Lip09                                               
  392.930 114%   0.486 MM09                                                
 1.83E+03  25%   2.260 Lip20                                               
  221.523 301%   0.274 MM20                                                
  127.275 132%   0.157 MM12                                                
 2.02E+03  23%   2.501+MM14                                                
 1.03E+03  28%   1.280 MM17                                                
 1.75E+04   8%  21.688 Lip13a+Lip13b                                       
 1.97E+04   6%  24.346 MM14+Lip13a+Lip13b+MM12                             
 3.77E+03  12%   4.669 MM09+Lip09                                          
 2.05E+03  29%   2.534 MM20+Lip20                                          
   6 lines in following misc. output table
  FWHM = 0.069 ppm    S/N =   4                                            
  Data shift = 0.023 ppm                                                   
  Ph:  -6 deg     -11.2 deg/ppm                                            
  alphaB,S = 8.5E+01,   1.2E+02                                            
   14 spline knots.   Ns = 7(1)                                            
  ( 4) 2 infls.   ( 1) 1 extrs.                                            
  498 points on ppm-axis = NY
      4.000000     3.992357     3.984714     3.977070     3.969427     3.961784     3.954141     3.946497     3.938854     3.931211
      3.923568     3.915925     3.908281     3.900638     3.892995     3.885352     3.877708     3.870065     3.862422     3.854779
      3.847136     3.839492     3.831849     3.824206     3.816563     3.808919     3.801276     3.793633     3.785990     3.778347
      3.770703     3.763060     3.755417     3.747774     3.740130     3.732487     3.724844     3.717201     3.709558     3.701914
      3.694271     3.686628     3.678985     3.671341     3.663698     3.656055     3.648412     3.640769     3.633125     3.625482
      3.617839     3.610196     3.602552     3.594909     3.587266     3.579623     3.571980     3.564336     3.556693     3.549050
      3.541407     3.533763     3.526120     3.518477     3.510834     3.503191     3.495547     3.487904     3.480261     3.472618
      3.464974     3.457331     3.449688     3.442045     3.434402     3.426758     3.419115     3.411472     3.403829     3.396185
      3.388542     3.380899     3.373256     3.365613     3.357969     3.350326     3.342683     3.335040     3.327396     3.319753
      3.312110     3.304467     3.296824     3.289180     3.281537     3.273894     3.266251     3.258607     3.250964     3.243321
      3.235678     3.228034     3.220391     3.212748     3.205105     3.197462     3.189818     3.182175     3.174532     3.166889
      3.159245     3.151602     3.143959     3.136316     3.128673     3.121029     3.113386     3.105743     3.098100     3.090456
      3.082813     3.075170     3.067527     3.059884     3.052240     3.044597     3.036954     3.029311     3.021667     3.014024
      3.006381     2.998738     2.991095     2.983451     2.975808     2.968165     2.960522     2.952878     2.945235     2.937592
      2.929949     2.922306     2.914662     2.907019     2.899376     2.891733     2.884089     2.876446     2.868803     2.861160
      2.853517     2.845873     2.838230     2.830587     2.822944     2.815300     2.807657     2.800014     2.792371     2.784728
      2.777084     2.769441     2.761798     2.754155     2.746511     2.738868     2.731225     2.723582     2.715939     2.708295
      2.700652     2.693009     2.685366     2.677722     2.670079     2.662436     2.654793     2.647150     2.639506     2.631863
      2.624220     2.616577     2.608933     2.601290     2.593647     2.586004     2.578361     2.570717     2.563074     2.555431
      2.547788     2.540144     2.532501     2.524858     2.517215     2.509572     2.501928     2.494285     2.486642     2.478999
      2.471355     2.463712     2.456069     2.448426     2.440783     2.433139     2.425496     2.417853     2.410210     2.402566
      2.394923     2.387280     2.379637     2.371994     2.364350     2.356707     2.349064     2.341421     2.333777     2.326134
      2.318491     2.310848     2.303205     2.295561     2.287918     2.280275     2.272632     2.264988     2.257345     2.249702
      2.242059     2.234416     2.226772     2.219129     2.211486     2.203843     2.196199     2.188556     2.180913     2.173270
      2.165627     2.157983     2.150340     2.142697     2.135054     2.127410     2.119767     2.112124     2.104481     2.096838
      2.089194     2.081551     2.073908     2.066265     2.058621     2.050978     2.043335     2.035692     2.028049     2.020405
      2.012762     2.005119     1.997476     1.989833     1.982190     1.974546     1.966903     1.959260     1.951617     1.943974
      1.936331     1.928688     1.921045     1.913402     1.905759     1.898115     1.890472     1.882829     1.875186     1.867543
      1.859900     1.852257     1.844614     1.836971     1.829327     1.821684     1.814041     1.806398     1.798755     1.791112
      1.783469     1.775826     1.768183     1.760540     1.752896     1.745253     1.737610     1.729967     1.722324     1.714681
      1.707038     1.699395     1.691752     1.684108     1.676465     1.668822     1.661179     1.653536     1.645893     1.638250
      1.630607     1.622964     1.615321     1.607677     1.600034     1.592391     1.584748     1.577105     1.569462     1.561819
      1.554176     1.546533     1.538890     1.531246     1.523603     1.515960     1.508317     1.500674     1.493031     1.485388
      1.477745     1.470102     1.462458     1.454815     1.447172     1.439529     1.431886     1.424243     1.416600     1.408957
      1.401314     1.393671     1.386027     1.378384     1.370741     1.363098     1.355455     1.347812     1.340169     1.332526
      1.324883     1.317240     1.309596     1.301953     1.294310     1.286667     1.279024     1.271381     1.263738     1.256095
      1.248452     1.240808     1.233165     1.225522     1.217879     1.210236     1.202593     1.194950     1.187307     1.179664
      1.172021     1.164377     1.156734     1.149091     1.141448     1.133805     1.126162     1.118519     1.110876     1.103233
      1.095590     1.087946     1.080303     1.072660     1.065017     1.057374     1.049731     1.042088     1.034445     1.026802
      1.019158     1.011515     1.003872     0.996229     0.988586     0.980943     0.973300     0.965657     0.958014     0.950371
      0.942727     0.935084     0.927441     0.919798     0.912155     0.904512     0.896869     0.889226     0.881583     0.873940
      0.866296     0.858653     0.851010     0.843367     0.835724     0.828081     0.820438     0.812795     0.805152     0.797508
      0.789865     0.782222     0.774579     0.766936     0.759293     0.751650     0.744007     0.736364     0.728721     0.721077
      0.713434     0.705791     0.698148     0.690505     0.682862     0.675219     0.667576     0.659933     0.652290     0.644646
      0.637003     0.629360     0.621717     0.614074     0.606431     0.598788     0.591145     0.583502     0.575858     0.568215
      0.560572     0.552929     0.545286     0.537643     0.530000     0.522357     0.514714     0.507071     0.499427     0.491784
      0.484141     0.476498     0.468855     0.461212     0.453569     0.445925     0.438282     0.430639     0.422996     0.415353
      0.407710     0.400067     0.392424     0.384780     0.377137     0.369494     0.361851     0.354208     0.346565     0.338922
      0.331278     0.323635     0.315992     0.308349     0.300706     0.293063     0.285420     0.277777     0.270133     0.262490
      0.254847     0.247204     0.239561     0.231918     0.224275     0.216631     0.208988     0.201345
 NY phased data points follow
   1.82183E+01  9.57465E+00  2.99259E+00  3.14470E+00  1.94348E+01  1.66598E+01  1.46655E+01  1.48278E+01  6.57090E+00  1.22930E+01
   1.38704E+01  1.22178E+01  2.24819E+01  2.25822E+01  2.81414E+01  1.01900E+01  1.41017E+00  7.49905E+00  1.45618E-01  1.81216E+01
   9.64716E+00  1.58145E+01  1.18865E+01  1.07242E+01  1.08055E+01  1.03873E+01  1.03841E+01  2.04600E+01  3.41019E+00  1.56533E+01
   1.62720E+01  1.58760E+01  7.66372E+00  1.30127E+01  2.52823E+01  9.88641E+00  8.55927E+00  6.33179E+00  2.45114E+00  7.50251E+00
   9.51965E+00  8.24668E+00  1.98230E+01  1.65628E+01  8.33666E+00  1.92209E+01  1.45957E+01  1.70544E+01  1.08898E+01  9.36341E+00
   2.01234E+01  4.72664E+00  1.82403E+01  6.91422E+00  1.54552E+01  1.37148E+01  1.49957E+01  1.79209E+01  1.52460E+01  5.18723E+00
   1.15223E+01  5.70909E+00  1.05087E+01  1.81305E+00  1.01939E+01  2.19516E+00  7.83368E+00 -1.62757E+00 -2.51747E-01  1.41023E+01
   3.89231E+00  1.08750E+01  8.35162E+00  9.29423E+00  5.40412E+00  7.79670E+00  1.09099E+01  8.18954E+00  1.37871E+01  1.47649E+01
   9.31312E+00  6.84828E-01  7.37918E+00  9.55854E+00  4.35263E+00  1.38929E+01  9.56003E+00  3.34301E+00  5.24290E+00  1.50521E+01
   1.10823E+01  7.89745E+00  1.40248E+01  2.69860E+00  5.33758E+00  1.15693E+01  1.70109E+00 -5.00329E+00  7.11816E+00  1.26625E+01
   2.33566E+01  3.16342E+01  2.28065E+01  2.16038E+01  2.27001E+01  1.59813E+01  1.39079E+01  1.52209E+01  1.58293E+00  2.44863E+00
   7.38499E+00  7.46485E+00  6.37404E+00 -2.51563E+00  2.13180E+01  1.28936E+01  1.03176E+01  1.46755E+01  1.04702E+01  1.45642E+01
   2.55648E+00  1.16892E+01  9.65011E+00  2.06202E+01  2.44585E+01  2.65451E+01  2.85153E+01  2.54814E+01  2.06017E+01  1.91833E+01
   2.68662E+01  2.32111E+01  1.15395E+01  2.77804E+01  1.04741E+01  1.37112E+01  5.26987E+00  9.35614E+00  1.02428E+01  1.93036E+01
   1.07541E+01  6.41174E+00  1.41229E+01  9.28570E+00  6.43970E+00  4.30737E+00  1.09877E+01  3.98910E+00  1.38214E+01  1.41751E+01
   6.24300E+00  5.29516E+00  1.07246E+01  5.80322E-01  1.96683E+00  1.29187E+01  1.53232E+01  6.97764E+00  1.53376E+01  1.03658E+01
   1.54594E+00 -1.69945E+00  3.66582E+00  3.02067E+00  7.14424E+00  5.75578E+00  1.10800E+01  7.59799E-01  3.40442E+00  5.05329E+00
   3.54388E+00 -8.03209E-02  9.90296E-01  5.42480E+00 -2.40162E-01  2.89175E+00  1.21958E+01  3.10444E+00  1.00002E+01  4.03265E+00
   7.41896E+00 -2.81853E+00 -4.00994E+00 -5.85771E-01  2.59909E-01 -5.70513E-01 -1.31793E+01  2.77280E-01 -9.39032E+00  8.19113E+00
   5.71584E+00  7.20452E+00 -1.17420E-01  1.89065E+00  2.21515E+00  5.02245E+00 -1.61560E+00  3.05404E+00  1.55698E+00  7.00290E+00
   1.41228E+00 -6.22620E+00 -1.78590E+00  3.85590E+00  2.39958E+00  9.03557E+00  5.39782E+00 -9.64345E-01  2.14688E+00  1.81585E+01
   7.97607E+00  4.85995E+00  7.16091E+00  1.11581E+01  1.01902E+01  1.17126E+01  3.46614E+00  4.79273E+00  4.34616E+00  9.23678E+00
   1.29171E+00  7.09799E+00 -7.33810E+00  4.42275E+00  2.82039E+00  6.84478E+00  1.45288E+01  1.07656E+01  1.22650E+00  2.28881E+00
   1.14459E+01  7.20580E+00  7.47805E+00 -2.66308E+00 -1.29541E+00  3.51234E+00  1.23249E+01  5.43516E+00  6.28892E+00  6.31399E+00
   1.67092E+00  5.50190E+00  9.67862E+00  1.53931E+01  8.16049E+00  1.50982E+01  1.35491E+01  2.11837E+01  2.48357E+01  2.32612E+01
   2.18251E+01  2.71421E+01  2.25808E+01  2.11230E+01  2.68718E+01  3.04576E+01  2.96932E+01  4.07208E+01  3.45327E+01  4.20030E+01
   5.15483E+01  5.51666E+01  3.63215E+01  2.42334E+01  1.68002E+01  1.95364E+01  1.99652E+01  1.69842E+01  2.70541E+00  1.25436E+01
   1.62091E+01  7.73290E+00 -3.77512E-01  1.09139E+01  1.49675E+01  1.18969E+01  1.71099E+01  5.02281E+00  1.63878E+01  8.77632E+00
   1.46896E+01  7.98878E+00  2.56726E-01  5.70448E+00  2.15428E+00 -3.19304E+00  5.32052E+00  9.29481E+00  1.05010E+01 -2.30485E+00
   1.09923E+01  1.38342E+01  3.97651E+00  1.01354E+01  1.17115E+01  1.52570E+01  1.74572E+01  6.63028E+00  1.43353E+01  8.12421E+00
   2.10107E+01  1.74148E+01  3.53912E+01  2.66049E+01  2.42422E+01  3.85536E+01  2.28752E+01  2.37379E+01  2.36517E+01  3.17358E+01
   3.14163E+01  3.20628E+01  2.66565E+01  4.00149E+01  3.62060E+01  3.47547E+01  4.39632E+01  4.35941E+01  4.47149E+01  4.52642E+01
   4.63847E+01  5.80773E+01  5.32547E+01  4.55577E+01  4.56222E+01  5.81279E+01  5.37604E+01  4.84961E+01  4.54556E+01  4.51805E+01
   4.51961E+01  4.14676E+01  4.70161E+01  4.37101E+01  5.25019E+01  4.82355E+01  6.04345E+01  5.20290E+01  5.43638E+01  7.17236E+01
   6.99098E+01  6.59453E+01  6.83653E+01  6.05335E+01  6.54670E+01  6.43364E+01  7.07129E+01  6.40921E+01  6.47016E+01  7.15693E+01
   6.12696E+01  7.28176E+01  6.97250E+01  6.87273E+01  6.38075E+01  5.60316E+01  6.37581E+01  4.72986E+01  6.00044E+01  4.91564E+01
   4.29563E+01  4.62886E+01  4.24211E+01  4.47120E+01  4.36618E+01  4.73899E+01  4.70143E+01  4.62971E+01  4.01167E+01  4.35998E+01
   3.92923E+01  3.13754E+01  4.20408E+01  3.42947E+01  2.27448E+01  3.86353E+01  2.36224E+01  3.29123E+01  2.94766E+01  2.42250E+01
   2.15110E+01  1.57855E+01  2.70122E+01  1.82266E+01  2.72308E+01  2.36365E+01  2.03406E+01  1.81305E+01  2.30135E+00  3.10754E+01
   1.83223E+01  1.83102E+01  2.63115E+01  2.76795E+01  1.82597E+01  1.75005E+01  2.09397E+01  1.91782E+01  1.59417E+01  2.55363E+01
   2.33525E+01  2.59517E+01  2.07058E+01  1.74698E+01  2.10649E+01  2.69951E+01  1.75562E+01  1.93777E+01  2.40483E+01  1.13860E+01
   1.82699E+01  1.43456E+01  1.70439E+01  1.00687E+01  1.38428E+01  1.33285E+01  2.09355E+01  1.15202E+01  1.68889E+01  6.50341E+00
   1.86762E+01  1.91512E+01  1.72612E+01  1.60067E+01  8.37629E+00  1.08376E+01  1.11143E+01  8.33430E+00  3.81227E+00  6.36868E+00
   1.56843E+01  4.61876E+00 -3.98641E-01  1.42432E+01  1.04752E+01  1.92791E+01  1.64904E+01  6.05797E+00  1.27493E+01  1.22127E+01
   6.83899E+00  1.23752E+01  2.78176E+00  1.42410E+01  1.22907E+00  1.53474E+01  5.44522E+00  1.35068E+00  1.13539E+01  1.40639E+01
   1.04544E+01  1.43729E+01  1.25666E+01  5.82600E+00  1.06812E+01  4.66426E-01  1.12237E+01  3.26877E+00  5.51825E+00  8.68827E-01
   3.53673E+00  2.71083E+00 -2.77791E+00  9.30672E+00 -2.00083E-01  1.25669E+01  8.70798E+00  6.03357E+00  6.90425E+00  6.79513E+00
   9.91286E+00  6.87858E+00  9.02022E+00  6.72917E+00  6.67966E+00  1.04454E+01  1.29110E+00  3.83141E+00 -1.45062E+00 -4.67855E-01
   4.27789E+00  4.40834E+00  2.48200E+00  5.83792E+00  1.38386E+01  5.43726E+00  6.50983E+00  2.93809E+00  4.30704E+00  1.36700E+01
  -3.05109E-01  1.08918E+00  1.66034E+00  7.91807E+00  1.45616E+01 -9.26500E-01  7.02043E-01  9.46321E+00
 NY points of the fit to the data follow
   8.30637E+00  7.62345E+00  7.52107E+00  7.91447E+00  8.92061E+00  1.06427E+01  1.27038E+01  1.47381E+01  1.64751E+01  1.76981E+01
   1.82529E+01  1.80556E+01  1.71714E+01  1.57954E+01  1.41534E+01  1.24258E+01  1.07394E+01  9.25301E+00  8.24591E+00  7.75761E+00
   7.68157E+00  7.80746E+00  7.90253E+00  8.27178E+00  8.95548E+00  9.76283E+00  1.06629E+01  1.17360E+01  1.28833E+01  1.38843E+01
   1.45926E+01  1.49895E+01  1.51103E+01  1.50100E+01  1.45890E+01  1.36602E+01  1.21760E+01  1.03849E+01  8.75128E+00  7.79838E+00
   7.66734E+00  8.35876E+00  9.77084E+00  1.16185E+01  1.34426E+01  1.49038E+01  1.57942E+01  1.59297E+01  1.52655E+01  1.40374E+01
   1.25107E+01  1.09268E+01  9.45077E+00  8.15231E+00  7.18298E+00  6.82568E+00  7.22397E+00  8.10071E+00  8.94288E+00  9.43300E+00
   9.53135E+00  9.31125E+00  8.92509E+00  8.49470E+00  8.13215E+00  7.92043E+00  7.81999E+00  7.82712E+00  8.03468E+00  8.44908E+00
   8.96587E+00  9.43685E+00  9.72420E+00  9.77554E+00  9.61011E+00  9.30029E+00  8.91939E+00  8.49946E+00  8.09912E+00  7.75951E+00
   7.46715E+00  7.13266E+00  6.65414E+00  6.03620E+00  5.35306E+00  4.68889E+00  4.10950E+00  3.69475E+00  3.49983E+00  3.55218E+00
   3.77726E+00  4.07358E+00  4.39436E+00  4.73346E+00  5.14537E+00  5.90224E+00  7.59860E+00  1.00709E+01  1.29111E+01  1.58388E+01
   1.85192E+01  2.05687E+01  2.16441E+01  2.15957E+01  2.05726E+01  1.89764E+01  1.70845E+01  1.49237E+01  1.24425E+01  9.73066E+00
   7.16764E+00  5.37655E+00  4.74452E+00  4.63793E+00  4.62170E+00  4.63485E+00  4.66803E+00  4.75304E+00  4.96308E+00  5.57001E+00
   7.30770E+00  1.03185E+01  1.40501E+01  1.80145E+01  2.17648E+01  2.48305E+01  2.68199E+01  2.75164E+01  2.69034E+01  2.52709E+01
   2.29887E+01  2.01651E+01  1.67896E+01  1.30379E+01  9.40092E+00  6.67284E+00  5.47399E+00  5.34774E+00  5.57019E+00  5.91103E+00
   6.28951E+00  6.69242E+00  7.14974E+00  7.61469E+00  7.95233E+00  8.10268E+00  8.06020E+00  7.84449E+00  7.54077E+00  7.25027E+00
   7.03182E+00  6.91273E+00  6.85787E+00  6.83495E+00  6.80507E+00  6.75317E+00  6.67514E+00  6.57599E+00  6.48571E+00  6.40527E+00
   6.33594E+00  6.27982E+00  6.21358E+00  6.09582E+00  5.92457E+00  5.74377E+00  5.59016E+00  5.47897E+00  5.38142E+00  5.22537E+00
   4.98419E+00  4.71261E+00  4.45491E+00  4.23256E+00  4.04351E+00  3.86808E+00  3.71092E+00  3.58867E+00  3.47303E+00  3.34460E+00
   3.22842E+00  3.18082E+00  3.25201E+00  3.46273E+00  3.81494E+00  4.31440E+00  4.95825E+00  5.69993E+00  6.42696E+00  7.00481E+00
   7.30918E+00  7.28295E+00  7.04415E+00  6.73942E+00  6.41883E+00  6.11069E+00  5.86622E+00  5.77779E+00  5.89954E+00  6.22618E+00
   6.67926E+00  7.17480E+00  7.61433E+00  7.90811E+00  8.02175E+00  7.93243E+00  7.64026E+00  7.26102E+00  7.04687E+00  7.20203E+00
   7.64603E+00  8.24911E+00  8.91164E+00  9.50931E+00  9.84792E+00  9.72548E+00  9.11230E+00  8.24100E+00  7.36327E+00  6.62842E+00
   6.15699E+00  6.00274E+00  6.19548E+00  6.74553E+00  7.54602E+00  8.44965E+00  9.27696E+00  1.00047E+01  1.06681E+01  1.12673E+01
   1.17802E+01  1.21961E+01  1.25411E+01  1.28276E+01  1.29783E+01  1.28983E+01  1.25786E+01  1.20985E+01  1.16005E+01  1.12053E+01
   1.09543E+01  1.09160E+01  1.11307E+01  1.15403E+01  1.20750E+01  1.26968E+01  1.34036E+01  1.41685E+01  1.50371E+01  1.62923E+01
   1.79037E+01  1.96517E+01  2.15341E+01  2.41328E+01  2.77835E+01  3.18188E+01  3.56378E+01  3.88658E+01  4.11411E+01  4.20834E+01
   4.13982E+01  3.90886E+01  3.56051E+01  3.16296E+01  2.77016E+01  2.39777E+01  2.01919E+01  1.64260E+01  1.32980E+01  1.15360E+01
   1.09657E+01  1.07447E+01  1.06358E+01  1.05794E+01  1.05223E+01  1.04564E+01  1.03963E+01  1.03404E+01  1.02838E+01  1.02263E+01
   1.01746E+01  1.01393E+01  1.01381E+01  1.01800E+01  1.02594E+01  1.03715E+01  1.05126E+01  1.06812E+01  1.08777E+01  1.11014E+01
   1.13537E+01  1.16409E+01  1.19674E+01  1.23377E+01  1.27590E+01  1.32415E+01  1.37919E+01  1.44143E+01  1.51133E+01  1.58913E+01
   1.67501E+01  1.76915E+01  1.87101E+01  1.97969E+01  2.09418E+01  2.21334E+01  2.33588E+01  2.46036E+01  2.58551E+01  2.71060E+01
   2.83521E+01  2.95916E+01  3.08276E+01  3.20672E+01  3.33229E+01  3.46132E+01  3.59646E+01  3.74166E+01  3.90352E+01  4.09565E+01
   4.34453E+01  4.62893E+01  4.87153E+01  5.03265E+01  5.09170E+01  5.03349E+01  4.85299E+01  4.56285E+01  4.23449E+01  3.99535E+01
   3.89863E+01  3.94067E+01  4.10160E+01  4.36558E+01  4.71945E+01  5.14295E+01  5.59543E+01  5.99559E+01  6.29125E+01  6.50715E+01
   6.65262E+01  6.71745E+01  6.69547E+01  6.60815E+01  6.52353E+01  6.49874E+01  6.50527E+01  6.51876E+01  6.52842E+01  6.52809E+01
   6.51376E+01  6.48268E+01  6.43310E+01  6.36404E+01  6.27527E+01  6.16716E+01  6.04064E+01  5.89712E+01  5.73841E+01  5.56660E+01
   5.38403E+01  5.19314E+01  4.99643E+01  4.79635E+01  4.59527E+01  4.39539E+01  4.19874E+01  4.00710E+01  3.82201E+01  3.64477E+01
   3.47644E+01  3.31781E+01  3.16949E+01  3.03185E+01  2.90511E+01  2.78932E+01  2.68441E+01  2.59021E+01  2.50646E+01  2.43282E+01
   2.36892E+01  2.31435E+01  2.26867E+01  2.23141E+01  2.20209E+01  2.18019E+01  2.16519E+01  2.15653E+01  2.15362E+01  2.15582E+01
   2.16246E+01  2.17283E+01  2.18615E+01  2.20162E+01  2.21839E+01  2.23556E+01  2.25226E+01  2.26758E+01  2.28066E+01  2.29068E+01
   2.29687E+01  2.29858E+01  2.29526E+01  2.28649E+01  2.27198E+01  2.25160E+01  2.22538E+01  2.19347E+01  2.15616E+01  2.11386E+01
   2.06707E+01  2.01637E+01  1.96238E+01  1.90575E+01  1.84713E+01  1.78716E+01  1.72645E+01  1.66555E+01  1.60496E+01  1.54514E+01
   1.48647E+01  1.42925E+01  1.37377E+01  1.32020E+01  1.26872E+01  1.21941E+01  1.17235E+01  1.12756E+01  1.08504E+01  1.04477E+01
   1.00670E+01  9.70769E+00  9.36917E+00  9.05056E+00  8.75100E+00  8.46958E+00  8.20540E+00  7.95752E+00  7.72506E+00  7.50707E+00
   7.30269E+00  7.11106E+00  6.93141E+00  6.76296E+00  6.60497E+00  6.45674E+00  6.31762E+00  6.18701E+00  6.06435E+00  5.94911E+00
   5.84079E+00  5.73890E+00  5.64304E+00  5.55280E+00  5.46783E+00  5.38779E+00  5.31234E+00  5.24116E+00  5.17402E+00  5.11066E+00
   5.05085E+00  4.99435E+00  4.94097E+00  4.89050E+00  4.84279E+00  4.79767E+00  4.75501E+00  4.71464E+00  4.67644E+00  4.64027E+00
   4.60606E+00  4.57368E+00  4.54306E+00  4.51405E+00  4.48661E+00  4.46063E+00  4.43608E+00  4.41288E+00  4.39094E+00  4.37020E+00
   4.35062E+00  4.33214E+00  4.31473E+00  4.29834E+00  4.28291E+00  4.26840E+00  4.25479E+00  4.24205E+00  4.23017E+00  4.21909E+00
   4.20879E+00  4.19925E+00  4.19047E+00  4.18243E+00  4.17515E+00  4.16858E+00  4.16273E+00  4.15760E+00
 NY background values follow
     2.297E+00    2.301E+00    2.306E+00    2.310E+00    2.314E+00    2.318E+00    2.323E+00    2.327E+00    2.331E+00    2.336E+00
     2.340E+00    2.344E+00    2.348E+00    2.353E+00    2.357E+00    2.361E+00    2.366E+00    2.370E+00    2.374E+00    2.378E+00
     2.383E+00    2.387E+00    2.391E+00    2.396E+00    2.400E+00    2.404E+00    2.408E+00    2.413E+00    2.417E+00    2.421E+00
     2.425E+00    2.430E+00    2.434E+00    2.438E+00    2.443E+00    2.447E+00    2.451E+00    2.455E+00    2.460E+00    2.464E+00
     2.468E+00    2.473E+00    2.477E+00    2.481E+00    2.485E+00    2.490E+00    2.494E+00    2.498E+00    2.502E+00    2.507E+00
     2.511E+00    2.515E+00    2.520E+00    2.524E+00    2.528E+00    2.532E+00    2.537E+00    2.541E+00    2.545E+00    2.549E+00
     2.554E+00    2.558E+00    2.562E+00    2.567E+00    2.571E+00    2.575E+00    2.579E+00    2.584E+00    2.588E+00    2.592E+00
     2.596E+00    2.601E+00    2.605E+00    2.609E+00    2.614E+00    2.618E+00    2.622E+00    2.626E+00    2.631E+00    2.635E+00
     2.639E+00    2.643E+00    2.648E+00    2.652E+00    2.656E+00    2.660E+00    2.665E+00    2.669E+00    2.673E+00    2.678E+00
     2.682E+00    2.686E+00    2.690E+00    2.695E+00    2.699E+00    2.703E+00    2.707E+00    2.712E+00    2.716E+00    2.720E+00
     2.724E+00    2.729E+00    2.733E+00    2.737E+00    2.741E+00    2.746E+00    2.750E+00    2.754E+00    2.758E+00    2.763E+00
     2.767E+00    2.771E+00    2.776E+00    2.780E+00    2.784E+00    2.788E+00    2.793E+00    2.797E+00    2.801E+00    2.805E+00
     2.810E+00    2.814E+00    2.818E+00    2.822E+00    2.827E+00    2.831E+00    2.835E+00    2.839E+00    2.844E+00    2.848E+00
     2.852E+00    2.856E+00    2.861E+00    2.865E+00    2.869E+00    2.873E+00    2.878E+00    2.882E+00    2.886E+00    2.890E+00
     2.895E+00    2.899E+00    2.903E+00    2.907E+00    2.912E+00    2.916E+00    2.920E+00    2.924E+00    2.929E+00    2.933E+00
     2.937E+00    2.941E+00    2.946E+00    2.950E+00    2.954E+00    2.958E+00    2.963E+00    2.967E+00    2.971E+00    2.975E+00
     2.980E+00    2.984E+00    2.988E+00    2.992E+00    2.997E+00    3.001E+00    3.005E+00    3.009E+00    3.014E+00    3.018E+00
     3.022E+00    3.026E+00    3.031E+00    3.035E+00    3.039E+00    3.043E+00    3.048E+00    3.052E+00    3.056E+00    3.060E+00
     3.065E+00    3.069E+00    3.073E+00    3.077E+00    3.082E+00    3.086E+00    3.090E+00    3.094E+00    3.099E+00    3.103E+00
     3.107E+00    3.111E+00    3.115E+00    3.120E+00    3.124E+00    3.128E+00    3.132E+00    3.137E+00    3.141E+00    3.145E+00
     3.149E+00    3.154E+00    3.158E+00    3.162E+00    3.166E+00    3.171E+00    3.175E+00    3.179E+00    3.183E+00    3.188E+00
     3.192E+00    3.196E+00    3.200E+00    3.204E+00    3.209E+00    3.213E+00    3.217E+00    3.221E+00    3.226E+00    3.230E+00
     3.234E+00    3.238E+00    3.243E+00    3.247E+00    3.251E+00    3.255E+00    3.260E+00    3.264E+00    3.268E+00    3.272E+00
     3.276E+00    3.281E+00    3.285E+00    3.289E+00    3.293E+00    3.298E+00    3.302E+00    3.306E+00    3.310E+00    3.315E+00
     3.319E+00    3.323E+00    3.327E+00    3.331E+00    3.336E+00    3.340E+00    3.344E+00    3.348E+00    3.353E+00    3.357E+00
     3.361E+00    3.365E+00    3.370E+00    3.374E+00    3.378E+00    3.382E+00    3.386E+00    3.391E+00    3.395E+00    3.399E+00
     3.403E+00    3.408E+00    3.412E+00    3.416E+00    3.420E+00    3.424E+00    3.429E+00    3.433E+00    3.437E+00    3.441E+00
     3.446E+00    3.450E+00    3.454E+00    3.458E+00    3.462E+00    3.467E+00    3.471E+00    3.475E+00    3.479E+00    3.484E+00
     3.488E+00    3.492E+00    3.496E+00    3.500E+00    3.505E+00    3.509E+00    3.513E+00    3.517E+00    3.522E+00    3.526E+00
     3.530E+00    3.534E+00    3.538E+00    3.543E+00    3.547E+00    3.551E+00    3.555E+00    3.559E+00    3.564E+00    3.568E+00
     3.572E+00    3.576E+00    3.581E+00    3.585E+00    3.589E+00    3.593E+00    3.597E+00    3.602E+00    3.606E+00    3.610E+00
     3.614E+00    3.618E+00    3.623E+00    3.627E+00    3.631E+00    3.635E+00    3.639E+00    3.644E+00    3.648E+00    3.652E+00
     3.656E+00    3.661E+00    3.665E+00    3.669E+00    3.673E+00    3.677E+00    3.682E+00    3.686E+00    3.690E+00    3.694E+00
     3.698E+00    3.703E+00    3.707E+00    3.711E+00    3.715E+00    3.719E+00    3.724E+00    3.728E+00    3.732E+00    3.736E+00
     3.740E+00    3.745E+00    3.749E+00    3.753E+00    3.757E+00    3.761E+00    3.766E+00    3.770E+00    3.774E+00    3.778E+00
     3.782E+00    3.786E+00    3.791E+00    3.795E+00    3.799E+00    3.803E+00    3.807E+00    3.812E+00    3.816E+00    3.820E+00
     3.824E+00    3.828E+00    3.833E+00    3.837E+00    3.841E+00    3.845E+00    3.849E+00    3.854E+00    3.858E+00    3.862E+00
     3.866E+00    3.870E+00    3.874E+00    3.879E+00    3.883E+00    3.887E+00    3.891E+00    3.895E+00    3.900E+00    3.904E+00
     3.908E+00    3.912E+00    3.916E+00    3.920E+00    3.925E+00    3.929E+00    3.933E+00    3.937E+00    3.941E+00    3.946E+00
     3.950E+00    3.954E+00    3.958E+00    3.962E+00    3.966E+00    3.971E+00    3.975E+00    3.979E+00    3.983E+00    3.987E+00
     3.991E+00    3.996E+00    4.000E+00    4.004E+00    4.008E+00    4.012E+00    4.016E+00    4.021E+00    4.025E+00    4.029E+00
     4.033E+00    4.037E+00    4.041E+00    4.046E+00    4.050E+00    4.054E+00    4.058E+00    4.062E+00    4.066E+00    4.071E+00
     4.075E+00    4.079E+00    4.083E+00    4.087E+00    4.091E+00    4.096E+00    4.100E+00    4.104E+00    4.108E+00    4.112E+00
     4.116E+00    4.120E+00    4.125E+00    4.129E+00    4.133E+00    4.137E+00    4.141E+00    4.145E+00    4.150E+00    4.154E+00
     4.158E+00    4.162E+00    4.166E+00    4.170E+00    4.174E+00    4.179E+00    4.183E+00    4.187E+00    4.191E+00    4.195E+00
     4.199E+00    4.204E+00    4.208E+00    4.212E+00    4.216E+00    4.220E+00    4.224E+00    4.228E+00    4.233E+00    4.237E+00
     4.241E+00    4.245E+00    4.249E+00    4.253E+00    4.257E+00    4.261E+00    4.266E+00    4.270E+00    4.274E+00    4.278E+00
     4.282E+00    4.286E+00    4.290E+00    4.295E+00    4.299E+00    4.303E+00    4.307E+00    4.311E+00    4.315E+00    4.319E+00
     4.323E+00    4.328E+00    4.332E+00    4.336E+00    4.340E+00    4.344E+00    4.348E+00    4.352E+00    4.356E+00    4.361E+00
     4.365E+00    4.369E+00    4.373E+00    4.377E+00    4.381E+00    4.385E+00    4.389E+00    4.394E+00
 Ala      Conc. = 1.28E+03
