 LCModel (Version 6.3-1L) Copyright: S.W. Provencher.          Ref.: Magn. Reson. Med. 30:672-679 (1993).                
 Slice#3 Row#12 Col#3  PD_05_press_2_raw_act
 36 lines in following concentration table = NCONC+1
    Conc.  %SD /Cr+PCr  Metabolite                                         
    0.000 999%   0.000 Ala                                                 
    7.222 260%   0.161 Asp                                                 
   44.873  64%   1.000 Cr                                                  
    0.000 999%   0.000 PCr                                                 
    4.460 252% 9.9E-02 GABA                                                
    3.247 348% 7.2E-02 Glc                                                 
   10.501 999%   0.234 Gln                                                 
   67.878 204%   1.513 Glu                                                 
    0.000 999%   0.000 GPC                                                 
   16.029  70%   0.357 PCh                                                 
   26.048 161%   0.580 GSH                                                 
   56.412 237%   1.257 Ins                                                 
   32.127 218%   0.716 Lac                                                 
   71.355  47%   1.590 NAA                                                 
    0.000 999%   0.000 NAAG                                                
    0.857 432% 1.9E-02 Scyllo                                              
    3.248 574% 7.2E-02 Tau                                                 
   12.136 237%   0.270 -CrCH2                                              
   16.029  70%   0.357 GPC+PCh                                             
   71.355  47%   1.590 NAA+NAAG                                            
   44.873  64%   1.000 Cr+PCr                                              
   78.379 240%   1.747 Glu+Gln                                             
 4.14E+03   9%  92.196 Lip13a                                              
    0.000 999%   0.000 Lip13b                                              
 1.10E+03   9%  24.504 Lip09                                               
 1.06E+03  10%  23.585 MM09                                                
  620.964   9%  13.838 Lip20                                               
 1.51E+03  11%  33.605 MM20                                                
  318.072  12%   7.088 MM12                                                
 1.10E+03   9%  24.458 MM14                                                
  542.602  13%  12.092 MM17                                                
 4.14E+03   9%  92.196 Lip13a+Lip13b                                       
 5.55E+03   6% 123.743 MM14+Lip13a+Lip13b+MM12                             
 2.16E+03   5%  48.089 MM09+Lip09                                          
 2.13E+03   7%  47.443 MM20+Lip20                                          
   6 lines in following misc. output table
  FWHM = 0.046 ppm    S/N =   5                                            
  Data shift = 0.046 ppm                                                   
  Ph:  51 deg      38.5 deg/ppm                                            
  alphaB,S = 2.8E+00,   6.7E+01                                            
   14 spline knots.   Ns = 6(1)                                            
   2 inflections.     1 extrema                                            
  498 points on ppm-axis = NY
      4.000000     3.992357     3.984714     3.977070     3.969427     3.961784     3.954141     3.946497     3.938854     3.931211
      3.923568     3.915925     3.908281     3.900638     3.892995     3.885352     3.877708     3.870065     3.862422     3.854779
      3.847136     3.839492     3.831849     3.824206     3.816563     3.808919     3.801276     3.793633     3.785990     3.778347
      3.770703     3.763060     3.755417     3.747774     3.740130     3.732487     3.724844     3.717201     3.709558     3.701914
      3.694271     3.686628     3.678985     3.671341     3.663698     3.656055     3.648412     3.640769     3.633125     3.625482
      3.617839     3.610196     3.602552     3.594909     3.587266     3.579623     3.571980     3.564336     3.556693     3.549050
      3.541407     3.533763     3.526120     3.518477     3.510834     3.503191     3.495547     3.487904     3.480261     3.472618
      3.464974     3.457331     3.449688     3.442045     3.434402     3.426758     3.419115     3.411472     3.403829     3.396185
      3.388542     3.380899     3.373256     3.365613     3.357969     3.350326     3.342683     3.335040     3.327396     3.319753
      3.312110     3.304467     3.296824     3.289180     3.281537     3.273894     3.266251     3.258607     3.250964     3.243321
      3.235678     3.228034     3.220391     3.212748     3.205105     3.197462     3.189818     3.182175     3.174532     3.166889
      3.159245     3.151602     3.143959     3.136316     3.128673     3.121029     3.113386     3.105743     3.098100     3.090456
      3.082813     3.075170     3.067527     3.059884     3.052240     3.044597     3.036954     3.029311     3.021667     3.014024
      3.006381     2.998738     2.991095     2.983451     2.975808     2.968165     2.960522     2.952878     2.945235     2.937592
      2.929949     2.922306     2.914662     2.907019     2.899376     2.891733     2.884089     2.876446     2.868803     2.861160
      2.853517     2.845873     2.838230     2.830587     2.822944     2.815300     2.807657     2.800014     2.792371     2.784728
      2.777084     2.769441     2.761798     2.754155     2.746511     2.738868     2.731225     2.723582     2.715939     2.708295
      2.700652     2.693009     2.685366     2.677722     2.670079     2.662436     2.654793     2.647150     2.639506     2.631863
      2.624220     2.616577     2.608933     2.601290     2.593647     2.586004     2.578361     2.570717     2.563074     2.555431
      2.547788     2.540144     2.532501     2.524858     2.517215     2.509572     2.501928     2.494285     2.486642     2.478999
      2.471355     2.463712     2.456069     2.448426     2.440783     2.433139     2.425496     2.417853     2.410210     2.402566
      2.394923     2.387280     2.379637     2.371994     2.364350     2.356707     2.349064     2.341421     2.333777     2.326134
      2.318491     2.310848     2.303205     2.295561     2.287918     2.280275     2.272632     2.264988     2.257345     2.249702
      2.242059     2.234416     2.226772     2.219129     2.211486     2.203843     2.196199     2.188556     2.180913     2.173270
      2.165627     2.157983     2.150340     2.142697     2.135054     2.127410     2.119767     2.112124     2.104481     2.096838
      2.089194     2.081551     2.073908     2.066265     2.058621     2.050978     2.043335     2.035692     2.028049     2.020405
      2.012762     2.005119     1.997476     1.989833     1.982190     1.974546     1.966903     1.959260     1.951617     1.943974
      1.936331     1.928688     1.921045     1.913402     1.905759     1.898115     1.890472     1.882829     1.875186     1.867543
      1.859900     1.852257     1.844614     1.836971     1.829327     1.821684     1.814041     1.806398     1.798755     1.791112
      1.783469     1.775826     1.768183     1.760540     1.752896     1.745253     1.737610     1.729967     1.722324     1.714681
      1.707038     1.699395     1.691752     1.684108     1.676465     1.668822     1.661179     1.653536     1.645893     1.638250
      1.630607     1.622964     1.615321     1.607677     1.600034     1.592391     1.584748     1.577105     1.569462     1.561819
      1.554176     1.546533     1.538890     1.531246     1.523603     1.515960     1.508317     1.500674     1.493031     1.485388
      1.477745     1.470102     1.462458     1.454815     1.447172     1.439529     1.431886     1.424243     1.416600     1.408957
      1.401314     1.393671     1.386027     1.378384     1.370741     1.363098     1.355455     1.347812     1.340169     1.332526
      1.324883     1.317240     1.309596     1.301953     1.294310     1.286667     1.279024     1.271381     1.263738     1.256095
      1.248452     1.240808     1.233165     1.225522     1.217879     1.210236     1.202593     1.194950     1.187307     1.179664
      1.172021     1.164377     1.156734     1.149091     1.141448     1.133805     1.126162     1.118519     1.110876     1.103233
      1.095590     1.087946     1.080303     1.072660     1.065017     1.057374     1.049731     1.042088     1.034445     1.026802
      1.019158     1.011515     1.003872     0.996229     0.988586     0.980943     0.973300     0.965657     0.958014     0.950371
      0.942727     0.935084     0.927441     0.919798     0.912155     0.904512     0.896869     0.889226     0.881583     0.873940
      0.866296     0.858653     0.851010     0.843367     0.835724     0.828081     0.820438     0.812795     0.805152     0.797508
      0.789865     0.782222     0.774579     0.766936     0.759293     0.751650     0.744007     0.736364     0.728721     0.721077
      0.713434     0.705791     0.698148     0.690505     0.682862     0.675219     0.667576     0.659933     0.652290     0.644646
      0.637003     0.629360     0.621717     0.614074     0.606431     0.598788     0.591145     0.583502     0.575858     0.568215
      0.560572     0.552929     0.545286     0.537643     0.530000     0.522357     0.514714     0.507071     0.499427     0.491784
      0.484141     0.476498     0.468855     0.461212     0.453569     0.445925     0.438282     0.430639     0.422996     0.415353
      0.407710     0.400067     0.392424     0.384780     0.377137     0.369494     0.361851     0.354208     0.346565     0.338922
      0.331278     0.323635     0.315992     0.308349     0.300706     0.293063     0.285420     0.277777     0.270133     0.262490
      0.254847     0.247204     0.239561     0.231918     0.224275     0.216631     0.208988     0.201345
 NY phased data points follow
   6.61353E-01 -3.75496E-01 -1.91781E+00  5.25095E-02 -2.41318E+00 -1.65847E+00  4.63854E-01 -5.43703E-01  9.08497E-01  6.00052E-01
   1.54983E+00  2.82294E+00  1.16003E+00 -1.27957E-01 -2.82516E-02 -3.97332E+00  1.55064E+00 -1.67001E+00 -2.35043E+00  9.38825E-02
  -3.89377E-01 -4.92086E-01 -2.58796E+00 -1.94498E+00 -2.93058E+00 -2.92937E+00 -1.65805E+00  3.49935E-01 -2.38855E+00 -1.72211E-01
   3.96411E-01 -9.14554E-01  1.40411E+00 -2.91538E+00 -1.64467E+00 -2.07984E+00 -7.34858E-01 -3.57129E+00 -1.08797E+00 -1.34231E+00
  -3.80331E+00 -3.07975E+00 -1.48008E+00 -9.59977E-01  5.83360E-01  1.38059E-02 -9.21286E-01  7.09897E-01 -8.97951E-01 -3.24267E+00
   1.31996E+00 -5.92221E-01 -6.00544E+00  8.35536E-01 -3.30502E+00 -2.38593E+00 -2.68998E+00 -1.15819E+00  5.91376E-01 -1.22955E+00
  -1.95492E+00 -4.78397E+00 -1.47702E+00 -4.52637E+00  2.40578E-01 -2.28304E+00 -3.46343E+00 -5.36455E-01 -9.62120E-01 -2.87486E+00
  -4.89514E+00 -8.24319E-01 -1.33026E+00 -2.27413E+00 -4.53753E-01 -2.03279E+00 -4.02018E+00 -2.70232E+00 -4.85793E-01 -1.87620E+00
  -3.66193E+00 -4.30581E+00 -3.21932E+00  5.51236E-01 -2.24737E+00 -6.04477E-01 -3.76134E+00 -2.79686E+00 -1.41988E+00  4.48613E-01
  -1.99992E+00 -2.13761E+00 -3.22797E+00 -1.62454E+00 -1.20044E+00 -3.29124E+00 -1.31653E+00 -3.70379E+00 -8.70944E-01 -1.84517E+00
   2.98067E+00  1.20717E+00  2.15209E+00 -7.63212E-01  1.72476E+00 -2.29539E+00 -2.11968E+00 -2.99691E+00 -7.28846E-01 -1.10847E+00
  -4.33887E+00 -2.00334E+00  8.20704E-01 -3.09188E+00  1.32701E+00 -1.16381E+00 -3.10228E+00 -4.39470E+00 -5.68682E+00 -2.72271E+00
  -4.13296E+00 -3.44665E+00 -5.84121E-01  7.05064E-01  8.13543E-01  2.03269E+00  2.75332E+00  1.79862E+00  5.87097E-01 -4.66671E-02
   6.83559E-01 -1.17556E+00 -1.64104E+00  1.16233E+00 -1.16594E+00 -3.54092E-01 -1.26692E+00 -7.46482E-01  1.66494E+00 -1.33160E+00
  -4.15111E+00 -6.83391E-01 -6.43851E-01 -3.18909E+00  9.59975E-01 -1.58999E+00 -2.84966E+00 -3.25935E+00 -2.33159E+00 -3.70364E+00
  -5.72381E-01 -2.06366E+00 -1.56665E+00  3.81948E-01 -5.08607E-02  6.64997E-02 -3.65605E+00 -3.66129E+00 -5.33209E-01 -2.24143E+00
  -1.80723E+00 -1.10148E+00 -4.41982E+00 -3.58874E+00 -7.39967E-01 -2.05880E+00 -3.10901E+00 -2.83468E+00 -9.27628E-01 -8.85326E-01
  -2.49392E-01 -2.69584E+00  9.41717E-02 -2.06609E+00 -3.58767E+00 -4.48168E+00  5.43896E-02 -1.22314E+00 -2.41809E+00 -2.49879E-01
  -2.67739E+00 -2.86682E+00 -2.00518E+00 -1.42971E+00 -3.82207E+00 -1.22225E+00 -2.65857E+00 -1.67848E+00  4.67441E-01 -5.43283E-01
  -1.30710E+00 -1.94708E+00 -3.09353E+00 -4.89345E+00 -1.01222E+00 -3.17786E+00  1.01568E+00 -4.20459E+00 -5.97103E-01  1.64539E-01
  -3.82336E+00 -4.11338E+00  2.64340E+00 -5.98522E-01  1.94123E+00  6.03088E-01 -5.26241E+00 -2.45666E+00 -2.73228E+00  1.73368E-01
  -3.17345E-01  2.76846E+00  1.61535E+00  1.08972E+00 -2.39310E-02 -1.51245E+00  2.90653E-01 -6.89526E-01 -1.80848E+00 -2.34477E+00
   1.18669E+00  7.58256E-01  1.36967E+00  4.99746E-01 -3.89688E-01  1.74457E+00  2.22061E+00  8.75232E-01  2.69574E+00  1.13426E+00
  -1.34928E+00 -3.62948E+00  2.54837E-01  3.07946E+00  9.86960E-01  1.04612E-01 -1.30938E-01  3.39535E+00  1.58703E+00  6.28783E-01
   1.20313E+00  2.37644E+00  3.12076E-02 -1.85558E+00  1.12486E+00  3.29497E+00 -9.25354E-01  4.00161E+00  2.80082E+00 -1.09855E+00
   6.41966E-01 -4.10418E+00  6.35806E-02  2.83794E-01 -1.92023E+00  1.96823E+00  3.41992E+00  7.69045E+00  6.09445E+00  5.13933E+00
   4.02861E+00 -2.30970E-02 -8.38441E-02 -6.08112E-01  1.26985E+00 -2.84105E+00 -1.80044E+00 -9.26541E-01 -1.43524E+00 -1.91742E+00
   1.22156E+00  1.71081E-01 -1.44088E+00 -3.48155E+00 -9.06181E-01 -3.28694E+00 -2.25751E+00 -2.27011E+00 -2.92811E+00 -4.01527E+00
  -2.87025E+00 -3.54142E-01 -1.18390E+00 -2.59790E+00  2.01400E+00 -3.46577E+00 -1.04146E+00 -5.07919E+00 -2.74633E-01 -2.60484E+00
  -5.85795E+00 -4.03690E+00 -2.90036E+00 -1.72119E+00 -2.91541E+00 -3.62786E+00  8.32920E-01 -2.93913E+00 -1.02164E-02 -3.27428E+00
  -2.20105E+00 -1.30379E+00  7.85272E-01 -2.15099E+00  1.06699E+00  1.16397E+00  7.66477E-02  4.40942E+00  7.28922E-01  4.29015E+00
   5.48037E+00  5.17230E+00  7.17913E+00  7.13769E+00  7.42132E+00  1.06226E+01  1.23391E+01  1.01120E+01  1.44656E+01  1.39777E+01
   1.54737E+01  1.57892E+01  1.85122E+01  1.74294E+01  1.75412E+01  2.06142E+01  1.73286E+01  1.85365E+01  1.95908E+01  1.86244E+01
   2.23753E+01  2.21644E+01  1.72949E+01  2.48058E+01  2.10352E+01  1.75606E+01  1.76280E+01  1.55581E+01  1.66318E+01  1.67326E+01
   1.39205E+01  1.44713E+01  1.43208E+01  1.30747E+01  1.09340E+01  1.30269E+01  1.13061E+01  9.36294E+00  1.04128E+01  1.18740E+01
   1.05827E+01  9.65384E+00  3.70523E+00  9.42445E+00  7.35736E+00  8.91766E+00  6.43642E+00  4.84658E+00  5.30183E+00  6.29795E+00
   3.43454E+00  4.79618E+00  5.21752E+00 -1.45105E-01  2.56464E+00  3.47326E+00  2.21724E+00  1.56817E+00  1.31757E+00  3.99721E+00
  -1.06420E+00  4.18745E+00  5.93320E+00  1.78568E+00  2.74430E+00  1.72373E+00  1.47736E+00  1.63555E+00  2.87997E+00  1.01581E+00
   2.58228E+00  2.07794E+00  1.87254E+00  2.67138E+00 -9.87809E-01  2.47228E+00  1.23424E+00  2.95383E+00  3.29971E+00  1.88526E+00
   3.09952E+00 -5.48820E-01  3.55915E+00  4.98699E+00 -1.35983E-01 -7.50861E-01  1.71600E+00  3.09533E+00  2.61978E+00  4.52692E+00
  -8.20647E-01  1.06767E+00  2.70156E+00  2.51269E+00  1.01745E+00  1.80455E+00  2.40502E+00  4.24716E+00  2.95363E+00  9.82593E-01
   2.84578E+00  6.29415E-01  2.03687E+00  2.79376E+00  2.30709E+00 -5.76990E-01  3.41406E+00 -3.38834E+00  2.22668E+00  3.91722E+00
   6.49009E-01  1.83088E+00 -2.05548E+00 -1.42422E+00  1.97567E+00  3.36160E-01  4.86350E+00 -1.16560E+00  8.99387E-01  8.07510E-01
  -2.61266E-01  2.16597E+00  3.70225E+00  1.57479E+00  2.69010E-01 -7.20432E-01  1.10249E+00  3.52237E-01 -2.91802E+00 -1.80616E+00
  -8.90417E-01  2.24630E+00  6.13605E-02 -2.43171E-01  5.54198E-01  3.64559E+00 -2.35033E-01  3.21108E+00 -2.85011E+00  2.24603E+00
   4.82587E-01 -1.47664E+00  6.69811E-01 -3.21949E+00 -1.20657E+00  6.83640E-01 -1.06964E+00 -2.25848E+00 -1.05080E+00  4.23433E+00
  -4.75102E-01  6.08319E-01 -1.68779E+00 -1.86122E+00  8.13607E-01 -3.28228E-01  6.22207E-01  1.83523E+00  1.89643E-03 -1.04461E+00
  -1.71252E+00  2.07322E+00 -8.92425E-01  1.64940E+00 -3.24529E+00 -5.20138E-01  1.89875E+00  5.47031E+00  2.05496E+00  2.19402E+00
   1.69986E+00  2.80565E-01  1.71530E+00  3.29233E+00  9.87657E-01  2.55936E+00  3.55112E+00  2.56639E+00  3.94346E-01  9.41691E-01
   3.32923E+00 -8.31962E-02 -1.92963E-01  1.49896E+00  3.81004E-01 -2.91604E-01 -1.29102E+00  1.78599E+00
 NY points of the fit to the data follow
   2.36120E-01  2.33108E-01  2.31824E-01  2.28219E-01  2.22037E-01  2.32589E-01  2.96491E-01  4.11958E-01  5.27067E-01  5.83938E-01
   5.46456E-01  4.11067E-01  2.00904E-01 -4.61005E-02 -2.92197E-01 -5.04756E-01 -6.57546E-01 -7.28881E-01 -7.17477E-01 -6.55411E-01
  -5.98089E-01 -5.66684E-01 -5.52196E-01 -5.45635E-01 -5.28216E-01 -4.79076E-01 -4.08200E-01 -3.44813E-01 -3.20457E-01 -3.57993E-01
  -4.68044E-01 -6.42313E-01 -8.54040E-01 -1.06991E+00 -1.25949E+00 -1.39636E+00 -1.46107E+00 -1.45353E+00 -1.40095E+00 -1.34232E+00
  -1.28688E+00 -1.23523E+00 -1.18335E+00 -1.13484E+00 -1.10337E+00 -1.10821E+00 -1.16160E+00 -1.25748E+00 -1.37824E+00 -1.50376E+00
  -1.61413E+00 -1.69330E+00 -1.73290E+00 -1.73177E+00 -1.69301E+00 -1.63161E+00 -1.57410E+00 -1.54060E+00 -1.53685E+00 -1.55967E+00
  -1.60235E+00 -1.65615E+00 -1.70991E+00 -1.75354E+00 -1.78060E+00 -1.79027E+00 -1.78310E+00 -1.76295E+00 -1.74040E+00 -1.72528E+00
  -1.72327E+00 -1.73510E+00 -1.75770E+00 -1.78675E+00 -1.81757E+00 -1.84655E+00 -1.87155E+00 -1.89056E+00 -1.90310E+00 -1.90867E+00
  -1.90928E+00 -1.90876E+00 -1.91109E+00 -1.91910E+00 -1.93177E+00 -1.94330E+00 -1.94569E+00 -1.93271E+00 -1.90202E+00 -1.85515E+00
  -1.79695E+00 -1.73297E+00 -1.66942E+00 -1.61131E+00 -1.56063E+00 -1.51336E+00 -1.45551E+00 -1.36185E+00 -1.19118E+00 -9.56565E-01
  -7.36685E-01 -6.17693E-01 -6.52007E-01 -8.43774E-01 -1.15441E+00 -1.52212E+00 -1.88138E+00 -2.17762E+00 -2.37195E+00 -2.44367E+00
  -2.39456E+00 -2.25995E+00 -2.12165E+00 -2.01488E+00 -1.92875E+00 -1.85557E+00 -1.79001E+00 -1.72739E+00 -1.66295E+00 -1.59098E+00
  -1.50357E+00 -1.38479E+00 -1.20093E+00 -9.64646E-01 -7.50228E-01 -6.39904E-01 -6.84437E-01 -8.88238E-01 -1.21329E+00 -1.60078E+00
  -1.99694E+00 -2.35751E+00 -2.64563E+00 -2.83383E+00 -2.90748E+00 -2.88158E+00 -2.82146E+00 -2.76053E+00 -2.69651E+00 -2.63468E+00
  -2.58400E+00 -2.55296E+00 -2.54927E+00 -2.57358E+00 -2.61587E+00 -2.66534E+00 -2.71296E+00 -2.75215E+00 -2.78227E+00 -2.80537E+00
  -2.82490E+00 -2.84324E+00 -2.85985E+00 -2.87475E+00 -2.88932E+00 -2.90656E+00 -2.92884E+00 -2.95480E+00 -2.98052E+00 -3.00067E+00
  -3.01210E+00 -3.01726E+00 -3.02051E+00 -3.02534E+00 -3.03336E+00 -3.04518E+00 -3.06024E+00 -3.07711E+00 -3.09384E+00 -3.10709E+00
  -3.11397E+00 -3.11575E+00 -3.11150E+00 -3.09929E+00 -3.07870E+00 -3.04964E+00 -3.01581E+00 -2.97932E+00 -2.94007E+00 -2.89705E+00
  -2.85119E+00 -2.80483E+00 -2.75914E+00 -2.70936E+00 -2.64728E+00 -2.56541E+00 -2.46547E+00 -2.35707E+00 -2.25297E+00 -2.16394E+00
  -2.09482E+00 -2.04774E+00 -2.02185E+00 -2.01283E+00 -2.00562E+00 -1.98162E+00 -1.92665E+00 -1.83815E+00 -1.72014E+00 -1.58261E+00
  -1.44002E+00 -1.30699E+00 -1.19536E+00 -1.11020E+00 -1.05303E+00 -1.02008E+00 -9.95865E-01 -9.59072E-01 -8.96007E-01 -7.94360E-01
  -6.44204E-01 -4.46154E-01 -2.26602E-01 -2.23584E-02  1.35525E-01  2.30124E-01  2.60378E-01  2.35842E-01  1.88542E-01  1.66659E-01
   2.08121E-01  3.31545E-01  5.34439E-01  7.90729E-01  1.05938E+00  1.29844E+00  1.48710E+00  1.61831E+00  1.70000E+00  1.75164E+00
   1.80006E+00  1.87241E+00  1.98061E+00  2.11595E+00  2.25965E+00  2.39154E+00  2.49694E+00  2.56973E+00  2.61310E+00  2.64169E+00
   2.67842E+00  2.73971E+00  2.82683E+00  2.93094E+00  3.03587E+00  3.12132E+00  3.16707E+00  3.16265E+00  3.11407E+00  3.03495E+00
   2.93743E+00  2.83420E+00  2.73636E+00  2.65249E+00  2.60855E+00  2.67485E+00  2.85357E+00  3.04330E+00  3.11416E+00  2.97072E+00
   2.57900E+00  1.96986E+00  1.22007E+00  4.22852E-01 -3.33892E-01 -9.75098E-01 -1.44411E+00 -1.71080E+00 -1.80110E+00 -1.83065E+00
  -1.85870E+00 -1.88142E+00 -1.89617E+00 -1.90440E+00 -1.90608E+00 -1.90221E+00 -1.89398E+00 -1.88092E+00 -1.86113E+00 -1.83202E+00
  -1.79084E+00 -1.73551E+00 -1.66605E+00 -1.58384E+00 -1.49027E+00 -1.38678E+00 -1.27480E+00 -1.15531E+00 -1.02889E+00 -8.95555E-01
  -7.55091E-01 -6.07294E-01 -4.51827E-01 -2.88242E-01 -1.16161E-01  6.47922E-02  2.55236E-01  4.56069E-01  6.68352E-01  8.93349E-01
   1.13271E+00  1.38841E+00  1.66281E+00  1.95871E+00  2.27930E+00  2.62820E+00  3.00935E+00  3.42696E+00  3.88535E+00  4.38874E+00
   4.94098E+00  5.54528E+00  6.20379E+00  6.91728E+00  7.68475E+00  8.50302E+00  9.36646E+00  1.02668E+01  1.11932E+01  1.21319E+01
   1.30674E+01  1.39821E+01  1.48574E+01  1.56746E+01  1.64158E+01  1.70646E+01  1.76074E+01  1.80342E+01  1.83388E+01  1.85194E+01
   1.85788E+01  1.85240E+01  1.83655E+01  1.81169E+01  1.77935E+01  1.74117E+01  1.69879E+01  1.65374E+01  1.60737E+01  1.56082E+01
   1.51502E+01  1.47081E+01  1.42898E+01  1.38809E+01  1.34485E+01  1.29647E+01  1.24188E+01  1.18174E+01  1.11785E+01  1.05273E+01
   9.90431E+00  9.34312E+00  8.85252E+00  8.41700E+00  8.00507E+00  7.57709E+00  7.09323E+00  6.54670E+00  5.95555E+00  5.33999E+00
   4.72234E+00  4.12708E+00  3.58031E+00  3.10243E+00  2.68631E+00  2.32189E+00  2.00685E+00  1.74046E+00  1.52206E+00  1.35070E+00
   1.22504E+00  1.14338E+00  1.10368E+00  1.10351E+00  1.14017E+00  1.21061E+00  1.31150E+00  1.43918E+00  1.58970E+00  1.75885E+00
   1.94216E+00  2.13497E+00  2.33254E+00  2.53005E+00  2.72280E+00  2.90624E+00  3.07616E+00  3.22881E+00  3.36095E+00  3.47004E+00
   3.55425E+00  3.61257E+00  3.64478E+00  3.65145E+00  3.63392E+00  3.59415E+00  3.53465E+00  3.45833E+00  3.36833E+00  3.26790E+00
   3.16019E+00  3.04816E+00  2.93444E+00  2.82122E+00  2.71021E+00  2.60259E+00  2.49903E+00  2.39968E+00  2.30429E+00  2.21221E+00
   2.12252E+00  2.03411E+00  1.94581E+00  1.85641E+00  1.76482E+00  1.67008E+00  1.57147E+00  1.46849E+00  1.36092E+00  1.24883E+00
   1.13253E+00  1.01257E+00  8.89729E-01  7.64933E-01  6.39239E-01  5.13776E-01  3.89704E-01  2.68165E-01  1.50256E-01  3.69888E-02
  -7.07295E-02 -1.72119E-01 -2.66537E-01 -3.53482E-01 -4.32592E-01 -5.03639E-01 -5.66519E-01 -6.21243E-01 -6.67921E-01 -7.06745E-01
  -7.37978E-01 -7.61931E-01 -7.78960E-01 -7.89446E-01 -7.93790E-01 -7.92396E-01 -7.85668E-01 -7.74000E-01 -7.57778E-01 -7.37369E-01
  -7.13123E-01 -6.85368E-01 -6.54410E-01 -6.20532E-01 -5.84001E-01 -5.45058E-01 -5.03929E-01 -4.60815E-01 -4.15903E-01 -3.69361E-01
  -3.21347E-01 -2.72000E-01 -2.21448E-01 -1.69805E-01 -1.17175E-01 -6.36543E-02 -9.32944E-03  4.57211E-02  1.01427E-01  1.57726E-01
   2.14559E-01  2.71874E-01  3.29620E-01  3.87755E-01  4.46242E-01  5.05044E-01  5.64128E-01  6.23464E-01  6.83023E-01  7.42783E-01
   8.02722E-01  8.62820E-01  9.23057E-01  9.83416E-01  1.04388E+00  1.10444E+00  1.16508E+00  1.22579E+00  1.28656E+00  1.34737E+00
   1.40823E+00  1.46911E+00  1.53003E+00  1.59096E+00  1.65190E+00  1.71286E+00  1.77381E+00  1.83477E+00
 NY background values follow
    -2.711E+00   -2.758E+00   -2.804E+00   -2.851E+00   -2.897E+00   -2.943E+00   -2.988E+00   -3.034E+00   -3.079E+00   -3.123E+00
    -3.168E+00   -3.212E+00   -3.256E+00   -3.300E+00   -3.344E+00   -3.387E+00   -3.430E+00   -3.473E+00   -3.516E+00   -3.558E+00
    -3.600E+00   -3.642E+00   -3.684E+00   -3.725E+00   -3.766E+00   -3.807E+00   -3.847E+00   -3.888E+00   -3.928E+00   -3.967E+00
    -4.007E+00   -4.046E+00   -4.085E+00   -4.124E+00   -4.163E+00   -4.201E+00   -4.239E+00   -4.277E+00   -4.314E+00   -4.352E+00
    -4.389E+00   -4.425E+00   -4.462E+00   -4.498E+00   -4.534E+00   -4.570E+00   -4.605E+00   -4.641E+00   -4.676E+00   -4.710E+00
    -4.745E+00   -4.779E+00   -4.813E+00   -4.847E+00   -4.880E+00   -4.913E+00   -4.946E+00   -4.979E+00   -5.012E+00   -5.044E+00
    -5.076E+00   -5.107E+00   -5.139E+00   -5.170E+00   -5.201E+00   -5.231E+00   -5.262E+00   -5.292E+00   -5.322E+00   -5.352E+00
    -5.381E+00   -5.410E+00   -5.439E+00   -5.468E+00   -5.496E+00   -5.524E+00   -5.552E+00   -5.579E+00   -5.607E+00   -5.634E+00
    -5.661E+00   -5.687E+00   -5.714E+00   -5.740E+00   -5.765E+00   -5.791E+00   -5.816E+00   -5.841E+00   -5.866E+00   -5.891E+00
    -5.915E+00   -5.939E+00   -5.963E+00   -5.986E+00   -6.010E+00   -6.033E+00   -6.055E+00   -6.078E+00   -6.100E+00   -6.122E+00
    -6.144E+00   -6.165E+00   -6.187E+00   -6.207E+00   -6.228E+00   -6.249E+00   -6.269E+00   -6.289E+00   -6.309E+00   -6.328E+00
    -6.347E+00   -6.366E+00   -6.385E+00   -6.403E+00   -6.422E+00   -6.440E+00   -6.457E+00   -6.475E+00   -6.492E+00   -6.509E+00
    -6.526E+00   -6.542E+00   -6.558E+00   -6.574E+00   -6.590E+00   -6.605E+00   -6.620E+00   -6.635E+00   -6.650E+00   -6.664E+00
    -6.679E+00   -6.693E+00   -6.706E+00   -6.720E+00   -6.733E+00   -6.746E+00   -6.759E+00   -6.771E+00   -6.783E+00   -6.795E+00
    -6.807E+00   -6.818E+00   -6.830E+00   -6.840E+00   -6.851E+00   -6.862E+00   -6.872E+00   -6.882E+00   -6.892E+00   -6.901E+00
    -6.910E+00   -6.919E+00   -6.928E+00   -6.937E+00   -6.945E+00   -6.953E+00   -6.961E+00   -6.968E+00   -6.975E+00   -6.982E+00
    -6.989E+00   -6.996E+00   -7.002E+00   -7.008E+00   -7.014E+00   -7.019E+00   -7.025E+00   -7.030E+00   -7.035E+00   -7.039E+00
    -7.044E+00   -7.048E+00   -7.052E+00   -7.055E+00   -7.059E+00   -7.062E+00   -7.065E+00   -7.067E+00   -7.070E+00   -7.072E+00
    -7.074E+00   -7.076E+00   -7.077E+00   -7.078E+00   -7.079E+00   -7.080E+00   -7.081E+00   -7.081E+00   -7.081E+00   -7.081E+00
    -7.080E+00   -7.079E+00   -7.079E+00   -7.077E+00   -7.076E+00   -7.074E+00   -7.072E+00   -7.070E+00   -7.068E+00   -7.065E+00
    -7.063E+00   -7.059E+00   -7.056E+00   -7.053E+00   -7.049E+00   -7.045E+00   -7.041E+00   -7.036E+00   -7.031E+00   -7.026E+00
    -7.021E+00   -7.016E+00   -7.010E+00   -7.004E+00   -6.998E+00   -6.992E+00   -6.985E+00   -6.978E+00   -6.971E+00   -6.964E+00
    -6.956E+00   -6.949E+00   -6.941E+00   -6.933E+00   -6.924E+00   -6.915E+00   -6.906E+00   -6.897E+00   -6.888E+00   -6.878E+00
    -6.868E+00   -6.858E+00   -6.848E+00   -6.838E+00   -6.827E+00   -6.816E+00   -6.805E+00   -6.793E+00   -6.781E+00   -6.770E+00
    -6.757E+00   -6.745E+00   -6.732E+00   -6.720E+00   -6.707E+00   -6.693E+00   -6.680E+00   -6.666E+00   -6.652E+00   -6.638E+00
    -6.624E+00   -6.609E+00   -6.594E+00   -6.579E+00   -6.564E+00   -6.548E+00   -6.533E+00   -6.517E+00   -6.500E+00   -6.484E+00
    -6.467E+00   -6.450E+00   -6.433E+00   -6.416E+00   -6.399E+00   -6.381E+00   -6.363E+00   -6.345E+00   -6.326E+00   -6.308E+00
    -6.289E+00   -6.270E+00   -6.251E+00   -6.231E+00   -6.212E+00   -6.192E+00   -6.172E+00   -6.151E+00   -6.131E+00   -6.110E+00
    -6.089E+00   -6.068E+00   -6.046E+00   -6.025E+00   -6.003E+00   -5.981E+00   -5.959E+00   -5.936E+00   -5.914E+00   -5.891E+00
    -5.868E+00   -5.844E+00   -5.821E+00   -5.797E+00   -5.773E+00   -5.749E+00   -5.725E+00   -5.700E+00   -5.676E+00   -5.651E+00
    -5.626E+00   -5.600E+00   -5.575E+00   -5.549E+00   -5.523E+00   -5.497E+00   -5.471E+00   -5.444E+00   -5.418E+00   -5.391E+00
    -5.364E+00   -5.336E+00   -5.309E+00   -5.281E+00   -5.253E+00   -5.225E+00   -5.197E+00   -5.168E+00   -5.140E+00   -5.111E+00
    -5.082E+00   -5.053E+00   -5.023E+00   -4.994E+00   -4.964E+00   -4.934E+00   -4.904E+00   -4.874E+00   -4.843E+00   -4.812E+00
    -4.781E+00   -4.750E+00   -4.719E+00   -4.688E+00   -4.656E+00   -4.624E+00   -4.592E+00   -4.560E+00   -4.528E+00   -4.495E+00
    -4.463E+00   -4.430E+00   -4.397E+00   -4.364E+00   -4.330E+00   -4.297E+00   -4.263E+00   -4.229E+00   -4.195E+00   -4.161E+00
    -4.126E+00   -4.092E+00   -4.057E+00   -4.022E+00   -3.987E+00   -3.952E+00   -3.916E+00   -3.881E+00   -3.845E+00   -3.809E+00
    -3.773E+00   -3.737E+00   -3.701E+00   -3.664E+00   -3.627E+00   -3.590E+00   -3.553E+00   -3.516E+00   -3.479E+00   -3.441E+00
    -3.404E+00   -3.366E+00   -3.328E+00   -3.290E+00   -3.252E+00   -3.213E+00   -3.175E+00   -3.136E+00   -3.097E+00   -3.058E+00
    -3.019E+00   -2.980E+00   -2.940E+00   -2.901E+00   -2.861E+00   -2.821E+00   -2.781E+00   -2.741E+00   -2.700E+00   -2.660E+00
    -2.619E+00   -2.579E+00   -2.538E+00   -2.497E+00   -2.456E+00   -2.414E+00   -2.373E+00   -2.331E+00   -2.290E+00   -2.248E+00
    -2.206E+00   -2.164E+00   -2.122E+00   -2.079E+00   -2.037E+00   -1.994E+00   -1.951E+00   -1.909E+00   -1.866E+00   -1.822E+00
    -1.779E+00   -1.736E+00   -1.692E+00   -1.649E+00   -1.605E+00   -1.561E+00   -1.517E+00   -1.473E+00   -1.429E+00   -1.385E+00
    -1.340E+00   -1.296E+00   -1.251E+00   -1.206E+00   -1.161E+00   -1.116E+00   -1.071E+00   -1.026E+00   -9.808E-01   -9.353E-01
    -8.898E-01   -8.442E-01   -7.984E-01   -7.526E-01   -7.066E-01   -6.606E-01   -6.144E-01   -5.682E-01   -5.218E-01   -4.754E-01
    -4.288E-01   -3.822E-01   -3.355E-01   -2.886E-01   -2.417E-01   -1.947E-01   -1.476E-01   -1.004E-01   -5.313E-02   -5.753E-03
     4.171E-02    8.925E-02    1.369E-01    1.846E-01    2.324E-01    2.803E-01    3.282E-01    3.763E-01    4.244E-01    4.726E-01
     5.209E-01    5.693E-01    6.177E-01    6.662E-01    7.148E-01    7.635E-01    8.122E-01    8.610E-01    9.099E-01    9.588E-01
     1.008E+00    1.057E+00    1.106E+00    1.155E+00    1.205E+00    1.254E+00    1.303E+00    1.353E+00    1.402E+00    1.452E+00
     1.502E+00    1.552E+00    1.601E+00    1.651E+00    1.701E+00    1.751E+00    1.801E+00    1.851E+00    1.901E+00    1.952E+00
     2.002E+00    2.052E+00    2.102E+00    2.153E+00    2.203E+00    2.254E+00    2.304E+00    2.355E+00
 Asp      Conc. = 7.22E+00
