 LCModel (Version 6.3-1L) Copyright: S.W. Provencher.          Ref.: Magn. Reson. Med. 30:672-679 (1993).                
 Slice#1 Row#8 Col#2  PD_05_press_2_raw_act
 36 lines in following concentration table = NCONC+1
    Conc.  %SD /Cr+PCr  Metabolite                                         
  356.415  59%   0.248 Ala                                                 
   65.489 511% 4.6E-02 Asp                                                 
  953.122  39%   0.664 Cr                                                  
  482.969  81%   0.336 PCr                                                 
  124.636 170% 8.7E-02 GABA                                                
   91.226 231% 6.4E-02 Glc                                                 
  750.774  58%   0.523 Gln                                                 
 2.72E+03  19%   1.892 Glu                                                 
  486.362   8%   0.339 GPC                                                 
    0.000 999%   0.000 PCh                                                 
  379.452  37%   0.264 GSH                                                 
 1.47E+03  33%   1.021 Ins                                                 
  187.277 131%   0.130 Lac                                                 
 3.30E+03   7%   2.296 NAA                                                 
  306.374  84%   0.213 NAAG                                                
   96.252  48% 6.7E-02 Scyllo                                              
  348.884  91%   0.243 Tau                                                 
  434.913  47%   0.303 -CrCH2                                              
  486.362   8%   0.339 GPC+PCh                                             
 3.60E+03   6%   2.509 NAA+NAAG                                            
 1.44E+03   8%   1.000 Cr+PCr                                              
 3.47E+03  21%   2.415 Glu+Gln                                             
 2.92E+03  39%   2.032 Lip13a                                              
    0.000 999%   0.000 Lip13b                                              
    0.000 999%   0.000 Lip09                                               
 6.03E+03   9%   4.198 MM09                                                
 2.41E+03  25%   1.679 Lip20                                               
 1.02E+04   8%   7.128 MM20                                                
 1.83E+03  12%   1.272 MM12                                                
 4.76E+03  11%   3.311 MM14                                                
 3.06E+03  13%   2.130 MM17                                                
 2.92E+03  39%   2.032 Lip13a+Lip13b                                       
 9.50E+03  10%   6.616 MM14+Lip13a+Lip13b+MM12                             
 6.03E+03   9%   4.198 MM09+Lip09                                          
 1.26E+04   7%   8.807 MM20+Lip20                                          
   6 lines in following misc. output table
  FWHM = 0.054 ppm    S/N =  12                                            
  Data shift = 0.023 ppm                                                   
  Ph:   4 deg       7.2 deg/ppm                                            
  alphaB,S = 4.1E-01,   1.8E+02                                            
   14 spline knots.   Ns = 7(1)                                            
  (12) 2 infls.   ( 9) 1 extrs.                                            
  498 points on ppm-axis = NY
      4.000000     3.992357     3.984714     3.977070     3.969427     3.961784     3.954141     3.946497     3.938854     3.931211
      3.923568     3.915925     3.908281     3.900638     3.892995     3.885352     3.877708     3.870065     3.862422     3.854779
      3.847136     3.839492     3.831849     3.824206     3.816563     3.808919     3.801276     3.793633     3.785990     3.778347
      3.770703     3.763060     3.755417     3.747774     3.740130     3.732487     3.724844     3.717201     3.709558     3.701914
      3.694271     3.686628     3.678985     3.671341     3.663698     3.656055     3.648412     3.640769     3.633125     3.625482
      3.617839     3.610196     3.602552     3.594909     3.587266     3.579623     3.571980     3.564336     3.556693     3.549050
      3.541407     3.533763     3.526120     3.518477     3.510834     3.503191     3.495547     3.487904     3.480261     3.472618
      3.464974     3.457331     3.449688     3.442045     3.434402     3.426758     3.419115     3.411472     3.403829     3.396185
      3.388542     3.380899     3.373256     3.365613     3.357969     3.350326     3.342683     3.335040     3.327396     3.319753
      3.312110     3.304467     3.296824     3.289180     3.281537     3.273894     3.266251     3.258607     3.250964     3.243321
      3.235678     3.228034     3.220391     3.212748     3.205105     3.197462     3.189818     3.182175     3.174532     3.166889
      3.159245     3.151602     3.143959     3.136316     3.128673     3.121029     3.113386     3.105743     3.098100     3.090456
      3.082813     3.075170     3.067527     3.059884     3.052240     3.044597     3.036954     3.029311     3.021667     3.014024
      3.006381     2.998738     2.991095     2.983451     2.975808     2.968165     2.960522     2.952878     2.945235     2.937592
      2.929949     2.922306     2.914662     2.907019     2.899376     2.891733     2.884089     2.876446     2.868803     2.861160
      2.853517     2.845873     2.838230     2.830587     2.822944     2.815300     2.807657     2.800014     2.792371     2.784728
      2.777084     2.769441     2.761798     2.754155     2.746511     2.738868     2.731225     2.723582     2.715939     2.708295
      2.700652     2.693009     2.685366     2.677722     2.670079     2.662436     2.654793     2.647150     2.639506     2.631863
      2.624220     2.616577     2.608933     2.601290     2.593647     2.586004     2.578361     2.570717     2.563074     2.555431
      2.547788     2.540144     2.532501     2.524858     2.517215     2.509572     2.501928     2.494285     2.486642     2.478999
      2.471355     2.463712     2.456069     2.448426     2.440783     2.433139     2.425496     2.417853     2.410210     2.402566
      2.394923     2.387280     2.379637     2.371994     2.364350     2.356707     2.349064     2.341421     2.333777     2.326134
      2.318491     2.310848     2.303205     2.295561     2.287918     2.280275     2.272632     2.264988     2.257345     2.249702
      2.242059     2.234416     2.226772     2.219129     2.211486     2.203843     2.196199     2.188556     2.180913     2.173270
      2.165627     2.157983     2.150340     2.142697     2.135054     2.127410     2.119767     2.112124     2.104481     2.096838
      2.089194     2.081551     2.073908     2.066265     2.058621     2.050978     2.043335     2.035692     2.028049     2.020405
      2.012762     2.005119     1.997476     1.989833     1.982190     1.974546     1.966903     1.959260     1.951617     1.943974
      1.936331     1.928688     1.921045     1.913402     1.905759     1.898115     1.890472     1.882829     1.875186     1.867543
      1.859900     1.852257     1.844614     1.836971     1.829327     1.821684     1.814041     1.806398     1.798755     1.791112
      1.783469     1.775826     1.768183     1.760540     1.752896     1.745253     1.737610     1.729967     1.722324     1.714681
      1.707038     1.699395     1.691752     1.684108     1.676465     1.668822     1.661179     1.653536     1.645893     1.638250
      1.630607     1.622964     1.615321     1.607677     1.600034     1.592391     1.584748     1.577105     1.569462     1.561819
      1.554176     1.546533     1.538890     1.531246     1.523603     1.515960     1.508317     1.500674     1.493031     1.485388
      1.477745     1.470102     1.462458     1.454815     1.447172     1.439529     1.431886     1.424243     1.416600     1.408957
      1.401314     1.393671     1.386027     1.378384     1.370741     1.363098     1.355455     1.347812     1.340169     1.332526
      1.324883     1.317240     1.309596     1.301953     1.294310     1.286667     1.279024     1.271381     1.263738     1.256095
      1.248452     1.240808     1.233165     1.225522     1.217879     1.210236     1.202593     1.194950     1.187307     1.179664
      1.172021     1.164377     1.156734     1.149091     1.141448     1.133805     1.126162     1.118519     1.110876     1.103233
      1.095590     1.087946     1.080303     1.072660     1.065017     1.057374     1.049731     1.042088     1.034445     1.026802
      1.019158     1.011515     1.003872     0.996229     0.988586     0.980943     0.973300     0.965657     0.958014     0.950371
      0.942727     0.935084     0.927441     0.919798     0.912155     0.904512     0.896869     0.889226     0.881583     0.873940
      0.866296     0.858653     0.851010     0.843367     0.835724     0.828081     0.820438     0.812795     0.805152     0.797508
      0.789865     0.782222     0.774579     0.766936     0.759293     0.751650     0.744007     0.736364     0.728721     0.721077
      0.713434     0.705791     0.698148     0.690505     0.682862     0.675219     0.667576     0.659933     0.652290     0.644646
      0.637003     0.629360     0.621717     0.614074     0.606431     0.598788     0.591145     0.583502     0.575858     0.568215
      0.560572     0.552929     0.545286     0.537643     0.530000     0.522357     0.514714     0.507071     0.499427     0.491784
      0.484141     0.476498     0.468855     0.461212     0.453569     0.445925     0.438282     0.430639     0.422996     0.415353
      0.407710     0.400067     0.392424     0.384780     0.377137     0.369494     0.361851     0.354208     0.346565     0.338922
      0.331278     0.323635     0.315992     0.308349     0.300706     0.293063     0.285420     0.277777     0.270133     0.262490
      0.254847     0.247204     0.239561     0.231918     0.224275     0.216631     0.208988     0.201345
 NY phased data points follow
  -2.40932E+01 -1.51928E+01 -1.80517E+01 -2.21985E+01 -1.42446E+01 -7.72226E+00 -1.32360E+01 -3.12758E+00 -2.38464E-01  7.32500E+00
   3.47736E-01  2.96182E+00  7.05422E+00  5.77132E+00  3.30263E+00 -4.84030E+00 -1.49255E+01 -6.03420E+00 -1.21617E+01 -3.35829E+00
  -1.50767E+01 -1.25513E+01 -1.46188E+01 -1.60018E+01 -1.07202E+01 -1.48290E+01 -2.01914E+01 -1.05584E+01 -4.99182E+00 -5.92979E+00
  -5.99263E+00 -1.84859E+00 -1.20843E+01 -6.66094E+00 -1.25168E+01 -1.42920E+01 -9.77499E+00 -5.21607E+00 -1.41381E+01 -7.94943E+00
  -1.45255E+01 -1.06591E+01 -1.07601E+01 -3.49628E+00 -3.32068E+00 -5.05083E-01 -1.40803E+00 -3.02379E+00 -4.40619E+00 -6.28137E+00
  -7.40627E+00 -6.94282E+00 -1.35795E+01 -1.03412E+01 -1.39234E+01 -1.30097E+01 -1.54163E+01 -1.23420E+01 -7.45664E+00 -1.10225E+01
  -1.12463E+01 -1.59134E+01 -1.98219E+01 -1.89494E+01 -2.13792E+01 -1.91388E+01 -2.27780E+01 -2.08710E+01 -1.43056E+01 -1.93276E+01
  -3.03439E+01 -1.64813E+01 -1.31794E+01 -1.29184E+01 -1.25648E+01 -1.36814E+01 -1.18961E+01 -6.97470E+00 -1.66142E+01 -1.68879E+01
  -2.08055E+01 -8.42068E+00 -1.24929E+01 -1.67195E+01 -2.06140E+01 -1.34091E+01 -1.42455E+01 -1.25654E+01 -1.15070E+01 -1.76955E+01
  -1.92021E+01 -1.66487E+01 -1.39131E+01 -3.02931E+00 -1.22748E+01 -5.80866E+00 -1.05547E+00 -1.77815E+00 -8.03436E+00 -3.94967E+00
   7.53086E+00  1.77143E+01  2.71718E+01  2.55421E+01  2.35985E+01  1.81471E+01  1.33712E+01  2.22206E+00 -1.05414E+01  9.86693E-01
  -9.88140E+00 -7.22686E+00 -1.63286E+01 -8.37273E+00 -1.65514E+01 -9.32779E+00 -1.57316E+01 -1.33500E+01 -1.47689E+01 -9.94984E+00
  -1.10361E+01 -4.83623E+00 -8.48958E+00  1.16741E+01  1.21924E+01  2.41403E+01  3.87634E+01  3.65860E+01  3.46909E+01  3.14028E+01
   1.08333E+01  9.22927E+00  5.75251E+00 -4.45934E+00 -6.04564E+00 -2.90191E+00 -2.93627E+00 -1.01185E+01 -1.05876E+01 -1.85482E+00
  -5.70747E+00 -1.45104E+01 -1.53579E+01 -2.10655E+01 -1.71555E+01 -1.62679E+01 -1.98545E+01 -1.97826E+01 -1.23347E+01 -1.54872E+01
  -1.41514E+01 -1.80663E+01 -7.92520E+00 -2.29761E+01 -2.07212E+01 -1.51389E+01 -1.18104E+01 -1.97120E+01 -1.74913E+01 -1.84429E+01
  -1.76059E+01 -2.09536E+01 -1.93861E+01 -2.18333E+01 -2.68341E+01 -2.38448E+01 -2.36559E+01 -2.25576E+01 -2.80379E+01 -2.52886E+01
  -2.77293E+01 -2.65803E+01 -3.53170E+01 -4.05986E+01 -3.44535E+01 -4.22350E+01 -4.53398E+01 -3.71908E+01 -4.14233E+01 -3.93676E+01
  -3.09279E+01 -3.42505E+01 -3.30083E+01 -2.78298E+01 -3.56038E+01 -2.95945E+01 -3.19758E+01 -2.92295E+01 -3.20577E+01 -3.20690E+01
  -3.64211E+01 -2.11624E+01 -2.71943E+01 -3.59286E+01 -3.73618E+01 -3.16146E+01 -4.06510E+01 -4.35334E+01 -3.37148E+01 -3.03428E+01
  -3.08462E+01 -2.73506E+01 -2.82399E+01 -2.62047E+01 -1.95393E+01 -2.65374E+01 -2.31467E+01 -3.01612E+01 -3.09610E+01 -2.92227E+01
  -2.48922E+01 -5.16094E+00 -1.64143E+01 -8.47306E+00 -8.29410E+00 -7.97996E+00 -6.44560E+00 -1.28837E+01 -1.37692E+01 -1.79323E+01
  -2.88180E+01 -3.36494E+01 -2.78260E+01 -1.75172E+01 -1.98882E+01 -7.74700E+00 -8.12452E+00 -1.20828E+01 -8.99257E+00 -2.79419E+00
  -4.06424E+00 -3.13993E+00 -7.65704E+00 -8.63235E+00  1.29774E+00 -5.42975E-01  1.11408E+00 -1.30197E+00  6.83616E+00 -8.54205E-01
   2.01718E+00 -2.34650E+00  1.93440E+00  5.01508E+00  1.04397E+01  1.34607E+01  2.58354E+01  2.88234E+01  2.14437E+01  2.73735E+01
   2.67919E+01  3.45112E+01  4.39481E+01  4.03241E+01  5.00746E+01  5.53701E+01  7.75628E+01  1.04284E+02  1.26734E+02  1.38110E+02
   1.33883E+02  1.14757E+02  8.66876E+01  6.68357E+01  4.53362E+01  2.99327E+01  2.06821E+01  1.38005E+01  1.64863E+00 -6.85668E+00
   3.61879E+00 -4.90291E+00 -8.26104E+00 -4.50298E+00 -3.27627E+00 -5.35575E+00 -2.69418E+00 -4.53398E+00  1.05235E+00 -1.30684E+01
  -6.77770E+00 -6.04959E+00 -5.38920E+00 -1.25550E+01 -1.52386E+01 -7.48035E+00 -8.23588E+00 -7.38395E+00 -9.06639E+00 -8.52278E+00
  -1.37883E+01 -1.44339E+01 -1.81917E+01 -9.01130E+00 -1.39436E+01 -8.84920E+00 -1.77384E+01 -1.66126E+01 -9.77042E+00 -2.87262E+00
  -1.48800E+01 -1.25054E+01 -1.63831E+01 -7.97433E+00 -1.43094E+01 -8.70889E+00 -1.18917E+01 -8.56791E+00 -1.48192E+01 -1.27011E+01
  -1.98636E+01 -2.23794E+01 -3.00062E+01 -2.75262E+01 -2.62901E+01 -2.92543E+01 -3.18470E+01 -3.24191E+01 -3.20932E+01 -3.85126E+01
  -3.23819E+01 -3.60875E+01 -3.39497E+01 -3.55800E+01 -3.23723E+01 -3.74909E+01 -4.00733E+01 -3.59973E+01 -3.31102E+01 -4.04069E+01
  -2.36729E+01 -2.61914E+01 -2.36266E+01 -1.78286E+01 -1.29562E+01 -4.44688E+00  5.19550E-01  8.42889E-01  6.34118E+00  1.34645E+01
   5.87367E+00  1.68131E+01  1.81965E+01  1.98407E+01  1.36739E+01  1.69764E+01  2.00659E+01  2.07871E+01  1.65195E+01  1.66603E+01
   1.68459E+01  1.76297E+01  3.33290E+00  1.43602E+01  9.49836E+00  6.77070E+00  4.55495E+00  9.98924E+00  2.99492E+00  7.61269E-01
   5.76460E+00  2.30330E+00  2.11185E+00  1.52277E+00 -5.06913E+00  2.15268E+00  2.55535E+00 -2.99034E+00 -2.94469E-01 -8.70793E+00
   8.18280E-02 -1.16138E+00 -7.45281E+00 -7.72932E-01 -3.41442E+00 -8.57044E-01 -6.01416E+00 -1.53781E+01 -3.72284E+00 -1.48906E+01
  -1.14629E+01 -9.64814E+00 -1.75968E+01 -1.09727E+01 -1.00176E+01 -3.04987E+00 -5.17479E+00 -1.24969E+01 -5.82667E+00 -1.13855E+01
  -2.36993E+01 -8.25445E+00 -7.34131E+00 -1.27276E+01 -9.20076E+00 -5.94634E+00 -8.08577E+00 -8.75012E+00 -7.48384E+00 -1.17872E+01
  -1.21222E+01 -7.98031E+00 -6.37607E+00 -1.42564E+01 -1.02409E+01 -1.12044E+01 -3.95550E+00 -3.46422E+00 -1.76319E+01 -8.02985E+00
  -1.25405E+01 -1.05386E+01 -1.04580E+01 -1.03346E+01 -1.36408E+01 -1.39050E+01 -1.41969E+01 -1.78892E+01 -1.63418E+01 -1.05636E+01
  -1.04868E+01 -1.01720E+01 -1.58132E+01 -1.86323E+01 -1.63514E+01 -7.45670E+00 -5.18166E+00 -1.56547E+01 -2.04876E+01 -1.85051E+01
  -1.15584E+01 -7.78332E+00 -1.25042E+01 -9.18363E+00 -2.01718E+01 -1.28607E+01 -1.30069E+01 -8.68574E+00 -1.21639E+01 -1.55476E+01
  -8.80010E+00 -1.30313E+01 -1.20007E+01 -1.06282E+01 -1.24322E+01 -1.53048E+01 -7.42794E+00 -9.30624E+00 -1.46929E+01 -1.25171E+01
  -1.38678E+01 -6.83173E+00 -8.28718E-02 -4.99951E+00 -9.81073E+00 -1.04279E+01 -8.72969E+00 -2.51453E+00 -8.50500E+00 -1.08672E+01
  -5.90222E+00 -8.47993E+00 -7.31070E-01 -6.95999E+00 -9.31462E+00 -4.50205E+00  4.16671E+00 -7.39455E+00  2.39149E-01  2.81884E+00
  -3.70631E+00 -5.38341E+00 -3.11207E-01 -3.17736E+00 -1.05498E+01 -2.31078E+00  3.07376E+00  2.38260E+00 -5.19858E+00 -8.70928E+00
  -5.42265E+00 -6.46822E+00 -1.06819E+01 -7.03708E+00 -1.33430E+01 -6.77879E+00 -4.67137E+00 -2.90582E+00 -2.31325E-01  2.12806E+00
  -2.80163E+00 -2.99387E+00 -6.96714E+00 -3.60667E+00 -6.75215E+00 -5.17017E+00 -6.75933E+00 -6.12234E+00
 NY points of the fit to the data follow
  -1.54567E+01 -1.57771E+01 -1.57745E+01 -1.54317E+01 -1.45452E+01 -1.25641E+01 -9.46844E+00 -5.43065E+00 -8.47677E-01  3.47851E+00
   6.54154E+00  7.57128E+00  6.41698E+00  3.58072E+00 -5.55031E-02 -3.61746E+00 -6.53747E+00 -8.65290E+00 -1.00790E+01 -1.10055E+01
  -1.15439E+01 -1.18540E+01 -1.23093E+01 -1.29128E+01 -1.35293E+01 -1.37784E+01 -1.31802E+01 -1.14694E+01 -8.84669E+00 -5.94238E+00
  -3.53168E+00 -2.32209E+00 -2.70664E+00 -4.51206E+00 -7.18564E+00 -1.00329E+01 -1.24368E+01 -1.40853E+01 -1.48722E+01 -1.48302E+01
  -1.41029E+01 -1.27661E+01 -1.09264E+01 -8.73873E+00 -6.49314E+00 -4.66146E+00 -3.73151E+00 -4.02413E+00 -5.48704E+00 -7.67727E+00
  -1.00848E+01 -1.22556E+01 -1.38353E+01 -1.47180E+01 -1.50285E+01 -1.48651E+01 -1.42869E+01 -1.34800E+01 -1.27765E+01 -1.24443E+01
  -1.25662E+01 -1.30971E+01 -1.38455E+01 -1.45948E+01 -1.51517E+01 -1.53801E+01 -1.53154E+01 -1.50714E+01 -1.46885E+01 -1.41959E+01
  -1.36842E+01 -1.32373E+01 -1.29470E+01 -1.28967E+01 -1.31321E+01 -1.36227E+01 -1.42719E+01 -1.49466E+01 -1.54789E+01 -1.56840E+01
  -1.54760E+01 -1.49570E+01 -1.43223E+01 -1.37970E+01 -1.35819E+01 -1.38073E+01 -1.44824E+01 -1.54359E+01 -1.64124E+01 -1.71906E+01
  -1.76719E+01 -1.78701E+01 -1.78613E+01 -1.77629E+01 -1.75780E+01 -1.70734E+01 -1.54178E+01 -1.16299E+01 -5.68725E+00  2.23756E+00
   1.13046E+01  1.97600E+01  2.54524E+01  2.68615E+01  2.38298E+01  1.75325E+01  9.81395E+00  2.40409E+00 -3.63805E+00 -8.13383E+00
  -1.14699E+01 -1.39545E+01 -1.53939E+01 -1.57875E+01 -1.57990E+01 -1.56899E+01 -1.55171E+01 -1.52629E+01 -1.48648E+01 -1.40814E+01
  -1.19616E+01 -7.46645E+00 -5.93704E-01  8.35550E+00  1.83649E+01  2.75068E+01  3.35998E+01  3.51926E+01  3.21824E+01  2.57840E+01
   1.78389E+01  9.98885E+00  3.21766E+00 -2.25442E+00 -6.66945E+00 -1.01006E+01 -1.21669E+01 -1.28486E+01 -1.28730E+01 -1.26707E+01
  -1.24959E+01 -1.24998E+01 -1.27077E+01 -1.30869E+01 -1.35966E+01 -1.41707E+01 -1.47639E+01 -1.53656E+01 -1.59631E+01 -1.65380E+01
  -1.70705E+01 -1.75345E+01 -1.79168E+01 -1.82392E+01 -1.86099E+01 -1.90946E+01 -1.97375E+01 -2.05220E+01 -2.13024E+01 -2.19547E+01
  -2.23559E+01 -2.24719E+01 -2.24421E+01 -2.25146E+01 -2.28869E+01 -2.36028E+01 -2.45607E+01 -2.55780E+01 -2.65227E+01 -2.74358E+01
  -2.83964E+01 -2.93606E+01 -3.02767E+01 -3.10286E+01 -3.15266E+01 -3.17604E+01 -3.17829E+01 -3.17170E+01 -3.16985E+01 -3.17930E+01
  -3.20021E+01 -3.21944E+01 -3.22337E+01 -3.20353E+01 -3.15235E+01 -3.06342E+01 -2.93284E+01 -2.76897E+01 -2.59913E+01 -2.45833E+01
  -2.37320E+01 -2.35439E+01 -2.38746E+01 -2.44740E+01 -2.51054E+01 -2.55966E+01 -2.57797E+01 -2.54158E+01 -2.44384E+01 -2.29596E+01
  -2.12673E+01 -1.97455E+01 -1.88836E+01 -1.91572E+01 -2.06152E+01 -2.30530E+01 -2.60636E+01 -2.89385E+01 -3.08086E+01 -3.08259E+01
  -2.88137E+01 -2.50997E+01 -2.03662E+01 -1.56731E+01 -1.23046E+01 -1.13701E+01 -1.32355E+01 -1.72809E+01 -2.23524E+01 -2.71251E+01
  -3.01849E+01 -3.07195E+01 -2.87367E+01 -2.48406E+01 -2.00393E+01 -1.53174E+01 -1.15586E+01 -9.13565E+00 -7.87686E+00 -7.32112E+00
  -6.96870E+00 -6.54078E+00 -5.81917E+00 -4.63019E+00 -3.03498E+00 -1.37109E+00  1.14540E-02  9.73589E-01  1.57402E+00  2.02112E+00
   2.61116E+00  3.73932E+00  5.64873E+00  8.23479E+00  1.11314E+01  1.39417E+01  1.64399E+01  1.85305E+01  2.03758E+01  2.24333E+01
   2.49808E+01  2.80201E+01  3.19116E+01  3.89960E+01  5.06944E+01  6.63763E+01  8.52730E+01  1.05047E+02  1.21344E+02  1.29451E+02
   1.26709E+02  1.13751E+02  9.40133E+01  7.20238E+01  5.16956E+01  3.51615E+01  2.23420E+01  1.20702E+01  3.92331E+00 -1.23649E+00
  -3.96164E+00 -5.80373E+00 -7.20845E+00 -8.36108E+00 -9.43491E+00 -1.05198E+01 -1.16044E+01 -1.26506E+01 -1.35952E+01 -1.43712E+01
  -1.49345E+01 -1.52732E+01 -1.53832E+01 -1.52777E+01 -1.49956E+01 -1.45781E+01 -1.40597E+01 -1.34688E+01 -1.28311E+01 -1.21789E+01
  -1.15497E+01 -1.09784E+01 -1.05034E+01 -1.01608E+01 -9.97857E+00 -9.97398E+00 -1.01556E+01 -1.05239E+01 -1.10708E+01 -1.17837E+01
  -1.26466E+01 -1.36386E+01 -1.47365E+01 -1.59159E+01 -1.71491E+01 -1.84068E+01 -1.96597E+01 -2.08820E+01 -2.20513E+01 -2.31482E+01
  -2.41571E+01 -2.50671E+01 -2.58696E+01 -2.65583E+01 -2.71283E+01 -2.75742E+01 -2.78884E+01 -2.80577E+01 -2.80549E+01 -2.78155E+01
  -2.72725E+01 -2.65339E+01 -2.57270E+01 -2.50044E+01 -2.45592E+01 -2.45311E+01 -2.49124E+01 -2.55016E+01 -2.58436E+01 -2.55194E+01
  -2.42670E+01 -2.19757E+01 -1.87415E+01 -1.48630E+01 -1.07258E+01 -6.66030E+00 -2.90129E+00  3.87630E-01  3.25386E+00  5.85258E+00
   8.33570E+00  1.07228E+01  1.28837E+01  1.47072E+01  1.61369E+01  1.70392E+01  1.72975E+01  1.69286E+01  1.61268E+01  1.51516E+01
   1.42066E+01  1.34302E+01  1.28558E+01  1.23980E+01  1.19007E+01  1.12274E+01  1.03143E+01  9.14002E+00  7.73655E+00  6.21656E+00
   4.68720E+00  3.20870E+00  1.79195E+00  4.37051E-01 -8.19004E-01 -1.96235E+00 -3.01817E+00 -4.00009E+00 -4.91412E+00 -5.76266E+00
  -6.54547E+00 -7.26055E+00 -7.90442E+00 -8.47282E+00 -8.96092E+00 -9.36410E+00 -9.67814E+00 -9.90003E+00 -1.00280E+01 -1.00619E+01
  -1.00033E+01 -9.85571E+00 -9.62423E+00 -9.31594E+00 -8.93931E+00 -8.50434E+00 -8.02195E+00 -7.50408E+00 -6.96311E+00 -6.41193E+00
  -5.86329E+00 -5.32976E+00 -4.82323E+00 -4.35494E+00 -3.93498E+00 -3.57235E+00 -3.27450E+00 -3.04740E+00 -2.89524E+00 -2.82065E+00
  -2.82443E+00 -2.90589E+00 -3.06255E+00 -3.29065E+00 -3.58499E+00 -3.93948E+00 -4.34706E+00 -4.80016E+00 -5.29069E+00 -5.81059E+00
  -6.35173E+00 -6.90636E+00 -7.46700E+00 -8.02682E+00 -8.57945E+00 -9.11937E+00 -9.64166E+00 -1.01423E+01 -1.06180E+01 -1.10661E+01
  -1.14846E+01 -1.18721E+01 -1.22278E+01 -1.25514E+01 -1.28430E+01 -1.31030E+01 -1.33319E+01 -1.35309E+01 -1.37008E+01 -1.38430E+01
  -1.39586E+01 -1.40491E+01 -1.41157E+01 -1.41598E+01 -1.41826E+01 -1.41856E+01 -1.41699E+01 -1.41367E+01 -1.40871E+01 -1.40223E+01
  -1.39432E+01 -1.38509E+01 -1.37461E+01 -1.36298E+01 -1.35028E+01 -1.33658E+01 -1.32195E+01 -1.30647E+01 -1.29018E+01 -1.27315E+01
  -1.25543E+01 -1.23708E+01 -1.21814E+01 -1.19866E+01 -1.17866E+01 -1.15819E+01 -1.13726E+01 -1.11592E+01 -1.09418E+01 -1.07207E+01
  -1.04961E+01 -1.02682E+01 -1.00371E+01 -9.80327E+00 -9.56660E+00 -9.32737E+00 -9.08565E+00 -8.84167E+00 -8.59551E+00 -8.34734E+00
  -8.09719E+00 -7.84522E+00 -7.59148E+00 -7.33614E+00 -7.07924E+00 -6.82091E+00 -6.56114E+00 -6.30009E+00 -6.03776E+00 -5.77433E+00
  -5.50976E+00 -5.24417E+00 -4.97754E+00 -4.70999E+00 -4.44153E+00 -4.17228E+00 -3.90221E+00 -3.63140E+00 -3.35982E+00 -3.08761E+00
  -2.81473E+00 -2.54130E+00 -2.26725E+00 -1.99267E+00 -1.71752E+00 -1.44192E+00 -1.16582E+00 -8.89312E-01
 NY background values follow
    -1.928E+01   -1.927E+01   -1.927E+01   -1.926E+01   -1.926E+01   -1.925E+01   -1.924E+01   -1.924E+01   -1.923E+01   -1.923E+01
    -1.922E+01   -1.921E+01   -1.921E+01   -1.920E+01   -1.920E+01   -1.919E+01   -1.919E+01   -1.918E+01   -1.918E+01   -1.917E+01
    -1.917E+01   -1.917E+01   -1.916E+01   -1.916E+01   -1.915E+01   -1.915E+01   -1.915E+01   -1.915E+01   -1.914E+01   -1.914E+01
    -1.914E+01   -1.914E+01   -1.914E+01   -1.914E+01   -1.914E+01   -1.914E+01   -1.914E+01   -1.914E+01   -1.915E+01   -1.915E+01
    -1.915E+01   -1.915E+01   -1.916E+01   -1.916E+01   -1.917E+01   -1.917E+01   -1.918E+01   -1.919E+01   -1.919E+01   -1.920E+01
    -1.921E+01   -1.922E+01   -1.923E+01   -1.924E+01   -1.925E+01   -1.926E+01   -1.928E+01   -1.929E+01   -1.930E+01   -1.932E+01
    -1.933E+01   -1.935E+01   -1.937E+01   -1.939E+01   -1.941E+01   -1.943E+01   -1.945E+01   -1.947E+01   -1.949E+01   -1.952E+01
    -1.954E+01   -1.957E+01   -1.959E+01   -1.962E+01   -1.965E+01   -1.968E+01   -1.971E+01   -1.974E+01   -1.978E+01   -1.981E+01
    -1.985E+01   -1.988E+01   -1.992E+01   -1.996E+01   -2.000E+01   -2.004E+01   -2.009E+01   -2.013E+01   -2.018E+01   -2.022E+01
    -2.027E+01   -2.032E+01   -2.037E+01   -2.042E+01   -2.048E+01   -2.053E+01   -2.059E+01   -2.064E+01   -2.070E+01   -2.076E+01
    -2.082E+01   -2.088E+01   -2.095E+01   -2.101E+01   -2.108E+01   -2.115E+01   -2.121E+01   -2.128E+01   -2.135E+01   -2.143E+01
    -2.150E+01   -2.157E+01   -2.165E+01   -2.173E+01   -2.180E+01   -2.188E+01   -2.196E+01   -2.204E+01   -2.212E+01   -2.221E+01
    -2.229E+01   -2.238E+01   -2.246E+01   -2.255E+01   -2.264E+01   -2.273E+01   -2.282E+01   -2.291E+01   -2.300E+01   -2.310E+01
    -2.319E+01   -2.329E+01   -2.338E+01   -2.348E+01   -2.358E+01   -2.368E+01   -2.378E+01   -2.388E+01   -2.398E+01   -2.408E+01
    -2.419E+01   -2.429E+01   -2.440E+01   -2.450E+01   -2.461E+01   -2.471E+01   -2.482E+01   -2.493E+01   -2.503E+01   -2.514E+01
    -2.525E+01   -2.535E+01   -2.546E+01   -2.557E+01   -2.568E+01   -2.578E+01   -2.589E+01   -2.600E+01   -2.610E+01   -2.621E+01
    -2.632E+01   -2.642E+01   -2.652E+01   -2.663E+01   -2.673E+01   -2.683E+01   -2.694E+01   -2.704E+01   -2.714E+01   -2.724E+01
    -2.733E+01   -2.743E+01   -2.753E+01   -2.762E+01   -2.771E+01   -2.781E+01   -2.790E+01   -2.799E+01   -2.807E+01   -2.816E+01
    -2.824E+01   -2.833E+01   -2.841E+01   -2.849E+01   -2.857E+01   -2.864E+01   -2.872E+01   -2.879E+01   -2.886E+01   -2.893E+01
    -2.900E+01   -2.907E+01   -2.914E+01   -2.920E+01   -2.926E+01   -2.933E+01   -2.939E+01   -2.945E+01   -2.951E+01   -2.957E+01
    -2.962E+01   -2.968E+01   -2.974E+01   -2.979E+01   -2.984E+01   -2.990E+01   -2.995E+01   -3.000E+01   -3.005E+01   -3.010E+01
    -3.015E+01   -3.020E+01   -3.025E+01   -3.030E+01   -3.034E+01   -3.039E+01   -3.044E+01   -3.048E+01   -3.053E+01   -3.058E+01
    -3.062E+01   -3.067E+01   -3.071E+01   -3.076E+01   -3.080E+01   -3.085E+01   -3.089E+01   -3.094E+01   -3.098E+01   -3.103E+01
    -3.107E+01   -3.112E+01   -3.116E+01   -3.121E+01   -3.125E+01   -3.130E+01   -3.135E+01   -3.139E+01   -3.144E+01   -3.149E+01
    -3.153E+01   -3.158E+01   -3.163E+01   -3.168E+01   -3.172E+01   -3.177E+01   -3.182E+01   -3.187E+01   -3.192E+01   -3.197E+01
    -3.202E+01   -3.207E+01   -3.212E+01   -3.218E+01   -3.223E+01   -3.228E+01   -3.234E+01   -3.239E+01   -3.244E+01   -3.250E+01
    -3.256E+01   -3.261E+01   -3.267E+01   -3.273E+01   -3.279E+01   -3.285E+01   -3.291E+01   -3.297E+01   -3.303E+01   -3.309E+01
    -3.315E+01   -3.322E+01   -3.328E+01   -3.335E+01   -3.341E+01   -3.348E+01   -3.355E+01   -3.361E+01   -3.368E+01   -3.375E+01
    -3.382E+01   -3.389E+01   -3.396E+01   -3.403E+01   -3.410E+01   -3.417E+01   -3.424E+01   -3.431E+01   -3.438E+01   -3.445E+01
    -3.452E+01   -3.458E+01   -3.465E+01   -3.472E+01   -3.479E+01   -3.486E+01   -3.492E+01   -3.499E+01   -3.505E+01   -3.512E+01
    -3.518E+01   -3.524E+01   -3.530E+01   -3.536E+01   -3.542E+01   -3.548E+01   -3.554E+01   -3.559E+01   -3.565E+01   -3.570E+01
    -3.575E+01   -3.580E+01   -3.585E+01   -3.590E+01   -3.594E+01   -3.599E+01   -3.603E+01   -3.607E+01   -3.610E+01   -3.614E+01
    -3.617E+01   -3.621E+01   -3.623E+01   -3.626E+01   -3.629E+01   -3.631E+01   -3.633E+01   -3.635E+01   -3.637E+01   -3.638E+01
    -3.640E+01   -3.641E+01   -3.642E+01   -3.642E+01   -3.643E+01   -3.643E+01   -3.643E+01   -3.642E+01   -3.642E+01   -3.641E+01
    -3.640E+01   -3.638E+01   -3.637E+01   -3.635E+01   -3.633E+01   -3.630E+01   -3.628E+01   -3.625E+01   -3.621E+01   -3.618E+01
    -3.614E+01   -3.610E+01   -3.606E+01   -3.601E+01   -3.596E+01   -3.591E+01   -3.586E+01   -3.580E+01   -3.574E+01   -3.568E+01
    -3.561E+01   -3.554E+01   -3.547E+01   -3.539E+01   -3.531E+01   -3.523E+01   -3.514E+01   -3.506E+01   -3.496E+01   -3.487E+01
    -3.477E+01   -3.467E+01   -3.457E+01   -3.446E+01   -3.435E+01   -3.423E+01   -3.412E+01   -3.399E+01   -3.387E+01   -3.374E+01
    -3.361E+01   -3.348E+01   -3.334E+01   -3.320E+01   -3.306E+01   -3.291E+01   -3.276E+01   -3.260E+01   -3.244E+01   -3.228E+01
    -3.212E+01   -3.195E+01   -3.178E+01   -3.160E+01   -3.142E+01   -3.124E+01   -3.105E+01   -3.087E+01   -3.067E+01   -3.048E+01
    -3.027E+01   -3.007E+01   -2.986E+01   -2.965E+01   -2.944E+01   -2.922E+01   -2.900E+01   -2.877E+01   -2.854E+01   -2.831E+01
    -2.807E+01   -2.783E+01   -2.758E+01   -2.734E+01   -2.709E+01   -2.683E+01   -2.658E+01   -2.632E+01   -2.606E+01   -2.579E+01
    -2.552E+01   -2.525E+01   -2.498E+01   -2.471E+01   -2.443E+01   -2.415E+01   -2.387E+01   -2.358E+01   -2.330E+01   -2.301E+01
    -2.272E+01   -2.243E+01   -2.214E+01   -2.184E+01   -2.155E+01   -2.125E+01   -2.095E+01   -2.065E+01   -2.035E+01   -2.005E+01
    -1.974E+01   -1.944E+01   -1.913E+01   -1.883E+01   -1.852E+01   -1.822E+01   -1.791E+01   -1.760E+01   -1.729E+01   -1.699E+01
    -1.668E+01   -1.637E+01   -1.606E+01   -1.575E+01   -1.545E+01   -1.514E+01   -1.483E+01   -1.452E+01   -1.422E+01   -1.391E+01
    -1.360E+01   -1.330E+01   -1.299E+01   -1.268E+01   -1.238E+01   -1.207E+01   -1.176E+01   -1.146E+01   -1.115E+01   -1.085E+01
    -1.054E+01   -1.024E+01   -9.930E+00   -9.625E+00   -9.321E+00   -9.016E+00   -8.712E+00   -8.407E+00   -8.103E+00   -7.800E+00
    -7.496E+00   -7.193E+00   -6.889E+00   -6.586E+00   -6.283E+00   -5.981E+00   -5.678E+00   -5.376E+00   -5.074E+00   -4.772E+00
    -4.471E+00   -4.169E+00   -3.868E+00   -3.567E+00   -3.266E+00   -2.966E+00   -2.666E+00   -2.366E+00
 Ala      Conc. = 3.56E+02
