 LCModel (Version 6.3-1L) Copyright: S.W. Provencher.          Ref.: Magn. Reson. Med. 30:672-679 (1993).                
 Slice#3 Row#6 Col#12  PD_05_press_2_raw_act
 36 lines in following concentration table = NCONC+1
    Conc.  %SD /Cr+PCr  Metabolite                                         
   36.056 258%   1.467 Ala                                                 
   43.740 112%   1.780 Asp                                                 
    0.000 999%   0.000 Cr                                                  
   24.574 168%   1.000 PCr                                                 
   25.124 117%   1.022 GABA                                                
   26.041 113%   1.060 Glc                                                 
   35.911 518%   1.461 Gln                                                 
  606.268  36%  24.672 Glu                                                 
    0.000 999%   0.000 GPC                                                 
   35.504  45%   1.445 PCh                                                 
   28.122 218%   1.144 GSH                                                 
  173.046 109%   7.042 Ins                                                 
    0.000 999%   0.000 Lac                                                 
  797.859   8%  32.468 NAA                                                 
    0.000 999%   0.000 NAAG                                                
   14.366  64%   0.585 Scyllo                                              
   54.508  88%   2.218 Tau                                                 
   12.626 177%   0.514 -CrCH2                                              
   35.504  45%   1.445 GPC+PCh                                             
  797.859   8%  32.468 NAA+NAAG                                            
   24.574 168%   1.000 Cr+PCr                                              
  642.179  45%  26.133 Glu+Gln                                             
  891.580  36%  36.282 Lip13a                                              
    0.000 999%   0.000 Lip13b                                              
  137.972 102%   5.615 Lip09                                               
  703.378  24%  28.623 MM09                                                
  182.063  52%   7.409 Lip20                                               
 1.25E+03  21%  50.871 MM20                                                
  235.147  37%   9.569 MM12                                                
  918.258  24%  37.368 MM14                                                
  187.621  77%   7.635 MM17                                                
  891.580  36%  36.282 Lip13a+Lip13b                                       
 2.04E+03  13%  83.219 MM14+Lip13a+Lip13b+MM12                             
  841.349  15%  34.238 MM09+Lip09                                          
 1.43E+03  17%  58.280 MM20+Lip20                                          
   6 lines in following misc. output table
  FWHM = 0.054 ppm    S/N =   5                                            
  Data shift = 0.023 ppm                                                   
  Ph: -73 deg     -25.3 deg/ppm                                            
  alphaB,S = 8.5E+01,   5.1E+01                                            
   14 spline knots.   Ns = 7(1)                                            
   2 inflections.     1 extrema                                            
  498 points on ppm-axis = NY
      4.000000     3.992357     3.984714     3.977070     3.969427     3.961784     3.954141     3.946497     3.938854     3.931211
      3.923568     3.915925     3.908281     3.900638     3.892995     3.885352     3.877708     3.870065     3.862422     3.854779
      3.847136     3.839492     3.831849     3.824206     3.816563     3.808919     3.801276     3.793633     3.785990     3.778347
      3.770703     3.763060     3.755417     3.747774     3.740130     3.732487     3.724844     3.717201     3.709558     3.701914
      3.694271     3.686628     3.678985     3.671341     3.663698     3.656055     3.648412     3.640769     3.633125     3.625482
      3.617839     3.610196     3.602552     3.594909     3.587266     3.579623     3.571980     3.564336     3.556693     3.549050
      3.541407     3.533763     3.526120     3.518477     3.510834     3.503191     3.495547     3.487904     3.480261     3.472618
      3.464974     3.457331     3.449688     3.442045     3.434402     3.426758     3.419115     3.411472     3.403829     3.396185
      3.388542     3.380899     3.373256     3.365613     3.357969     3.350326     3.342683     3.335040     3.327396     3.319753
      3.312110     3.304467     3.296824     3.289180     3.281537     3.273894     3.266251     3.258607     3.250964     3.243321
      3.235678     3.228034     3.220391     3.212748     3.205105     3.197462     3.189818     3.182175     3.174532     3.166889
      3.159245     3.151602     3.143959     3.136316     3.128673     3.121029     3.113386     3.105743     3.098100     3.090456
      3.082813     3.075170     3.067527     3.059884     3.052240     3.044597     3.036954     3.029311     3.021667     3.014024
      3.006381     2.998738     2.991095     2.983451     2.975808     2.968165     2.960522     2.952878     2.945235     2.937592
      2.929949     2.922306     2.914662     2.907019     2.899376     2.891733     2.884089     2.876446     2.868803     2.861160
      2.853517     2.845873     2.838230     2.830587     2.822944     2.815300     2.807657     2.800014     2.792371     2.784728
      2.777084     2.769441     2.761798     2.754155     2.746511     2.738868     2.731225     2.723582     2.715939     2.708295
      2.700652     2.693009     2.685366     2.677722     2.670079     2.662436     2.654793     2.647150     2.639506     2.631863
      2.624220     2.616577     2.608933     2.601290     2.593647     2.586004     2.578361     2.570717     2.563074     2.555431
      2.547788     2.540144     2.532501     2.524858     2.517215     2.509572     2.501928     2.494285     2.486642     2.478999
      2.471355     2.463712     2.456069     2.448426     2.440783     2.433139     2.425496     2.417853     2.410210     2.402566
      2.394923     2.387280     2.379637     2.371994     2.364350     2.356707     2.349064     2.341421     2.333777     2.326134
      2.318491     2.310848     2.303205     2.295561     2.287918     2.280275     2.272632     2.264988     2.257345     2.249702
      2.242059     2.234416     2.226772     2.219129     2.211486     2.203843     2.196199     2.188556     2.180913     2.173270
      2.165627     2.157983     2.150340     2.142697     2.135054     2.127410     2.119767     2.112124     2.104481     2.096838
      2.089194     2.081551     2.073908     2.066265     2.058621     2.050978     2.043335     2.035692     2.028049     2.020405
      2.012762     2.005119     1.997476     1.989833     1.982190     1.974546     1.966903     1.959260     1.951617     1.943974
      1.936331     1.928688     1.921045     1.913402     1.905759     1.898115     1.890472     1.882829     1.875186     1.867543
      1.859900     1.852257     1.844614     1.836971     1.829327     1.821684     1.814041     1.806398     1.798755     1.791112
      1.783469     1.775826     1.768183     1.760540     1.752896     1.745253     1.737610     1.729967     1.722324     1.714681
      1.707038     1.699395     1.691752     1.684108     1.676465     1.668822     1.661179     1.653536     1.645893     1.638250
      1.630607     1.622964     1.615321     1.607677     1.600034     1.592391     1.584748     1.577105     1.569462     1.561819
      1.554176     1.546533     1.538890     1.531246     1.523603     1.515960     1.508317     1.500674     1.493031     1.485388
      1.477745     1.470102     1.462458     1.454815     1.447172     1.439529     1.431886     1.424243     1.416600     1.408957
      1.401314     1.393671     1.386027     1.378384     1.370741     1.363098     1.355455     1.347812     1.340169     1.332526
      1.324883     1.317240     1.309596     1.301953     1.294310     1.286667     1.279024     1.271381     1.263738     1.256095
      1.248452     1.240808     1.233165     1.225522     1.217879     1.210236     1.202593     1.194950     1.187307     1.179664
      1.172021     1.164377     1.156734     1.149091     1.141448     1.133805     1.126162     1.118519     1.110876     1.103233
      1.095590     1.087946     1.080303     1.072660     1.065017     1.057374     1.049731     1.042088     1.034445     1.026802
      1.019158     1.011515     1.003872     0.996229     0.988586     0.980943     0.973300     0.965657     0.958014     0.950371
      0.942727     0.935084     0.927441     0.919798     0.912155     0.904512     0.896869     0.889226     0.881583     0.873940
      0.866296     0.858653     0.851010     0.843367     0.835724     0.828081     0.820438     0.812795     0.805152     0.797508
      0.789865     0.782222     0.774579     0.766936     0.759293     0.751650     0.744007     0.736364     0.728721     0.721077
      0.713434     0.705791     0.698148     0.690505     0.682862     0.675219     0.667576     0.659933     0.652290     0.644646
      0.637003     0.629360     0.621717     0.614074     0.606431     0.598788     0.591145     0.583502     0.575858     0.568215
      0.560572     0.552929     0.545286     0.537643     0.530000     0.522357     0.514714     0.507071     0.499427     0.491784
      0.484141     0.476498     0.468855     0.461212     0.453569     0.445925     0.438282     0.430639     0.422996     0.415353
      0.407710     0.400067     0.392424     0.384780     0.377137     0.369494     0.361851     0.354208     0.346565     0.338922
      0.331278     0.323635     0.315992     0.308349     0.300706     0.293063     0.285420     0.277777     0.270133     0.262490
      0.254847     0.247204     0.239561     0.231918     0.224275     0.216631     0.208988     0.201345
 NY phased data points follow
   7.72194E+00  4.52379E+00 -1.84596E+00 -7.68391E-01  1.11243E+00  6.30108E+00  8.52500E+00 -2.50397E+00  4.13009E+00  1.62338E+00
   1.17327E+00  1.24577E+00  1.12677E+00  3.61419E+00 -5.99967E+00  3.14228E+00  4.20450E+00  6.45346E+00  6.42450E+00 -3.81198E+00
   8.12100E+00  2.93909E+00  4.52166E+00  7.28230E+00  7.25307E+00  6.21070E+00 -7.14075E-01 -1.76175E-01  3.42121E+00  4.57070E+00
   5.93422E+00  8.47207E-01  4.55084E+00  1.15817E+00  4.25482E+00  2.20748E+00  8.88097E+00  2.19950E+00  2.39289E+00  3.79318E+00
  -8.25439E-03 -4.09233E+00  5.90459E+00 -4.88834E-01  7.04380E+00  1.57071E+00  7.42738E+00  6.80082E+00  1.70409E+00  1.39712E+00
   2.08150E+00  6.99859E+00  2.48414E+00 -1.00273E+00  4.08760E-01  2.00803E+00  5.16763E+00  1.17790E+00  9.52017E+00  6.10114E+00
   3.68111E+00  5.42222E+00  7.91501E+00  4.53674E+00  3.86113E+00  4.32773E+00  6.09369E+00  3.11770E+00  7.21000E+00  3.73872E+00
   1.90215E-01  1.89627E+00 -1.19992E+00  4.22335E+00  8.73222E+00  5.53676E+00  4.53820E+00  2.26995E-01 -2.75706E+00  1.75960E+00
   4.83728E+00  3.48252E-01  9.85778E-01  3.49612E+00  1.21019E+01  6.54556E+00  6.56477E+00 -4.62114E-01  4.38917E+00  3.54644E+00
   5.37734E+00  2.81088E+00  1.83442E+00  4.16891E+00  3.32764E+00 -3.94175E+00 -5.55190E-01  4.37625E+00  3.05587E+00 -5.70146E-01
   3.72835E+00  5.11856E+00  2.43664E+00  8.27774E+00  8.41101E+00  7.38363E+00  5.43717E+00  5.41021E+00  2.56014E+00 -1.41613E+00
   4.48506E-01  1.48295E+00  1.06952E+01  6.57001E+00  1.21019E+00  1.96912E+00  7.38479E+00  3.95085E+00  5.99690E+00 -1.12118E-01
   4.54340E-01  3.14389E+00  5.59500E-01  3.18303E+00 -8.81592E-01  4.81657E+00  4.60864E+00  7.47384E+00  9.39201E+00  2.77146E+00
   3.03454E+00  2.96109E+00  6.85946E+00  8.35214E+00  7.87690E+00  3.42635E-01 -1.41616E+00  5.96579E+00  6.49735E+00  1.15904E+00
   3.23163E+00  4.82569E+00  4.44209E+00 -9.04476E-01  5.72155E+00  1.72005E+00  8.74750E+00  1.03715E+01  1.15922E+00  3.83474E+00
   1.00124E+00  4.15305E-01  7.26031E+00 -1.19172E-01  8.46156E+00  4.67926E+00  8.93545E-01  8.26137E-01  6.82458E+00  1.83824E+00
   4.54969E+00  4.58974E+00  6.49387E-01  3.80626E-01  1.11027E+00  7.64823E+00  2.39912E+00  1.89924E-01  6.22960E+00  1.26212E-01
  -2.78284E-02  3.26754E-01  2.90817E-01  7.31476E+00  5.77312E-01  1.24399E+00  3.33011E-01  1.84105E+00  6.21532E-01  2.55356E+00
  -5.75515E-01  3.18037E+00  1.29064E+00 -2.34510E+00  4.63935E+00  1.38105E+00  3.95871E+00  5.60933E+00 -8.92217E-01  3.46982E+00
  -2.46745E+00  5.70200E+00  2.63979E+00  1.37650E+00  8.10826E-01  4.49309E+00  6.86096E+00 -2.36885E+00  3.65269E+00  1.91587E+00
   5.05320E+00 -5.68847E-01  7.06632E+00  4.34630E+00  2.11288E+00  5.58608E+00  8.86620E+00  9.71585E+00  5.08704E+00  3.13643E+00
  -6.66521E-01  6.20168E-01 -1.00046E+00  9.51904E+00  2.20082E-01  6.74640E+00  5.28142E+00  3.09431E+00  4.94299E+00  2.07318E+00
   2.94134E-02  2.51925E+00 -2.39301E+00  8.88798E-01  2.61606E+00  2.19371E+00  2.18212E+00  4.75274E+00  6.26234E+00  1.04065E+01
   6.85337E+00  6.56577E+00  6.46367E+00  5.34181E+00  5.33120E+00  6.50394E+00  7.90731E+00  3.24126E+00  4.09027E+00  1.14416E+01
   6.72738E+00  2.23563E+00  6.27415E+00 -2.13447E+00  3.66289E+00  5.19160E+00  4.78543E+00  7.07113E+00  1.33529E+01  4.71398E+00
   1.01480E+01  3.69582E+00  8.50118E+00  1.13921E+01  7.04830E+00  1.16393E+01  1.66758E+01  1.82407E+01  2.31570E+01  3.04267E+01
   3.63446E+01  3.47893E+01  3.42346E+01  1.88192E+01  1.87367E+01  1.58623E+01  9.70582E+00  1.22848E+01  8.93016E+00  8.03009E+00
   8.76875E+00  9.39362E+00  4.97794E+00  3.84291E+00  5.66529E+00 -2.28015E-01  1.44689E+00  3.73209E+00  9.85507E-01  6.95427E+00
   1.12911E+00 -1.31822E-02 -1.52932E+00  4.72875E+00  4.07360E+00  4.46993E+00 -1.19876E-01 -1.03585E+00  1.38247E+00  2.76444E+00
   4.42435E+00  4.74641E+00  1.09539E+01 -1.26409E+00  4.00570E+00  5.46183E+00  1.47611E+00  8.47021E-02  2.52512E+00  4.77288E+00
   6.39084E+00  8.72988E-01 -2.12639E+00  4.20919E+00  2.07973E+00 -3.51022E-01 -4.07872E+00  1.97514E+00  5.74393E+00  2.80071E+00
   1.54869E+00  3.43538E+00  4.93535E+00  8.99990E+00  9.03327E+00  4.98722E+00  2.21264E+00  3.71304E+00 -1.61460E+00  3.19821E+00
   6.44261E+00  4.48862E+00  1.18129E+01  4.70319E+00  6.27628E+00  8.24406E+00  6.55100E+00  5.36882E+00  1.03191E+01  6.05934E+00
   6.08982E+00  6.57919E+00  8.02292E+00  7.96200E+00  8.42950E+00  1.22896E+01  8.03388E+00  8.69377E+00  7.09981E+00  7.05322E+00
   1.06684E+01  1.72489E+00  5.40091E+00  4.34870E+00  2.95212E+00  1.12448E+01  5.60892E+00  1.03073E+01 -2.87495E+00  7.32124E+00
   4.87100E+00  4.05412E+00  3.53450E+00  8.74807E+00  5.91460E+00  9.96848E+00  8.52635E+00  3.06724E+00  1.13978E+00  7.45621E+00
   1.48061E+00  4.53503E+00  3.52104E+00  5.05062E+00  5.34374E+00  6.23578E+00  4.01800E+00  7.85091E+00  7.48590E+00  1.04181E+01
   4.09392E+00  9.15636E+00  9.01277E+00 -1.16539E+00  9.79055E+00  3.50323E+00  7.06439E+00  3.21905E+00  4.82318E+00  5.82347E+00
   2.66880E+00  4.09995E+00  5.05366E+00 -3.91497E+00  5.91948E+00  5.18880E+00  1.04058E+00  4.24481E+00  2.19994E+00  1.50648E+00
  -6.05826E-01  2.74064E+00  6.76185E+00 -5.09779E-01  3.54534E+00 -1.27728E+00  5.85569E+00  1.34483E+00  7.70616E+00  3.71069E-01
   7.71856E+00  7.51891E+00  5.73433E+00  5.44463E+00  7.22200E+00  3.21760E+00  8.67561E+00  7.71600E+00  7.19065E+00  3.32566E+00
   2.08894E+00  4.87716E+00  1.49400E-01  4.54709E+00  3.13394E+00  3.13039E+00  5.59986E+00  7.04708E+00  4.93051E+00  2.15841E+00
   2.18564E+00  3.15869E+00  4.17404E+00 -1.89389E+00  3.25821E+00  4.10281E+00  1.88180E+00  5.68228E+00  7.85515E-01  1.13971E+00
  -1.72483E+00 -3.35667E+00  5.83871E+00 -1.31793E+00 -1.92843E+00 -4.13551E+00 -3.19983E+00  9.91252E+00  3.69289E+00 -9.87789E-01
  -9.62015E-01 -1.36129E+00 -3.66984E+00 -3.76205E+00 -1.01694E+00  1.33370E+00  3.06813E+00 -4.50519E+00  3.14681E+00  1.06604E+00
   5.02847E+00  6.66699E-01 -7.11726E-01  1.30543E+00  5.92759E-01 -1.64083E+00 -2.54481E+00 -4.27605E+00 -2.18927E+00  4.17984E+00
  -1.79530E+00  1.39193E+00 -6.22872E+00  4.39796E-01  2.85307E-01 -1.56658E+00 -2.76628E-01 -6.26503E+00 -8.65139E+00  6.45217E+00
   1.46804E+00 -1.83915E+00  1.41280E+00 -1.88256E+00  2.65175E+00  7.57253E-01 -2.96401E+00  2.18480E-01 -5.04547E+00 -8.08388E-02
   3.50856E-01  3.25799E+00 -3.38135E+00 -3.74554E+00  1.72889E+00 -1.64713E+00 -3.55713E+00  3.12340E+00 -4.42651E+00 -3.69761E+00
   2.98637E+00 -2.66730E+00 -3.96882E+00  5.68622E+00  1.13430E+00  4.15551E+00  2.28278E+00 -5.41224E+00
 NY points of the fit to the data follow
   3.57092E+00  3.46677E+00  3.40206E+00  3.36312E+00  3.34237E+00  3.34345E+00  3.35865E+00  3.38040E+00  3.40211E+00  3.41540E+00
   3.41306E+00  3.39132E+00  3.35367E+00  3.30928E+00  3.26653E+00  3.23241E+00  3.20848E+00  3.19544E+00  3.21036E+00  3.27027E+00
   3.38424E+00  3.54467E+00  3.71018E+00  3.82703E+00  3.85771E+00  3.78156E+00  3.60191E+00  3.38909E+00  3.28160E+00  3.40169E+00
   3.77980E+00  4.31719E+00  4.82340E+00  5.10388E+00  5.03961E+00  4.65063E+00  4.08340E+00  3.49689E+00  3.06554E+00  2.89367E+00
   2.93562E+00  3.09260E+00  3.29919E+00  3.53327E+00  3.80254E+00  4.08856E+00  4.35924E+00  4.52843E+00  4.49574E+00  4.26429E+00
   3.91795E+00  3.56635E+00  3.29191E+00  3.12246E+00  3.04075E+00  3.01875E+00  3.05563E+00  3.15558E+00  3.29024E+00  3.41478E+00
   3.49009E+00  3.49365E+00  3.42956E+00  3.32723E+00  3.22654E+00  3.16002E+00  3.13664E+00  3.14358E+00  3.17018E+00  3.21204E+00
   3.26992E+00  3.34292E+00  3.41810E+00  3.48182E+00  3.51692E+00  3.50941E+00  3.45329E+00  3.35167E+00  3.23391E+00  3.13690E+00
   3.09655E+00  3.13604E+00  3.23829E+00  3.36621E+00  3.48992E+00  3.57092E+00  3.55831E+00  3.43622E+00  3.24134E+00  3.04368E+00
   2.90040E+00  2.82143E+00  2.78181E+00  2.75287E+00  2.73015E+00  2.74513E+00  2.80966E+00  2.94044E+00  3.18564E+00  3.58285E+00
   4.14398E+00  4.85055E+00  5.59179E+00  6.14809E+00  6.30791E+00  6.01896E+00  5.42267E+00  4.76437E+00  4.21417E+00  3.80365E+00
   3.49561E+00  3.23785E+00  3.06331E+00  3.01424E+00  3.00963E+00  3.01520E+00  3.02224E+00  3.03139E+00  3.04099E+00  3.05454E+00
   3.08417E+00  3.14906E+00  3.26499E+00  3.43614E+00  3.65706E+00  3.90449E+00  4.12664E+00  4.26258E+00  4.28047E+00  4.19391E+00
   4.05505E+00  3.91002E+00  3.76920E+00  3.62524E+00  3.46988E+00  3.31683E+00  3.20616E+00  3.14526E+00  3.12653E+00  3.13938E+00
   3.16529E+00  3.18375E+00  3.18645E+00  3.17616E+00  3.15363E+00  3.12077E+00  3.07552E+00  3.01589E+00  2.94889E+00  2.88433E+00
   2.82857E+00  2.78350E+00  2.74655E+00  2.71637E+00  2.68699E+00  2.64483E+00  2.57032E+00  2.45085E+00  2.28863E+00  2.10625E+00
   1.95154E+00  1.88123E+00  1.92772E+00  2.06447E+00  2.20013E+00  2.23890E+00  2.14935E+00  1.96983E+00  1.77606E+00  1.61215E+00
   1.45228E+00  1.27644E+00  1.08674E+00  9.02120E-01  7.62346E-01  6.82971E-01  6.80934E-01  7.59507E-01  8.72416E-01  9.51184E-01
   9.62616E-01  9.39256E-01  9.36513E-01  9.83254E-01  1.06571E+00  1.15205E+00  1.27205E+00  1.50347E+00  1.85221E+00  2.25061E+00
   2.58747E+00  2.81112E+00  2.94524E+00  3.02758E+00  3.08969E+00  3.12707E+00  3.09734E+00  3.00512E+00  2.90646E+00  2.86082E+00
   2.92465E+00  3.11216E+00  3.37613E+00  3.62543E+00  3.74620E+00  3.65774E+00  3.35721E+00  2.88760E+00  2.34947E+00  1.88762E+00
   1.65874E+00  1.77533E+00  2.28604E+00  3.14668E+00  4.15729E+00  4.99787E+00  5.29536E+00  4.84961E+00  3.77209E+00  2.37054E+00
   1.03694E+00  8.27014E-02 -2.85295E-01  3.29658E-02  9.35345E-01  2.17551E+00  3.37848E+00  4.26461E+00  4.80146E+00  5.07205E+00
   5.18339E+00  5.20015E+00  5.17546E+00  5.20335E+00  5.32877E+00  5.49185E+00  5.63961E+00  5.73228E+00  5.74743E+00  5.70417E+00
   5.64746E+00  5.64335E+00  5.76672E+00  6.05092E+00  6.45360E+00  6.87701E+00  7.22090E+00  7.42536E+00  7.49601E+00  7.47795E+00
   7.45067E+00  7.51611E+00  7.72940E+00  8.21711E+00  9.30448E+00  1.14250E+01  1.48103E+01  1.94633E+01  2.50643E+01  3.05204E+01
   3.40436E+01  3.41756E+01  3.08136E+01  2.53432E+01  1.96941E+01  1.50090E+01  1.14784E+01  8.74497E+00  6.41694E+00  4.85834E+00
   4.25001E+00  3.96350E+00  3.80311E+00  3.73069E+00  3.70019E+00  3.65505E+00  3.57717E+00  3.46323E+00  3.32170E+00  3.16750E+00
   3.01752E+00  2.88107E+00  2.76791E+00  2.68570E+00  2.63077E+00  2.59509E+00  2.57271E+00  2.55917E+00  2.55304E+00  2.55369E+00
   2.55923E+00  2.57100E+00  2.58966E+00  2.61490E+00  2.64676E+00  2.68525E+00  2.72957E+00  2.77813E+00  2.82954E+00  2.88305E+00
   2.93756E+00  2.99205E+00  3.04615E+00  3.09923E+00  3.15097E+00  3.20146E+00  3.25132E+00  3.30180E+00  3.35454E+00  3.41133E+00
   3.47401E+00  3.54441E+00  3.62457E+00  3.71658E+00  3.82229E+00  3.94336E+00  4.08117E+00  4.23680E+00  4.41131E+00  4.60616E+00
   4.82423E+00  5.06825E+00  5.33419E+00  5.60812E+00  5.87069E+00  6.09655E+00  6.25539E+00  6.32865E+00  6.32962E+00  6.30448E+00
   6.31037E+00  6.38035E+00  6.51655E+00  6.70944E+00  6.93691E+00  7.16305E+00  7.34847E+00  7.44641E+00  7.44616E+00  7.38020E+00
   7.28224E+00  7.17315E+00  7.05881E+00  6.93596E+00  6.81820E+00  6.71799E+00  6.62990E+00  6.55108E+00  6.48038E+00  6.41671E+00
   6.35873E+00  6.30480E+00  6.25298E+00  6.20116E+00  6.14713E+00  6.08863E+00  6.02354E+00  5.94999E+00  5.86649E+00  5.77192E+00
   5.66560E+00  5.54728E+00  5.41718E+00  5.27600E+00  5.12485E+00  4.96522E+00  4.79885E+00  4.62768E+00  4.45386E+00  4.27964E+00
   4.10730E+00  3.93908E+00  3.77714E+00  3.62350E+00  3.48007E+00  3.34865E+00  3.23087E+00  3.12817E+00  3.04185E+00  2.97306E+00
   2.92290E+00  2.89235E+00  2.88231E+00  2.89355E+00  2.92674E+00  2.98243E+00  3.06105E+00  3.16280E+00  3.28759E+00  3.43492E+00
   3.60387E+00  3.79299E+00  4.00024E+00  4.22287E+00  4.45741E+00  4.69963E+00  4.94463E+00  5.18694E+00  5.42060E+00  5.63934E+00
   5.83679E+00  6.00678E+00  6.14357E+00  6.24218E+00  6.29856E+00  6.30981E+00  6.27433E+00  6.19195E+00  6.06394E+00  5.89292E+00
   5.68274E+00  5.43823E+00  5.16503E+00  4.86928E+00  4.55740E+00  4.23574E+00  3.91036E+00  3.58679E+00  3.26994E+00  2.96395E+00
   2.67216E+00  2.39706E+00  2.14032E+00  1.90289E+00  1.68510E+00  1.48673E+00  1.30717E+00  1.14544E+00  1.00033E+00  8.70518E-01
   7.54619E-01  6.51264E-01  5.59117E-01  4.76895E-01  4.03405E-01  3.37568E-01  2.78435E-01  2.25166E-01  1.77011E-01  1.33298E-01
   9.34460E-02  5.69654E-02  2.34493E-02 -7.46002E-03 -3.60834E-02 -6.27107E-02 -8.75803E-02 -1.10885E-01 -1.32781E-01 -1.53419E-01
  -1.72942E-01 -1.91479E-01 -2.09128E-01 -2.25962E-01 -2.42044E-01 -2.57451E-01 -2.72257E-01 -2.86524E-01 -3.00293E-01 -3.13592E-01
  -3.26454E-01 -3.38925E-01 -3.51048E-01 -3.62853E-01 -3.74350E-01 -3.85552E-01 -3.96480E-01 -4.07169E-01 -4.17644E-01 -4.27916E-01
  -4.37981E-01 -4.47848E-01 -4.57533E-01 -4.67065E-01 -4.76453E-01 -4.85696E-01 -4.94789E-01 -5.03742E-01 -5.12572E-01 -5.21300E-01
  -5.29924E-01 -5.38437E-01 -5.46833E-01 -5.55125E-01 -5.63329E-01 -5.71454E-01 -5.79492E-01 -5.87432E-01 -5.95273E-01 -6.03029E-01
  -6.10713E-01 -6.18324E-01 -6.25846E-01 -6.33269E-01 -6.40594E-01 -6.47837E-01 -6.54998E-01 -6.62066E-01
 NY background values follow
     3.169E+00    3.162E+00    3.155E+00    3.148E+00    3.140E+00    3.133E+00    3.126E+00    3.118E+00    3.111E+00    3.104E+00
     3.097E+00    3.089E+00    3.082E+00    3.075E+00    3.067E+00    3.060E+00    3.053E+00    3.045E+00    3.038E+00    3.031E+00
     3.023E+00    3.016E+00    3.009E+00    3.001E+00    2.994E+00    2.987E+00    2.980E+00    2.972E+00    2.965E+00    2.958E+00
     2.950E+00    2.943E+00    2.936E+00    2.928E+00    2.921E+00    2.914E+00    2.906E+00    2.899E+00    2.892E+00    2.884E+00
     2.877E+00    2.870E+00    2.862E+00    2.855E+00    2.848E+00    2.840E+00    2.833E+00    2.826E+00    2.818E+00    2.811E+00
     2.804E+00    2.796E+00    2.789E+00    2.782E+00    2.774E+00    2.767E+00    2.760E+00    2.752E+00    2.745E+00    2.737E+00
     2.730E+00    2.723E+00    2.715E+00    2.708E+00    2.701E+00    2.693E+00    2.686E+00    2.679E+00    2.671E+00    2.664E+00
     2.657E+00    2.649E+00    2.642E+00    2.634E+00    2.627E+00    2.620E+00    2.612E+00    2.605E+00    2.598E+00    2.590E+00
     2.583E+00    2.576E+00    2.568E+00    2.561E+00    2.553E+00    2.546E+00    2.539E+00    2.531E+00    2.524E+00    2.517E+00
     2.509E+00    2.502E+00    2.494E+00    2.487E+00    2.480E+00    2.472E+00    2.465E+00    2.457E+00    2.450E+00    2.443E+00
     2.435E+00    2.428E+00    2.421E+00    2.413E+00    2.406E+00    2.398E+00    2.391E+00    2.384E+00    2.376E+00    2.369E+00
     2.361E+00    2.354E+00    2.347E+00    2.339E+00    2.332E+00    2.324E+00    2.317E+00    2.310E+00    2.302E+00    2.295E+00
     2.287E+00    2.280E+00    2.273E+00    2.265E+00    2.258E+00    2.250E+00    2.243E+00    2.236E+00    2.228E+00    2.221E+00
     2.213E+00    2.206E+00    2.199E+00    2.191E+00    2.184E+00    2.176E+00    2.169E+00    2.162E+00    2.154E+00    2.147E+00
     2.139E+00    2.132E+00    2.125E+00    2.117E+00    2.110E+00    2.102E+00    2.095E+00    2.088E+00    2.080E+00    2.073E+00
     2.065E+00    2.058E+00    2.050E+00    2.043E+00    2.036E+00    2.028E+00    2.021E+00    2.013E+00    2.006E+00    1.999E+00
     1.991E+00    1.984E+00    1.976E+00    1.969E+00    1.961E+00    1.954E+00    1.947E+00    1.939E+00    1.932E+00    1.924E+00
     1.917E+00    1.909E+00    1.902E+00    1.895E+00    1.887E+00    1.880E+00    1.872E+00    1.865E+00    1.857E+00    1.850E+00
     1.843E+00    1.835E+00    1.828E+00    1.820E+00    1.813E+00    1.805E+00    1.798E+00    1.791E+00    1.783E+00    1.776E+00
     1.768E+00    1.761E+00    1.753E+00    1.746E+00    1.739E+00    1.731E+00    1.724E+00    1.716E+00    1.709E+00    1.701E+00
     1.694E+00    1.687E+00    1.679E+00    1.672E+00    1.664E+00    1.657E+00    1.649E+00    1.642E+00    1.635E+00    1.627E+00
     1.620E+00    1.612E+00    1.605E+00    1.597E+00    1.590E+00    1.583E+00    1.575E+00    1.568E+00    1.560E+00    1.553E+00
     1.545E+00    1.538E+00    1.530E+00    1.523E+00    1.516E+00    1.508E+00    1.501E+00    1.493E+00    1.486E+00    1.478E+00
     1.471E+00    1.464E+00    1.456E+00    1.449E+00    1.441E+00    1.434E+00    1.426E+00    1.419E+00    1.411E+00    1.404E+00
     1.397E+00    1.389E+00    1.382E+00    1.374E+00    1.367E+00    1.359E+00    1.352E+00    1.345E+00    1.337E+00    1.330E+00
     1.322E+00    1.315E+00    1.307E+00    1.300E+00    1.292E+00    1.285E+00    1.278E+00    1.270E+00    1.263E+00    1.255E+00
     1.248E+00    1.240E+00    1.233E+00    1.226E+00    1.218E+00    1.211E+00    1.203E+00    1.196E+00    1.188E+00    1.181E+00
     1.173E+00    1.166E+00    1.159E+00    1.151E+00    1.144E+00    1.136E+00    1.129E+00    1.121E+00    1.114E+00    1.107E+00
     1.099E+00    1.092E+00    1.084E+00    1.077E+00    1.069E+00    1.062E+00    1.055E+00    1.047E+00    1.040E+00    1.032E+00
     1.025E+00    1.017E+00    1.010E+00    1.003E+00    9.951E-01    9.876E-01    9.802E-01    9.728E-01    9.653E-01    9.579E-01
     9.505E-01    9.431E-01    9.356E-01    9.282E-01    9.208E-01    9.133E-01    9.059E-01    8.985E-01    8.911E-01    8.836E-01
     8.762E-01    8.688E-01    8.613E-01    8.539E-01    8.465E-01    8.391E-01    8.316E-01    8.242E-01    8.168E-01    8.094E-01
     8.019E-01    7.945E-01    7.871E-01    7.797E-01    7.723E-01    7.648E-01    7.574E-01    7.500E-01    7.426E-01    7.351E-01
     7.277E-01    7.203E-01    7.129E-01    7.055E-01    6.981E-01    6.906E-01    6.832E-01    6.758E-01    6.684E-01    6.610E-01
     6.536E-01    6.461E-01    6.387E-01    6.313E-01    6.239E-01    6.165E-01    6.091E-01    6.017E-01    5.942E-01    5.868E-01
     5.794E-01    5.720E-01    5.646E-01    5.572E-01    5.498E-01    5.424E-01    5.350E-01    5.276E-01    5.202E-01    5.128E-01
     5.053E-01    4.979E-01    4.905E-01    4.831E-01    4.757E-01    4.683E-01    4.609E-01    4.535E-01    4.461E-01    4.387E-01
     4.313E-01    4.239E-01    4.165E-01    4.091E-01    4.017E-01    3.943E-01    3.869E-01    3.796E-01    3.722E-01    3.648E-01
     3.574E-01    3.500E-01    3.426E-01    3.352E-01    3.278E-01    3.204E-01    3.130E-01    3.056E-01    2.983E-01    2.909E-01
     2.835E-01    2.761E-01    2.687E-01    2.613E-01    2.539E-01    2.466E-01    2.392E-01    2.318E-01    2.244E-01    2.170E-01
     2.097E-01    2.023E-01    1.949E-01    1.875E-01    1.802E-01    1.728E-01    1.654E-01    1.580E-01    1.507E-01    1.433E-01
     1.359E-01    1.286E-01    1.212E-01    1.138E-01    1.065E-01    9.909E-02    9.172E-02    8.436E-02    7.699E-02    6.963E-02
     6.227E-02    5.491E-02    4.755E-02    4.019E-02    3.283E-02    2.547E-02    1.811E-02    1.076E-02    3.404E-03   -3.950E-03
    -1.130E-02   -1.866E-02   -2.601E-02   -3.336E-02   -4.071E-02   -4.805E-02   -5.540E-02   -6.275E-02   -7.009E-02   -7.744E-02
    -8.478E-02   -9.212E-02   -9.947E-02   -1.068E-01   -1.141E-01   -1.215E-01   -1.288E-01   -1.362E-01   -1.435E-01   -1.508E-01
    -1.582E-01   -1.655E-01   -1.728E-01   -1.802E-01   -1.875E-01   -1.948E-01   -2.021E-01   -2.095E-01   -2.168E-01   -2.241E-01
    -2.314E-01   -2.388E-01   -2.461E-01   -2.534E-01   -2.607E-01   -2.680E-01   -2.754E-01   -2.827E-01   -2.900E-01   -2.973E-01
    -3.046E-01   -3.119E-01   -3.192E-01   -3.265E-01   -3.339E-01   -3.412E-01   -3.485E-01   -3.558E-01   -3.631E-01   -3.704E-01
    -3.777E-01   -3.850E-01   -3.923E-01   -3.996E-01   -4.069E-01   -4.142E-01   -4.215E-01   -4.288E-01   -4.360E-01   -4.433E-01
    -4.506E-01   -4.579E-01   -4.652E-01   -4.725E-01   -4.798E-01   -4.870E-01   -4.943E-01   -5.016E-01
 Ala      Conc. = 3.61E+01
