 LCModel (Version 6.3-1L) Copyright: S.W. Provencher.          Ref.: Magn. Reson. Med. 30:672-679 (1993).                
 Slice#3 Row#2 Col#3  PD_05_press_2_raw_act
 36 lines in following concentration table = NCONC+1
    Conc.  %SD /Cr+PCr  Metabolite                                         
   34.988 466%   0.387 Ala                                                 
   30.873  87%   0.342 Asp                                                 
   90.378  86%   1.000 Cr                                                  
    0.000 999%   0.000 PCr                                                 
   16.580  97%   0.183 GABA                                                
   16.555  98%   0.183 Glc                                                 
  143.744 227%   1.590 Gln                                                 
  185.186 194%   2.049 Glu                                                 
    0.000 999%   0.000 GPC                                                 
   33.733  90%   0.373 PCh                                                 
    0.000 999%   0.000 GSH                                                 
  379.115  91%   4.195 Ins                                                 
    0.000 999%   0.000 Lac                                                 
  294.863  38%   3.263 NAA                                                 
  102.374 114%   1.133 NAAG                                                
    6.545  82% 7.2E-02 Scyllo                                              
   26.980  99%   0.299 Tau                                                 
    2.827 999% 3.1E-02 -CrCH2                                              
   33.733  90%   0.373 GPC+PCh                                             
  397.237  26%   4.395 NAA+NAAG                                            
   90.378  86%   1.000 Cr+PCr                                              
  328.930 142%   3.640 Glu+Gln                                             
 1.65E+03  26%  18.278 Lip13a                                              
    0.000 999%   0.000 Lip13b                                              
  266.954  72%   2.954 Lip09                                               
    7.177 999% 7.9E-02 MM09                                                
  347.455  45%   3.844 Lip20                                               
   19.497 827%   0.216 MM20                                                
    2.893 999% 3.2E-02 MM12                                                
    0.000 999%   0.000 MM14                                                
   30.482 213%   0.337 MM17                                                
 1.65E+03  26%  18.278 Lip13a+Lip13b                                       
 1.65E+03  25%  18.310 MM14+Lip13a+Lip13b+MM12                             
  274.131  71%   3.033 MM09+Lip09                                          
  366.952  58%   4.060 MM20+Lip20                                          
   6 lines in following misc. output table
  FWHM = 0.046 ppm    S/N =   1                                            
  Data shift =-0.061 ppm                                                   
  Ph: -47 deg      12.8 deg/ppm                                            
  alphaB,S = 8.5E+01,   2.6E+01                                            
   14 spline knots.   Ns = 5(1)                                            
   2 inflections.     1 extrema                                            
  498 points on ppm-axis = NY
      4.000000     3.992357     3.984714     3.977070     3.969427     3.961784     3.954141     3.946497     3.938854     3.931211
      3.923568     3.915925     3.908281     3.900638     3.892995     3.885352     3.877708     3.870065     3.862422     3.854779
      3.847136     3.839492     3.831849     3.824206     3.816563     3.808919     3.801276     3.793633     3.785990     3.778347
      3.770703     3.763060     3.755417     3.747774     3.740130     3.732487     3.724844     3.717201     3.709558     3.701914
      3.694271     3.686628     3.678985     3.671341     3.663698     3.656055     3.648412     3.640769     3.633125     3.625482
      3.617839     3.610196     3.602552     3.594909     3.587266     3.579623     3.571980     3.564336     3.556693     3.549050
      3.541407     3.533763     3.526120     3.518477     3.510834     3.503191     3.495547     3.487904     3.480261     3.472618
      3.464974     3.457331     3.449688     3.442045     3.434402     3.426758     3.419115     3.411472     3.403829     3.396185
      3.388542     3.380899     3.373256     3.365613     3.357969     3.350326     3.342683     3.335040     3.327396     3.319753
      3.312110     3.304467     3.296824     3.289180     3.281537     3.273894     3.266251     3.258607     3.250964     3.243321
      3.235678     3.228034     3.220391     3.212748     3.205105     3.197462     3.189818     3.182175     3.174532     3.166889
      3.159245     3.151602     3.143959     3.136316     3.128673     3.121029     3.113386     3.105743     3.098100     3.090456
      3.082813     3.075170     3.067527     3.059884     3.052240     3.044597     3.036954     3.029311     3.021667     3.014024
      3.006381     2.998738     2.991095     2.983451     2.975808     2.968165     2.960522     2.952878     2.945235     2.937592
      2.929949     2.922306     2.914662     2.907019     2.899376     2.891733     2.884089     2.876446     2.868803     2.861160
      2.853517     2.845873     2.838230     2.830587     2.822944     2.815300     2.807657     2.800014     2.792371     2.784728
      2.777084     2.769441     2.761798     2.754155     2.746511     2.738868     2.731225     2.723582     2.715939     2.708295
      2.700652     2.693009     2.685366     2.677722     2.670079     2.662436     2.654793     2.647150     2.639506     2.631863
      2.624220     2.616577     2.608933     2.601290     2.593647     2.586004     2.578361     2.570717     2.563074     2.555431
      2.547788     2.540144     2.532501     2.524858     2.517215     2.509572     2.501928     2.494285     2.486642     2.478999
      2.471355     2.463712     2.456069     2.448426     2.440783     2.433139     2.425496     2.417853     2.410210     2.402566
      2.394923     2.387280     2.379637     2.371994     2.364350     2.356707     2.349064     2.341421     2.333777     2.326134
      2.318491     2.310848     2.303205     2.295561     2.287918     2.280275     2.272632     2.264988     2.257345     2.249702
      2.242059     2.234416     2.226772     2.219129     2.211486     2.203843     2.196199     2.188556     2.180913     2.173270
      2.165627     2.157983     2.150340     2.142697     2.135054     2.127410     2.119767     2.112124     2.104481     2.096838
      2.089194     2.081551     2.073908     2.066265     2.058621     2.050978     2.043335     2.035692     2.028049     2.020405
      2.012762     2.005119     1.997476     1.989833     1.982190     1.974546     1.966903     1.959260     1.951617     1.943974
      1.936331     1.928688     1.921045     1.913402     1.905759     1.898115     1.890472     1.882829     1.875186     1.867543
      1.859900     1.852257     1.844614     1.836971     1.829327     1.821684     1.814041     1.806398     1.798755     1.791112
      1.783469     1.775826     1.768183     1.760540     1.752896     1.745253     1.737610     1.729967     1.722324     1.714681
      1.707038     1.699395     1.691752     1.684108     1.676465     1.668822     1.661179     1.653536     1.645893     1.638250
      1.630607     1.622964     1.615321     1.607677     1.600034     1.592391     1.584748     1.577105     1.569462     1.561819
      1.554176     1.546533     1.538890     1.531246     1.523603     1.515960     1.508317     1.500674     1.493031     1.485388
      1.477745     1.470102     1.462458     1.454815     1.447172     1.439529     1.431886     1.424243     1.416600     1.408957
      1.401314     1.393671     1.386027     1.378384     1.370741     1.363098     1.355455     1.347812     1.340169     1.332526
      1.324883     1.317240     1.309596     1.301953     1.294310     1.286667     1.279024     1.271381     1.263738     1.256095
      1.248452     1.240808     1.233165     1.225522     1.217879     1.210236     1.202593     1.194950     1.187307     1.179664
      1.172021     1.164377     1.156734     1.149091     1.141448     1.133805     1.126162     1.118519     1.110876     1.103233
      1.095590     1.087946     1.080303     1.072660     1.065017     1.057374     1.049731     1.042088     1.034445     1.026802
      1.019158     1.011515     1.003872     0.996229     0.988586     0.980943     0.973300     0.965657     0.958014     0.950371
      0.942727     0.935084     0.927441     0.919798     0.912155     0.904512     0.896869     0.889226     0.881583     0.873940
      0.866296     0.858653     0.851010     0.843367     0.835724     0.828081     0.820438     0.812795     0.805152     0.797508
      0.789865     0.782222     0.774579     0.766936     0.759293     0.751650     0.744007     0.736364     0.728721     0.721077
      0.713434     0.705791     0.698148     0.690505     0.682862     0.675219     0.667576     0.659933     0.652290     0.644646
      0.637003     0.629360     0.621717     0.614074     0.606431     0.598788     0.591145     0.583502     0.575858     0.568215
      0.560572     0.552929     0.545286     0.537643     0.530000     0.522357     0.514714     0.507071     0.499427     0.491784
      0.484141     0.476498     0.468855     0.461212     0.453569     0.445925     0.438282     0.430639     0.422996     0.415353
      0.407710     0.400067     0.392424     0.384780     0.377137     0.369494     0.361851     0.354208     0.346565     0.338922
      0.331278     0.323635     0.315992     0.308349     0.300706     0.293063     0.285420     0.277777     0.270133     0.262490
      0.254847     0.247204     0.239561     0.231918     0.224275     0.216631     0.208988     0.201345
 NY phased data points follow
   1.12045E+01  1.29707E+01  2.01561E+01  6.53923E+00  1.85677E+00  4.34827E+00  2.18238E+01  2.49473E+01  1.73845E+01  1.06061E+01
   2.40939E+00  1.72774E+01  2.78993E+01  2.49316E+01  1.11054E+01  1.43495E+01  9.23573E+00  1.71982E+01  1.77102E+01  7.95347E+00
   1.61999E+01  6.62083E+00  2.48911E+01  1.85649E+01  8.56643E+00  1.56324E+01  1.06421E+01  1.05317E+01  7.65242E+00  7.01411E+00
   9.41799E+00  1.85588E+01  1.99595E+01  8.18816E+00  7.70734E+00  1.14181E+01  7.92772E+00  3.43691E+00  1.95519E+01  3.64616E+00
   1.73608E+01  1.07741E+01  7.52739E+00  1.81096E+01 -5.10465E-01  1.64363E+01  8.85148E+00  2.05176E+01  1.20147E+01  1.33175E+01
   1.05813E+01  1.11844E+01 -1.04144E+00  1.08926E+01  4.04776E+00  1.09253E+01  1.09561E+01  6.05515E+00  1.50793E+01  1.39239E+01
   1.06483E+01  2.42648E+01  2.27663E+01  3.91528E+00  7.64498E+00  1.39820E+01  9.37320E+00 -1.69885E-01  2.55558E+01 -1.76038E+00
   1.06517E+01  6.32158E+00  1.71885E+01  6.71124E+00 -3.85446E+00  1.99762E+01  3.14535E+00  8.89630E+00  7.52710E+00  9.18567E+00
   2.76079E+00  2.27360E+00  1.83375E+00  4.17823E+00  1.58883E+01  1.55783E+01  2.83954E+01  8.81542E+00 -4.33069E+00  1.48348E+01
   1.42316E+01  9.24820E+00  1.38746E+01  7.56800E+00  1.26312E+01  1.86028E+01  1.84117E+01  7.67639E+00  4.71854E+00  6.21956E+00
  -2.33696E+00  6.57998E+00  6.25186E+00  1.53472E+01  1.52560E+01  2.26567E+01  9.40966E+00  3.00797E-01  1.31206E+01  9.56257E+00
   2.33547E+00 -8.09374E+00  1.34522E+01  6.94454E+00  1.37195E+01 -3.51812E+00 -1.10420E-01  1.12302E+01  8.72695E+00 -1.52209E+00
   1.34567E+01  5.90710E+00  1.24714E+01 -1.35842E+00  1.04557E+01  9.35178E+00  6.22893E+00  1.66375E+01  1.01431E+01  7.35385E+00
  -7.33654E-01  1.64116E+01  1.04561E+01  2.48859E+00  1.62056E+00 -1.75195E+00  1.63237E+01  5.63501E+00  6.83501E+00  4.77469E+00
   1.70066E+01  6.88790E+00  2.65035E+00  5.59519E+00  2.76402E+00  1.13977E+01  8.86628E-01  1.20025E+01  1.49665E+00  8.17928E+00
   8.10987E+00  6.06161E+00  1.47901E+01  1.08590E+01  7.92599E+00  8.61713E+00  8.99733E+00  1.06017E+01  1.66000E+01  6.45985E+00
   1.18422E+01  4.98039E+00  3.61623E+00  2.15571E+00  3.14529E+00  1.76745E+00  1.05624E+01  5.17833E+00  6.44085E-01  1.42399E+01
   1.34606E-01  9.23264E+00  1.52771E+01  1.97623E+01  9.49013E+00  1.63708E+01  1.83743E+01  1.40543E+01  1.05943E+01  3.52089E+00
   1.18409E+01  9.35975E+00  1.59109E+01  1.65394E+01  1.70256E+00  1.76919E+01  5.79210E+00  5.72169E+00  1.43413E+01  2.73001E+00
   4.70490E+00  1.09121E+01 -4.16523E+00  9.04404E+00 -3.55907E+00  1.14977E+01  1.30547E+01  1.18440E+01  1.36231E+01  7.31560E+00
   1.68625E+01  1.62818E+01  6.20884E+00  9.20586E+00  6.42277E+00  4.40653E+00  1.41701E+01  5.89445E+00  3.71852E+00  1.59029E+01
  -3.68206E+00  1.11183E+01  1.35356E+01  1.07157E+01  7.62975E+00  1.57265E+01 -1.00002E+00  5.94439E+00  1.02244E+01  2.10131E+01
   1.62718E+01  6.26512E+00  7.68387E+00  1.88149E+00  1.18875E+01  2.01731E+01  4.77400E+00  1.95939E+01  7.88182E+00  7.00373E+00
   1.57231E+01  9.16489E+00  1.72130E+01  7.60128E+00  9.02100E+00  4.51282E+00  1.58146E+01  6.33790E+00  9.07984E+00  1.02387E+00
  -2.08867E+00 -7.79747E-01 -2.28602E+00  1.04245E+01  1.29040E+00 -2.53556E+00  3.60289E+00  7.59569E+00  8.47394E+00  4.90437E+00
   7.50312E+00  7.02178E+00  5.69907E+00 -6.70104E-01  2.32954E+01  1.78416E+01 -2.57244E+00  8.41443E+00  1.86766E+01  2.23053E+01
   1.64442E+01  2.33522E+01  9.93653E+00  1.10047E+01  1.18719E+01  1.69447E+01  1.69312E+01  4.83340E+00  2.45760E+00  9.86425E+00
   6.33028E+00  1.24895E+01  3.94461E+00  4.98863E+00 -1.49759E+00  2.32688E+00 -4.64116E+00 -5.64223E+00  8.22873E+00  8.66223E+00
   5.87173E+00 -4.72913E+00  1.40345E+01  1.06319E+01  1.12574E+01  1.15653E+01  1.05124E+01  1.08224E+01  1.59352E+01  1.42823E+01
  -8.29284E-01  1.13524E+01  2.51334E+00 -3.71093E+00  5.59456E+00  1.29347E+01  1.18477E+01  1.60355E-01  1.02449E+01  8.31951E+00
   5.18130E-01  3.74535E+00  4.05261E+00  7.18780E+00  6.62258E+00  9.08144E+00  9.16838E+00  7.61217E+00  3.79269E+00  3.19808E+01
  -2.00515E+00  1.47229E+01  1.18955E+01  3.82218E+00  3.89618E+00  5.70834E+00 -4.70815E+00  3.59307E+00  6.00711E+00 -1.39043E+00
   2.88935E+00  2.71580E+01  8.17369E+00 -1.44164E+00  2.55767E+00  2.95798E-02 -4.16134E+00  4.50251E+00 -1.49681E-01  1.24780E+01
  -3.68117E+00  5.40496E+00 -4.53427E+00  2.50759E+00  4.80235E+00  3.54162E+00 -9.73709E+00 -7.11729E-03  5.50798E+00  3.86736E+00
   1.36036E+01  3.19455E+00  4.20365E-01 -4.75422E+00  3.12908E-01  5.44414E+00  1.50489E+01 -3.07593E+00  1.39973E+01  4.70507E-01
   9.18442E-01  5.77857E+00  1.62146E+01  1.41381E+01  5.08024E+00  5.51614E+00  5.47055E+00  1.05749E+01  1.18947E+01  3.28846E+00
   9.58597E+00  1.28665E+01  1.66865E+01  4.52414E+00 -2.12420E+00  6.14723E+00  1.69726E+01  1.11138E+01  1.24170E+01 -5.99320E+00
   1.96028E+01  5.97602E+00  2.43784E-01 -1.15514E+00  7.38605E+00 -6.22923E-02  9.38470E+00  7.31247E+00  7.66351E+00  2.02709E+01
   2.66154E+00  3.00476E-01  1.23136E+01  1.34403E+01  8.35083E+00 -5.54168E+00  8.60391E+00  5.47466E+00  5.63509E+00 -1.02095E+00
   1.16903E+00  2.91587E+00  8.85560E+00 -2.58187E+00 -3.96913E+00 -3.80841E+00  7.46847E+00 -1.70115E+01 -6.27179E+00 -2.62831E+00
   5.83114E+00  3.82431E+00  3.34281E+00  4.59485E+00 -1.00233E+00 -8.84480E+00 -4.03324E+00 -1.60742E+01 -2.51629E+00 -4.00187E+00
   1.05350E+01 -5.31303E+00  1.44904E+00  2.33858E+00 -1.45474E+00  3.93600E+00  9.96163E+00  1.04552E+01  1.90475E+00 -9.47112E-01
   6.73520E+00  6.46473E+00  1.84014E+01  4.91275E+00  5.52433E+00  1.26203E+00  3.38738E+00 -2.41502E+00 -1.29615E+01  1.62354E-01
  -1.96348E-01 -4.90307E+00 -6.07716E+00 -2.52002E+00  3.70482E+00 -6.68144E-02 -9.33941E+00  2.38069E+00 -1.95780E+00  6.31840E-01
  -6.42496E+00 -4.70471E-01 -6.59513E+00 -7.45108E+00 -3.83180E+00 -4.69656E+00 -2.14749E+00  9.20950E-02 -5.30188E+00 -7.85357E-01
  -5.72517E+00 -3.11353E+00  3.00822E-01  2.52551E-01 -6.55516E+00 -3.68982E+00 -7.26461E+00  4.96173E+00  2.44538E+00 -3.81470E-02
   7.28460E-01 -4.72060E+00  4.26181E+00  2.40958E+00  4.89274E+00 -1.18342E+01 -1.25174E+01 -1.88098E+00 -1.31269E+01 -5.80687E+00
  -6.05736E-01  4.79432E+00  3.05652E+00 -1.53403E+00  4.45449E+00 -9.78119E+00 -3.04897E+00 -6.25030E+00  5.09691E-02 -5.85982E+00
  -8.85212E-01  1.97625E+00 -1.47779E+01 -8.65641E-01 -6.07359E+00  2.16652E+00  2.39251E+00 -5.36253E+00 -6.33048E+00  2.78717E+00
  -4.16384E+00  1.19625E+01  8.10467E+00 -2.42839E-01  9.87304E-01 -1.17274E+00 -4.01798E+00 -3.46749E-01
 NY points of the fit to the data follow
   1.23289E+01  1.20984E+01  1.19338E+01  1.18609E+01  1.18363E+01  1.18356E+01  1.18919E+01  1.20874E+01  1.24800E+01  1.29993E+01
   1.34605E+01  1.36962E+01  1.36414E+01  1.33381E+01  1.28839E+01  1.23657E+01  1.18514E+01  1.14419E+01  1.12649E+01  1.12759E+01
   1.13530E+01  1.14623E+01  1.15726E+01  1.16305E+01  1.15786E+01  1.13993E+01  1.11411E+01  1.09040E+01  1.08076E+01  1.09282E+01
   1.12478E+01  1.16667E+01  1.20488E+01  1.22608E+01  1.22455E+01  1.20265E+01  1.16838E+01  1.12986E+01  1.09577E+01  1.07443E+01
   1.06622E+01  1.06869E+01  1.08232E+01  1.11403E+01  1.17212E+01  1.25097E+01  1.32539E+01  1.36677E+01  1.35950E+01  1.30703E+01
   1.22670E+01  1.13933E+01  1.06041E+01  1.00273E+01  9.79717E+00  9.92133E+00  1.02531E+01  1.06553E+01  1.10498E+01  1.13627E+01
   1.15130E+01  1.14553E+01  1.12183E+01  1.08877E+01  1.05509E+01  1.02816E+01  1.01525E+01  1.01773E+01  1.03181E+01  1.05277E+01
   1.07307E+01  1.08743E+01  1.09340E+01  1.09100E+01  1.08228E+01  1.06893E+01  1.05281E+01  1.03463E+01  1.01739E+01  1.00528E+01
   9.97136E+00  9.91741E+00  9.89043E+00  9.86330E+00  9.77257E+00  9.57495E+00  9.28705E+00  8.97717E+00  8.73301E+00  8.61730E+00
   8.63871E+00  8.77001E+00  8.97869E+00  9.22307E+00  9.41336E+00  9.48894E+00  9.45102E+00  9.35046E+00  9.28041E+00  9.39619E+00
   9.84144E+00  1.05937E+01  1.14035E+01  1.19802E+01  1.21364E+01  1.18507E+01  1.12542E+01  1.05050E+01  9.72350E+00  9.03048E+00
   8.61082E+00  8.49973E+00  8.47538E+00  8.46317E+00  8.44814E+00  8.42998E+00  8.40571E+00  8.37779E+00  8.35259E+00  8.33780E+00
   8.34197E+00  8.38699E+00  8.54334E+00  8.93033E+00  9.61330E+00  1.04608E+01  1.11916E+01  1.15650E+01  1.14922E+01  1.10377E+01
   1.03527E+01  9.57772E+00  8.81677E+00  8.21178E+00  7.92809E+00  7.85863E+00  7.83767E+00  7.83440E+00  7.83939E+00  7.84367E+00
   7.84319E+00  7.84019E+00  7.84106E+00  7.85069E+00  7.86280E+00  7.86946E+00  7.86840E+00  7.85953E+00  7.84373E+00  7.81947E+00
   7.78627E+00  7.74482E+00  7.69968E+00  7.66164E+00  7.63763E+00  7.62787E+00  7.62001E+00  7.58627E+00  7.50555E+00  7.38722E+00
   7.26710E+00  7.18093E+00  7.14687E+00  7.15127E+00  7.15861E+00  7.14374E+00  7.09586E+00  7.00770E+00  6.88786E+00  6.76904E+00
   6.67329E+00  6.59827E+00  6.52828E+00  6.43401E+00  6.32704E+00  6.24887E+00  6.21589E+00  6.20908E+00  6.20316E+00  6.18534E+00
   6.16735E+00  6.17390E+00  6.20275E+00  6.22534E+00  6.23938E+00  6.27773E+00  6.35555E+00  6.46698E+00  6.58147E+00  6.67281E+00
   6.72450E+00  6.73145E+00  6.69441E+00  6.61450E+00  6.50135E+00  6.39087E+00  6.31442E+00  6.28603E+00  6.32710E+00  6.45116E+00
   6.64176E+00  6.86317E+00  7.07040E+00  7.19676E+00  7.17938E+00  6.95367E+00  6.49961E+00  5.88444E+00  5.26213E+00  4.79998E+00
   4.60572E+00  4.73395E+00  5.17172E+00  5.81626E+00  6.49227E+00  7.02335E+00  7.25913E+00  7.12827E+00  6.72485E+00  6.16976E+00
   5.57532E+00  5.11601E+00  4.94338E+00  5.10083E+00  5.46391E+00  5.89200E+00  6.28747E+00  6.58179E+00  6.72263E+00  6.68712E+00
   6.53691E+00  6.37163E+00  6.23033E+00  6.10328E+00  6.00910E+00  5.97500E+00  6.02300E+00  6.14258E+00  6.27583E+00  6.35576E+00
   6.34330E+00  6.24850E+00  6.10018E+00  5.92155E+00  5.77003E+00  5.67925E+00  5.65227E+00  5.68638E+00  5.78682E+00  5.93388E+00
   6.12957E+00  6.49371E+00  7.15316E+00  8.13162E+00  9.26570E+00  1.03935E+01  1.16302E+01  1.32763E+01  1.53230E+01  1.71938E+01
   1.81554E+01  1.77978E+01  1.62800E+01  1.41615E+01  1.17546E+01  9.24711E+00  6.99053E+00  5.58526E+00  5.09520E+00  4.88128E+00
   4.75124E+00  4.68068E+00  4.64660E+00  4.62750E+00  4.60936E+00  4.57582E+00  4.51994E+00  4.44345E+00  4.35538E+00  4.26655E+00
   4.18930E+00  4.13264E+00  4.09621E+00  4.07258E+00  4.05202E+00  4.02958E+00  4.00359E+00  3.97276E+00  3.93806E+00  3.90580E+00
   3.88194E+00  3.86654E+00  3.85582E+00  3.84737E+00  3.83741E+00  3.82287E+00  3.80266E+00  3.77706E+00  3.74895E+00  3.72420E+00
   3.70493E+00  3.69017E+00  3.67844E+00  3.66841E+00  3.65888E+00  3.64821E+00  3.63471E+00  3.61938E+00  3.60337E+00  3.58723E+00
   3.57159E+00  3.55688E+00  3.54346E+00  3.53176E+00  3.52229E+00  3.51563E+00  3.51251E+00  3.51380E+00  3.52062E+00  3.53450E+00
   3.55786E+00  3.59539E+00  3.65652E+00  3.74877E+00  3.85900E+00  3.94402E+00  3.95814E+00  3.88814E+00  3.75547E+00  3.59919E+00
   3.46132E+00  3.38506E+00  3.41991E+00  3.60615E+00  3.93541E+00  4.32305E+00  4.68961E+00  5.00644E+00  5.26906E+00  5.48559E+00
   5.66263E+00  5.81244E+00  5.97861E+00  6.18909E+00  6.42545E+00  6.67491E+00  6.92993E+00  7.18438E+00  7.43255E+00  7.66888E+00
   7.88790E+00  8.08434E+00  8.25324E+00  8.39011E+00  8.49106E+00  8.55300E+00  8.57374E+00  8.55209E+00  8.48787E+00  8.38193E+00
   8.23613E+00  8.05326E+00  7.83691E+00  7.59132E+00  7.32117E+00  7.03145E+00  6.72728E+00  6.41370E+00  6.09558E+00  5.77740E+00
   5.46321E+00  5.15654E+00  4.86036E+00  4.57711E+00  4.30865E+00  4.05633E+00  3.82100E+00  3.60313E+00  3.40285E+00  3.22002E+00
   3.05428E+00  2.90511E+00  2.77191E+00  2.65399E+00  2.55069E+00  2.46133E+00  2.38522E+00  2.32169E+00  2.27008E+00  2.22973E+00
   2.19997E+00  2.18007E+00  2.16922E+00  2.16653E+00  2.17100E+00  2.18152E+00  2.19682E+00  2.21553E+00  2.23612E+00  2.25700E+00
   2.27649E+00  2.29293E+00  2.30466E+00  2.31010E+00  2.30782E+00  2.29659E+00  2.27544E+00  2.24367E+00  2.20091E+00  2.14708E+00
   2.08243E+00  2.00755E+00  1.92327E+00  1.83068E+00  1.73100E+00  1.62560E+00  1.51589E+00  1.40331E+00  1.28923E+00  1.17495E+00
   1.06160E+00  9.50186E-01  8.41538E-01  7.36325E-01  6.35043E-01  5.38022E-01  4.45445E-01  3.57372E-01  2.73769E-01  1.94519E-01
   1.19439E-01  4.82923E-02 -1.91851E-02 -8.32686E-02 -1.44230E-01 -2.02339E-01 -2.57859E-01 -3.11048E-01 -3.62140E-01 -4.11344E-01
  -4.58846E-01 -5.04817E-01 -5.49417E-01 -5.92793E-01 -6.35068E-01 -6.76348E-01 -7.16725E-01 -7.56286E-01 -7.95113E-01 -8.33280E-01
  -8.70844E-01 -9.07853E-01 -9.44350E-01 -9.80381E-01 -1.01599E+00 -1.05121E+00 -1.08607E+00 -1.12060E+00 -1.15481E+00 -1.18873E+00
  -1.22240E+00 -1.25582E+00 -1.28901E+00 -1.32198E+00 -1.35475E+00 -1.38733E+00 -1.41973E+00 -1.45198E+00 -1.48406E+00 -1.51599E+00
  -1.54779E+00 -1.57946E+00 -1.61101E+00 -1.64244E+00 -1.67376E+00 -1.70497E+00 -1.73609E+00 -1.76711E+00 -1.79805E+00 -1.82891E+00
  -1.85968E+00 -1.89037E+00 -1.92099E+00 -1.95155E+00 -1.98205E+00 -2.01248E+00 -2.04284E+00 -2.07315E+00 -2.10341E+00 -2.13363E+00
  -2.16380E+00 -2.19391E+00 -2.22398E+00 -2.25401E+00 -2.28401E+00 -2.31397E+00 -2.34390E+00 -2.37378E+00
 NY background values follow
     1.132E+01    1.129E+01    1.127E+01    1.124E+01    1.121E+01    1.119E+01    1.116E+01    1.113E+01    1.111E+01    1.108E+01
     1.105E+01    1.103E+01    1.100E+01    1.097E+01    1.095E+01    1.092E+01    1.089E+01    1.087E+01    1.084E+01    1.081E+01
     1.079E+01    1.076E+01    1.073E+01    1.071E+01    1.068E+01    1.066E+01    1.063E+01    1.060E+01    1.058E+01    1.055E+01
     1.052E+01    1.049E+01    1.047E+01    1.044E+01    1.041E+01    1.039E+01    1.036E+01    1.033E+01    1.031E+01    1.028E+01
     1.025E+01    1.023E+01    1.020E+01    1.017E+01    1.015E+01    1.012E+01    1.009E+01    1.007E+01    1.004E+01    1.001E+01
     9.986E+00    9.959E+00    9.932E+00    9.905E+00    9.878E+00    9.851E+00    9.824E+00    9.797E+00    9.770E+00    9.743E+00
     9.716E+00    9.689E+00    9.662E+00    9.635E+00    9.608E+00    9.581E+00    9.554E+00    9.527E+00    9.500E+00    9.473E+00
     9.446E+00    9.419E+00    9.392E+00    9.365E+00    9.338E+00    9.311E+00    9.284E+00    9.256E+00    9.229E+00    9.202E+00
     9.175E+00    9.148E+00    9.121E+00    9.094E+00    9.066E+00    9.039E+00    9.012E+00    8.985E+00    8.958E+00    8.930E+00
     8.903E+00    8.876E+00    8.849E+00    8.821E+00    8.794E+00    8.767E+00    8.740E+00    8.712E+00    8.685E+00    8.658E+00
     8.630E+00    8.603E+00    8.576E+00    8.548E+00    8.521E+00    8.494E+00    8.466E+00    8.439E+00    8.412E+00    8.384E+00
     8.357E+00    8.329E+00    8.302E+00    8.275E+00    8.247E+00    8.220E+00    8.192E+00    8.165E+00    8.137E+00    8.110E+00
     8.083E+00    8.055E+00    8.028E+00    8.000E+00    7.973E+00    7.945E+00    7.918E+00    7.890E+00    7.863E+00    7.835E+00
     7.808E+00    7.780E+00    7.752E+00    7.725E+00    7.697E+00    7.670E+00    7.642E+00    7.615E+00    7.587E+00    7.559E+00
     7.532E+00    7.504E+00    7.477E+00    7.449E+00    7.421E+00    7.394E+00    7.366E+00    7.338E+00    7.311E+00    7.283E+00
     7.255E+00    7.228E+00    7.200E+00    7.172E+00    7.145E+00    7.117E+00    7.089E+00    7.062E+00    7.034E+00    7.006E+00
     6.978E+00    6.951E+00    6.923E+00    6.895E+00    6.867E+00    6.840E+00    6.812E+00    6.784E+00    6.756E+00    6.729E+00
     6.701E+00    6.673E+00    6.645E+00    6.617E+00    6.590E+00    6.562E+00    6.534E+00    6.506E+00    6.478E+00    6.450E+00
     6.423E+00    6.395E+00    6.367E+00    6.339E+00    6.311E+00    6.283E+00    6.255E+00    6.227E+00    6.200E+00    6.172E+00
     6.144E+00    6.116E+00    6.088E+00    6.060E+00    6.032E+00    6.004E+00    5.976E+00    5.948E+00    5.920E+00    5.892E+00
     5.864E+00    5.836E+00    5.808E+00    5.780E+00    5.752E+00    5.725E+00    5.697E+00    5.669E+00    5.641E+00    5.613E+00
     5.585E+00    5.557E+00    5.528E+00    5.500E+00    5.472E+00    5.444E+00    5.416E+00    5.388E+00    5.360E+00    5.332E+00
     5.304E+00    5.276E+00    5.248E+00    5.220E+00    5.192E+00    5.164E+00    5.136E+00    5.108E+00    5.080E+00    5.052E+00
     5.023E+00    4.995E+00    4.967E+00    4.939E+00    4.911E+00    4.883E+00    4.855E+00    4.827E+00    4.798E+00    4.770E+00
     4.742E+00    4.714E+00    4.686E+00    4.658E+00    4.630E+00    4.601E+00    4.573E+00    4.545E+00    4.517E+00    4.489E+00
     4.461E+00    4.432E+00    4.404E+00    4.376E+00    4.348E+00    4.320E+00    4.291E+00    4.263E+00    4.235E+00    4.207E+00
     4.179E+00    4.150E+00    4.122E+00    4.094E+00    4.066E+00    4.038E+00    4.009E+00    3.981E+00    3.953E+00    3.925E+00
     3.896E+00    3.868E+00    3.840E+00    3.812E+00    3.783E+00    3.755E+00    3.727E+00    3.699E+00    3.670E+00    3.642E+00
     3.614E+00    3.585E+00    3.557E+00    3.529E+00    3.501E+00    3.472E+00    3.444E+00    3.416E+00    3.387E+00    3.359E+00
     3.331E+00    3.303E+00    3.274E+00    3.246E+00    3.218E+00    3.189E+00    3.161E+00    3.133E+00    3.104E+00    3.076E+00
     3.048E+00    3.019E+00    2.991E+00    2.963E+00    2.934E+00    2.906E+00    2.878E+00    2.849E+00    2.821E+00    2.793E+00
     2.764E+00    2.736E+00    2.708E+00    2.679E+00    2.651E+00    2.623E+00    2.594E+00    2.566E+00    2.537E+00    2.509E+00
     2.481E+00    2.452E+00    2.424E+00    2.396E+00    2.367E+00    2.339E+00    2.311E+00    2.282E+00    2.254E+00    2.225E+00
     2.197E+00    2.169E+00    2.140E+00    2.112E+00    2.083E+00    2.055E+00    2.027E+00    1.998E+00    1.970E+00    1.941E+00
     1.913E+00    1.885E+00    1.856E+00    1.828E+00    1.799E+00    1.771E+00    1.743E+00    1.714E+00    1.686E+00    1.657E+00
     1.629E+00    1.601E+00    1.572E+00    1.544E+00    1.515E+00    1.487E+00    1.459E+00    1.430E+00    1.402E+00    1.373E+00
     1.345E+00    1.317E+00    1.288E+00    1.260E+00    1.231E+00    1.203E+00    1.174E+00    1.146E+00    1.118E+00    1.089E+00
     1.061E+00    1.032E+00    1.004E+00    9.756E-01    9.471E-01    9.187E-01    8.903E-01    8.619E-01    8.335E-01    8.051E-01
     7.766E-01    7.482E-01    7.198E-01    6.914E-01    6.630E-01    6.345E-01    6.061E-01    5.777E-01    5.493E-01    5.209E-01
     4.924E-01    4.640E-01    4.356E-01    4.072E-01    3.788E-01    3.504E-01    3.219E-01    2.935E-01    2.651E-01    2.367E-01
     2.083E-01    1.799E-01    1.515E-01    1.230E-01    9.463E-02    6.621E-02    3.780E-02    9.394E-03   -1.902E-02   -4.742E-02
    -7.583E-02   -1.042E-01   -1.326E-01   -1.611E-01   -1.895E-01   -2.179E-01   -2.463E-01   -2.747E-01   -3.031E-01   -3.315E-01
    -3.599E-01   -3.883E-01   -4.167E-01   -4.450E-01   -4.734E-01   -5.018E-01   -5.302E-01   -5.586E-01   -5.870E-01   -6.154E-01
    -6.438E-01   -6.722E-01   -7.005E-01   -7.289E-01   -7.573E-01   -7.857E-01   -8.141E-01   -8.424E-01   -8.708E-01   -8.992E-01
    -9.276E-01   -9.559E-01   -9.843E-01   -1.013E+00   -1.041E+00   -1.069E+00   -1.098E+00   -1.126E+00   -1.154E+00   -1.183E+00
    -1.211E+00   -1.240E+00   -1.268E+00   -1.296E+00   -1.325E+00   -1.353E+00   -1.381E+00   -1.410E+00   -1.438E+00   -1.466E+00
    -1.495E+00   -1.523E+00   -1.551E+00   -1.580E+00   -1.608E+00   -1.636E+00   -1.665E+00   -1.693E+00   -1.721E+00   -1.749E+00
    -1.778E+00   -1.806E+00   -1.834E+00   -1.863E+00   -1.891E+00   -1.919E+00   -1.948E+00   -1.976E+00   -2.004E+00   -2.032E+00
    -2.061E+00   -2.089E+00   -2.117E+00   -2.146E+00   -2.174E+00   -2.202E+00   -2.230E+00   -2.259E+00   -2.287E+00   -2.315E+00
    -2.343E+00   -2.372E+00   -2.400E+00   -2.428E+00   -2.456E+00   -2.485E+00   -2.513E+00   -2.541E+00
 Ala      Conc. = 3.50E+01
