 LCModel (Version 6.3-1L) Copyright: S.W. Provencher.          Ref.: Magn. Reson. Med. 30:672-679 (1993).                
 Slice#1 Row#8 Col#5  PD_05_press_2_raw_act
 36 lines in following concentration table = NCONC+1
    Conc.  %SD /Cr+PCr  Metabolite                                         
  208.555  97% 9.3E-02 Ala                                                 
  195.469 217% 8.8E-02 Asp                                                 
  996.937  37%   0.447 Cr                                                  
 1.23E+03  31%   0.553 PCr                                                 
   73.269 377% 3.3E-02 GABA                                                
  104.145 271% 4.7E-02 Glc                                                 
 1.00E+03  42%   0.448 Gln                                                 
 3.06E+03  16%   1.372 Glu                                                 
  695.980   6%   0.312 GPC                                                 
    0.000 999%   0.000 PCh                                                 
  933.618  15%   0.419 GSH                                                 
 2.35E+03  19%   1.056 Ins                                                 
  534.861  42%   0.240 Lac                                                 
 4.86E+03   5%   2.179 NAA                                                 
  525.580  46%   0.236 NAAG                                                
  182.034  28% 8.2E-02 Scyllo                                              
  577.179  65%   0.259 Tau                                                 
  328.652  63%   0.147 -CrCH2                                              
  695.980   6%   0.312 GPC+PCh                                             
 5.39E+03   3%   2.414 NAA+NAAG                                            
 2.23E+03   5%   1.000 Cr+PCr                                              
 4.06E+03  16%   1.820 Glu+Gln                                             
 1.81E+03  43%   0.812 Lip13a                                              
    0.000 999%   0.000 Lip13b                                              
  225.496 156%   0.101 Lip09                                               
 2.18E+03  18%   0.978 MM09                                                
  203.437 118% 9.1E-02 Lip20                                               
 3.49E+03  18%   1.564 MM20                                                
  776.445  35%   0.348 MM12                                                
 1.45E+03  40%   0.648 MM14                                                
 1.55E+03  22%   0.694 MM17                                                
 1.81E+03  43%   0.812 Lip13a+Lip13b                                       
 4.03E+03  14%   1.808 MM14+Lip13a+Lip13b+MM12                             
 2.41E+03  12%   1.079 MM09+Lip09                                          
 3.69E+03  17%   1.655 MM20+Lip20                                          
   6 lines in following misc. output table
  FWHM = 0.046 ppm    S/N =  13                                            
  Data shift = 0.008 ppm                                                   
  Ph: -10 deg      -0.4 deg/ppm                                            
  alphaB,S = 8.5E+01,   1.0E+02                                            
   14 spline knots.   Ns = 6(1)                                            
   2 inflections.     1 extrema                                            
  498 points on ppm-axis = NY
      4.000000     3.992357     3.984714     3.977070     3.969427     3.961784     3.954141     3.946497     3.938854     3.931211
      3.923568     3.915925     3.908281     3.900638     3.892995     3.885352     3.877708     3.870065     3.862422     3.854779
      3.847136     3.839492     3.831849     3.824206     3.816563     3.808919     3.801276     3.793633     3.785990     3.778347
      3.770703     3.763060     3.755417     3.747774     3.740130     3.732487     3.724844     3.717201     3.709558     3.701914
      3.694271     3.686628     3.678985     3.671341     3.663698     3.656055     3.648412     3.640769     3.633125     3.625482
      3.617839     3.610196     3.602552     3.594909     3.587266     3.579623     3.571980     3.564336     3.556693     3.549050
      3.541407     3.533763     3.526120     3.518477     3.510834     3.503191     3.495547     3.487904     3.480261     3.472618
      3.464974     3.457331     3.449688     3.442045     3.434402     3.426758     3.419115     3.411472     3.403829     3.396185
      3.388542     3.380899     3.373256     3.365613     3.357969     3.350326     3.342683     3.335040     3.327396     3.319753
      3.312110     3.304467     3.296824     3.289180     3.281537     3.273894     3.266251     3.258607     3.250964     3.243321
      3.235678     3.228034     3.220391     3.212748     3.205105     3.197462     3.189818     3.182175     3.174532     3.166889
      3.159245     3.151602     3.143959     3.136316     3.128673     3.121029     3.113386     3.105743     3.098100     3.090456
      3.082813     3.075170     3.067527     3.059884     3.052240     3.044597     3.036954     3.029311     3.021667     3.014024
      3.006381     2.998738     2.991095     2.983451     2.975808     2.968165     2.960522     2.952878     2.945235     2.937592
      2.929949     2.922306     2.914662     2.907019     2.899376     2.891733     2.884089     2.876446     2.868803     2.861160
      2.853517     2.845873     2.838230     2.830587     2.822944     2.815300     2.807657     2.800014     2.792371     2.784728
      2.777084     2.769441     2.761798     2.754155     2.746511     2.738868     2.731225     2.723582     2.715939     2.708295
      2.700652     2.693009     2.685366     2.677722     2.670079     2.662436     2.654793     2.647150     2.639506     2.631863
      2.624220     2.616577     2.608933     2.601290     2.593647     2.586004     2.578361     2.570717     2.563074     2.555431
      2.547788     2.540144     2.532501     2.524858     2.517215     2.509572     2.501928     2.494285     2.486642     2.478999
      2.471355     2.463712     2.456069     2.448426     2.440783     2.433139     2.425496     2.417853     2.410210     2.402566
      2.394923     2.387280     2.379637     2.371994     2.364350     2.356707     2.349064     2.341421     2.333777     2.326134
      2.318491     2.310848     2.303205     2.295561     2.287918     2.280275     2.272632     2.264988     2.257345     2.249702
      2.242059     2.234416     2.226772     2.219129     2.211486     2.203843     2.196199     2.188556     2.180913     2.173270
      2.165627     2.157983     2.150340     2.142697     2.135054     2.127410     2.119767     2.112124     2.104481     2.096838
      2.089194     2.081551     2.073908     2.066265     2.058621     2.050978     2.043335     2.035692     2.028049     2.020405
      2.012762     2.005119     1.997476     1.989833     1.982190     1.974546     1.966903     1.959260     1.951617     1.943974
      1.936331     1.928688     1.921045     1.913402     1.905759     1.898115     1.890472     1.882829     1.875186     1.867543
      1.859900     1.852257     1.844614     1.836971     1.829327     1.821684     1.814041     1.806398     1.798755     1.791112
      1.783469     1.775826     1.768183     1.760540     1.752896     1.745253     1.737610     1.729967     1.722324     1.714681
      1.707038     1.699395     1.691752     1.684108     1.676465     1.668822     1.661179     1.653536     1.645893     1.638250
      1.630607     1.622964     1.615321     1.607677     1.600034     1.592391     1.584748     1.577105     1.569462     1.561819
      1.554176     1.546533     1.538890     1.531246     1.523603     1.515960     1.508317     1.500674     1.493031     1.485388
      1.477745     1.470102     1.462458     1.454815     1.447172     1.439529     1.431886     1.424243     1.416600     1.408957
      1.401314     1.393671     1.386027     1.378384     1.370741     1.363098     1.355455     1.347812     1.340169     1.332526
      1.324883     1.317240     1.309596     1.301953     1.294310     1.286667     1.279024     1.271381     1.263738     1.256095
      1.248452     1.240808     1.233165     1.225522     1.217879     1.210236     1.202593     1.194950     1.187307     1.179664
      1.172021     1.164377     1.156734     1.149091     1.141448     1.133805     1.126162     1.118519     1.110876     1.103233
      1.095590     1.087946     1.080303     1.072660     1.065017     1.057374     1.049731     1.042088     1.034445     1.026802
      1.019158     1.011515     1.003872     0.996229     0.988586     0.980943     0.973300     0.965657     0.958014     0.950371
      0.942727     0.935084     0.927441     0.919798     0.912155     0.904512     0.896869     0.889226     0.881583     0.873940
      0.866296     0.858653     0.851010     0.843367     0.835724     0.828081     0.820438     0.812795     0.805152     0.797508
      0.789865     0.782222     0.774579     0.766936     0.759293     0.751650     0.744007     0.736364     0.728721     0.721077
      0.713434     0.705791     0.698148     0.690505     0.682862     0.675219     0.667576     0.659933     0.652290     0.644646
      0.637003     0.629360     0.621717     0.614074     0.606431     0.598788     0.591145     0.583502     0.575858     0.568215
      0.560572     0.552929     0.545286     0.537643     0.530000     0.522357     0.514714     0.507071     0.499427     0.491784
      0.484141     0.476498     0.468855     0.461212     0.453569     0.445925     0.438282     0.430639     0.422996     0.415353
      0.407710     0.400067     0.392424     0.384780     0.377137     0.369494     0.361851     0.354208     0.346565     0.338922
      0.331278     0.323635     0.315992     0.308349     0.300706     0.293063     0.285420     0.277777     0.270133     0.262490
      0.254847     0.247204     0.239561     0.231918     0.224275     0.216631     0.208988     0.201345
 NY phased data points follow
   2.81826E+01 -3.47775E-01  3.23140E+01  1.97912E+01  3.28663E+01  2.02221E+01  3.09037E+01  3.19461E+01  5.30681E+01  5.35979E+01
   6.07783E+01  4.94294E+01  5.30628E+01  3.83958E+01  4.56131E+01  2.91154E+01  4.15214E+01  2.03502E+01  1.97347E+01  2.08593E+01
   2.50460E+01  1.51893E+01  1.29841E+01  1.84355E+01  1.97130E+01  1.82232E+01  3.43425E+01  2.49733E+01  3.58003E+01  3.19478E+01
   3.99353E+01  2.76178E+01  3.71073E+01  2.27686E+01  1.77475E+01  1.44501E+01  2.80944E+01  1.97639E+01  2.72633E+01  1.74025E+01
   2.70042E+01  2.07965E+01  2.90776E+01  2.00463E+01  2.81877E+01  2.39698E+01  4.03802E+01  3.09543E+01  3.68349E+01  2.83689E+01
   3.03554E+01  1.91610E+01  1.99918E+01  2.27818E+01  2.52593E+01  1.92008E+01  2.64794E+01  2.21568E+01  1.71704E+01  2.24505E+01
   2.07398E+01  1.42690E+01  1.29525E+01  9.32629E+00  1.73262E+01  4.63620E+00  6.06417E+00  1.37169E+01  1.92283E+01  7.83749E+00
   1.70705E+01  3.37517E+00  3.15796E+01  1.24223E+01  1.69135E+01  4.28971E+00  1.63792E+01  5.03850E+00  2.12513E+01  6.84235E+00
   9.66049E+00  1.73717E+00  7.63169E+00  1.05988E+01  1.51470E+01  6.46154E+00  1.92287E+01  2.03220E+01  1.93242E+01  2.06856E+01
   2.30177E+01  1.90648E+01  1.18393E+01  1.55318E+01  1.31857E+01  6.70362E+00  4.28508E+00  1.82010E+01  2.99472E+01  2.83735E+01
   5.23059E+01  5.22465E+01  6.34719E+01  7.96786E+01  8.20941E+01  6.92803E+01  5.20038E+01  3.40946E+01  3.28156E+01  2.10480E+01
   2.87176E+01  1.96993E+01  1.68372E+01  9.08839E+00  2.48635E+01  1.46103E+01  1.76231E+01  1.84392E+01  2.01611E+01  1.59763E+01
   1.67718E+01  1.70938E+01  1.54601E+01  2.80115E+01  5.34404E+01  6.99788E+01  8.32724E+01  9.37509E+01  9.14853E+01  7.37332E+01
   6.18138E+01  3.91253E+01  3.63955E+01  8.06715E+00  2.78666E+01  2.17893E+01  1.30214E+01  1.39602E+01  1.05083E+01  6.99171E+00
   1.31382E+01  8.99558E+00  1.09315E+00  1.28290E+01  1.76055E+01  1.41958E+01  7.77247E+00  4.81731E+00  4.77115E+00 -3.39946E+00
   7.76262E+00  5.28075E+00  1.00800E+01 -2.85283E+00  1.38946E+01  3.89806E-01  5.71302E+00  5.09836E+00  4.72915E+00  1.91406E+00
   5.51373E+00  3.57251E+00  1.41263E+01 -5.45099E-02 -2.99376E+00  1.09009E+01 -6.97064E-01 -7.22543E-01 -7.54947E-02 -1.20018E+01
  -1.77478E+01 -9.34631E+00 -8.77746E+00 -2.07302E+01 -1.27950E+01 -2.02260E+01 -9.88410E+00 -1.84745E+01 -2.32287E+01 -2.75121E+01
  -1.36059E+01 -2.07412E+01 -4.42418E+00 -6.82426E+00 -3.60178E+00  5.15230E-01  5.86822E+00  5.31420E+00  9.31503E+00  7.55585E+00
   6.63401E+00 -3.32564E+00  6.58880E+00 -1.89127E+00  3.92185E+00 -1.30267E+01  8.54197E-01 -1.24020E+01 -9.45991E+00 -3.49288E+00
  -7.39937E-01  9.03080E+00  7.78612E+00  1.03119E+01  1.50824E+01  9.16649E+00  1.15658E+01  1.16268E+00  3.92113E-01 -4.44143E+00
   1.98572E+00  2.59523E+00  1.04375E+01  1.84604E+01  3.36066E+01  3.30475E+01  2.83966E+01  1.85960E+01  2.11941E+01  2.70091E+00
   5.41752E+00 -1.01601E+01 -6.08767E+00 -1.70239E+01  5.40553E+00  1.17264E+01  1.26690E+01  2.38002E+01  1.16163E+01  1.82829E+00
   1.61159E+01 -1.29599E+00  1.21405E+01  1.82465E+01  1.40787E+01  9.20933E+00  1.46673E+01  1.53193E+01  8.30968E+00  1.15917E+01
   7.97647E+00 -5.51399E-01  2.39091E+00  2.90130E+00  1.38301E+01  1.90512E+01  2.27298E+01  2.00565E+01  3.58976E+01  2.56230E+01
   1.77756E+01  2.40505E+01  2.48356E+01  4.33313E+01  5.32118E+01  6.09913E+01  8.47494E+01  1.21277E+02  1.44731E+02  1.80564E+02
   2.05390E+02  1.89489E+02  1.79466E+02  1.24948E+02  8.83682E+01  4.46367E+01  3.71816E+01  2.94442E+01  2.55821E+01  4.41321E+00
   1.56117E+01  6.54214E+00  1.08193E+01 -6.92092E-01  4.86416E+00  4.76756E+00  9.99603E+00 -6.02734E-01  4.45834E+00 -1.94065E+00
   3.19609E+00  3.41955E+00 -2.21606E+00  3.22871E+00  3.89820E+00 -8.63925E-01  4.94415E+00 -1.11338E+01  5.85642E+00  2.68732E+00
   9.85547E+00  4.57711E+00  5.25089E+00  4.67654E+00  9.49489E+00 -4.55149E+00  5.47659E+00  5.35431E+00  1.33191E+01  7.01873E+00
   1.17379E+01  1.54073E+01  1.56884E+01  8.82704E+00  1.11594E+01  9.11461E+00  9.41369E+00  1.15039E+01  1.82349E+01  1.78054E+01
   1.30398E+01  8.30229E+00  2.39343E+01  2.07903E+01  2.22149E+01  1.47460E+01  2.21350E+01  1.11346E+01  8.12363E+00  9.07151E+00
   1.13983E+01 -2.79013E+00 -3.83259E+00 -4.67157E+00  7.67398E+00 -8.44249E+00  2.69451E-01  1.72206E+00  4.14713E+00  7.87079E-01
   5.46278E+00 -1.23067E+00  1.01265E+01 -2.19998E+00  7.30562E+00  8.14922E+00  1.34108E+01  1.02216E+01  2.08702E+01  1.86918E+01
   2.60958E+01  1.90375E+01  1.86339E+01  1.39689E+01  1.91031E+01  1.57826E+01  2.13759E+01  1.25882E+01  1.76355E+01  6.34672E+00
   2.09078E+00  8.57920E+00  1.00663E+01  5.09599E+00  7.21243E+00  6.13948E-01  1.56018E+01  6.32960E+00  7.56409E+00  1.34686E+01
   2.00248E+01  1.88722E+01  1.44986E+01  1.06063E+01  8.39786E+00  1.97589E+00  1.47055E+01  1.82854E+01  1.38416E+01  6.26007E+00
   8.28610E+00  1.20741E+01  1.64058E+01  1.34267E+01  1.65577E+01  1.02505E+01  9.07062E+00 -3.18702E+00  6.76155E+00 -9.35427E+00
   5.76981E+00  8.65333E+00 -2.32863E+00  1.47716E+00  2.71957E+00  9.44279E-01  1.07201E+01  3.00477E+00  4.51507E+00 -4.35268E+00
   5.99953E+00  3.90442E+00  8.67335E+00 -7.07053E+00  1.62400E+01  1.47637E+01  1.30049E+01  1.17193E+01  1.81470E+01  1.97679E+01
   3.22368E+01  2.03279E+01  2.17171E+01  2.77845E+01  1.46611E+01  1.06518E+01  2.37194E+01  2.29704E+01  9.41851E+00  6.93813E+00
   1.76278E+01 -5.29584E-01  1.09816E+01  4.89455E+00 -1.46852E+00 -2.49574E+00  3.57209E-01  3.10291E+00 -3.82728E+00 -3.57213E+00
   4.57683E+00 -3.71654E+00  1.63285E+00 -1.08705E+01  2.79995E+00 -1.44645E+01 -2.78471E-01 -5.87584E+00 -8.47745E+00 -7.81186E+00
   1.75415E+00 -5.84044E+00 -6.37618E+00 -6.42455E+00 -1.68290E-01 -1.11434E+01 -7.48464E+00 -7.11523E+00 -1.18000E+01 -3.26979E+00
  -5.33640E+00 -1.15044E+01 -3.80180E+00 -8.66623E-01 -2.22916E+00 -1.06162E+01 -1.04779E+01 -2.22864E+01 -6.49663E+00 -8.98956E+00
  -1.66619E+01 -4.61582E+00 -8.55619E+00 -2.24140E+00 -4.17042E+00 -1.11542E+01 -1.92342E+01 -1.48692E+00 -7.40001E+00 -1.35242E+01
  -1.15339E+01  3.52369E-01 -7.78797E+00 -5.25304E+00 -1.15490E+01 -9.09768E+00 -2.15099E+00  4.80822E-01  2.51317E+00  2.83491E+00
  -5.82349E+00 -6.51749E+00  2.53348E+00 -4.73381E+00  2.59093E+00  1.26437E-01 -6.61079E-01 -5.07292E+00 -1.67626E+00 -7.71674E-01
   5.23536E-01 -1.00381E+01  2.78581E+00 -6.02354E+00 -4.05545E+00 -6.58696E+00 -9.83393E+00 -4.01772E+00  1.07868E+01 -8.03670E+00
  -1.30097E+00 -1.94810E+00  6.37978E-02 -4.96513E+00 -5.07509E-01  2.22256E+00 -6.17425E+00 -1.02253E+00
 NY points of the fit to the data follow
   1.53014E+01  1.48831E+01  1.52422E+01  1.67893E+01  1.98562E+01  2.45799E+01  3.11958E+01  3.90426E+01  4.69885E+01  5.34320E+01
   5.69576E+01  5.67561E+01  5.28768E+01  4.64201E+01  3.90039E+01  3.20338E+01  2.64010E+01  2.27869E+01  2.05487E+01  1.88891E+01
   1.81507E+01  1.78707E+01  1.76231E+01  1.79108E+01  1.90605E+01  2.11959E+01  2.44732E+01  2.86970E+01  3.33176E+01  3.72107E+01
   3.92824E+01  3.89087E+01  3.62616E+01  3.21583E+01  2.75731E+01  2.29750E+01  1.84158E+01  1.51666E+01  1.37423E+01  1.35347E+01
   1.43009E+01  1.60124E+01  1.86990E+01  2.20836E+01  2.57919E+01  2.94638E+01  3.23094E+01  3.32197E+01  3.17074E+01  2.79512E+01
   2.29629E+01  1.82652E+01  1.49654E+01  1.31533E+01  1.24525E+01  1.28264E+01  1.41497E+01  1.58704E+01  1.74618E+01  1.85532E+01
   1.88292E+01  1.81821E+01  1.67470E+01  1.50540E+01  1.37009E+01  1.30274E+01  1.30451E+01  1.35980E+01  1.44056E+01  1.52578E+01
   1.61221E+01  1.68832E+01  1.74520E+01  1.77177E+01  1.75871E+01  1.70520E+01  1.60987E+01  1.49156E+01  1.36611E+01  1.26065E+01
   1.21842E+01  1.26811E+01  1.37956E+01  1.51689E+01  1.65706E+01  1.76372E+01  1.80607E+01  1.76059E+01  1.62733E+01  1.44215E+01
   1.27124E+01  1.16059E+01  1.11243E+01  1.09549E+01  1.07957E+01  1.10068E+01  1.19287E+01  1.49550E+01  2.15670E+01  3.16293E+01
   4.46918E+01  5.91113E+01  7.20408E+01  7.95715E+01  7.87216E+01  6.93982E+01  5.47726E+01  3.98540E+01  2.83334E+01  2.06902E+01
   1.50708E+01  1.13286E+01  1.00400E+01  9.57588E+00  9.34416E+00  9.17081E+00  9.06517E+00  9.04173E+00  9.18155E+00  9.67633E+00
   1.12084E+01  1.57044E+01  2.43744E+01  3.69986E+01  5.26536E+01  6.91678E+01  8.31280E+01  9.03763E+01  8.81248E+01  7.69710E+01
   6.07744E+01  4.45388E+01  3.15542E+01  2.17771E+01  1.36585E+01  8.22250E+00  6.09988E+00  6.06976E+00  7.34170E+00  9.09394E+00
   1.06131E+01  1.15395E+01  1.16777E+01  1.11363E+01  1.02993E+01  9.41996E+00  8.59871E+00  7.87490E+00  7.14353E+00  6.49267E+00
   5.90624E+00  5.39486E+00  5.01495E+00  4.81445E+00  4.77835E+00  4.71638E+00  4.45747E+00  3.88775E+00  2.97600E+00  1.93634E+00
   1.04691E+00  6.39237E-01  8.85636E-01  1.62292E+00  2.36967E+00  2.52985E+00  1.85084E+00  6.18592E-01 -6.35161E-01 -1.69217E+00
  -2.60193E+00 -3.54153E+00 -4.58058E+00 -5.55535E+00 -6.34467E+00 -6.89455E+00 -6.98636E+00 -6.53092E+00 -5.84067E+00 -5.33040E+00
  -5.26090E+00 -5.58381E+00 -5.83784E+00 -5.51055E+00 -4.57302E+00 -3.14442E+00 -9.92127E-01  1.95954E+00  5.48247E+00  8.75377E+00
   1.07969E+01  1.11674E+01  9.96676E+00  7.92038E+00  5.95111E+00  4.56521E+00  4.06243E+00  4.65423E+00  6.26420E+00  8.59714E+00
   1.12846E+01  1.37940E+01  1.56685E+01  1.64211E+01  1.54093E+01  1.25910E+01  8.29702E+00  3.24285E+00 -1.37799E+00 -4.23448E+00
  -4.26193E+00 -1.49795E+00  3.54072E+00  9.74089E+00  1.56147E+01  1.94925E+01  1.98815E+01  1.61538E+01  8.99033E+00  7.51028E-01
  -6.17663E+00 -1.02705E+01 -1.08043E+01 -7.81412E+00 -1.89480E+00  4.90759E+00  1.04440E+01  1.36452E+01  1.46628E+01  1.43812E+01
   1.35414E+01  1.28315E+01  1.28879E+01  1.39362E+01  1.54174E+01  1.67156E+01  1.72286E+01  1.66043E+01  1.50005E+01  1.27508E+01
   1.05303E+01  9.13137E+00  9.12297E+00  1.05245E+01  1.29147E+01  1.57176E+01  1.80229E+01  1.93361E+01  1.98020E+01  2.02419E+01
   2.17025E+01  2.44957E+01  2.88484E+01  3.51914E+01  4.62590E+01  6.50302E+01  9.01869E+01  1.20503E+02  1.52735E+02  1.81147E+02
   1.97132E+02  1.93149E+02  1.68237E+02  1.29651E+02  9.01256E+01  5.94471E+01  3.91286E+01  2.42118E+01  1.37406E+01  1.00061E+01
   8.59500E+00  7.87956E+00  7.63677E+00  7.65480E+00  7.64960E+00  7.49454E+00  7.11072E+00  6.53258E+00  5.87580E+00  5.25892E+00
   4.72822E+00  4.31123E+00  4.03123E+00  3.86782E+00  3.76825E+00  3.68148E+00  3.59888E+00  3.54842E+00  3.55788E+00  3.63951E+00
   3.81652E+00  4.10564E+00  4.50074E+00  4.97638E+00  5.51849E+00  6.12065E+00  6.78240E+00  7.50973E+00  8.30175E+00  9.14618E+00
   1.00300E+01  1.09281E+01  1.18020E+01  1.26102E+01  1.33152E+01  1.38893E+01  1.43122E+01  1.45666E+01  1.46472E+01  1.45563E+01
   1.43004E+01  1.38945E+01  1.33599E+01  1.27238E+01  1.20172E+01  1.12739E+01  1.05279E+01  9.81310E+00  9.16278E+00  8.61219E+00
   8.20656E+00  8.01025E+00  7.99760E+00  8.07169E+00  8.13280E+00  8.04999E+00  7.69665E+00  6.99570E+00  6.00914E+00  5.01554E+00
   4.39081E+00  4.36860E+00  4.99957E+00  6.14770E+00  7.62078E+00  9.26229E+00  1.07808E+01  1.18826E+01  1.25330E+01  1.28981E+01
   1.32614E+01  1.39065E+01  1.48208E+01  1.57504E+01  1.65372E+01  1.68107E+01  1.62054E+01  1.44594E+01  1.16457E+01  8.47673E+00
   5.95052E+00  4.79888E+00  5.28722E+00  7.11334E+00  9.68160E+00  1.24649E+01  1.48401E+01  1.60499E+01  1.60215E+01  1.51706E+01
   1.40656E+01  1.30287E+01  1.19724E+01  1.09599E+01  1.01655E+01  9.48205E+00  8.84859E+00  8.24404E+00  7.66068E+00  7.09726E+00
   6.55532E+00  6.03837E+00  5.55041E+00  5.09634E+00  4.68121E+00  4.31070E+00  3.99031E+00  3.72589E+00  3.52312E+00  3.38825E+00
   3.32762E+00  3.34802E+00  3.45592E+00  3.65780E+00  3.95936E+00  4.36583E+00  4.88084E+00  5.50620E+00  6.24063E+00  7.07964E+00
   8.01454E+00  9.03254E+00  1.01158E+01  1.12418E+01  1.23833E+01  1.35093E+01  1.45860E+01  1.55786E+01  1.64521E+01  1.71739E+01
   1.77148E+01  1.80516E+01  1.81678E+01  1.80551E+01  1.77137E+01  1.71521E+01  1.63866E+01  1.54406E+01  1.43431E+01  1.31267E+01
   1.18257E+01  1.04745E+01  9.10590E+00  7.74996E+00  6.43254E+00  5.17502E+00  3.99338E+00  2.89886E+00  1.89788E+00  9.93111E-01
   1.83517E-01 -5.34490E-01 -1.16686E+00 -1.72055E+00 -2.20343E+00 -2.62324E+00 -2.98789E+00 -3.30472E+00 -3.58078E+00 -3.82208E+00
  -4.03404E+00 -4.22108E+00 -4.38729E+00 -4.53597E+00 -4.67016E+00 -4.79202E+00 -4.90354E+00 -5.00611E+00 -5.10120E+00 -5.18988E+00
  -5.27322E+00 -5.35177E+00 -5.42619E+00 -5.49684E+00 -5.56438E+00 -5.62914E+00 -5.69157E+00 -5.75172E+00 -5.80989E+00 -5.86617E+00
  -5.92096E+00 -5.97433E+00 -6.02651E+00 -6.07737E+00 -6.12712E+00 -6.17578E+00 -6.22365E+00 -6.27070E+00 -6.31705E+00 -6.36256E+00
  -6.40740E+00 -6.45160E+00 -6.49537E+00 -6.53860E+00 -6.58135E+00 -6.62349E+00 -6.66524E+00 -6.70656E+00 -6.74767E+00 -6.78836E+00
  -6.82871E+00 -6.86858E+00 -6.90822E+00 -6.94756E+00 -6.98674E+00 -7.02554E+00 -7.06407E+00 -7.10223E+00 -7.14026E+00 -7.17808E+00
  -7.21575E+00 -7.25307E+00 -7.29016E+00 -7.32694E+00 -7.36365E+00 -7.40013E+00 -7.43643E+00 -7.47236E+00 -7.50808E+00 -7.54351E+00
  -7.57885E+00 -7.61391E+00 -7.64871E+00 -7.68307E+00 -7.71717E+00 -7.75093E+00 -7.78448E+00 -7.81756E+00
 NY background values follow
     9.423E+00    9.388E+00    9.354E+00    9.319E+00    9.285E+00    9.250E+00    9.216E+00    9.181E+00    9.147E+00    9.112E+00
     9.078E+00    9.043E+00    9.009E+00    8.974E+00    8.940E+00    8.905E+00    8.870E+00    8.836E+00    8.801E+00    8.767E+00
     8.732E+00    8.698E+00    8.663E+00    8.629E+00    8.594E+00    8.560E+00    8.525E+00    8.491E+00    8.456E+00    8.421E+00
     8.387E+00    8.352E+00    8.318E+00    8.283E+00    8.249E+00    8.214E+00    8.180E+00    8.145E+00    8.111E+00    8.076E+00
     8.042E+00    8.007E+00    7.972E+00    7.938E+00    7.903E+00    7.869E+00    7.834E+00    7.800E+00    7.765E+00    7.731E+00
     7.696E+00    7.662E+00    7.627E+00    7.593E+00    7.558E+00    7.523E+00    7.489E+00    7.454E+00    7.420E+00    7.385E+00
     7.351E+00    7.316E+00    7.282E+00    7.247E+00    7.213E+00    7.178E+00    7.144E+00    7.109E+00    7.074E+00    7.040E+00
     7.005E+00    6.971E+00    6.936E+00    6.902E+00    6.867E+00    6.833E+00    6.798E+00    6.764E+00    6.729E+00    6.695E+00
     6.660E+00    6.625E+00    6.591E+00    6.556E+00    6.522E+00    6.487E+00    6.453E+00    6.418E+00    6.384E+00    6.349E+00
     6.315E+00    6.280E+00    6.246E+00    6.211E+00    6.176E+00    6.142E+00    6.107E+00    6.073E+00    6.038E+00    6.004E+00
     5.969E+00    5.935E+00    5.900E+00    5.866E+00    5.831E+00    5.797E+00    5.762E+00    5.727E+00    5.693E+00    5.658E+00
     5.624E+00    5.589E+00    5.555E+00    5.520E+00    5.486E+00    5.451E+00    5.417E+00    5.382E+00    5.348E+00    5.313E+00
     5.279E+00    5.244E+00    5.209E+00    5.175E+00    5.140E+00    5.106E+00    5.071E+00    5.037E+00    5.002E+00    4.968E+00
     4.933E+00    4.899E+00    4.864E+00    4.830E+00    4.795E+00    4.761E+00    4.726E+00    4.691E+00    4.657E+00    4.622E+00
     4.588E+00    4.553E+00    4.519E+00    4.484E+00    4.450E+00    4.415E+00    4.381E+00    4.346E+00    4.312E+00    4.277E+00
     4.243E+00    4.208E+00    4.174E+00    4.139E+00    4.104E+00    4.070E+00    4.035E+00    4.001E+00    3.966E+00    3.932E+00
     3.897E+00    3.863E+00    3.828E+00    3.794E+00    3.759E+00    3.725E+00    3.690E+00    3.656E+00    3.621E+00    3.587E+00
     3.552E+00    3.518E+00    3.483E+00    3.449E+00    3.414E+00    3.380E+00    3.345E+00    3.310E+00    3.276E+00    3.241E+00
     3.207E+00    3.172E+00    3.138E+00    3.103E+00    3.069E+00    3.034E+00    3.000E+00    2.965E+00    2.931E+00    2.896E+00
     2.862E+00    2.827E+00    2.793E+00    2.758E+00    2.724E+00    2.689E+00    2.655E+00    2.620E+00    2.586E+00    2.551E+00
     2.517E+00    2.482E+00    2.448E+00    2.413E+00    2.379E+00    2.344E+00    2.310E+00    2.275E+00    2.241E+00    2.206E+00
     2.172E+00    2.137E+00    2.103E+00    2.068E+00    2.034E+00    1.999E+00    1.965E+00    1.930E+00    1.896E+00    1.861E+00
     1.827E+00    1.792E+00    1.758E+00    1.723E+00    1.689E+00    1.654E+00    1.620E+00    1.585E+00    1.551E+00    1.516E+00
     1.482E+00    1.447E+00    1.413E+00    1.378E+00    1.344E+00    1.309E+00    1.275E+00    1.240E+00    1.206E+00    1.171E+00
     1.137E+00    1.102E+00    1.068E+00    1.033E+00    9.989E-01    9.644E-01    9.299E-01    8.954E-01    8.609E-01    8.265E-01
     7.920E-01    7.575E-01    7.230E-01    6.885E-01    6.541E-01    6.196E-01    5.851E-01    5.506E-01    5.161E-01    4.817E-01
     4.472E-01    4.127E-01    3.783E-01    3.438E-01    3.093E-01    2.748E-01    2.404E-01    2.059E-01    1.714E-01    1.370E-01
     1.025E-01    6.802E-02    3.356E-02   -9.110E-04   -3.538E-02   -6.984E-02   -1.043E-01   -1.388E-01   -1.732E-01   -2.077E-01
    -2.422E-01   -2.766E-01   -3.111E-01   -3.455E-01   -3.800E-01   -4.145E-01   -4.489E-01   -4.834E-01   -5.178E-01   -5.523E-01
    -5.867E-01   -6.212E-01   -6.556E-01   -6.901E-01   -7.246E-01   -7.590E-01   -7.935E-01   -8.279E-01   -8.624E-01   -8.968E-01
    -9.313E-01   -9.657E-01   -1.000E+00   -1.035E+00   -1.069E+00   -1.103E+00   -1.138E+00   -1.172E+00   -1.207E+00   -1.241E+00
    -1.276E+00   -1.310E+00   -1.345E+00   -1.379E+00   -1.413E+00   -1.448E+00   -1.482E+00   -1.517E+00   -1.551E+00   -1.586E+00
    -1.620E+00   -1.655E+00   -1.689E+00   -1.723E+00   -1.758E+00   -1.792E+00   -1.827E+00   -1.861E+00   -1.896E+00   -1.930E+00
    -1.964E+00   -1.999E+00   -2.033E+00   -2.068E+00   -2.102E+00   -2.137E+00   -2.171E+00   -2.205E+00   -2.240E+00   -2.274E+00
    -2.309E+00   -2.343E+00   -2.377E+00   -2.412E+00   -2.446E+00   -2.481E+00   -2.515E+00   -2.550E+00   -2.584E+00   -2.618E+00
    -2.653E+00   -2.687E+00   -2.722E+00   -2.756E+00   -2.790E+00   -2.825E+00   -2.859E+00   -2.894E+00   -2.928E+00   -2.962E+00
    -2.997E+00   -3.031E+00   -3.066E+00   -3.100E+00   -3.134E+00   -3.169E+00   -3.203E+00   -3.238E+00   -3.272E+00   -3.306E+00
    -3.341E+00   -3.375E+00   -3.410E+00   -3.444E+00   -3.478E+00   -3.513E+00   -3.547E+00   -3.582E+00   -3.616E+00   -3.650E+00
    -3.685E+00   -3.719E+00   -3.754E+00   -3.788E+00   -3.822E+00   -3.857E+00   -3.891E+00   -3.926E+00   -3.960E+00   -3.994E+00
    -4.029E+00   -4.063E+00   -4.097E+00   -4.132E+00   -4.166E+00   -4.201E+00   -4.235E+00   -4.269E+00   -4.304E+00   -4.338E+00
    -4.372E+00   -4.407E+00   -4.441E+00   -4.476E+00   -4.510E+00   -4.544E+00   -4.579E+00   -4.613E+00   -4.647E+00   -4.682E+00
    -4.716E+00   -4.750E+00   -4.785E+00   -4.819E+00   -4.854E+00   -4.888E+00   -4.922E+00   -4.957E+00   -4.991E+00   -5.025E+00
    -5.060E+00   -5.094E+00   -5.128E+00   -5.163E+00   -5.197E+00   -5.232E+00   -5.266E+00   -5.300E+00   -5.335E+00   -5.369E+00
    -5.403E+00   -5.438E+00   -5.472E+00   -5.506E+00   -5.541E+00   -5.575E+00   -5.609E+00   -5.644E+00   -5.678E+00   -5.712E+00
    -5.747E+00   -5.781E+00   -5.815E+00   -5.850E+00   -5.884E+00   -5.918E+00   -5.953E+00   -5.987E+00   -6.021E+00   -6.056E+00
    -6.090E+00   -6.124E+00   -6.159E+00   -6.193E+00   -6.227E+00   -6.262E+00   -6.296E+00   -6.330E+00   -6.365E+00   -6.399E+00
    -6.433E+00   -6.468E+00   -6.502E+00   -6.536E+00   -6.571E+00   -6.605E+00   -6.639E+00   -6.674E+00   -6.708E+00   -6.742E+00
    -6.777E+00   -6.811E+00   -6.845E+00   -6.879E+00   -6.914E+00   -6.948E+00   -6.982E+00   -7.017E+00   -7.051E+00   -7.085E+00
    -7.120E+00   -7.154E+00   -7.188E+00   -7.223E+00   -7.257E+00   -7.291E+00   -7.325E+00   -7.360E+00   -7.394E+00   -7.428E+00
    -7.463E+00   -7.497E+00   -7.531E+00   -7.565E+00   -7.600E+00   -7.634E+00   -7.668E+00   -7.703E+00
 Ala      Conc. = 2.09E+02
