 LCModel (Version 6.3-1L) Copyright: S.W. Provencher.          Ref.: Magn. Reson. Med. 30:672-679 (1993).                
 Slice#1 Row#7 Col#10  PD_05_press_2_raw_act
 36 lines in following concentration table = NCONC+1
    Conc.  %SD /Cr+PCr  Metabolite                                         
  228.766  61%   0.275 Ala                                                 
    0.000 999%   0.000 Asp                                                 
  408.626  54%   0.491 Cr                                                  
  424.366  53%   0.509 PCr                                                 
   95.828 141%   0.115 GABA                                                
  151.780  91%   0.182 Glc                                                 
  491.708  58%   0.590 Gln                                                 
 1.14E+03  29%   1.364 Glu                                                 
  424.634   7%   0.510 GPC                                                 
    0.000 999%   0.000 PCh                                                 
  275.814  36%   0.331 GSH                                                 
 1.29E+03  25%   1.547 Ins                                                 
  475.815  33%   0.571 Lac                                                 
 2.08E+03   9%   2.500 NAA                                                 
  628.909  29%   0.755 NAAG                                                
   68.311  47% 8.2E-02 Scyllo                                              
  393.120  51%   0.472 Tau                                                 
  480.263  26%   0.577 -CrCH2                                              
  424.634   7%   0.510 GPC+PCh                                             
 2.71E+03   4%   3.255 NAA+NAAG                                            
  832.992  10%   1.000 Cr+PCr                                              
 1.63E+03  27%   1.954 Glu+Gln                                             
 3.06E+03  23%   3.677 Lip13a                                              
    0.000 999%   0.000 Lip13b                                              
  739.433  50%   0.888 Lip09                                               
  852.580  44%   1.024 MM09                                                
  457.537  59%   0.549 Lip20                                               
 1.66E+03  31%   1.996 MM20                                                
  218.368  94%   0.262 MM12                                                
  552.482  91%   0.663 MM14                                                
  447.902  57%   0.538 MM17                                                
 3.06E+03  23%   3.677 Lip13a+Lip13b                                       
 3.83E+03  13%   4.603 MM14+Lip13a+Lip13b+MM12                             
 1.59E+03  15%   1.911 MM09+Lip09                                          
 2.12E+03  23%   2.546 MM20+Lip20                                          
   6 lines in following misc. output table
  FWHM = 0.038 ppm    S/N =   8                                            
  Data shift = 0.008 ppm                                                   
  Ph: -31 deg      -5.3 deg/ppm                                            
  alphaB,S = 8.5E+01,   5.1E+01                                            
   14 spline knots.   Ns = 6(1)                                            
   2 inflections.     1 extrema                                            
  498 points on ppm-axis = NY
      4.000000     3.992357     3.984714     3.977070     3.969427     3.961784     3.954141     3.946497     3.938854     3.931211
      3.923568     3.915925     3.908281     3.900638     3.892995     3.885352     3.877708     3.870065     3.862422     3.854779
      3.847136     3.839492     3.831849     3.824206     3.816563     3.808919     3.801276     3.793633     3.785990     3.778347
      3.770703     3.763060     3.755417     3.747774     3.740130     3.732487     3.724844     3.717201     3.709558     3.701914
      3.694271     3.686628     3.678985     3.671341     3.663698     3.656055     3.648412     3.640769     3.633125     3.625482
      3.617839     3.610196     3.602552     3.594909     3.587266     3.579623     3.571980     3.564336     3.556693     3.549050
      3.541407     3.533763     3.526120     3.518477     3.510834     3.503191     3.495547     3.487904     3.480261     3.472618
      3.464974     3.457331     3.449688     3.442045     3.434402     3.426758     3.419115     3.411472     3.403829     3.396185
      3.388542     3.380899     3.373256     3.365613     3.357969     3.350326     3.342683     3.335040     3.327396     3.319753
      3.312110     3.304467     3.296824     3.289180     3.281537     3.273894     3.266251     3.258607     3.250964     3.243321
      3.235678     3.228034     3.220391     3.212748     3.205105     3.197462     3.189818     3.182175     3.174532     3.166889
      3.159245     3.151602     3.143959     3.136316     3.128673     3.121029     3.113386     3.105743     3.098100     3.090456
      3.082813     3.075170     3.067527     3.059884     3.052240     3.044597     3.036954     3.029311     3.021667     3.014024
      3.006381     2.998738     2.991095     2.983451     2.975808     2.968165     2.960522     2.952878     2.945235     2.937592
      2.929949     2.922306     2.914662     2.907019     2.899376     2.891733     2.884089     2.876446     2.868803     2.861160
      2.853517     2.845873     2.838230     2.830587     2.822944     2.815300     2.807657     2.800014     2.792371     2.784728
      2.777084     2.769441     2.761798     2.754155     2.746511     2.738868     2.731225     2.723582     2.715939     2.708295
      2.700652     2.693009     2.685366     2.677722     2.670079     2.662436     2.654793     2.647150     2.639506     2.631863
      2.624220     2.616577     2.608933     2.601290     2.593647     2.586004     2.578361     2.570717     2.563074     2.555431
      2.547788     2.540144     2.532501     2.524858     2.517215     2.509572     2.501928     2.494285     2.486642     2.478999
      2.471355     2.463712     2.456069     2.448426     2.440783     2.433139     2.425496     2.417853     2.410210     2.402566
      2.394923     2.387280     2.379637     2.371994     2.364350     2.356707     2.349064     2.341421     2.333777     2.326134
      2.318491     2.310848     2.303205     2.295561     2.287918     2.280275     2.272632     2.264988     2.257345     2.249702
      2.242059     2.234416     2.226772     2.219129     2.211486     2.203843     2.196199     2.188556     2.180913     2.173270
      2.165627     2.157983     2.150340     2.142697     2.135054     2.127410     2.119767     2.112124     2.104481     2.096838
      2.089194     2.081551     2.073908     2.066265     2.058621     2.050978     2.043335     2.035692     2.028049     2.020405
      2.012762     2.005119     1.997476     1.989833     1.982190     1.974546     1.966903     1.959260     1.951617     1.943974
      1.936331     1.928688     1.921045     1.913402     1.905759     1.898115     1.890472     1.882829     1.875186     1.867543
      1.859900     1.852257     1.844614     1.836971     1.829327     1.821684     1.814041     1.806398     1.798755     1.791112
      1.783469     1.775826     1.768183     1.760540     1.752896     1.745253     1.737610     1.729967     1.722324     1.714681
      1.707038     1.699395     1.691752     1.684108     1.676465     1.668822     1.661179     1.653536     1.645893     1.638250
      1.630607     1.622964     1.615321     1.607677     1.600034     1.592391     1.584748     1.577105     1.569462     1.561819
      1.554176     1.546533     1.538890     1.531246     1.523603     1.515960     1.508317     1.500674     1.493031     1.485388
      1.477745     1.470102     1.462458     1.454815     1.447172     1.439529     1.431886     1.424243     1.416600     1.408957
      1.401314     1.393671     1.386027     1.378384     1.370741     1.363098     1.355455     1.347812     1.340169     1.332526
      1.324883     1.317240     1.309596     1.301953     1.294310     1.286667     1.279024     1.271381     1.263738     1.256095
      1.248452     1.240808     1.233165     1.225522     1.217879     1.210236     1.202593     1.194950     1.187307     1.179664
      1.172021     1.164377     1.156734     1.149091     1.141448     1.133805     1.126162     1.118519     1.110876     1.103233
      1.095590     1.087946     1.080303     1.072660     1.065017     1.057374     1.049731     1.042088     1.034445     1.026802
      1.019158     1.011515     1.003872     0.996229     0.988586     0.980943     0.973300     0.965657     0.958014     0.950371
      0.942727     0.935084     0.927441     0.919798     0.912155     0.904512     0.896869     0.889226     0.881583     0.873940
      0.866296     0.858653     0.851010     0.843367     0.835724     0.828081     0.820438     0.812795     0.805152     0.797508
      0.789865     0.782222     0.774579     0.766936     0.759293     0.751650     0.744007     0.736364     0.728721     0.721077
      0.713434     0.705791     0.698148     0.690505     0.682862     0.675219     0.667576     0.659933     0.652290     0.644646
      0.637003     0.629360     0.621717     0.614074     0.606431     0.598788     0.591145     0.583502     0.575858     0.568215
      0.560572     0.552929     0.545286     0.537643     0.530000     0.522357     0.514714     0.507071     0.499427     0.491784
      0.484141     0.476498     0.468855     0.461212     0.453569     0.445925     0.438282     0.430639     0.422996     0.415353
      0.407710     0.400067     0.392424     0.384780     0.377137     0.369494     0.361851     0.354208     0.346565     0.338922
      0.331278     0.323635     0.315992     0.308349     0.300706     0.293063     0.285420     0.277777     0.270133     0.262490
      0.254847     0.247204     0.239561     0.231918     0.224275     0.216631     0.208988     0.201345
 NY phased data points follow
   1.16685E+00  1.37037E+01  4.80251E+00  1.57214E+01  9.33328E+00  1.33706E+00  1.31326E+00  1.45381E+01  1.15359E+01  1.17698E+01
   2.43783E+00  1.41542E+01  1.04852E+01  1.08982E+01  1.08515E+01  2.18720E+01  9.20122E+00  1.63261E+01  5.01638E+00  1.17776E+01
   8.89055E-01  1.10745E+01  1.27905E+01  8.61219E+00  5.43764E+00  6.93176E+00 -2.73638E+00  1.11947E+01  5.30763E+00  8.69480E+00
   1.22636E+01  1.45043E+01  7.84194E+00  6.89353E+00  1.59215E+01  1.41276E+01  1.39725E+01  7.89084E+00  1.13035E+01  1.01878E+01
   1.26085E+01  1.06532E+01  5.72383E+00  9.85819E+00  1.37571E+01  1.57376E+01  1.63096E+01  2.25245E+01  9.54226E+00  1.58075E+01
   1.54858E+01  1.05175E+01  9.62301E+00  1.21144E+01  4.89047E+00  6.11180E+00  1.61964E+01  7.78180E+00  1.27952E+01  1.46227E+01
   7.03871E+00  1.04562E+01  1.34752E+00  1.25817E+01  1.54173E+00  3.89319E+00  4.56029E+00  6.69591E+00  2.53285E+00  7.88891E-01
   6.75462E+00  3.57646E+00 -4.82807E-01  4.66194E+00  1.02477E+01  1.10610E+01  8.07647E+00  1.40041E+01  8.49678E+00  1.23709E+01
  -4.15296E-01  1.13716E+01  1.61896E+00  1.65245E+01 -5.26965E+00  1.06977E+01  1.09324E+01  6.35291E-01  1.05789E+01  9.53191E+00
   2.32896E+00  8.46862E+00  5.77247E+00  6.80834E+00  7.30387E+00  1.48056E+01  9.46961E+00  1.08283E+01  9.72293E+00  1.58726E+01
   2.18775E+01  3.67355E+01  4.25033E+01  5.01872E+01  4.95908E+01  4.34560E+01  2.94877E+01  2.15771E+01  2.60325E+01  1.65870E+01
   6.33206E+00  1.18563E+01  9.84925E+00  1.08682E+01 -9.21711E-01  1.07252E+01  6.98450E+00  1.30611E+01  5.18970E+00  1.08972E+01
   3.76038E+00  7.04685E+00  3.66516E+00  8.62613E+00  6.44334E+00  2.12648E+01  3.45387E+01  3.43518E+01  3.98369E+01  4.04308E+01
   2.63136E+01  2.30458E+01  1.57069E+01  1.15666E+01  4.94997E+00  1.17174E+01  1.01716E+01  2.86586E+00  4.62400E+00  7.84237E+00
   7.95304E-01  2.06622E+01  1.59305E+01  8.09472E+00  4.82934E+00  7.42210E-01  3.11220E+00 -6.65660E-01  7.21901E+00  4.94824E+00
  -2.67250E-01  3.60980E+00  8.28421E+00  6.21878E+00  6.94998E+00  6.07486E+00  2.53828E+00  1.03147E+01  8.15717E+00  1.91400E+01
   4.44464E+00  1.20564E+01  5.02577E+00  7.59885E+00  1.48868E-01 -2.40107E+00 -1.70464E+00 -5.76300E+00  1.41354E+00 -1.01288E+01
  -1.15334E+01 -6.79640E+00 -1.09257E+01 -1.49206E+01 -9.64854E+00 -9.68383E+00 -9.80603E+00 -1.13744E+01 -1.74858E+01 -3.56918E+00
  -1.10745E+01 -5.70583E+00  1.51314E+00 -2.42466E+00 -3.52329E+00 -4.82799E+00 -2.43674E+00 -5.32586E-01 -1.06895E+01  3.22857E-01
   3.71593E+00 -3.07660E+00  1.15323E+00 -3.77276E+00 -1.55404E+00  5.06024E+00 -6.03191E+00 -1.33998E+01 -7.29967E+00 -1.07314E+01
  -5.04287E+00  5.79064E+00 -3.68428E+00  7.65872E+00 -3.19708E+00  1.02615E+01  3.18176E+00  3.64571E+00 -4.62606E+00  8.11002E+00
  -7.32549E-01  1.75922E+00  4.65078E+00  9.45353E+00  1.17978E+01  1.58486E+01  1.51558E+01  1.38538E+01  1.03208E+01  3.34632E+00
   1.07344E+00 -6.21475E-01  4.25440E+00 -1.88184E+00  5.80490E+00 -6.17373E+00  1.08337E+01  2.75410E+00  6.42396E+00  1.48513E+01
   4.15812E+00  1.09349E+01  1.17909E+01  6.06958E+00  6.18158E+00  1.64969E+01  1.22798E+01  7.27512E+00  1.67559E+01  1.77400E+01
   1.68453E+01 -1.04085E+00  2.48913E+00  4.90240E+00  3.51917E+00  1.03843E+01  1.05362E+00  1.19988E+01  1.01375E+01  6.34812E+00
   9.97246E+00  8.92084E+00  1.28731E+01  2.84123E+01  3.85477E+01  4.09718E+01  4.18592E+01  5.60257E+01  8.14765E+01  1.02513E+02
   1.04261E+02  1.03316E+02  7.92311E+01  5.98031E+01  3.42600E+01  2.68974E+01  1.74402E+01  1.37660E+01  1.16581E+01  9.13464E+00
   3.63975E+00  1.09193E+01  2.04729E+00  1.87109E+01  4.33715E+00  7.50282E+00  4.22178E+00 -1.05253E+00  7.64626E+00  3.93633E+00
   4.19692E+00  3.12414E+00  7.15437E+00  1.06753E+00  1.05961E+01  1.47426E+01  1.71161E+00  2.52591E-01  6.30626E+00  3.86710E-01
   6.06925E+00  3.22066E+00  1.22428E+01  9.95197E+00  1.63678E+01  3.08364E+00  1.14376E+01 -1.63920E+00  5.27819E+00  3.81444E+00
   6.02840E+00  1.10750E+01  4.00772E+00  1.45163E+01 -5.56126E+00  5.81831E+00  7.06143E+00  8.82893E-01  2.86579E+00  1.07807E+01
   8.07889E+00  5.61618E+00 -7.08475E+00  5.08080E+00  2.72744E+00  1.36028E+01  1.03234E+01  1.05902E+01  9.20457E+00  9.11416E+00
   6.54267E+00  8.38399E+00 -3.25522E+00  1.24389E+01  1.08641E+01  7.85739E+00  9.07575E+00  1.39752E+01 -5.32241E+00  7.30434E+00
   3.54170E+00  2.37611E+00  9.28256E+00  7.02406E+00  1.07087E+00  2.40790E+00  9.53838E+00  1.24036E+01  6.13878E+00  1.07476E+01
   5.40949E+00  1.20177E+01  2.48304E+01  1.79346E+01  2.37292E+01  2.51132E+01  2.61878E+01  2.85249E+01  2.54413E+01  3.43894E+01
   1.73775E+01  1.94071E+01  1.92573E+01  1.66081E+01  8.40488E+00  1.06271E+01  1.52197E+01  1.68801E+01  2.03544E+01  2.23978E+01
   2.12720E+01  8.89922E+00  1.88290E+01  2.04914E+01  1.94354E+01  2.05654E+01  3.03731E+00  1.03391E+01  1.20560E+01  1.13755E+01
   1.21571E+01  1.26316E+01  5.92511E+00  2.09988E+01  1.29143E+01  2.06844E+01  5.66460E+00  3.06737E+00  4.58651E+00 -4.31634E-01
   4.29159E-01  6.88534E+00  8.68143E+00  4.60447E+00  1.43775E+01  4.92250E+00  5.18983E+00  4.27500E+00  3.98225E+00 -2.58030E+00
  -2.65705E-01 -3.60312E-01  8.50160E+00  1.03343E+01  1.16420E+01  1.98984E+01  1.06771E+01  7.64694E+00  1.91904E+00  1.13014E+01
   1.10172E+01  1.08403E+01  1.29535E+01  1.93754E+01  1.05975E+01  7.91672E+00  1.68385E+01  1.51812E+01  1.94290E+01  1.45723E+01
   1.34511E+01  7.82240E+00  1.50125E+01  1.37193E+01  1.11611E+01  1.20097E+01  9.79761E+00  3.02656E+00  7.90791E+00  1.46359E+01
   1.57561E+01  6.64836E+00  1.31178E+01 -1.00283E+00  1.25173E+01  9.17409E+00  9.74095E+00  2.81869E+00  3.49055E+00  5.75087E+00
   3.86275E+00  3.12433E+00  5.12141E+00  5.33089E+00  2.43930E+00  3.36101E+00 -9.31496E-01 -3.27229E+00  4.19672E+00  9.16216E+00
   2.96063E+00  7.63760E+00  2.52496E+00  7.18207E+00  5.15723E+00  4.65818E+00  2.77833E+00  5.71298E+00 -8.17044E+00  2.60889E+00
   3.53594E+00 -1.23594E+00  4.53591E+00  1.74717E+00  4.04682E+00  5.38212E+00 -3.76558E+00  3.09997E+00  1.95380E+00 -9.23205E+00
   1.38573E+01 -1.32650E+00 -6.50694E-01  9.03814E-01  1.85948E+00 -1.76785E+00  4.79459E+00  1.78242E+00  1.48604E+00  5.49215E-01
   2.08634E+00  6.83228E+00 -1.33808E+00 -3.00445E+00  5.51174E+00  8.29133E+00  4.65073E+00 -1.85945E+00  6.65588E+00  2.50508E+00
   5.59824E-01 -5.14813E+00 -3.10791E+00  9.48590E+00  6.64563E+00  1.57457E+00  8.73939E+00  2.76970E+00  1.53683E+00  1.12654E+01
  -3.90119E+00  9.97748E+00  2.12755E+00  3.55200E+00  3.20968E+00 -4.16519E-03  4.43211E+00  3.64848E+00
 NY points of the fit to the data follow
   5.95619E+00  5.51735E+00  5.47353E+00  5.66341E+00  6.08714E+00  6.84009E+00  7.73036E+00  8.28324E+00  8.93254E+00  1.04847E+01
   1.28137E+01  1.49863E+01  1.61236E+01  1.58734E+01  1.44035E+01  1.23835E+01  1.06263E+01  9.34196E+00  8.27723E+00  7.54637E+00
   7.34739E+00  7.43253E+00  7.51754E+00  7.53277E+00  7.37270E+00  6.80852E+00  6.21170E+00  6.44058E+00  7.91731E+00  1.03052E+01
   1.28990E+01  1.49630E+01  1.58124E+01  1.52662E+01  1.37392E+01  1.17183E+01  9.56710E+00  7.73707E+00  6.55370E+00  5.94371E+00
   5.86709E+00  6.28716E+00  7.02595E+00  8.16601E+00  1.01243E+01  1.29153E+01  1.56935E+01  1.73543E+01  1.72578E+01  1.54076E+01
   1.25407E+01  9.69809E+00  7.53234E+00  6.15754E+00  5.42058E+00  5.28576E+00  5.75247E+00  6.67436E+00  7.83263E+00  8.89390E+00
   9.48558E+00  9.36265E+00  8.54292E+00  7.45198E+00  6.52951E+00  6.02705E+00  5.97104E+00  6.20077E+00  6.55158E+00  7.02503E+00
   7.58786E+00  8.07458E+00  8.53105E+00  9.03268E+00  9.43772E+00  9.51414E+00  9.13112E+00  8.32445E+00  7.23348E+00  6.25937E+00
   5.82378E+00  5.87103E+00  6.18714E+00  6.83792E+00  7.66020E+00  8.09955E+00  7.80012E+00  6.85056E+00  5.62433E+00  4.60377E+00
   4.13590E+00  4.11136E+00  4.19265E+00  4.22077E+00  4.26515E+00  4.52234E+00  5.30157E+00  7.11016E+00  9.38434E+00  1.36038E+01
   2.23438E+01  3.46223E+01  4.58748E+01  5.16833E+01  5.03802E+01  4.30196E+01  3.29156E+01  2.37183E+01  1.69259E+01  1.18026E+01
   7.90255E+00  5.94005E+00  5.24062E+00  4.88880E+00  4.65643E+00  4.47660E+00  4.33999E+00  4.20473E+00  4.07854E+00  4.02249E+00
   4.18811E+00  4.96293E+00  6.34750E+00  8.83359E+00  1.40812E+01  2.22297E+01  3.07318E+01  3.63123E+01  3.71741E+01  3.35161E+01
   2.72482E+01  2.08698E+01  1.57787E+01  1.17389E+01  8.20572E+00  5.57587E+00  4.08205E+00  3.34098E+00  3.26607E+00  3.72819E+00
   4.42959E+00  5.08410E+00  5.50535E+00  5.60993E+00  5.45896E+00  5.18461E+00  4.89007E+00  4.63796E+00  4.41978E+00  4.22122E+00
   4.04443E+00  3.81875E+00  3.53335E+00  3.27373E+00  3.11267E+00  3.11246E+00  3.29460E+00  3.38662E+00  3.09109E+00  2.42563E+00
   1.69096E+00  1.36385E+00  1.60612E+00  2.12276E+00  2.42308E+00  2.22139E+00  1.55596E+00  6.96244E-01 -7.05973E-02 -5.95948E-01
  -8.68633E-01 -9.92259E-01 -1.21186E+00 -1.72403E+00 -2.40775E+00 -2.82926E+00 -2.68456E+00 -2.20103E+00 -1.80396E+00 -1.75692E+00
  -1.97704E+00 -2.13714E+00 -1.93966E+00 -1.60269E+00 -1.41394E+00 -1.17514E+00 -5.23192E-01  6.91136E-01  2.34871E+00  4.12849E+00
   5.57989E+00  6.31326E+00  6.28471E+00  5.80297E+00  5.00356E+00  3.93648E+00  2.92720E+00  2.34102E+00  2.34827E+00  3.00199E+00
   4.31087E+00  5.98639E+00  7.53873E+00  8.51495E+00  8.60990E+00  7.75910E+00  5.81885E+00  3.03743E+00  2.11095E-01 -1.95501E+00
  -2.97344E+00 -2.66728E+00 -8.66242E-01  2.26965E+00  5.87680E+00  8.75707E+00  1.00410E+01  9.46792E+00  7.25618E+00  4.05838E+00
   6.69447E-01 -1.91445E+00 -2.88462E+00 -2.03152E+00  3.26895E-01  3.23831E+00  5.76495E+00  7.40405E+00  8.05649E+00  7.90967E+00
   7.25730E+00  6.57724E+00  6.27756E+00  6.46878E+00  7.06620E+00  7.94135E+00  8.79558E+00  9.37414E+00  9.58874E+00  9.19743E+00
   8.14997E+00  6.87253E+00  6.00771E+00  5.87195E+00  6.40407E+00  7.40821E+00  8.51307E+00  9.33339E+00  9.75827E+00  1.01664E+01
   1.10718E+01  1.23812E+01  1.52222E+01  2.12224E+01  3.06102E+01  3.96520E+01  4.90357E+01  6.31728E+01  8.12413E+01  9.65553E+01
   1.02776E+02  9.74911E+01  8.20070E+01  6.20171E+01  4.45181E+01  3.19479E+01  2.23869E+01  1.48755E+01  1.09867E+01  9.42528E+00
   8.51855E+00  7.99336E+00  7.79198E+00  7.75516E+00  7.69387E+00  7.51247E+00  7.19224E+00  6.77545E+00  6.32395E+00  5.90943E+00
   5.58304E+00  5.35903E+00  5.23228E+00  5.18509E+00  5.17477E+00  5.15249E+00  5.10498E+00  5.03928E+00  4.97200E+00  4.93250E+00
   4.95220E+00  5.03943E+00  5.16811E+00  5.30219E+00  5.42275E+00  5.51223E+00  5.56406E+00  5.59221E+00  5.61232E+00  5.63975E+00
   5.69157E+00  5.76792E+00  5.85224E+00  5.92672E+00  5.98104E+00  6.01528E+00  6.02895E+00  6.01997E+00  5.99343E+00  5.95575E+00
   5.91102E+00  5.86398E+00  5.81785E+00  5.77661E+00  5.74455E+00  5.72752E+00  5.73130E+00  5.76262E+00  5.82853E+00  5.94044E+00
   6.12046E+00  6.40617E+00  6.76149E+00  7.24537E+00  7.95294E+00  8.62544E+00  8.80928E+00  8.27924E+00  7.17770E+00  5.90454E+00
   4.84436E+00  4.20209E+00  4.23369E+00  5.10806E+00  6.74841E+00  8.84808E+00  1.08990E+01  1.24764E+01  1.34911E+01  1.41347E+01
   1.47080E+01  1.53927E+01  1.62428E+01  1.72374E+01  1.85993E+01  2.04898E+01  2.23086E+01  2.30355E+01  2.21283E+01  1.98659E+01
   1.71051E+01  1.45401E+01  1.28313E+01  1.26659E+01  1.41653E+01  1.68170E+01  1.98479E+01  2.22652E+01  2.33346E+01  2.30990E+01
   2.20872E+01  2.08370E+01  1.94861E+01  1.80164E+01  1.66720E+01  1.55369E+01  1.45140E+01  1.35646E+01  1.26767E+01  1.18474E+01
   1.10763E+01  1.03647E+01  9.71316E+00  9.12219E+00  8.59108E+00  8.11901E+00  7.70424E+00  7.34541E+00  7.04050E+00  6.78803E+00
   6.58608E+00  6.43359E+00  6.32941E+00  6.27339E+00  6.26519E+00  6.30525E+00  6.39373E+00  6.53149E+00  6.71893E+00  6.95668E+00
   7.24433E+00  7.58120E+00  7.96515E+00  8.39341E+00  8.86133E+00  9.36313E+00  9.89079E+00  1.04352E+01  1.09852E+01  1.15290E+01
   1.20533E+01  1.25449E+01  1.29900E+01  1.33759E+01  1.36908E+01  1.39252E+01  1.40713E+01  1.41243E+01  1.40819E+01  1.39452E+01
   1.37177E+01  1.34063E+01  1.30192E+01  1.25672E+01  1.20618E+01  1.15155E+01  1.09409E+01  1.03503E+01  9.75470E+00  9.16449E+00
   8.58814E+00  8.03311E+00  7.50479E+00  7.00743E+00  6.54331E+00  6.11392E+00  5.71926E+00  5.35895E+00  5.03141E+00  4.73500E+00
   4.46724E+00  4.22602E+00  4.00874E+00  3.81334E+00  3.63727E+00  3.47859E+00  3.33505E+00  3.20512E+00  3.08704E+00  2.97965E+00
   2.88144E+00  2.79148E+00  2.70857E+00  2.63216E+00  2.56134E+00  2.49573E+00  2.43448E+00  2.37730E+00  2.32357E+00  2.27321E+00
   2.22572E+00  2.18101E+00  2.13854E+00  2.09832E+00  2.05998E+00  2.02362E+00  1.98889E+00  1.95579E+00  1.92395E+00  1.89348E+00
   1.86413E+00  1.83606E+00  1.80896E+00  1.78289E+00  1.75757E+00  1.73318E+00  1.70952E+00  1.68674E+00  1.66454E+00  1.64303E+00
   1.62198E+00  1.60162E+00  1.58174E+00  1.56251E+00  1.54362E+00  1.52523E+00  1.50714E+00  1.48959E+00  1.47237E+00  1.45561E+00
   1.43903E+00  1.42283E+00  1.40683E+00  1.39128E+00  1.37593E+00  1.36092E+00  1.34598E+00  1.33136E+00  1.31688E+00  1.30277E+00
   1.28875E+00  1.27497E+00  1.26120E+00  1.24770E+00  1.23430E+00  1.22118E+00  1.20807E+00  1.19511E+00
 NY background values follow
     2.958E+00    2.953E+00    2.948E+00    2.943E+00    2.938E+00    2.933E+00    2.929E+00    2.924E+00    2.919E+00    2.914E+00
     2.909E+00    2.904E+00    2.899E+00    2.894E+00    2.889E+00    2.885E+00    2.880E+00    2.875E+00    2.870E+00    2.865E+00
     2.860E+00    2.855E+00    2.850E+00    2.846E+00    2.841E+00    2.836E+00    2.831E+00    2.826E+00    2.821E+00    2.816E+00
     2.811E+00    2.807E+00    2.802E+00    2.797E+00    2.792E+00    2.787E+00    2.782E+00    2.777E+00    2.772E+00    2.767E+00
     2.763E+00    2.758E+00    2.753E+00    2.748E+00    2.743E+00    2.738E+00    2.733E+00    2.728E+00    2.724E+00    2.719E+00
     2.714E+00    2.709E+00    2.704E+00    2.699E+00    2.694E+00    2.689E+00    2.684E+00    2.680E+00    2.675E+00    2.670E+00
     2.665E+00    2.660E+00    2.655E+00    2.650E+00    2.645E+00    2.641E+00    2.636E+00    2.631E+00    2.626E+00    2.621E+00
     2.616E+00    2.611E+00    2.606E+00    2.601E+00    2.597E+00    2.592E+00    2.587E+00    2.582E+00    2.577E+00    2.572E+00
     2.567E+00    2.562E+00    2.558E+00    2.553E+00    2.548E+00    2.543E+00    2.538E+00    2.533E+00    2.528E+00    2.523E+00
     2.518E+00    2.514E+00    2.509E+00    2.504E+00    2.499E+00    2.494E+00    2.489E+00    2.484E+00    2.479E+00    2.475E+00
     2.470E+00    2.465E+00    2.460E+00    2.455E+00    2.450E+00    2.445E+00    2.440E+00    2.435E+00    2.431E+00    2.426E+00
     2.421E+00    2.416E+00    2.411E+00    2.406E+00    2.401E+00    2.396E+00    2.391E+00    2.387E+00    2.382E+00    2.377E+00
     2.372E+00    2.367E+00    2.362E+00    2.357E+00    2.352E+00    2.348E+00    2.343E+00    2.338E+00    2.333E+00    2.328E+00
     2.323E+00    2.318E+00    2.313E+00    2.308E+00    2.304E+00    2.299E+00    2.294E+00    2.289E+00    2.284E+00    2.279E+00
     2.274E+00    2.269E+00    2.265E+00    2.260E+00    2.255E+00    2.250E+00    2.245E+00    2.240E+00    2.235E+00    2.230E+00
     2.225E+00    2.221E+00    2.216E+00    2.211E+00    2.206E+00    2.201E+00    2.196E+00    2.191E+00    2.186E+00    2.181E+00
     2.177E+00    2.172E+00    2.167E+00    2.162E+00    2.157E+00    2.152E+00    2.147E+00    2.142E+00    2.138E+00    2.133E+00
     2.128E+00    2.123E+00    2.118E+00    2.113E+00    2.108E+00    2.103E+00    2.098E+00    2.094E+00    2.089E+00    2.084E+00
     2.079E+00    2.074E+00    2.069E+00    2.064E+00    2.059E+00    2.055E+00    2.050E+00    2.045E+00    2.040E+00    2.035E+00
     2.030E+00    2.025E+00    2.020E+00    2.016E+00    2.011E+00    2.006E+00    2.001E+00    1.996E+00    1.991E+00    1.986E+00
     1.981E+00    1.976E+00    1.972E+00    1.967E+00    1.962E+00    1.957E+00    1.952E+00    1.947E+00    1.942E+00    1.937E+00
     1.933E+00    1.928E+00    1.923E+00    1.918E+00    1.913E+00    1.908E+00    1.903E+00    1.898E+00    1.893E+00    1.889E+00
     1.884E+00    1.879E+00    1.874E+00    1.869E+00    1.864E+00    1.859E+00    1.854E+00    1.850E+00    1.845E+00    1.840E+00
     1.835E+00    1.830E+00    1.825E+00    1.820E+00    1.815E+00    1.811E+00    1.806E+00    1.801E+00    1.796E+00    1.791E+00
     1.786E+00    1.781E+00    1.776E+00    1.772E+00    1.767E+00    1.762E+00    1.757E+00    1.752E+00    1.747E+00    1.742E+00
     1.737E+00    1.732E+00    1.728E+00    1.723E+00    1.718E+00    1.713E+00    1.708E+00    1.703E+00    1.698E+00    1.693E+00
     1.689E+00    1.684E+00    1.679E+00    1.674E+00    1.669E+00    1.664E+00    1.659E+00    1.654E+00    1.650E+00    1.645E+00
     1.640E+00    1.635E+00    1.630E+00    1.625E+00    1.620E+00    1.615E+00    1.611E+00    1.606E+00    1.601E+00    1.596E+00
     1.591E+00    1.586E+00    1.581E+00    1.576E+00    1.572E+00    1.567E+00    1.562E+00    1.557E+00    1.552E+00    1.547E+00
     1.542E+00    1.537E+00    1.533E+00    1.528E+00    1.523E+00    1.518E+00    1.513E+00    1.508E+00    1.503E+00    1.498E+00
     1.494E+00    1.489E+00    1.484E+00    1.479E+00    1.474E+00    1.469E+00    1.464E+00    1.459E+00    1.455E+00    1.450E+00
     1.445E+00    1.440E+00    1.435E+00    1.430E+00    1.425E+00    1.420E+00    1.416E+00    1.411E+00    1.406E+00    1.401E+00
     1.396E+00    1.391E+00    1.386E+00    1.381E+00    1.377E+00    1.372E+00    1.367E+00    1.362E+00    1.357E+00    1.352E+00
     1.347E+00    1.343E+00    1.338E+00    1.333E+00    1.328E+00    1.323E+00    1.318E+00    1.313E+00    1.308E+00    1.304E+00
     1.299E+00    1.294E+00    1.289E+00    1.284E+00    1.279E+00    1.274E+00    1.269E+00    1.265E+00    1.260E+00    1.255E+00
     1.250E+00    1.245E+00    1.240E+00    1.235E+00    1.230E+00    1.226E+00    1.221E+00    1.216E+00    1.211E+00    1.206E+00
     1.201E+00    1.196E+00    1.192E+00    1.187E+00    1.182E+00    1.177E+00    1.172E+00    1.167E+00    1.162E+00    1.157E+00
     1.153E+00    1.148E+00    1.143E+00    1.138E+00    1.133E+00    1.128E+00    1.123E+00    1.119E+00    1.114E+00    1.109E+00
     1.104E+00    1.099E+00    1.094E+00    1.089E+00    1.084E+00    1.080E+00    1.075E+00    1.070E+00    1.065E+00    1.060E+00
     1.055E+00    1.050E+00    1.046E+00    1.041E+00    1.036E+00    1.031E+00    1.026E+00    1.021E+00    1.016E+00    1.011E+00
     1.007E+00    1.002E+00    9.969E-01    9.920E-01    9.871E-01    9.823E-01    9.774E-01    9.725E-01    9.677E-01    9.628E-01
     9.580E-01    9.531E-01    9.482E-01    9.434E-01    9.385E-01    9.336E-01    9.288E-01    9.239E-01    9.190E-01    9.142E-01
     9.093E-01    9.045E-01    8.996E-01    8.947E-01    8.899E-01    8.850E-01    8.801E-01    8.753E-01    8.704E-01    8.655E-01
     8.607E-01    8.558E-01    8.510E-01    8.461E-01    8.412E-01    8.364E-01    8.315E-01    8.267E-01    8.218E-01    8.169E-01
     8.121E-01    8.072E-01    8.023E-01    7.975E-01    7.926E-01    7.878E-01    7.829E-01    7.780E-01    7.732E-01    7.683E-01
     7.635E-01    7.586E-01    7.537E-01    7.489E-01    7.440E-01    7.392E-01    7.343E-01    7.294E-01    7.246E-01    7.197E-01
     7.149E-01    7.100E-01    7.051E-01    7.003E-01    6.954E-01    6.906E-01    6.857E-01    6.808E-01    6.760E-01    6.711E-01
     6.663E-01    6.614E-01    6.565E-01    6.517E-01    6.468E-01    6.420E-01    6.371E-01    6.323E-01    6.274E-01    6.225E-01
     6.177E-01    6.128E-01    6.080E-01    6.031E-01    5.983E-01    5.934E-01    5.885E-01    5.837E-01    5.788E-01    5.740E-01
     5.691E-01    5.643E-01    5.594E-01    5.545E-01    5.497E-01    5.448E-01    5.400E-01    5.351E-01
 Ala      Conc. = 2.29E+02
