 LCModel (Version 6.3-1L) Copyright: S.W. Provencher.          Ref.: Magn. Reson. Med. 30:672-679 (1993).                
 Slice#2 Row#8 Col#3  PD_05_press_2_raw_act
 36 lines in following concentration table = NCONC+1
    Conc.  %SD /Cr+PCr  Metabolite                                         
    0.000 999%   0.000 Ala                                                 
    0.000 999%   0.000 Asp                                                 
 2.68E+03  16%   0.726 Cr                                                  
 1.01E+03  44%   0.274 PCr                                                 
    0.000 999%   0.000 GABA                                                
    0.000 999%   0.000 Glc                                                 
 1.60E+03  30%   0.432 Gln                                                 
 4.61E+03  12%   1.247 Glu                                                 
 1.16E+03   4%   0.314 GPC                                                 
    0.000 999%   0.000 PCh                                                 
 1.06E+03  14%   0.286 GSH                                                 
 2.12E+03  25%   0.572 Ins                                                 
  250.021 101% 6.8E-02 Lac                                                 
 6.57E+03   4%   1.777 NAA                                                 
  774.301  39%   0.210 NAAG                                                
   73.115  77% 2.0E-02 Scyllo                                              
    0.000 999%   0.000 Tau                                                 
    0.000 999%   0.000 -CrCH2                                              
 1.16E+03   4%   0.314 GPC+PCh                                             
 7.34E+03   3%   1.987 NAA+NAAG                                            
 3.70E+03   3%   1.000 Cr+PCr                                              
 6.20E+03  13%   1.679 Glu+Gln                                             
 1.89E+03  45%   0.512 Lip13a                                              
    0.000 999%   0.000 Lip13b                                              
    0.000 999%   0.000 Lip09                                               
 3.66E+03  13%   0.989 MM09                                                
  422.738  77%   0.114 Lip20                                               
 1.02E+04   9%   2.767 MM20                                                
 1.10E+03  33%   0.297 MM12                                                
 2.88E+03  26%   0.779 MM14                                                
 1.61E+03  30%   0.435 MM17                                                
 1.89E+03  45%   0.512 Lip13a+Lip13b                                       
 5.87E+03  13%   1.588 MM14+Lip13a+Lip13b+MM12                             
 3.66E+03  13%   0.989 MM09+Lip09                                          
 1.06E+04   9%   2.881 MM20+Lip20                                          
   6 lines in following misc. output table
  FWHM = 0.046 ppm    S/N =  18                                            
  Data shift = 0.008 ppm                                                   
  Ph:  -2 deg      -2.4 deg/ppm                                            
  alphaB,S = 9.4E-01,   1.5E+02                                            
   14 spline knots.   Ns = 7(1)                                            
  (13) 2 infls.   ( 3) 1 extrs.                                            
  498 points on ppm-axis = NY
      4.000000     3.992357     3.984714     3.977070     3.969427     3.961784     3.954141     3.946497     3.938854     3.931211
      3.923568     3.915925     3.908281     3.900638     3.892995     3.885352     3.877708     3.870065     3.862422     3.854779
      3.847136     3.839492     3.831849     3.824206     3.816563     3.808919     3.801276     3.793633     3.785990     3.778347
      3.770703     3.763060     3.755417     3.747774     3.740130     3.732487     3.724844     3.717201     3.709558     3.701914
      3.694271     3.686628     3.678985     3.671341     3.663698     3.656055     3.648412     3.640769     3.633125     3.625482
      3.617839     3.610196     3.602552     3.594909     3.587266     3.579623     3.571980     3.564336     3.556693     3.549050
      3.541407     3.533763     3.526120     3.518477     3.510834     3.503191     3.495547     3.487904     3.480261     3.472618
      3.464974     3.457331     3.449688     3.442045     3.434402     3.426758     3.419115     3.411472     3.403829     3.396185
      3.388542     3.380899     3.373256     3.365613     3.357969     3.350326     3.342683     3.335040     3.327396     3.319753
      3.312110     3.304467     3.296824     3.289180     3.281537     3.273894     3.266251     3.258607     3.250964     3.243321
      3.235678     3.228034     3.220391     3.212748     3.205105     3.197462     3.189818     3.182175     3.174532     3.166889
      3.159245     3.151602     3.143959     3.136316     3.128673     3.121029     3.113386     3.105743     3.098100     3.090456
      3.082813     3.075170     3.067527     3.059884     3.052240     3.044597     3.036954     3.029311     3.021667     3.014024
      3.006381     2.998738     2.991095     2.983451     2.975808     2.968165     2.960522     2.952878     2.945235     2.937592
      2.929949     2.922306     2.914662     2.907019     2.899376     2.891733     2.884089     2.876446     2.868803     2.861160
      2.853517     2.845873     2.838230     2.830587     2.822944     2.815300     2.807657     2.800014     2.792371     2.784728
      2.777084     2.769441     2.761798     2.754155     2.746511     2.738868     2.731225     2.723582     2.715939     2.708295
      2.700652     2.693009     2.685366     2.677722     2.670079     2.662436     2.654793     2.647150     2.639506     2.631863
      2.624220     2.616577     2.608933     2.601290     2.593647     2.586004     2.578361     2.570717     2.563074     2.555431
      2.547788     2.540144     2.532501     2.524858     2.517215     2.509572     2.501928     2.494285     2.486642     2.478999
      2.471355     2.463712     2.456069     2.448426     2.440783     2.433139     2.425496     2.417853     2.410210     2.402566
      2.394923     2.387280     2.379637     2.371994     2.364350     2.356707     2.349064     2.341421     2.333777     2.326134
      2.318491     2.310848     2.303205     2.295561     2.287918     2.280275     2.272632     2.264988     2.257345     2.249702
      2.242059     2.234416     2.226772     2.219129     2.211486     2.203843     2.196199     2.188556     2.180913     2.173270
      2.165627     2.157983     2.150340     2.142697     2.135054     2.127410     2.119767     2.112124     2.104481     2.096838
      2.089194     2.081551     2.073908     2.066265     2.058621     2.050978     2.043335     2.035692     2.028049     2.020405
      2.012762     2.005119     1.997476     1.989833     1.982190     1.974546     1.966903     1.959260     1.951617     1.943974
      1.936331     1.928688     1.921045     1.913402     1.905759     1.898115     1.890472     1.882829     1.875186     1.867543
      1.859900     1.852257     1.844614     1.836971     1.829327     1.821684     1.814041     1.806398     1.798755     1.791112
      1.783469     1.775826     1.768183     1.760540     1.752896     1.745253     1.737610     1.729967     1.722324     1.714681
      1.707038     1.699395     1.691752     1.684108     1.676465     1.668822     1.661179     1.653536     1.645893     1.638250
      1.630607     1.622964     1.615321     1.607677     1.600034     1.592391     1.584748     1.577105     1.569462     1.561819
      1.554176     1.546533     1.538890     1.531246     1.523603     1.515960     1.508317     1.500674     1.493031     1.485388
      1.477745     1.470102     1.462458     1.454815     1.447172     1.439529     1.431886     1.424243     1.416600     1.408957
      1.401314     1.393671     1.386027     1.378384     1.370741     1.363098     1.355455     1.347812     1.340169     1.332526
      1.324883     1.317240     1.309596     1.301953     1.294310     1.286667     1.279024     1.271381     1.263738     1.256095
      1.248452     1.240808     1.233165     1.225522     1.217879     1.210236     1.202593     1.194950     1.187307     1.179664
      1.172021     1.164377     1.156734     1.149091     1.141448     1.133805     1.126162     1.118519     1.110876     1.103233
      1.095590     1.087946     1.080303     1.072660     1.065017     1.057374     1.049731     1.042088     1.034445     1.026802
      1.019158     1.011515     1.003872     0.996229     0.988586     0.980943     0.973300     0.965657     0.958014     0.950371
      0.942727     0.935084     0.927441     0.919798     0.912155     0.904512     0.896869     0.889226     0.881583     0.873940
      0.866296     0.858653     0.851010     0.843367     0.835724     0.828081     0.820438     0.812795     0.805152     0.797508
      0.789865     0.782222     0.774579     0.766936     0.759293     0.751650     0.744007     0.736364     0.728721     0.721077
      0.713434     0.705791     0.698148     0.690505     0.682862     0.675219     0.667576     0.659933     0.652290     0.644646
      0.637003     0.629360     0.621717     0.614074     0.606431     0.598788     0.591145     0.583502     0.575858     0.568215
      0.560572     0.552929     0.545286     0.537643     0.530000     0.522357     0.514714     0.507071     0.499427     0.491784
      0.484141     0.476498     0.468855     0.461212     0.453569     0.445925     0.438282     0.430639     0.422996     0.415353
      0.407710     0.400067     0.392424     0.384780     0.377137     0.369494     0.361851     0.354208     0.346565     0.338922
      0.331278     0.323635     0.315992     0.308349     0.300706     0.293063     0.285420     0.277777     0.270133     0.262490
      0.254847     0.247204     0.239561     0.231918     0.224275     0.216631     0.208988     0.201345
 NY phased data points follow
   4.05187E+01  3.55003E+01  4.50779E+01  5.52014E+01  6.28872E+01  6.84293E+01  8.46889E+01  8.84974E+01  1.06453E+02  1.10138E+02
   1.23498E+02  1.25636E+02  1.33334E+02  1.10467E+02  1.00694E+02  8.42210E+01  7.62961E+01  7.25781E+01  6.34816E+01  5.82276E+01
   5.62206E+01  5.76664E+01  5.27418E+01  5.20072E+01  5.72330E+01  4.01935E+01  5.93526E+01  5.24173E+01  5.05037E+01  5.95268E+01
   6.22943E+01  6.52672E+01  6.15021E+01  6.62972E+01  6.10441E+01  5.05888E+01  5.63768E+01  4.52103E+01  4.58546E+01  5.08223E+01
   4.90677E+01  4.54730E+01  4.52273E+01  4.35704E+01  5.06108E+01  4.84077E+01  6.56314E+01  5.58717E+01  6.75879E+01  5.55675E+01
   6.05076E+01  4.36035E+01  4.10518E+01  4.00934E+01  3.85837E+01  3.64135E+01  4.48423E+01  4.49709E+01  4.43722E+01  4.09144E+01
   2.62634E+01  3.51890E+01  2.66960E+01  2.02623E+01  1.29830E+01  1.30743E+01  1.61825E+01  2.14575E+01  1.49526E+01  1.45445E+01
   1.88510E+01  1.57656E+01  7.48362E+00  1.13462E+01  1.30197E+01  2.27972E+01  2.28903E+01  1.36341E+01  2.07847E+01  1.03850E+01
   1.26602E+01  9.10297E+00  2.44718E+01  1.85095E+01  2.38017E+01  2.07449E+01  1.82216E+01  1.78335E+01  2.22621E+01  1.19449E+01
   1.67687E+01  2.24432E+01  1.38609E+01  1.97477E+01  1.76927E+01  2.26822E+01  3.23915E+01  3.90788E+01  3.18808E+01  4.83967E+01
   7.41115E+01  9.17976E+01  1.10007E+02  1.23318E+02  1.20475E+02  9.92245E+01  8.88875E+01  8.15973E+01  4.41868E+01  4.44280E+01
   2.89200E+01  3.81279E+01  2.71661E+01  2.68665E+01  2.01960E+01  2.01122E+01  1.77351E+01  2.02315E+01  2.55042E+01  2.64542E+01
   2.69910E+01  3.17635E+01  4.28979E+01  5.45645E+01  8.28426E+01  1.08150E+02  1.22782E+02  1.35534E+02  1.36243E+02  1.17364E+02
   1.04082E+02  7.64412E+01  6.02886E+01  3.24169E+01  3.08982E+01  2.40258E+01  1.72683E+01  1.19949E+01  2.05537E+01  2.03357E+01
   1.48585E+01  1.65129E+01  1.07739E+01  1.72394E+01  2.75736E+00  1.40173E+01  1.21228E+01  1.12551E+01  1.04423E+01  7.12111E+00
   1.24174E+01  1.36464E+01  2.32878E+00 -1.71411E+00  8.73323E+00  1.76375E+00  4.10096E+00 -2.76973E+00  7.33506E+00  1.55800E+00
  -2.00083E+00 -4.77623E+00 -2.72548E-02  9.90052E-01  5.99980E-01  3.04936E+00  7.01487E+00  3.65626E+00 -1.33288E+01 -6.75942E+00
  -5.67215E+00 -1.56270E+01 -3.88745E+00 -1.38932E+01 -2.63982E+01 -3.38473E+01 -3.42927E+01 -2.76558E+01 -3.00059E+01 -2.43406E+01
  -2.36459E+01 -3.05907E+01 -2.43140E+01 -2.15951E+01 -1.97538E+01 -1.88469E+01 -1.30899E+01 -8.25025E+00  5.06081E+00  1.91810E+00
   8.86252E+00  2.20266E+01  8.86028E+00  1.68069E+01  2.34524E+01  1.50583E+01  8.22034E+00  5.10803E+00  5.73407E-01 -9.71953E-01
   1.25441E+00  1.04362E+01  8.36047E+00  8.90538E+00  7.95115E+00  2.58378E+00  8.03200E+00 -6.94595E+00 -8.77635E+00 -1.70106E+00
  -8.38479E+00  1.02118E+00  8.48357E+00  1.34512E+01  3.42721E+01  2.55828E+01  2.88140E+01  2.95382E+01  3.01798E+01  1.08838E+01
  -1.27058E+00 -2.25997E+00 -3.30644E+00 -6.67683E-01 -4.01404E+00  1.19629E+01  1.94519E+01  2.21439E+01  2.30153E+01  3.08194E+01
   2.78442E+01  1.76674E+01  2.90555E+01  2.84452E+01  2.27036E+01  3.22486E+01  2.02465E+01  2.40928E+01  2.95284E+01  2.62370E+01
   2.06839E+01  1.69990E+01  1.34830E+01  2.20382E+01  1.72240E+01  3.15074E+01  4.34697E+01  4.59779E+01  4.21266E+01  4.32502E+01
   5.26898E+01  5.17617E+01  6.53825E+01  6.52013E+01  9.76365E+01  1.15937E+02  1.36117E+02  1.56498E+02  1.99893E+02  2.43207E+02
   2.65818E+02  2.70998E+02  2.26350E+02  1.77999E+02  1.27517E+02  9.10439E+01  6.68994E+01  5.84393E+01  3.75031E+01  3.98648E+01
   3.31665E+01  2.81071E+01  2.61690E+01  1.48095E+01  1.96397E+01  1.81971E+01  1.73752E+01  5.24620E+00  1.21497E+01  1.90886E+01
   1.67865E+01  1.57416E+01  1.41461E+01  1.29357E+01  6.48752E+00  1.32556E+00  8.41590E-01  3.20141E+00  1.62668E+01  7.74192E+00
  -1.09640E+00  6.96782E+00  1.01631E+01  8.92409E+00  4.87430E+00  2.78284E+00  7.01768E+00  7.10350E+00  4.21750E+00  5.50843E+00
   9.66543E+00  8.59823E+00  9.95310E+00  2.14904E+00  1.23306E+01  1.74875E+00  1.64340E+01  1.84119E+01  7.98826E+00  1.62723E+01
   5.26097E+00  1.33852E+01  1.24503E+01  9.76544E+00  1.19543E+01 -4.26413E-02  3.49272E-01 -4.68083E+00 -1.84805E+00  7.99125E-01
  -2.24577E+00 -1.30302E+00 -2.61906E+00 -6.05936E+00 -6.11386E-01 -7.41389E+00 -1.37851E+00 -6.18145E-01 -2.78289E+00  3.48259E+00
   4.24067E+00  7.40222E+00  1.04242E+01  2.24500E+01  1.78299E+01  1.63728E+01  2.13588E+01  8.23215E+00  1.87051E+01  1.90870E+01
   2.13482E+01  2.58570E+01  1.88649E+01  2.51221E+01  2.83243E+01  2.53255E+01  3.08669E+01  2.49593E+01  2.13304E+01  2.39207E+01
   1.81383E+01  1.81147E+01  2.73273E+01  1.62120E+01  2.00081E+01  1.58604E+01  2.22073E+01  1.69112E+01  1.21851E+01  1.50682E+01
   2.74595E+01  1.25979E+01  1.69727E+01  1.38538E+01  1.82099E+01  1.45952E+01  1.23513E+01  1.22460E+01  1.03234E+01  1.69435E+01
   1.43798E+01  1.92050E+01  1.53901E+01  1.03098E+01  4.88302E+00  8.00699E-01  5.66738E+00 -4.26079E-01  2.94481E+00 -4.72757E-01
   1.10475E+01  1.17990E+00  4.55256E-01  3.24623E+00  1.56949E+01  2.57908E+00  2.19999E+00  8.96310E+00  8.51076E+00  1.28983E+01
   1.03945E+01  1.03711E+01  7.78632E+00  9.60088E+00  2.28808E+01  1.76595E+01  1.90639E+01  1.58137E+01  2.12764E+01  2.83577E+01
   1.47594E+01  1.95328E+01  2.54288E+01  1.84826E+01  2.08591E+01  2.59803E+01  2.07444E+01  1.91298E+01  1.83056E+01  2.06600E+01
   2.21985E+01  2.45314E+01  2.04505E+01  1.31854E+01  1.82121E+01  3.15077E+00  1.30129E+01  1.40572E+01  1.22121E+01  8.66382E+00
   1.39210E-01 -5.12428E-01  6.55472E+00  7.81935E+00  9.04012E+00  9.99889E+00  7.97553E+00  4.45578E+00  2.21305E+01  3.13750E-01
   1.67214E-01  6.34787E+00  7.35733E+00 -1.01412E+00  8.61299E+00  5.86868E+00  7.72564E+00  5.61562E+00  3.60630E+00  5.76013E+00
   1.42458E+01  2.03387E+00  4.34060E-01  5.38139E+00  7.29162E+00  6.48868E+00 -3.02605E+00 -1.47843E+00  1.11537E+01  3.70260E+00
   4.96528E+00  3.97353E+00  1.29487E+00  4.04450E+00  1.24735E+01 -3.34501E+00  3.77980E+00  2.39702E+00  2.86084E+00  8.12120E+00
   4.31676E+00  1.88223E+00  5.67630E+00  8.02241E+00  1.24305E+01  1.89208E+00  2.96857E-01  6.27569E+00  1.28011E+01  5.00098E+00
   1.54259E+00  8.68765E+00 -1.33788E+00  1.05047E+01  2.00138E+00 -2.53073E+00 -3.16037E+00 -6.34016E-01  5.13403E-01 -1.46621E+00
   2.08981E+00  4.52471E-01  3.05477E+00  1.43949E+00  1.34270E+00  3.63045E-01 -4.27264E+00  5.64662E+00  2.03399E+00 -1.32345E+00
   9.45592E+00 -7.59993E+00  6.22577E-01  7.43977E+00 -2.25558E+00 -4.86172E+00 -3.14938E+00  3.61347E+00
 NY points of the fit to the data follow
   4.91337E+01  4.87842E+01  5.00741E+01  5.27232E+01  5.74015E+01  6.54082E+01  7.54586E+01  8.69345E+01  9.96886E+01  1.12309E+02
   1.21933E+02  1.25608E+02  1.21838E+02  1.11612E+02  9.81567E+01  8.48894E+01  7.38542E+01  6.56282E+01  5.98108E+01  5.50073E+01
   5.12835E+01  4.91068E+01  4.74983E+01  4.67973E+01  4.67477E+01  4.70109E+01  4.82483E+01  5.13355E+01  5.63706E+01  6.22150E+01
   6.72476E+01  6.98915E+01  6.91734E+01  6.53591E+01  5.94154E+01  5.26893E+01  4.67247E+01  4.21036E+01  3.90298E+01  3.81953E+01
   3.94235E+01  4.16324E+01  4.38619E+01  4.59994E+01  4.83855E+01  5.08202E+01  5.27931E+01  5.34797E+01  5.21576E+01  4.90804E+01
   4.49976E+01  4.07721E+01  3.73636E+01  3.51652E+01  3.37727E+01  3.28896E+01  3.26128E+01  3.29369E+01  3.34806E+01  3.38212E+01
   3.36711E+01  3.28248E+01  3.13313E+01  2.94780E+01  2.77479E+01  2.66228E+01  2.61553E+01  2.61348E+01  2.64004E+01  2.68174E+01
   2.72098E+01  2.74345E+01  2.73431E+01  2.68974E+01  2.61745E+01  2.53162E+01  2.44849E+01  2.37814E+01  2.32423E+01  2.28849E+01
   2.25811E+01  2.22417E+01  2.18934E+01  2.15958E+01  2.12386E+01  2.05968E+01  1.95394E+01  1.81814E+01  1.68567E+01  1.59874E+01
   1.57851E+01  1.61463E+01  1.68276E+01  1.75690E+01  1.82844E+01  1.95502E+01  2.37943E+01  3.19100E+01  4.15512E+01  5.37253E+01
   7.06771E+01  9.16096E+01  1.11584E+02  1.23802E+02  1.23361E+02  1.10482E+02  9.03277E+01  6.93129E+01  5.20407E+01  3.98841E+01
   3.11333E+01  2.37358E+01  1.87549E+01  1.70932E+01  1.65861E+01  1.64297E+01  1.64579E+01  1.66694E+01  1.72343E+01  1.90204E+01
   2.48933E+01  3.50840E+01  4.71214E+01  6.22082E+01  8.23429E+01  1.05977E+02  1.27394E+02  1.39386E+02  1.37161E+02  1.21800E+02
   9.94928E+01  7.70368E+01  5.87135E+01  4.51546E+01  3.40782E+01  2.39342E+01  1.68748E+01  1.39730E+01  1.33001E+01  1.39305E+01
   1.50780E+01  1.59854E+01  1.62977E+01  1.60022E+01  1.51684E+01  1.40401E+01  1.28756E+01  1.17366E+01  1.06358E+01  9.60542E+00
   8.63148E+00  7.78425E+00  7.05560E+00  6.42529E+00  5.74585E+00  5.10356E+00  4.58431E+00  3.99761E+00  3.19873E+00  1.98076E+00
   5.53358E-01 -3.88645E-01 -4.17812E-01  1.75160E-01  6.70622E-01  4.09451E-01 -8.54502E-01 -2.77173E+00 -4.71017E+00 -6.34030E+00
  -7.70641E+00 -8.73006E+00 -9.75588E+00 -1.10579E+01 -1.24264E+01 -1.34031E+01 -1.35138E+01 -1.27816E+01 -1.18687E+01 -1.14501E+01
  -1.17154E+01 -1.21260E+01 -1.20137E+01 -1.12833E+01 -1.01466E+01 -8.76222E+00 -6.94798E+00 -4.16888E+00 -3.79160E-01  3.74524E+00
   7.07581E+00  8.59020E+00  8.34389E+00  7.04852E+00  5.43441E+00  3.97930E+00  2.95481E+00  2.98620E+00  4.28220E+00  6.60293E+00
   9.57000E+00  1.25806E+01  1.48721E+01  1.55717E+01  1.44351E+01  1.12651E+01  6.15811E+00  7.85190E-02 -5.18253E+00 -7.78572E+00
  -7.18815E+00 -4.04733E+00  1.33499E+00  8.64380E+00  1.63906E+01  2.20794E+01  2.35494E+01  2.03436E+01  1.34043E+01  4.09539E+00
  -5.10663E+00 -1.17025E+01 -1.41428E+01 -1.19084E+01 -5.89435E+00  2.26984E+00  1.05194E+01  1.68023E+01  2.03092E+01  2.15412E+01
   2.17727E+01  2.17055E+01  2.15676E+01  2.20249E+01  2.35719E+01  2.57684E+01  2.78600E+01  2.92403E+01  2.94769E+01  2.84853E+01
   2.64394E+01  2.42221E+01  2.31990E+01  2.41554E+01  2.68197E+01  3.03833E+01  3.41342E+01  3.73906E+01  4.00515E+01  4.28446E+01
   4.58407E+01  4.94344E+01  5.52745E+01  6.88583E+01  9.14154E+01  1.15121E+02  1.40007E+02  1.70815E+02  2.07618E+02  2.42220E+02
   2.62046E+02  2.57309E+02  2.27855E+02  1.83644E+02  1.37906E+02  1.00646E+02  7.44197E+01  5.51904E+01  3.82828E+01  2.61943E+01
   2.14203E+01  1.90722E+01  1.75525E+01  1.65494E+01  1.57704E+01  1.48906E+01  1.38735E+01  1.27383E+01  1.15534E+01  1.04294E+01
   9.45514E+00  8.63223E+00  7.94951E+00  7.41431E+00  7.00717E+00  6.68050E+00  6.39744E+00  6.16842E+00  6.03194E+00  6.01175E+00
   6.09909E+00  6.28825E+00  6.56137E+00  6.88622E+00  7.22527E+00  7.55378E+00  7.86143E+00  8.14823E+00  8.41416E+00  8.65387E+00
   8.86018E+00  9.02550E+00  9.13178E+00  9.16056E+00  9.09869E+00  8.94235E+00  8.69710E+00  8.37125E+00  7.97369E+00  7.52218E+00
   7.03325E+00  6.52162E+00  6.00364E+00  5.49688E+00  5.01797E+00  4.58223E+00  4.20279E+00  3.89119E+00  3.65793E+00  3.51257E+00
   3.46308E+00  3.51536E+00  3.67320E+00  3.93907E+00  4.31489E+00  4.80155E+00  5.39798E+00  6.10058E+00  6.90362E+00  7.79985E+00
   8.78072E+00  9.83571E+00  1.09518E+01  1.21137E+01  1.33051E+01  1.45098E+01  1.57130E+01  1.69020E+01  1.80695E+01  1.92253E+01
   2.04094E+01  2.15410E+01  2.24948E+01  2.33117E+01  2.39881E+01  2.43728E+01  2.42497E+01  2.35059E+01  2.23430E+01  2.10716E+01
   1.99336E+01  1.91579E+01  1.88990E+01  1.91364E+01  1.96577E+01  2.01822E+01  2.04962E+01  2.04116E+01  1.98567E+01  1.89903E+01
   1.80088E+01  1.70380E+01  1.60788E+01  1.50809E+01  1.41239E+01  1.32632E+01  1.24626E+01  1.17066E+01  1.09918E+01  1.03194E+01
   9.69253E+00  9.11453E+00  8.58892E+00  8.11938E+00  7.70989E+00  7.36461E+00  7.08738E+00  6.88152E+00  6.75003E+00  6.69599E+00
   6.72270E+00  6.83335E+00  7.03057E+00  7.31633E+00  7.69208E+00  8.15894E+00  8.71734E+00  9.36642E+00  1.01034E+01  1.09236E+01
   1.18201E+01  1.27842E+01  1.38047E+01  1.48673E+01  1.59549E+01  1.70479E+01  1.81251E+01  1.91639E+01  2.01410E+01  2.10326E+01
   2.18158E+01  2.24697E+01  2.29765E+01  2.33220E+01  2.34964E+01  2.34943E+01  2.33150E+01  2.29636E+01  2.24497E+01  2.17874E+01
   2.09943E+01  2.00902E+01  1.90968E+01  1.80370E+01  1.69338E+01  1.58091E+01  1.46827E+01  1.35725E+01  1.24935E+01  1.14586E+01
   1.04778E+01  9.55803E+00  8.70360E+00  7.91647E+00  7.19697E+00  6.54409E+00  5.95547E+00  5.42756E+00  4.95607E+00  4.53654E+00
   4.16465E+00  3.83620E+00  3.54692E+00  3.29251E+00  3.06897E+00  2.87283E+00  2.70122E+00  2.55151E+00  2.42114E+00  2.30764E+00
   2.20892E+00  2.12342E+00  2.04990E+00  1.98712E+00  1.93375E+00  1.88853E+00  1.85055E+00  1.81924E+00  1.79413E+00  1.77457E+00
   1.75977E+00  1.74909E+00  1.74221E+00  1.73900E+00  1.73927E+00  1.74257E+00  1.74841E+00  1.75651E+00  1.76685E+00  1.77946E+00
   1.79417E+00  1.81059E+00  1.82844E+00  1.84764E+00  1.86833E+00  1.89054E+00  1.91405E+00  1.93855E+00  1.96386E+00  1.99010E+00
   2.01742E+00  2.04580E+00  2.07499E+00  2.10474E+00  2.13506E+00  2.16613E+00  2.19806E+00  2.23072E+00  2.26387E+00  2.29735E+00
   2.33128E+00  2.36588E+00  2.40117E+00  2.43697E+00  2.47306E+00  2.50942E+00  2.54625E+00  2.58372E+00  2.62177E+00  2.66018E+00
   2.69879E+00  2.73773E+00  2.77723E+00  2.81739E+00  2.85805E+00  2.89902E+00  2.94027E+00  2.98204E+00
 NY background values follow
     4.237E+01    4.206E+01    4.174E+01    4.143E+01    4.112E+01    4.080E+01    4.049E+01    4.017E+01    3.986E+01    3.955E+01
     3.923E+01    3.892E+01    3.860E+01    3.829E+01    3.797E+01    3.766E+01    3.734E+01    3.703E+01    3.671E+01    3.640E+01
     3.609E+01    3.577E+01    3.546E+01    3.514E+01    3.483E+01    3.452E+01    3.420E+01    3.389E+01    3.358E+01    3.326E+01
     3.295E+01    3.264E+01    3.233E+01    3.201E+01    3.170E+01    3.139E+01    3.108E+01    3.077E+01    3.046E+01    3.015E+01
     2.984E+01    2.953E+01    2.922E+01    2.891E+01    2.861E+01    2.830E+01    2.799E+01    2.768E+01    2.738E+01    2.707E+01
     2.677E+01    2.646E+01    2.616E+01    2.586E+01    2.556E+01    2.525E+01    2.495E+01    2.465E+01    2.435E+01    2.406E+01
     2.376E+01    2.346E+01    2.317E+01    2.287E+01    2.258E+01    2.228E+01    2.199E+01    2.170E+01    2.141E+01    2.112E+01
     2.084E+01    2.055E+01    2.026E+01    1.998E+01    1.970E+01    1.942E+01    1.913E+01    1.886E+01    1.858E+01    1.830E+01
     1.803E+01    1.775E+01    1.748E+01    1.721E+01    1.694E+01    1.667E+01    1.641E+01    1.614E+01    1.588E+01    1.562E+01
     1.536E+01    1.510E+01    1.484E+01    1.459E+01    1.433E+01    1.408E+01    1.383E+01    1.358E+01    1.334E+01    1.309E+01
     1.285E+01    1.261E+01    1.237E+01    1.213E+01    1.190E+01    1.166E+01    1.143E+01    1.120E+01    1.097E+01    1.074E+01
     1.051E+01    1.029E+01    1.007E+01    9.848E+00    9.630E+00    9.413E+00    9.197E+00    8.984E+00    8.772E+00    8.563E+00
     8.354E+00    8.148E+00    7.944E+00    7.741E+00    7.540E+00    7.341E+00    7.144E+00    6.948E+00    6.755E+00    6.563E+00
     6.373E+00    6.184E+00    5.998E+00    5.814E+00    5.631E+00    5.450E+00    5.271E+00    5.094E+00    4.918E+00    4.745E+00
     4.573E+00    4.403E+00    4.236E+00    4.070E+00    3.905E+00    3.743E+00    3.583E+00    3.424E+00    3.267E+00    3.113E+00
     2.960E+00    2.809E+00    2.660E+00    2.513E+00    2.368E+00    2.224E+00    2.083E+00    1.943E+00    1.806E+00    1.670E+00
     1.537E+00    1.405E+00    1.275E+00    1.147E+00    1.021E+00    8.973E-01    7.753E-01    6.553E-01    5.372E-01    4.211E-01
     3.070E-01    1.948E-01    8.465E-02   -2.353E-02   -1.297E-01   -2.339E-01   -3.362E-01   -4.364E-01   -5.346E-01   -6.308E-01
    -7.250E-01   -8.172E-01   -9.074E-01   -9.956E-01   -1.082E+00   -1.166E+00   -1.249E+00   -1.329E+00   -1.408E+00   -1.485E+00
    -1.561E+00   -1.635E+00   -1.707E+00   -1.777E+00   -1.846E+00   -1.913E+00   -1.979E+00   -2.044E+00   -2.107E+00   -2.168E+00
    -2.229E+00   -2.287E+00   -2.345E+00   -2.401E+00   -2.457E+00   -2.511E+00   -2.563E+00   -2.615E+00   -2.666E+00   -2.715E+00
    -2.764E+00   -2.812E+00   -2.858E+00   -2.904E+00   -2.949E+00   -2.993E+00   -3.037E+00   -3.080E+00   -3.121E+00   -3.163E+00
    -3.203E+00   -3.243E+00   -3.283E+00   -3.322E+00   -3.360E+00   -3.398E+00   -3.436E+00   -3.473E+00   -3.510E+00   -3.546E+00
    -3.582E+00   -3.618E+00   -3.653E+00   -3.688E+00   -3.723E+00   -3.757E+00   -3.791E+00   -3.824E+00   -3.857E+00   -3.890E+00
    -3.922E+00   -3.954E+00   -3.986E+00   -4.017E+00   -4.048E+00   -4.079E+00   -4.109E+00   -4.139E+00   -4.168E+00   -4.197E+00
    -4.226E+00   -4.255E+00   -4.283E+00   -4.310E+00   -4.338E+00   -4.365E+00   -4.392E+00   -4.418E+00   -4.444E+00   -4.470E+00
    -4.495E+00   -4.521E+00   -4.545E+00   -4.570E+00   -4.594E+00   -4.618E+00   -4.641E+00   -4.665E+00   -4.687E+00   -4.710E+00
    -4.732E+00   -4.754E+00   -4.776E+00   -4.797E+00   -4.818E+00   -4.839E+00   -4.859E+00   -4.879E+00   -4.899E+00   -4.918E+00
    -4.937E+00   -4.955E+00   -4.974E+00   -4.991E+00   -5.009E+00   -5.025E+00   -5.042E+00   -5.058E+00   -5.074E+00   -5.089E+00
    -5.103E+00   -5.118E+00   -5.131E+00   -5.145E+00   -5.157E+00   -5.170E+00   -5.181E+00   -5.193E+00   -5.203E+00   -5.214E+00
    -5.223E+00   -5.232E+00   -5.241E+00   -5.249E+00   -5.256E+00   -5.263E+00   -5.269E+00   -5.275E+00   -5.280E+00   -5.284E+00
    -5.288E+00   -5.291E+00   -5.293E+00   -5.295E+00   -5.296E+00   -5.297E+00   -5.296E+00   -5.295E+00   -5.294E+00   -5.292E+00
    -5.289E+00   -5.285E+00   -5.281E+00   -5.275E+00   -5.270E+00   -5.263E+00   -5.256E+00   -5.249E+00   -5.240E+00   -5.231E+00
    -5.221E+00   -5.211E+00   -5.200E+00   -5.188E+00   -5.175E+00   -5.162E+00   -5.148E+00   -5.134E+00   -5.119E+00   -5.103E+00
    -5.086E+00   -5.069E+00   -5.051E+00   -5.033E+00   -5.014E+00   -4.994E+00   -4.973E+00   -4.952E+00   -4.931E+00   -4.908E+00
    -4.885E+00   -4.861E+00   -4.837E+00   -4.812E+00   -4.786E+00   -4.760E+00   -4.733E+00   -4.705E+00   -4.677E+00   -4.648E+00
    -4.618E+00   -4.588E+00   -4.557E+00   -4.526E+00   -4.494E+00   -4.461E+00   -4.428E+00   -4.394E+00   -4.359E+00   -4.324E+00
    -4.288E+00   -4.252E+00   -4.215E+00   -4.177E+00   -4.139E+00   -4.100E+00   -4.061E+00   -4.021E+00   -3.981E+00   -3.940E+00
    -3.898E+00   -3.856E+00   -3.813E+00   -3.770E+00   -3.726E+00   -3.682E+00   -3.637E+00   -3.592E+00   -3.546E+00   -3.499E+00
    -3.452E+00   -3.405E+00   -3.357E+00   -3.309E+00   -3.260E+00   -3.210E+00   -3.161E+00   -3.110E+00   -3.059E+00   -3.008E+00
    -2.956E+00   -2.904E+00   -2.851E+00   -2.798E+00   -2.745E+00   -2.691E+00   -2.636E+00   -2.581E+00   -2.526E+00   -2.470E+00
    -2.414E+00   -2.358E+00   -2.301E+00   -2.244E+00   -2.186E+00   -2.129E+00   -2.071E+00   -2.012E+00   -1.954E+00   -1.895E+00
    -1.836E+00   -1.776E+00   -1.717E+00   -1.657E+00   -1.598E+00   -1.538E+00   -1.478E+00   -1.417E+00   -1.357E+00   -1.297E+00
    -1.237E+00   -1.176E+00   -1.116E+00   -1.055E+00   -9.948E-01   -9.344E-01   -8.741E-01   -8.138E-01   -7.536E-01   -6.934E-01
    -6.334E-01   -5.735E-01   -5.138E-01   -4.542E-01   -3.948E-01   -3.356E-01   -2.766E-01   -2.178E-01   -1.593E-01   -1.010E-01
    -4.302E-02    1.468E-02    7.207E-02    1.291E-01    1.859E-01    2.423E-01    2.985E-01    3.543E-01    4.099E-01    4.652E-01
     5.202E-01    5.750E-01    6.295E-01    6.838E-01    7.378E-01    7.916E-01    8.452E-01    8.985E-01    9.517E-01    1.005E+00
     1.057E+00    1.110E+00    1.162E+00    1.215E+00    1.267E+00    1.319E+00    1.370E+00    1.422E+00    1.473E+00    1.525E+00
     1.576E+00    1.627E+00    1.678E+00    1.729E+00    1.780E+00    1.831E+00    1.882E+00    1.932E+00    1.983E+00    2.033E+00
     2.084E+00    2.134E+00    2.185E+00    2.235E+00    2.286E+00    2.336E+00    2.387E+00    2.437E+00
 Cr       Conc. = 2.68E+03
