 LCModel (Version 6.3-1L) Copyright: S.W. Provencher.          Ref.: Magn. Reson. Med. 30:672-679 (1993).                
 Slice#2 Row#2 Col#1  PD_05_press_2_raw_act
 36 lines in following concentration table = NCONC+1
    Conc.  %SD /Cr+PCr  Metabolite                                         
    0.000 999%   0.000 Ala                                                 
   36.397 108%   0.000 Asp                                                 
    0.000 999%   0.000 Cr                                                  
    0.000 999%   0.000 PCr                                                 
   20.549 115%   0.000 GABA                                                
   19.856 119%   0.000 Glc                                                 
 1.03E+03  75%   0.000 Gln                                                 
   47.478 999%   0.000 Glu                                                 
   70.425  56%   0.000 GPC                                                 
    0.000 999%   0.000 PCh                                                 
    0.000 999%   0.000 GSH                                                 
  418.514 112%   0.000 Ins                                                 
 1.37E+03  32%   0.000 Lac                                                 
  386.211  48%   0.000 NAA                                                 
   58.552 336%   0.000 NAAG                                                
    9.433  83%   0.000 Scyllo                                              
   37.041 105%   0.000 Tau                                                 
   89.989  99%   0.000 -CrCH2                                              
   70.425  56%   0.000 GPC+PCh                                             
  444.763  32%   0.000 NAA+NAAG                                            
    0.000 999%   0.000 Cr+PCr                                              
 1.08E+03 127%   0.000 Glu+Gln                                             
 2.57E+03  19%   0.000 Lip13a                                              
    0.000 999%   0.000 Lip13b                                              
    0.000 999%   0.000 Lip09                                               
 3.13E+03   9%   0.000 MM09                                                
  429.920  51%   0.000 Lip20                                               
 4.95E+03   9%   0.000 MM20                                                
  940.437  14%   0.000 MM12                                                
 4.21E+03   8%   0.000+MM14                                                
 1.38E+03  15%   0.000 MM17                                                
 2.57E+03  19%   0.000 Lip13a+Lip13b                                       
 7.72E+03   6%   0.000 MM14+Lip13a+Lip13b+MM12                             
 3.13E+03   9%   0.000 MM09+Lip09                                          
 5.38E+03   9%   0.000 MM20+Lip20                                          
   6 lines in following misc. output table
  FWHM = 0.092 ppm    S/N =   4                                            
  Data shift =-0.061 ppm                                                   
  Ph:  97 deg      64.9 deg/ppm                                            
  alphaB,S = 8.5E+01,   1.0E+02                                            
   14 spline knots.   Ns = 8(1)                                            
   2 inflections.     1 extrema                                            
  498 points on ppm-axis = NY
      4.000000     3.992357     3.984714     3.977070     3.969427     3.961784     3.954141     3.946497     3.938854     3.931211
      3.923568     3.915925     3.908281     3.900638     3.892995     3.885352     3.877708     3.870065     3.862422     3.854779
      3.847136     3.839492     3.831849     3.824206     3.816563     3.808919     3.801276     3.793633     3.785990     3.778347
      3.770703     3.763060     3.755417     3.747774     3.740130     3.732487     3.724844     3.717201     3.709558     3.701914
      3.694271     3.686628     3.678985     3.671341     3.663698     3.656055     3.648412     3.640769     3.633125     3.625482
      3.617839     3.610196     3.602552     3.594909     3.587266     3.579623     3.571980     3.564336     3.556693     3.549050
      3.541407     3.533763     3.526120     3.518477     3.510834     3.503191     3.495547     3.487904     3.480261     3.472618
      3.464974     3.457331     3.449688     3.442045     3.434402     3.426758     3.419115     3.411472     3.403829     3.396185
      3.388542     3.380899     3.373256     3.365613     3.357969     3.350326     3.342683     3.335040     3.327396     3.319753
      3.312110     3.304467     3.296824     3.289180     3.281537     3.273894     3.266251     3.258607     3.250964     3.243321
      3.235678     3.228034     3.220391     3.212748     3.205105     3.197462     3.189818     3.182175     3.174532     3.166889
      3.159245     3.151602     3.143959     3.136316     3.128673     3.121029     3.113386     3.105743     3.098100     3.090456
      3.082813     3.075170     3.067527     3.059884     3.052240     3.044597     3.036954     3.029311     3.021667     3.014024
      3.006381     2.998738     2.991095     2.983451     2.975808     2.968165     2.960522     2.952878     2.945235     2.937592
      2.929949     2.922306     2.914662     2.907019     2.899376     2.891733     2.884089     2.876446     2.868803     2.861160
      2.853517     2.845873     2.838230     2.830587     2.822944     2.815300     2.807657     2.800014     2.792371     2.784728
      2.777084     2.769441     2.761798     2.754155     2.746511     2.738868     2.731225     2.723582     2.715939     2.708295
      2.700652     2.693009     2.685366     2.677722     2.670079     2.662436     2.654793     2.647150     2.639506     2.631863
      2.624220     2.616577     2.608933     2.601290     2.593647     2.586004     2.578361     2.570717     2.563074     2.555431
      2.547788     2.540144     2.532501     2.524858     2.517215     2.509572     2.501928     2.494285     2.486642     2.478999
      2.471355     2.463712     2.456069     2.448426     2.440783     2.433139     2.425496     2.417853     2.410210     2.402566
      2.394923     2.387280     2.379637     2.371994     2.364350     2.356707     2.349064     2.341421     2.333777     2.326134
      2.318491     2.310848     2.303205     2.295561     2.287918     2.280275     2.272632     2.264988     2.257345     2.249702
      2.242059     2.234416     2.226772     2.219129     2.211486     2.203843     2.196199     2.188556     2.180913     2.173270
      2.165627     2.157983     2.150340     2.142697     2.135054     2.127410     2.119767     2.112124     2.104481     2.096838
      2.089194     2.081551     2.073908     2.066265     2.058621     2.050978     2.043335     2.035692     2.028049     2.020405
      2.012762     2.005119     1.997476     1.989833     1.982190     1.974546     1.966903     1.959260     1.951617     1.943974
      1.936331     1.928688     1.921045     1.913402     1.905759     1.898115     1.890472     1.882829     1.875186     1.867543
      1.859900     1.852257     1.844614     1.836971     1.829327     1.821684     1.814041     1.806398     1.798755     1.791112
      1.783469     1.775826     1.768183     1.760540     1.752896     1.745253     1.737610     1.729967     1.722324     1.714681
      1.707038     1.699395     1.691752     1.684108     1.676465     1.668822     1.661179     1.653536     1.645893     1.638250
      1.630607     1.622964     1.615321     1.607677     1.600034     1.592391     1.584748     1.577105     1.569462     1.561819
      1.554176     1.546533     1.538890     1.531246     1.523603     1.515960     1.508317     1.500674     1.493031     1.485388
      1.477745     1.470102     1.462458     1.454815     1.447172     1.439529     1.431886     1.424243     1.416600     1.408957
      1.401314     1.393671     1.386027     1.378384     1.370741     1.363098     1.355455     1.347812     1.340169     1.332526
      1.324883     1.317240     1.309596     1.301953     1.294310     1.286667     1.279024     1.271381     1.263738     1.256095
      1.248452     1.240808     1.233165     1.225522     1.217879     1.210236     1.202593     1.194950     1.187307     1.179664
      1.172021     1.164377     1.156734     1.149091     1.141448     1.133805     1.126162     1.118519     1.110876     1.103233
      1.095590     1.087946     1.080303     1.072660     1.065017     1.057374     1.049731     1.042088     1.034445     1.026802
      1.019158     1.011515     1.003872     0.996229     0.988586     0.980943     0.973300     0.965657     0.958014     0.950371
      0.942727     0.935084     0.927441     0.919798     0.912155     0.904512     0.896869     0.889226     0.881583     0.873940
      0.866296     0.858653     0.851010     0.843367     0.835724     0.828081     0.820438     0.812795     0.805152     0.797508
      0.789865     0.782222     0.774579     0.766936     0.759293     0.751650     0.744007     0.736364     0.728721     0.721077
      0.713434     0.705791     0.698148     0.690505     0.682862     0.675219     0.667576     0.659933     0.652290     0.644646
      0.637003     0.629360     0.621717     0.614074     0.606431     0.598788     0.591145     0.583502     0.575858     0.568215
      0.560572     0.552929     0.545286     0.537643     0.530000     0.522357     0.514714     0.507071     0.499427     0.491784
      0.484141     0.476498     0.468855     0.461212     0.453569     0.445925     0.438282     0.430639     0.422996     0.415353
      0.407710     0.400067     0.392424     0.384780     0.377137     0.369494     0.361851     0.354208     0.346565     0.338922
      0.331278     0.323635     0.315992     0.308349     0.300706     0.293063     0.285420     0.277777     0.270133     0.262490
      0.254847     0.247204     0.239561     0.231918     0.224275     0.216631     0.208988     0.201345
 NY phased data points follow
  -1.91992E+01 -8.90806E+00 -9.32709E+00 -4.28734E+00 -1.99447E+01 -1.18959E+01 -2.91904E+00 -8.43716E+00 -1.80318E+01 -1.85974E+01
  -6.03805E+00 -1.40475E+01 -1.69839E+01 -4.37514E+00 -1.75803E+01 -1.27529E+01 -1.90707E+01  2.90700E+00  9.75510E+00 -5.73197E+00
  -1.15823E+01 -1.52915E+01 -1.01577E+01  7.49628E+00  5.10624E+00 -6.80947E+00 -1.03498E+01 -1.48089E+01 -2.07971E+01 -9.46510E+00
  -6.12337E+00 -7.90575E+00 -5.75556E+00 -2.65526E+00 -8.87053E+00 -1.65996E+00 -2.73949E+00 -7.52786E+00 -3.49265E+00 -5.51081E+00
  -1.08073E+01 -6.24024E+00 -4.77665E+00 -4.91896E+00  9.55325E-01 -3.74013E+00 -1.08262E+01 -4.37420E+00 -8.80166E+00 -5.75782E+00
  -1.38998E+01 -4.11151E+00 -1.12573E+01 -7.72052E+00 -6.07975E-01 -7.80377E+00 -5.71652E+00 -1.02017E+01 -1.65051E+01 -1.12381E+01
  -3.95443E+00 -5.26752E+00 -1.03269E+01  7.96388E-01 -1.36275E+00  3.00818E+00 -1.01370E+01 -1.30713E+01 -6.77486E+00 -5.63378E+00
  -7.15639E+00 -1.05944E+01 -6.30134E+00 -2.36696E+00 -1.40941E+01 -1.22816E+01 -1.36007E+01 -4.03033E+00 -1.41146E+01  1.16065E+00
   4.90075E+00 -2.78242E+00 -3.73612E+00  1.07356E+00 -6.34324E+00 -1.52592E+00 -1.06024E+01 -5.50014E+00 -7.54785E+00  5.13169E+00
  -4.22794E+00  7.94245E-01  3.67800E+00 -6.37551E+00 -9.13214E+00 -8.32657E+00 -3.22262E+00 -5.41923E+00  1.67008E+00  8.77723E+00
  -4.61205E+00  1.16869E+00 -1.14501E+01  4.17777E+00 -3.95354E+00 -7.86817E+00 -7.63791E+00 -5.17359E+00 -7.52239E+00 -9.61726E+00
  -4.45850E+00 -4.12201E+00 -2.01193E+00  1.18978E+00 -6.55454E+00 -1.20319E+01 -9.71141E+00 -1.51768E+01 -1.38417E+01 -1.00092E+01
  -1.39118E+01 -1.32290E+01 -1.29090E+01 -5.39627E+00  2.67151E-01 -2.77617E+00 -1.85201E+00 -1.31649E+01 -9.42575E+00 -1.45840E+01
  -9.25920E+00  2.33831E+00 -5.97663E+00  2.09795E+00 -6.80279E+00  4.97095E-01 -7.04887E+00 -9.90569E+00 -1.93486E+01 -9.11022E+00
  -1.14987E+01 -6.47376E+00 -4.96527E+00 -1.01746E+01 -1.10435E+01 -1.03806E+01 -1.57593E+01 -5.22837E+00 -7.61569E+00 -1.10518E+01
  -1.23735E+01 -3.58828E+00 -1.09421E+01 -1.15295E+01 -1.10793E+01 -6.35691E+00 -1.49650E+01 -2.71161E-01 -7.42558E+00 -3.49489E+00
  -1.39618E+01 -6.04224E+00 -1.34358E+01 -1.03766E+00 -4.54125E+00 -8.20518E+00 -1.15298E+01 -8.72631E+00 -9.48289E+00 -1.22507E+01
  -7.92010E+00 -1.74769E+00 -3.17297E+00 -5.94224E+00 -5.16421E+00 -7.61181E-01 -5.26569E+00 -7.60096E+00 -7.61039E+00 -3.62916E+00
   7.52748E-01  1.41915E+00 -7.00479E+00 -8.04873E+00 -1.49969E+01 -9.05000E+00 -1.47719E+00 -1.60737E+01 -5.60858E+00 -1.32150E+01
  -5.08088E+00 -2.74791E+00 -3.39228E+00 -1.11151E+01 -5.86885E+00 -1.32268E+01 -9.42703E+00 -6.17611E+00 -9.28690E+00 -1.02564E+01
  -1.16801E+01 -3.84323E+00 -8.33272E+00 -4.09610E+00 -5.48208E+00 -7.03838E+00 -2.68144E+00 -6.28129E+00 -5.92327E+00  1.60769E+00
  -2.67805E+00 -2.75606E+00  8.05892E+00 -5.17441E+00 -9.30340E+00 -3.11117E+00 -5.45597E+00  5.00993E+00 -1.79059E+00  3.89188E+00
   1.12714E+01  6.40924E+00  5.68266E+00  7.54317E+00  4.51650E-02 -1.50617E+00  6.25646E+00  1.32875E+00  1.39983E+00 -4.24481E+00
   5.72223E+00  4.83983E+00  1.44778E+00  1.67258E+00  3.92870E+00  1.02252E+01 -6.50107E-01  1.02660E+01  7.60188E+00  1.66739E+01
   1.15804E+01  7.34891E+00  7.20299E+00  2.14805E+01  1.30871E+01  1.57989E+01  1.53588E+01  1.58288E+01  1.00999E+01  1.16145E+01
   2.26888E+01  1.28458E+01  1.61254E+01  9.28779E+00  1.99177E+01  2.27323E+01  2.08372E+01  2.26197E+01  1.59293E+01  1.57565E+01
   2.60289E+01  2.22649E+01  1.64060E+01  1.67222E+01  1.47246E+01  1.63709E+01  1.21908E+01  1.42347E+01  1.45645E+01  1.41117E+01
   9.63982E+00  6.45786E+00  4.95743E+00  3.40125E-01  7.15992E+00  6.17202E+00  8.06892E+00  1.77416E+01  1.66956E+01  1.11330E+01
   1.20247E+01  1.17781E+01  1.57823E+01  9.65867E+00  3.03749E+00  3.94308E+00  3.19384E+00  3.85556E+00  1.28196E+01  9.71202E+00
   7.75484E+00  5.40486E+00  1.00760E+00 -4.68309E+00 -1.29555E+00  2.75536E+00 -3.41478E+00  1.06503E+00  6.61570E+00  2.30773E+00
   1.84921E+00  4.04598E+00 -5.77512E+00 -8.95323E+00 -6.29387E+00 -7.84896E+00 -4.03608E+00 -5.15586E-01 -7.75444E+00 -1.09754E+01
  -4.41866E+00 -1.35595E+01 -1.05687E+01 -2.01495E+01 -1.03769E+01 -1.63513E+01 -2.09224E+01 -1.11896E+01 -2.54936E+01 -5.30936E+00
  -7.65783E+00 -1.15395E+01 -1.31320E+01 -5.98871E+00 -1.68325E+00 -9.17771E+00 -4.92940E+00  1.80158E+00  5.68925E+00  7.84783E+00
   2.18888E+01  2.13749E+01  2.81377E+01  2.65492E+01  3.41510E+01  3.60649E+01  4.95006E+01  4.50315E+01  4.19239E+01  4.12204E+01
   3.88218E+01  4.66779E+01  4.44413E+01  4.21838E+01  4.78535E+01  5.00378E+01  4.36548E+01  3.90740E+01  3.88049E+01  3.08329E+01
   2.72248E+01  3.68112E+01  4.24263E+01  1.93106E+01  1.90254E+01  1.45429E+01  1.79963E+01  2.34220E+01  2.21906E+01  1.22669E+01
   2.22091E+01  1.31650E+01  2.67608E+01  1.38571E+01  1.30323E+01  6.38909E+00  1.26142E+01  2.12636E+01  1.78242E+01  1.33114E+01
   1.53817E+01  1.23951E+01  1.06235E+01  4.11114E+00  6.93451E+00  3.53754E+00  5.74077E+00  1.12911E+01  1.83315E+01  7.26236E+00
   1.12070E+01  1.09400E+01  5.42210E-01  8.05876E+00  8.13217E+00 -5.91163E+00  1.37522E+01  9.69725E+00  7.55697E+00  1.44568E+00
   6.53479E+00  5.26394E+00  1.29339E+01  7.86033E+00  5.12639E+00  3.82178E+00  6.86310E+00  1.12016E+01  8.19581E+00  4.61241E+00
   8.89419E+00 -2.93978E+00  1.50588E+01  3.85550E+00  1.87013E+00  4.54212E+00 -1.17101E+00  7.54966E+00  2.30024E+00  5.78808E+00
   7.14337E+00  1.43221E+01 -6.44104E+00  3.96199E+00 -8.17850E+00  5.31969E-01 -1.68074E+00 -5.29670E+00  4.14744E+00  8.13180E-01
  -3.15690E+00  1.15637E+00  6.66683E+00  5.59519E+00  2.63934E-01  1.32528E+00  9.10020E+00 -1.00505E+00  1.18500E+01 -3.29047E+00
  -2.15352E+00 -2.08242E+00  1.77270E+00 -6.39980E+00 -3.94896E+00 -5.97596E+00 -3.19984E+00  9.41255E+00 -5.41189E+00  2.32567E+00
  -5.37039E+00 -2.79131E+00  1.08213E+00 -9.86765E-01 -2.57084E+00  5.31465E+00  2.93579E+00 -2.44097E+00 -9.44674E+00  8.71875E-01
  -2.02787E+00 -4.58930E+00 -5.29705E-01 -4.15012E-01 -2.02769E+00 -6.70318E+00 -1.94818E+00  5.46491E+00 -3.89998E+00  4.56728E+00
  -9.74264E-01  6.23238E-01  2.10108E+00 -1.22933E+00  2.32200E+00 -8.32169E+00 -2.97324E+00  3.92569E+00 -5.47576E+00 -3.58739E+00
   6.10731E+00 -1.58349E+00 -1.61450E+00 -4.11004E+00  2.05737E+00 -5.50735E+00 -5.07951E+00  5.29056E+00 -3.53475E+00 -7.60894E-01
  -8.48014E+00 -5.15491E+00 -5.35983E+00 -5.56661E-02 -3.32347E+00 -1.96464E+00 -3.56755E+00 -1.51147E+00 -2.21764E+00 -6.66799E+00
  -1.09146E+01  2.73102E+00 -2.71872E-01 -5.25469E+00 -1.02147E+01 -3.65869E+00 -9.50250E+00 -3.01184E+00
 NY points of the fit to the data follow
  -7.74965E+00 -8.51470E+00 -9.11986E+00 -9.53539E+00 -9.75682E+00 -9.78937E+00 -9.67952E+00 -9.55596E+00 -9.51586E+00 -9.50792E+00
  -9.48495E+00 -9.44639E+00 -9.40066E+00 -9.33016E+00 -9.18986E+00 -8.94369E+00 -8.59487E+00 -8.19572E+00 -7.89400E+00 -7.81133E+00
  -7.89057E+00 -8.05196E+00 -8.24381E+00 -8.39791E+00 -8.38014E+00 -8.17814E+00 -7.90342E+00 -7.64940E+00 -7.48554E+00 -7.46101E+00
  -7.56141E+00 -7.66741E+00 -7.68246E+00 -7.57238E+00 -7.32941E+00 -7.00267E+00 -6.76449E+00 -6.75495E+00 -6.97937E+00 -7.33871E+00
  -7.65168E+00 -7.72778E+00 -7.45517E+00 -6.99459E+00 -6.55874E+00 -6.23438E+00 -6.05399E+00 -6.01598E+00 -6.06961E+00 -6.13420E+00
  -6.20817E+00 -6.29731E+00 -6.40644E+00 -6.57732E+00 -6.84457E+00 -7.18289E+00 -7.49438E+00 -7.66947E+00 -7.68062E+00 -7.59899E+00
  -7.50012E+00 -7.41400E+00 -7.34654E+00 -7.29982E+00 -7.26386E+00 -7.24441E+00 -7.25775E+00 -7.30901E+00 -7.37895E+00 -7.42212E+00
  -7.40744E+00 -7.34029E+00 -7.24462E+00 -7.15969E+00 -7.10457E+00 -7.08242E+00 -7.08877E+00 -7.11398E+00 -7.14611E+00 -7.19229E+00
  -7.27229E+00 -7.38666E+00 -7.50910E+00 -7.62966E+00 -7.73546E+00 -7.81014E+00 -7.85302E+00 -7.87985E+00 -7.89595E+00 -7.90091E+00
  -7.90495E+00 -7.91457E+00 -7.92560E+00 -7.90871E+00 -7.76249E+00 -7.30125E+00 -6.58097E+00 -5.80076E+00 -5.10418E+00 -4.55332E+00
  -4.13638E+00 -3.80331E+00 -3.51812E+00 -3.29105E+00 -3.13890E+00 -3.04243E+00 -2.97574E+00 -2.99533E+00 -3.23194E+00 -3.75638E+00
  -4.50501E+00 -5.27409E+00 -5.78764E+00 -5.88912E+00 -5.79493E+00 -5.65712E+00 -5.50122E+00 -5.33671E+00 -5.16562E+00 -4.99185E+00
  -4.81736E+00 -4.64408E+00 -4.47354E+00 -4.30775E+00 -4.14943E+00 -4.00174E+00 -3.86839E+00 -3.75284E+00 -3.65686E+00 -3.58244E+00
  -3.53133E+00 -3.50241E+00 -3.49618E+00 -3.51480E+00 -3.55873E+00 -3.62592E+00 -3.71206E+00 -3.81231E+00 -3.92139E+00 -4.03578E+00
  -4.15376E+00 -4.27536E+00 -4.40148E+00 -4.53167E+00 -4.66484E+00 -4.79958E+00 -4.93487E+00 -5.07075E+00 -5.20324E+00 -5.32721E+00
  -5.44164E+00 -5.54914E+00 -5.65779E+00 -5.77774E+00 -5.90751E+00 -6.03535E+00 -6.14960E+00 -6.24110E+00 -6.31536E+00 -6.38387E+00
  -6.45319E+00 -6.52505E+00 -6.59918E+00 -6.67463E+00 -6.75159E+00 -6.82791E+00 -6.89541E+00 -6.94774E+00 -6.99075E+00 -7.03808E+00
  -7.09816E+00 -7.17775E+00 -7.26471E+00 -7.34642E+00 -7.41453E+00 -7.45763E+00 -7.47893E+00 -7.48145E+00 -7.47103E+00 -7.46212E+00
  -7.45217E+00 -7.41791E+00 -7.34477E+00 -7.23846E+00 -7.12007E+00 -7.02045E+00 -6.97170E+00 -6.95818E+00 -6.96925E+00 -7.01714E+00
  -7.10449E+00 -7.22647E+00 -7.34659E+00 -7.38752E+00 -7.28326E+00 -7.03686E+00 -6.70688E+00 -6.31725E+00 -5.88955E+00 -5.46531E+00
  -5.08862E+00 -4.83260E+00 -4.83615E+00 -5.04385E+00 -5.26569E+00 -5.40799E+00 -5.50612E+00 -5.62006E+00 -5.80974E+00 -6.09249E+00
  -6.38182E+00 -6.53363E+00 -6.47463E+00 -6.20473E+00 -5.66767E+00 -4.73727E+00 -3.44917E+00 -2.01785E+00 -7.28028E-01  1.54326E-01
   5.36715E-01  6.94202E-01  8.53028E-01  1.00849E+00  1.16356E+00  1.35051E+00  1.58151E+00  1.81637E+00  1.96028E+00  2.03658E+00
   2.14025E+00  2.34863E+00  2.72805E+00  3.33435E+00  4.10902E+00  4.88611E+00  5.61024E+00  6.28119E+00  6.88791E+00  7.44772E+00
   8.01693E+00  8.65059E+00  9.38817E+00  1.02406E+01  1.11176E+01  1.18159E+01  1.21798E+01  1.23354E+01  1.25027E+01  1.28099E+01
   1.33430E+01  1.41203E+01  1.51992E+01  1.66135E+01  1.81391E+01  1.94844E+01  2.04307E+01  2.08975E+01  2.09356E+01  2.06692E+01
   2.01999E+01  1.95443E+01  1.86945E+01  1.77191E+01  1.66827E+01  1.55023E+01  1.40007E+01  1.20743E+01  9.91058E+00  7.94472E+00
   6.69736E+00  6.20753E+00  6.01059E+00  5.94594E+00  5.98246E+00  6.10577E+00  6.30104E+00  6.55128E+00  6.83628E+00  7.13277E+00
   7.41690E+00  7.66732E+00  7.86362E+00  7.98682E+00  8.02162E+00  7.95587E+00  7.78072E+00  7.49118E+00  7.08772E+00  6.57702E+00
   5.97081E+00  5.28409E+00  4.53582E+00  3.74750E+00  2.94049E+00  2.13540E+00  1.35151E+00  6.04271E-01 -9.42019E-02 -7.34576E-01
  -1.31072E+00 -1.81925E+00 -2.25847E+00 -2.62964E+00 -2.93642E+00 -3.18315E+00 -3.37471E+00 -3.51608E+00 -3.61187E+00 -3.66571E+00
  -3.67935E+00 -3.65316E+00 -3.58607E+00 -3.47502E+00 -3.31502E+00 -3.09913E+00 -2.81854E+00 -2.46271E+00 -2.01941E+00 -1.47475E+00
  -8.13928E-01 -2.17804E-02  9.16411E-01  2.01437E+00  3.28396E+00  4.73425E+00  6.37020E+00  8.19170E+00  1.01928E+01  1.23616E+01
   1.46800E+01  1.71236E+01  1.96630E+01  2.22643E+01  2.48927E+01  2.75164E+01  3.01139E+01  3.26893E+01  3.53192E+01  3.82290E+01
   4.12119E+01  4.35148E+01  4.47681E+01  4.49137E+01  4.40553E+01  4.23568E+01  3.99513E+01  3.73480E+01  3.50409E+01  3.30692E+01
   3.13257E+01  2.95108E+01  2.72304E+01  2.44481E+01  2.17025E+01  1.97523E+01  1.91475E+01  1.99750E+01  2.14828E+01  2.28109E+01
   2.37299E+01  2.38240E+01  2.27025E+01  2.03415E+01  1.72952E+01  1.46707E+01  1.28592E+01  1.14927E+01  1.03886E+01  9.47134E+00
   8.70162E+00  8.05645E+00  7.52099E+00  7.08484E+00  6.74010E+00  6.48062E+00  6.30156E+00  6.19901E+00  6.16939E+00  6.20908E+00
   6.31412E+00  6.48031E+00  6.70308E+00  6.97744E+00  7.29763E+00  7.65698E+00  8.04796E+00  8.46238E+00  8.89147E+00  9.32594E+00
   9.75595E+00  1.01713E+01  1.05618E+01  1.09176E+01  1.12294E+01  1.14887E+01  1.16880E+01  1.18210E+01  1.18828E+01  1.18704E+01
   1.17825E+01  1.16196E+01  1.13836E+01  1.10782E+01  1.07085E+01  1.02809E+01  9.80262E+00  9.28174E+00  8.72647E+00  8.14527E+00
   7.54644E+00  6.93803E+00  6.32744E+00  5.72134E+00  5.12551E+00  4.54496E+00  3.98380E+00  3.44535E+00  2.93198E+00  2.44529E+00
   1.98615E+00  1.55495E+00  1.15157E+00  7.75509E-01  4.25851E-01  1.01452E-01 -1.99007E-01 -4.76862E-01 -7.33516E-01 -9.70396E-01
  -1.18898E+00 -1.39069E+00 -1.57686E+00 -1.74869E+00 -1.90732E+00 -2.05386E+00 -2.18936E+00 -2.31475E+00 -2.43089E+00 -2.53849E+00
  -2.63827E+00 -2.73087E+00 -2.81693E+00 -2.89698E+00 -2.97148E+00 -3.04082E+00 -3.10543E+00 -3.16568E+00 -3.22194E+00 -3.27449E+00
  -3.32357E+00 -3.36941E+00 -3.41227E+00 -3.45238E+00 -3.48995E+00 -3.52511E+00 -3.55802E+00 -3.58879E+00 -3.61761E+00 -3.64462E+00
  -3.66994E+00 -3.69361E+00 -3.71576E+00 -3.73645E+00 -3.75583E+00 -3.77396E+00 -3.79092E+00 -3.80671E+00 -3.82143E+00 -3.83514E+00
  -3.84793E+00 -3.85983E+00 -3.87088E+00 -3.88109E+00 -3.89053E+00 -3.89924E+00 -3.90730E+00 -3.91470E+00 -3.92146E+00 -3.92760E+00
  -3.93317E+00 -3.93822E+00 -3.94277E+00 -3.94681E+00 -3.95037E+00 -3.95346E+00 -3.95613E+00 -3.95840E+00 -3.96028E+00 -3.96176E+00
  -3.96286E+00 -3.96360E+00 -3.96402E+00 -3.96412E+00 -3.96390E+00 -3.96335E+00 -3.96249E+00 -3.96134E+00
 NY background values follow
    -9.466E+00   -9.456E+00   -9.446E+00   -9.436E+00   -9.426E+00   -9.416E+00   -9.406E+00   -9.396E+00   -9.385E+00   -9.375E+00
    -9.365E+00   -9.355E+00   -9.345E+00   -9.335E+00   -9.325E+00   -9.315E+00   -9.305E+00   -9.295E+00   -9.285E+00   -9.275E+00
    -9.265E+00   -9.255E+00   -9.244E+00   -9.234E+00   -9.224E+00   -9.214E+00   -9.204E+00   -9.194E+00   -9.184E+00   -9.174E+00
    -9.164E+00   -9.154E+00   -9.144E+00   -9.134E+00   -9.124E+00   -9.114E+00   -9.103E+00   -9.093E+00   -9.083E+00   -9.073E+00
    -9.063E+00   -9.053E+00   -9.043E+00   -9.033E+00   -9.023E+00   -9.013E+00   -9.003E+00   -8.993E+00   -8.983E+00   -8.973E+00
    -8.962E+00   -8.952E+00   -8.942E+00   -8.932E+00   -8.922E+00   -8.912E+00   -8.902E+00   -8.892E+00   -8.882E+00   -8.872E+00
    -8.862E+00   -8.852E+00   -8.842E+00   -8.832E+00   -8.821E+00   -8.811E+00   -8.801E+00   -8.791E+00   -8.781E+00   -8.771E+00
    -8.761E+00   -8.751E+00   -8.741E+00   -8.731E+00   -8.721E+00   -8.711E+00   -8.701E+00   -8.691E+00   -8.680E+00   -8.670E+00
    -8.660E+00   -8.650E+00   -8.640E+00   -8.630E+00   -8.620E+00   -8.610E+00   -8.600E+00   -8.590E+00   -8.580E+00   -8.570E+00
    -8.560E+00   -8.550E+00   -8.539E+00   -8.529E+00   -8.519E+00   -8.509E+00   -8.499E+00   -8.489E+00   -8.479E+00   -8.469E+00
    -8.459E+00   -8.449E+00   -8.439E+00   -8.429E+00   -8.419E+00   -8.409E+00   -8.398E+00   -8.388E+00   -8.378E+00   -8.368E+00
    -8.358E+00   -8.348E+00   -8.338E+00   -8.328E+00   -8.318E+00   -8.308E+00   -8.298E+00   -8.288E+00   -8.278E+00   -8.268E+00
    -8.257E+00   -8.247E+00   -8.237E+00   -8.227E+00   -8.217E+00   -8.207E+00   -8.197E+00   -8.187E+00   -8.177E+00   -8.167E+00
    -8.157E+00   -8.147E+00   -8.137E+00   -8.127E+00   -8.116E+00   -8.106E+00   -8.096E+00   -8.086E+00   -8.076E+00   -8.066E+00
    -8.056E+00   -8.046E+00   -8.036E+00   -8.026E+00   -8.016E+00   -8.006E+00   -7.996E+00   -7.986E+00   -7.975E+00   -7.965E+00
    -7.955E+00   -7.945E+00   -7.935E+00   -7.925E+00   -7.915E+00   -7.905E+00   -7.895E+00   -7.885E+00   -7.875E+00   -7.865E+00
    -7.855E+00   -7.845E+00   -7.834E+00   -7.824E+00   -7.814E+00   -7.804E+00   -7.794E+00   -7.784E+00   -7.774E+00   -7.764E+00
    -7.754E+00   -7.744E+00   -7.734E+00   -7.724E+00   -7.714E+00   -7.704E+00   -7.693E+00   -7.683E+00   -7.673E+00   -7.663E+00
    -7.653E+00   -7.643E+00   -7.633E+00   -7.623E+00   -7.613E+00   -7.603E+00   -7.593E+00   -7.583E+00   -7.573E+00   -7.563E+00
    -7.552E+00   -7.542E+00   -7.532E+00   -7.522E+00   -7.512E+00   -7.502E+00   -7.492E+00   -7.482E+00   -7.472E+00   -7.462E+00
    -7.452E+00   -7.442E+00   -7.432E+00   -7.422E+00   -7.411E+00   -7.401E+00   -7.391E+00   -7.381E+00   -7.371E+00   -7.361E+00
    -7.351E+00   -7.341E+00   -7.331E+00   -7.321E+00   -7.311E+00   -7.301E+00   -7.291E+00   -7.280E+00   -7.270E+00   -7.260E+00
    -7.250E+00   -7.240E+00   -7.230E+00   -7.220E+00   -7.210E+00   -7.200E+00   -7.190E+00   -7.180E+00   -7.170E+00   -7.160E+00
    -7.150E+00   -7.139E+00   -7.129E+00   -7.119E+00   -7.109E+00   -7.099E+00   -7.089E+00   -7.079E+00   -7.069E+00   -7.059E+00
    -7.049E+00   -7.039E+00   -7.029E+00   -7.019E+00   -7.009E+00   -6.998E+00   -6.988E+00   -6.978E+00   -6.968E+00   -6.958E+00
    -6.948E+00   -6.938E+00   -6.928E+00   -6.918E+00   -6.908E+00   -6.898E+00   -6.888E+00   -6.878E+00   -6.867E+00   -6.857E+00
    -6.847E+00   -6.837E+00   -6.827E+00   -6.817E+00   -6.807E+00   -6.797E+00   -6.787E+00   -6.777E+00   -6.767E+00   -6.757E+00
    -6.747E+00   -6.737E+00   -6.726E+00   -6.716E+00   -6.706E+00   -6.696E+00   -6.686E+00   -6.676E+00   -6.666E+00   -6.656E+00
    -6.646E+00   -6.636E+00   -6.626E+00   -6.616E+00   -6.606E+00   -6.596E+00   -6.585E+00   -6.575E+00   -6.565E+00   -6.555E+00
    -6.545E+00   -6.535E+00   -6.525E+00   -6.515E+00   -6.505E+00   -6.495E+00   -6.485E+00   -6.475E+00   -6.465E+00   -6.454E+00
    -6.444E+00   -6.434E+00   -6.424E+00   -6.414E+00   -6.404E+00   -6.394E+00   -6.384E+00   -6.374E+00   -6.364E+00   -6.354E+00
    -6.344E+00   -6.334E+00   -6.324E+00   -6.313E+00   -6.303E+00   -6.293E+00   -6.283E+00   -6.273E+00   -6.263E+00   -6.253E+00
    -6.243E+00   -6.233E+00   -6.223E+00   -6.213E+00   -6.203E+00   -6.193E+00   -6.182E+00   -6.172E+00   -6.162E+00   -6.152E+00
    -6.142E+00   -6.132E+00   -6.122E+00   -6.112E+00   -6.102E+00   -6.092E+00   -6.082E+00   -6.072E+00   -6.062E+00   -6.052E+00
    -6.041E+00   -6.031E+00   -6.021E+00   -6.011E+00   -6.001E+00   -5.991E+00   -5.981E+00   -5.971E+00   -5.961E+00   -5.951E+00
    -5.941E+00   -5.931E+00   -5.921E+00   -5.910E+00   -5.900E+00   -5.890E+00   -5.880E+00   -5.870E+00   -5.860E+00   -5.850E+00
    -5.840E+00   -5.830E+00   -5.820E+00   -5.810E+00   -5.800E+00   -5.790E+00   -5.779E+00   -5.769E+00   -5.759E+00   -5.749E+00
    -5.739E+00   -5.729E+00   -5.719E+00   -5.709E+00   -5.699E+00   -5.689E+00   -5.679E+00   -5.669E+00   -5.659E+00   -5.649E+00
    -5.638E+00   -5.628E+00   -5.618E+00   -5.608E+00   -5.598E+00   -5.588E+00   -5.578E+00   -5.568E+00   -5.558E+00   -5.548E+00
    -5.538E+00   -5.528E+00   -5.518E+00   -5.507E+00   -5.497E+00   -5.487E+00   -5.477E+00   -5.467E+00   -5.457E+00   -5.447E+00
    -5.437E+00   -5.427E+00   -5.417E+00   -5.407E+00   -5.397E+00   -5.387E+00   -5.376E+00   -5.366E+00   -5.356E+00   -5.346E+00
    -5.336E+00   -5.326E+00   -5.316E+00   -5.306E+00   -5.296E+00   -5.286E+00   -5.276E+00   -5.266E+00   -5.256E+00   -5.245E+00
    -5.235E+00   -5.225E+00   -5.215E+00   -5.205E+00   -5.195E+00   -5.185E+00   -5.175E+00   -5.165E+00   -5.155E+00   -5.145E+00
    -5.135E+00   -5.125E+00   -5.114E+00   -5.104E+00   -5.094E+00   -5.084E+00   -5.074E+00   -5.064E+00   -5.054E+00   -5.044E+00
    -5.034E+00   -5.024E+00   -5.014E+00   -5.004E+00   -4.994E+00   -4.983E+00   -4.973E+00   -4.963E+00   -4.953E+00   -4.943E+00
    -4.933E+00   -4.923E+00   -4.913E+00   -4.903E+00   -4.893E+00   -4.883E+00   -4.873E+00   -4.863E+00   -4.852E+00   -4.842E+00
    -4.832E+00   -4.822E+00   -4.812E+00   -4.802E+00   -4.792E+00   -4.782E+00   -4.772E+00   -4.762E+00   -4.752E+00   -4.742E+00
    -4.732E+00   -4.721E+00   -4.711E+00   -4.701E+00   -4.691E+00   -4.681E+00   -4.671E+00   -4.661E+00   -4.651E+00   -4.641E+00
    -4.631E+00   -4.621E+00   -4.611E+00   -4.601E+00   -4.590E+00   -4.580E+00   -4.570E+00   -4.560E+00   -4.550E+00   -4.540E+00
    -4.530E+00   -4.520E+00   -4.510E+00   -4.500E+00   -4.490E+00   -4.480E+00   -4.470E+00   -4.459E+00
 Asp      Conc. = 3.64E+01
