 LCModel (Version 6.3-1L) Copyright: S.W. Provencher.          Ref.: Magn. Reson. Med. 30:672-679 (1993).                
 Slice#1 Row#10 Col#7  PD_05_press_2_raw_act
 36 lines in following concentration table = NCONC+1
    Conc.  %SD /Cr+PCr  Metabolite                                         
    0.000 999%   0.000 Ala                                                 
    0.000 999%   0.000 Asp                                                 
  571.636  48%   0.503 Cr                                                  
  565.620  50%   0.497 PCr                                                 
   51.157 270% 4.5E-02 GABA                                                
   34.400 391% 3.0E-02 Glc                                                 
 1.22E+03  38%   1.071 Gln                                                 
 1.44E+03  36%   1.264 Glu                                                 
  223.775  13%   0.197 GPC                                                 
    0.000 999%   0.000 PCh                                                 
  730.197  16%   0.642 GSH                                                 
 1.80E+03  20%   1.580 Ins                                                 
  254.966  95%   0.224 Lac                                                 
 2.47E+03   5%   2.172 NAA                                                 
    0.000 999%   0.000 NAAG                                                
   54.184  59% 4.8E-02 Scyllo                                              
   91.688 218% 8.1E-02 Tau                                                 
   93.789 153% 8.2E-02 -CrCH2                                              
  223.775  13%   0.197 GPC+PCh                                             
 2.47E+03   5%   2.172 NAA+NAAG                                            
 1.14E+03   7%   1.000 Cr+PCr                                              
 2.66E+03  30%   2.335 Glu+Gln                                             
 2.44E+03  28%   2.147 Lip13a                                              
    0.000 999%   0.000 Lip13b                                              
  267.778 142%   0.235 Lip09                                               
 1.83E+03  22%   1.605 MM09                                                
  577.363  47%   0.508 Lip20                                               
 4.18E+03  12%   3.679 MM20                                                
  560.887  48%   0.493 MM12                                                
 1.96E+03  25%   1.726 MM14                                                
    0.000 999%   0.000 MM17                                                
 2.44E+03  28%   2.147 Lip13a+Lip13b                                       
 4.97E+03   9%   4.366 MM14+Lip13a+Lip13b+MM12                             
 2.09E+03  11%   1.840 MM09+Lip09                                          
 4.76E+03  10%   4.187 MM20+Lip20                                          
   6 lines in following misc. output table
  FWHM = 0.069 ppm    S/N =   8                                            
  Data shift =-0.008 ppm                                                   
  Ph: -15 deg       0.9 deg/ppm                                            
  alphaB,S = 5.3E+00,   5.5E+01                                            
   14 spline knots.   Ns = 9(1)                                            
  (12) 4 infls.   ( 9) 1 extrs.                                            
  498 points on ppm-axis = NY
      4.000000     3.992357     3.984714     3.977070     3.969427     3.961784     3.954141     3.946497     3.938854     3.931211
      3.923568     3.915925     3.908281     3.900638     3.892995     3.885352     3.877708     3.870065     3.862422     3.854779
      3.847136     3.839492     3.831849     3.824206     3.816563     3.808919     3.801276     3.793633     3.785990     3.778347
      3.770703     3.763060     3.755417     3.747774     3.740130     3.732487     3.724844     3.717201     3.709558     3.701914
      3.694271     3.686628     3.678985     3.671341     3.663698     3.656055     3.648412     3.640769     3.633125     3.625482
      3.617839     3.610196     3.602552     3.594909     3.587266     3.579623     3.571980     3.564336     3.556693     3.549050
      3.541407     3.533763     3.526120     3.518477     3.510834     3.503191     3.495547     3.487904     3.480261     3.472618
      3.464974     3.457331     3.449688     3.442045     3.434402     3.426758     3.419115     3.411472     3.403829     3.396185
      3.388542     3.380899     3.373256     3.365613     3.357969     3.350326     3.342683     3.335040     3.327396     3.319753
      3.312110     3.304467     3.296824     3.289180     3.281537     3.273894     3.266251     3.258607     3.250964     3.243321
      3.235678     3.228034     3.220391     3.212748     3.205105     3.197462     3.189818     3.182175     3.174532     3.166889
      3.159245     3.151602     3.143959     3.136316     3.128673     3.121029     3.113386     3.105743     3.098100     3.090456
      3.082813     3.075170     3.067527     3.059884     3.052240     3.044597     3.036954     3.029311     3.021667     3.014024
      3.006381     2.998738     2.991095     2.983451     2.975808     2.968165     2.960522     2.952878     2.945235     2.937592
      2.929949     2.922306     2.914662     2.907019     2.899376     2.891733     2.884089     2.876446     2.868803     2.861160
      2.853517     2.845873     2.838230     2.830587     2.822944     2.815300     2.807657     2.800014     2.792371     2.784728
      2.777084     2.769441     2.761798     2.754155     2.746511     2.738868     2.731225     2.723582     2.715939     2.708295
      2.700652     2.693009     2.685366     2.677722     2.670079     2.662436     2.654793     2.647150     2.639506     2.631863
      2.624220     2.616577     2.608933     2.601290     2.593647     2.586004     2.578361     2.570717     2.563074     2.555431
      2.547788     2.540144     2.532501     2.524858     2.517215     2.509572     2.501928     2.494285     2.486642     2.478999
      2.471355     2.463712     2.456069     2.448426     2.440783     2.433139     2.425496     2.417853     2.410210     2.402566
      2.394923     2.387280     2.379637     2.371994     2.364350     2.356707     2.349064     2.341421     2.333777     2.326134
      2.318491     2.310848     2.303205     2.295561     2.287918     2.280275     2.272632     2.264988     2.257345     2.249702
      2.242059     2.234416     2.226772     2.219129     2.211486     2.203843     2.196199     2.188556     2.180913     2.173270
      2.165627     2.157983     2.150340     2.142697     2.135054     2.127410     2.119767     2.112124     2.104481     2.096838
      2.089194     2.081551     2.073908     2.066265     2.058621     2.050978     2.043335     2.035692     2.028049     2.020405
      2.012762     2.005119     1.997476     1.989833     1.982190     1.974546     1.966903     1.959260     1.951617     1.943974
      1.936331     1.928688     1.921045     1.913402     1.905759     1.898115     1.890472     1.882829     1.875186     1.867543
      1.859900     1.852257     1.844614     1.836971     1.829327     1.821684     1.814041     1.806398     1.798755     1.791112
      1.783469     1.775826     1.768183     1.760540     1.752896     1.745253     1.737610     1.729967     1.722324     1.714681
      1.707038     1.699395     1.691752     1.684108     1.676465     1.668822     1.661179     1.653536     1.645893     1.638250
      1.630607     1.622964     1.615321     1.607677     1.600034     1.592391     1.584748     1.577105     1.569462     1.561819
      1.554176     1.546533     1.538890     1.531246     1.523603     1.515960     1.508317     1.500674     1.493031     1.485388
      1.477745     1.470102     1.462458     1.454815     1.447172     1.439529     1.431886     1.424243     1.416600     1.408957
      1.401314     1.393671     1.386027     1.378384     1.370741     1.363098     1.355455     1.347812     1.340169     1.332526
      1.324883     1.317240     1.309596     1.301953     1.294310     1.286667     1.279024     1.271381     1.263738     1.256095
      1.248452     1.240808     1.233165     1.225522     1.217879     1.210236     1.202593     1.194950     1.187307     1.179664
      1.172021     1.164377     1.156734     1.149091     1.141448     1.133805     1.126162     1.118519     1.110876     1.103233
      1.095590     1.087946     1.080303     1.072660     1.065017     1.057374     1.049731     1.042088     1.034445     1.026802
      1.019158     1.011515     1.003872     0.996229     0.988586     0.980943     0.973300     0.965657     0.958014     0.950371
      0.942727     0.935084     0.927441     0.919798     0.912155     0.904512     0.896869     0.889226     0.881583     0.873940
      0.866296     0.858653     0.851010     0.843367     0.835724     0.828081     0.820438     0.812795     0.805152     0.797508
      0.789865     0.782222     0.774579     0.766936     0.759293     0.751650     0.744007     0.736364     0.728721     0.721077
      0.713434     0.705791     0.698148     0.690505     0.682862     0.675219     0.667576     0.659933     0.652290     0.644646
      0.637003     0.629360     0.621717     0.614074     0.606431     0.598788     0.591145     0.583502     0.575858     0.568215
      0.560572     0.552929     0.545286     0.537643     0.530000     0.522357     0.514714     0.507071     0.499427     0.491784
      0.484141     0.476498     0.468855     0.461212     0.453569     0.445925     0.438282     0.430639     0.422996     0.415353
      0.407710     0.400067     0.392424     0.384780     0.377137     0.369494     0.361851     0.354208     0.346565     0.338922
      0.331278     0.323635     0.315992     0.308349     0.300706     0.293063     0.285420     0.277777     0.270133     0.262490
      0.254847     0.247204     0.239561     0.231918     0.224275     0.216631     0.208988     0.201345
 NY phased data points follow
   7.51903E+00  1.28684E+01  5.39130E+00  1.35638E+01  8.92792E+00  2.03950E+01  9.41529E+00  2.23080E+01  1.68006E+01  2.05710E+01
   1.90616E+01  2.64969E+01  1.94431E+01  2.13462E+01  1.62784E+01  1.93176E+01  1.59200E+01  1.84370E+01  1.21269E+01  2.10335E+01
   1.26202E+01  1.82511E+01  1.11870E+01  1.76090E+01  1.35891E+01  1.79072E+01  1.50335E+01  1.79112E+01  1.66912E+01  2.03358E+01
   1.36702E+01  1.86938E+01  1.08403E+01  1.26366E+01  1.05605E+01  1.87226E+01  1.46010E+01  1.59569E+01  1.78788E+01  1.43899E+01
   7.33642E+00  1.44075E+01  5.35317E+00  1.61473E+01  1.38270E+01  1.32415E+01  1.66609E+01  1.50976E+01  1.36023E+01  2.24269E+01
   1.04784E+01  1.07682E+01  7.45319E+00  7.66682E+00  8.49986E+00  1.53471E+01  1.45685E+01  1.21799E+01  9.23775E+00  1.22560E+01
   9.24290E+00  1.02708E+01  7.78834E+00  6.82797E+00  1.14120E+01  1.14792E+01  4.40252E+00  1.27430E+00  4.76519E+00  8.50531E+00
   1.18075E+01  5.69091E+00  7.09974E+00  8.13905E+00  2.91763E+00  5.74007E+00  1.95548E+00  1.01767E+01 -2.20657E+00  2.45156E+00
   8.91528E+00  2.42768E+00  6.10926E+00  6.19915E+00  7.17056E+00  5.88818E+00  6.46983E+00  7.35818E+00  4.75197E-01 -5.92690E-01
   5.88780E+00  5.01335E+00  4.45454E+00  4.85079E+00  6.94493E+00  6.07049E+00  5.65164E+00  7.38630E+00  6.65555E+00  8.25670E+00
   1.42065E+01  2.15780E+01  1.18380E+01  1.76464E+01  1.59548E+01  1.52892E+01  1.63165E+01  1.58120E+01  1.44066E+01  1.53127E+01
   1.39736E+01  1.13766E+01  6.58508E+00  6.15867E+00  8.50074E+00  9.05072E+00  8.67231E+00  9.61649E+00  3.14964E+00  9.16501E+00
   5.32088E-01  7.26480E+00  7.30173E+00  2.08171E+01  1.88770E+01  2.47878E+01  2.87823E+01  3.46037E+01  2.98166E+01  3.88607E+01
   3.63291E+01  3.87446E+01  3.18525E+01  2.86889E+01  1.65326E+01  1.81238E+01  4.43863E+00  1.46289E+01  1.29780E+01  1.36391E+01
   1.29080E+01  1.27408E+01  9.03571E+00  6.67442E+00  1.04823E+01  8.60237E+00  1.02371E+01  6.22490E+00  9.45905E+00  2.93391E+00
   3.65662E+00 -1.39383E+00  1.96163E+00  2.71513E+00  4.69680E+00  3.99730E+00  2.73671E+00  5.17252E+00  5.60799E+00  3.29854E+00
   4.30101E+00  7.73445E+00  1.47678E-01  9.22170E+00  4.04120E+00  3.67530E+00  4.07942E+00 -2.46171E+00  5.36741E+00  6.64487E-01
   6.03850E-01 -4.26923E+00 -4.07118E+00 -3.44138E+00 -8.83057E+00 -3.81295E+00 -1.01914E+01 -1.34615E+00 -5.32557E+00 -6.17041E+00
  -1.37192E+01 -1.07116E+01 -9.05795E+00 -7.40548E+00 -9.92744E+00 -1.84648E+00 -6.42598E+00 -7.05250E-01  2.78141E+00  2.00454E+00
  -8.30893E-01  4.31389E+00  7.21566E+00 -2.78863E+00  2.57956E+00  2.08579E-01 -4.76928E+00 -4.13713E-01 -5.93536E+00 -3.99756E+00
   4.78938E-01 -3.15322E+00 -5.75123E+00  3.47375E+00  3.77035E+00  8.21098E+00  3.17869E+00  6.74729E+00  6.93361E+00  2.07688E+00
   7.55439E+00  9.93472E+00  9.43306E+00  7.52761E+00  1.46638E+01  1.78177E+01  1.42779E+01  1.82073E+01  1.17214E+01  1.64416E+01
   1.06017E+01  1.51015E+01  6.55265E+00  9.34826E+00  8.72782E+00  9.98688E+00  1.13317E+01  6.68431E+00  1.11614E+01  1.54654E+01
   1.76856E+01  1.84293E+01  1.86879E+01  1.08442E+01  1.43871E+01  2.10371E+01  1.28415E+01  2.08724E+01  1.52355E+01  1.91938E+01
   1.75078E+01  1.32341E+01  1.45261E+01  2.04167E+01  1.98901E+01  9.79188E+00  1.70680E+01  1.67430E+01  2.06651E+01  1.21586E+01
   1.23132E+01  1.20876E+01  1.65589E+01  2.37089E+01  1.82666E+01  2.20903E+01  3.33104E+01  3.83955E+01  4.92256E+01  6.97019E+01
   7.44824E+01  8.05210E+01  7.81383E+01  7.57280E+01  7.19392E+01  6.65986E+01  5.50243E+01  4.29029E+01  3.63543E+01  2.86563E+01
   2.67479E+01  2.72123E+01  1.71239E+01  1.55991E+01  1.37856E+01  1.05984E+01  8.14835E+00  7.45215E+00  1.36694E+01  6.58741E+00
   6.05527E+00  1.28210E+01  2.65623E+00 -1.31691E+00 -1.92582E+00  4.71276E+00 -3.11226E+00  2.03342E+00 -4.89723E+00  1.62837E+00
   3.36005E+00 -4.34166E-01 -2.71100E+00 -3.09063E+00 -7.00662E-01 -5.82799E+00 -1.82966E+00 -2.37421E+00 -7.91269E+00 -8.80701E-01
  -5.77232E+00  4.65847E+00 -3.89572E+00 -1.32553E+00 -3.61028E+00  3.18854E+00  2.93332E+00 -3.65185E+00 -2.03064E+00  5.95658E-02
   6.93436E-01  1.70805E+00  4.22399E+00  2.93864E+00  2.38686E+00  6.92681E+00  1.10237E+01  9.72415E+00  9.17075E+00  1.04456E+01
   6.29578E+00  3.68996E+00  1.47362E+00  7.50833E+00  1.82866E+00  6.49906E+00  3.65418E-01  8.04998E+00  9.59330E+00  1.36579E+01
   1.36634E+01  1.77954E+01  1.76105E+01  1.52611E+01  1.31638E+01  2.12523E+01  1.18907E+01  1.85338E+01  2.00636E+01  2.60574E+01
   1.98842E+01  2.40510E+01  1.66673E+01  2.73162E+01  2.09882E+01  1.86931E+01  1.68517E+01  2.80376E+01  1.96247E+01  1.55766E+01
   2.24609E+01  1.85827E+01  1.48277E+01  2.45718E+01  1.71325E+01  1.89482E+01  2.36571E+01  1.80370E+01  1.80534E+01  1.94202E+01
   1.81866E+01  2.29565E+01  1.36640E+01  1.28616E+01  1.79779E+01  2.10357E+01  1.83911E+01  1.90851E+01  1.29484E+01  1.99480E+01
   1.67318E+01  1.66570E+01  1.16669E+01  1.38276E+01  1.22573E+01  6.11891E+00  3.71662E+00  3.65664E+00  3.63908E+00  1.09273E+01
   6.29042E+00  1.25394E+00 -1.30461E+00  5.09176E+00 -9.18269E-01  2.52646E+00 -1.92804E+00  6.12698E+00  5.89935E+00  8.83976E+00
   5.02445E+00  8.15526E+00  4.90557E+00  1.14557E+01  1.39546E+01  1.42119E+01  1.24010E+01  1.12141E+01  1.35897E+01  1.03690E+01
   1.63779E+01  1.61599E+01  1.79101E+01  1.54233E+01  1.34030E+01  1.29240E+01  1.05609E+01  1.54824E+01  1.48412E+01  1.38861E+01
   1.12225E+01  1.75025E+01  1.26535E+01  9.18509E+00  1.16243E+01  1.07960E+01  1.39202E+01  1.35705E+01  9.34594E+00  1.64994E+01
   6.79253E+00  1.07278E+01  1.07431E+01  1.52678E+01  8.28961E+00  8.42206E+00  8.64073E+00  9.56075E+00  5.95600E+00  7.98534E+00
   8.33675E+00  9.33848E+00  4.10322E+00  9.54556E+00  6.68763E+00  3.85380E-01  7.20976E+00  6.39112E+00  9.43885E+00  2.69975E+00
   1.25564E+00 -2.73906E+00  4.23335E+00  6.34870E+00  3.48216E+00  3.75574E+00  6.05998E+00  2.28770E+00  3.77090E-01 -8.20190E-01
   5.53192E+00 -1.10994E+00 -5.68565E+00  3.61904E+00  4.47577E+00  4.39808E+00  6.63299E+00  5.32817E-01  3.85272E+00  1.45796E+00
   6.55540E+00 -3.60099E-01  3.42864E+00  3.84821E+00  8.57497E+00  4.00140E+00  7.68023E+00  5.96790E+00  1.28835E+01 -1.70933E-02
   6.52437E+00  5.58839E+00 -5.02984E-02  1.41643E+00  1.42572E+00  5.15812E+00  1.70104E+00  1.71103E+00  3.97042E-01  1.84637E+00
   5.06186E-01  5.23988E+00  1.24427E+00 -7.96357E-01  5.32482E+00  8.76029E+00  2.32985E+00  6.08706E+00  4.61626E+00 -4.43754E-01
   5.70668E+00 -7.13327E-01 -1.12633E+00 -1.65134E+00  8.11690E-01  3.31061E+00  1.13201E+00 -1.80880E+00
 NY points of the fit to the data follow
   1.04187E+01  9.70531E+00  8.92389E+00  8.69753E+00  9.43524E+00  1.06067E+01  1.24407E+01  1.50363E+01  1.76372E+01  1.99582E+01
   2.19310E+01  2.31224E+01  2.32823E+01  2.26162E+01  2.14513E+01  2.00070E+01  1.84473E+01  1.67715E+01  1.48009E+01  1.27790E+01
   1.17019E+01  1.08092E+01  9.33162E+00  8.80151E+00  9.54627E+00  1.08151E+01  1.27044E+01  1.52675E+01  1.76912E+01  1.93981E+01
   2.05487E+01  2.12680E+01  2.13138E+01  2.04947E+01  1.88015E+01  1.65883E+01  1.45424E+01  1.30641E+01  1.16837E+01  9.58274E+00
   8.15831E+00  8.12702E+00  8.59005E+00  9.64688E+00  1.15038E+01  1.36293E+01  1.52423E+01  1.58060E+01  1.56165E+01  1.50360E+01
   1.41089E+01  1.28752E+01  1.13130E+01  9.71543E+00  8.64927E+00  8.28497E+00  8.20666E+00  7.95442E+00  7.79113E+00  8.02357E+00
   8.33083E+00  8.39998E+00  8.26488E+00  8.05478E+00  7.78739E+00  7.46391E+00  7.22070E+00  7.22462E+00  7.39329E+00  7.53837E+00
   7.70854E+00  7.86104E+00  7.96586E+00  8.10448E+00  8.20454E+00  8.21064E+00  8.07686E+00  7.79511E+00  7.45959E+00  7.12904E+00
   6.96408E+00  6.83334E+00  6.60061E+00  6.39590E+00  6.12883E+00  5.62298E+00  4.92705E+00  4.30959E+00  3.90503E+00  3.67213E+00
   3.56560E+00  3.55098E+00  3.63251E+00  3.88868E+00  4.30181E+00  4.46017E+00  4.39874E+00  5.14945E+00  7.02008E+00  9.56581E+00
   1.26383E+01  1.56908E+01  1.76719E+01  1.83841E+01  1.83823E+01  1.80882E+01  1.73170E+01  1.59428E+01  1.40412E+01  1.20582E+01
   1.06253E+01  9.75349E+00  8.49072E+00  6.38248E+00  5.31311E+00  5.15929E+00  5.17881E+00  5.31385E+00  5.63571E+00  6.08063E+00
   6.65550E+00  8.06744E+00  1.09969E+01  1.53752E+01  2.08877E+01  2.67964E+01  3.16400E+01  3.44715E+01  3.55967E+01  3.57281E+01
   3.49668E+01  3.27933E+01  2.90075E+01  2.43707E+01  2.01697E+01  1.71397E+01  1.44468E+01  1.10251E+01  8.16851E+00  7.14386E+00
   7.12980E+00  7.27415E+00  7.25459E+00  7.09190E+00  7.07777E+00  7.09115E+00  6.96492E+00  6.77356E+00  6.46129E+00  5.99750E+00
   5.51310E+00  4.96636E+00  4.58656E+00  4.34127E+00  4.20122E+00  4.10813E+00  3.95824E+00  3.71243E+00  3.35133E+00  2.94489E+00
   2.64012E+00  2.50694E+00  2.51096E+00  2.56867E+00  2.53015E+00  2.30461E+00  2.00939E+00  1.77190E+00  1.53575E+00  1.18964E+00
   7.09483E-01  1.93221E-01 -2.71368E-01 -7.98392E-01 -1.32072E+00 -1.84029E+00 -2.22640E+00 -2.30114E+00 -2.36545E+00 -2.55327E+00
  -2.70044E+00 -2.71357E+00 -2.73068E+00 -2.77074E+00 -2.72325E+00 -2.41415E+00 -1.56989E+00 -1.87883E-01  1.13247E+00  2.12110E+00
   2.76957E+00  3.11004E+00  3.25976E+00  3.06376E+00  2.63956E+00  2.20674E+00  2.07844E+00  2.42799E+00  3.11540E+00  3.89403E+00
   4.95529E+00  6.19639E+00  7.46968E+00  8.55951E+00  8.90103E+00  8.29543E+00  7.20969E+00  5.75060E+00  3.80489E+00  2.26334E+00
   1.64919E+00  1.77943E+00  2.47192E+00  3.86622E+00  5.66638E+00  7.21710E+00  8.19178E+00  8.41225E+00  7.97546E+00  7.30834E+00
   6.82477E+00  6.07357E+00  5.37238E+00  5.55855E+00  6.34239E+00  6.94947E+00  7.25952E+00  7.85262E+00  8.85955E+00  9.76118E+00
   1.04560E+01  1.12054E+01  1.22666E+01  1.33003E+01  1.38433E+01  1.42038E+01  1.47724E+01  1.51816E+01  1.52875E+01  1.53037E+01
   1.53200E+01  1.53534E+01  1.54555E+01  1.56655E+01  1.59036E+01  1.61732E+01  1.65427E+01  1.68139E+01  1.72705E+01  1.79433E+01
   1.85817E+01  1.92477E+01  2.04591E+01  2.17522E+01  2.26378E+01  2.57863E+01  3.26096E+01  4.22200E+01  5.42033E+01  6.64948E+01
   7.47110E+01  7.75241E+01  7.70368E+01  7.50816E+01  7.13136E+01  6.48217E+01  5.58186E+01  4.62693E+01  3.87942E+01  3.37968E+01
   2.76341E+01  1.80009E+01  1.21540E+01  1.04076E+01  9.48037E+00  8.82089E+00  8.34455E+00  7.87408E+00  7.41692E+00  6.97528E+00
   6.55190E+00  6.16167E+00  5.82376E+00  5.49706E+00  5.16590E+00  4.86526E+00  4.60891E+00  4.38910E+00  4.19978E+00  4.03179E+00
   3.88648E+00  3.76672E+00  3.65275E+00  3.54657E+00  3.45222E+00  3.36580E+00  3.28568E+00  3.21566E+00  3.15865E+00  3.11228E+00
   3.07345E+00  3.04477E+00  3.02600E+00  3.01463E+00  3.01350E+00  3.02258E+00  3.04190E+00  3.07223E+00  3.11525E+00  3.17310E+00
   3.24845E+00  3.34396E+00  3.46236E+00  3.60629E+00  3.77999E+00  3.98846E+00  4.23539E+00  4.52448E+00  4.85957E+00  5.24426E+00
   5.68180E+00  6.17433E+00  6.72273E+00  7.32634E+00  7.98328E+00  8.69009E+00  9.44172E+00  1.02310E+01  1.10492E+01  1.18861E+01
   1.27306E+01  1.35714E+01  1.43972E+01  1.51968E+01  1.59607E+01  1.66813E+01  1.73548E+01  1.79828E+01  1.85734E+01  1.91096E+01
   1.96005E+01  2.01469E+01  2.07610E+01  2.13262E+01  2.17711E+01  2.20066E+01  2.19066E+01  2.14732E+01  2.08496E+01  2.02376E+01
   1.97411E+01  1.93520E+01  1.91665E+01  1.93069E+01  1.96781E+01  2.00407E+01  2.01884E+01  2.01049E+01  2.01001E+01  2.01624E+01
   1.99354E+01  1.94192E+01  1.87590E+01  1.81068E+01  1.74122E+01  1.64225E+01  1.53393E+01  1.43898E+01  1.35140E+01  1.26860E+01
   1.19025E+01  1.11654E+01  1.04781E+01  9.84402E+00  9.26597E+00  8.74611E+00  8.28586E+00  7.88564E+00  7.54517E+00  7.26368E+00
   7.04046E+00  6.87470E+00  6.76565E+00  6.71237E+00  6.71412E+00  6.77030E+00  6.88079E+00  7.04547E+00  7.26420E+00  7.53639E+00
   7.86117E+00  8.23720E+00  8.66262E+00  9.13445E+00  9.64847E+00  1.01989E+01  1.07787E+01  1.13793E+01  1.19909E+01  1.26022E+01
   1.32007E+01  1.37728E+01  1.43050E+01  1.47839E+01  1.51969E+01  1.55322E+01  1.57800E+01  1.59324E+01  1.59845E+01  1.59340E+01
   1.57817E+01  1.55310E+01  1.51881E+01  1.47615E+01  1.42619E+01  1.37012E+01  1.30924E+01  1.24486E+01  1.17827E+01  1.11070E+01
   1.04329E+01  9.77056E+00  9.12826E+00  8.51269E+00  7.92903E+00  7.38093E+00  6.87078E+00  6.39950E+00  5.96695E+00  5.57202E+00
   5.21318E+00  4.88841E+00  4.59548E+00  4.33178E+00  4.09468E+00  3.88153E+00  3.68999E+00  3.51786E+00  3.36310E+00  3.22366E+00
   3.09778E+00  2.98383E+00  2.88058E+00  2.78687E+00  2.70167E+00  2.62388E+00  2.55267E+00  2.48732E+00  2.42734E+00  2.37219E+00
   2.32138E+00  2.27433E+00  2.23071E+00  2.19021E+00  2.15269E+00  2.11783E+00  2.08537E+00  2.05498E+00  2.02655E+00  1.99996E+00
   1.97518E+00  1.95197E+00  1.93018E+00  1.90962E+00  1.89029E+00  1.87215E+00  1.85519E+00  1.83919E+00  1.82407E+00  1.80972E+00
   1.79622E+00  1.78354E+00  1.77166E+00  1.76038E+00  1.74967E+00  1.73949E+00  1.72996E+00  1.72100E+00  1.71258E+00  1.70454E+00
   1.69691E+00  1.68968E+00  1.68295E+00  1.67663E+00  1.67068E+00  1.66498E+00  1.65959E+00  1.65453E+00  1.64988E+00  1.64552E+00
   1.64141E+00  1.63748E+00  1.63384E+00  1.63049E+00  1.62748E+00  1.62468E+00  1.62208E+00  1.61964E+00
 NY background values follow
     3.517E+00    3.505E+00    3.493E+00    3.481E+00    3.469E+00    3.457E+00    3.445E+00    3.433E+00    3.421E+00    3.409E+00
     3.397E+00    3.385E+00    3.373E+00    3.361E+00    3.349E+00    3.337E+00    3.325E+00    3.313E+00    3.301E+00    3.289E+00
     3.276E+00    3.264E+00    3.252E+00    3.240E+00    3.228E+00    3.216E+00    3.204E+00    3.192E+00    3.180E+00    3.168E+00
     3.156E+00    3.144E+00    3.132E+00    3.120E+00    3.108E+00    3.096E+00    3.084E+00    3.072E+00    3.060E+00    3.048E+00
     3.036E+00    3.024E+00    3.012E+00    3.000E+00    2.988E+00    2.976E+00    2.964E+00    2.952E+00    2.940E+00    2.929E+00
     2.917E+00    2.905E+00    2.893E+00    2.881E+00    2.869E+00    2.857E+00    2.845E+00    2.833E+00    2.821E+00    2.810E+00
     2.798E+00    2.786E+00    2.774E+00    2.762E+00    2.750E+00    2.739E+00    2.727E+00    2.715E+00    2.703E+00    2.692E+00
     2.680E+00    2.668E+00    2.656E+00    2.645E+00    2.633E+00    2.621E+00    2.610E+00    2.598E+00    2.586E+00    2.575E+00
     2.563E+00    2.552E+00    2.540E+00    2.528E+00    2.517E+00    2.505E+00    2.494E+00    2.482E+00    2.471E+00    2.459E+00
     2.448E+00    2.437E+00    2.425E+00    2.414E+00    2.402E+00    2.391E+00    2.380E+00    2.368E+00    2.357E+00    2.346E+00
     2.335E+00    2.323E+00    2.312E+00    2.301E+00    2.290E+00    2.279E+00    2.268E+00    2.257E+00    2.245E+00    2.234E+00
     2.223E+00    2.212E+00    2.201E+00    2.190E+00    2.179E+00    2.169E+00    2.158E+00    2.147E+00    2.136E+00    2.125E+00
     2.114E+00    2.103E+00    2.093E+00    2.082E+00    2.071E+00    2.061E+00    2.050E+00    2.039E+00    2.029E+00    2.018E+00
     2.008E+00    1.997E+00    1.987E+00    1.976E+00    1.966E+00    1.955E+00    1.945E+00    1.935E+00    1.924E+00    1.914E+00
     1.904E+00    1.894E+00    1.883E+00    1.873E+00    1.863E+00    1.853E+00    1.843E+00    1.833E+00    1.823E+00    1.813E+00
     1.803E+00    1.793E+00    1.783E+00    1.773E+00    1.763E+00    1.754E+00    1.744E+00    1.734E+00    1.725E+00    1.715E+00
     1.705E+00    1.696E+00    1.686E+00    1.677E+00    1.668E+00    1.658E+00    1.649E+00    1.640E+00    1.630E+00    1.621E+00
     1.612E+00    1.603E+00    1.594E+00    1.585E+00    1.576E+00    1.567E+00    1.558E+00    1.549E+00    1.541E+00    1.532E+00
     1.523E+00    1.514E+00    1.506E+00    1.497E+00    1.489E+00    1.480E+00    1.472E+00    1.464E+00    1.455E+00    1.447E+00
     1.439E+00    1.431E+00    1.423E+00    1.415E+00    1.407E+00    1.399E+00    1.391E+00    1.383E+00    1.375E+00    1.367E+00
     1.360E+00    1.352E+00    1.344E+00    1.337E+00    1.329E+00    1.322E+00    1.314E+00    1.307E+00    1.300E+00    1.292E+00
     1.285E+00    1.278E+00    1.271E+00    1.264E+00    1.256E+00    1.249E+00    1.242E+00    1.235E+00    1.229E+00    1.222E+00
     1.215E+00    1.208E+00    1.201E+00    1.195E+00    1.188E+00    1.181E+00    1.175E+00    1.168E+00    1.162E+00    1.155E+00
     1.149E+00    1.143E+00    1.136E+00    1.130E+00    1.124E+00    1.118E+00    1.112E+00    1.105E+00    1.099E+00    1.093E+00
     1.087E+00    1.082E+00    1.076E+00    1.070E+00    1.064E+00    1.059E+00    1.053E+00    1.047E+00    1.042E+00    1.036E+00
     1.031E+00    1.026E+00    1.020E+00    1.015E+00    1.010E+00    1.005E+00    9.995E-01    9.944E-01    9.895E-01    9.845E-01
     9.797E-01    9.749E-01    9.701E-01    9.654E-01    9.608E-01    9.562E-01    9.517E-01    9.472E-01    9.428E-01    9.385E-01
     9.343E-01    9.301E-01    9.259E-01    9.218E-01    9.178E-01    9.139E-01    9.100E-01    9.062E-01    9.024E-01    8.987E-01
     8.951E-01    8.916E-01    8.881E-01    8.846E-01    8.813E-01    8.779E-01    8.747E-01    8.715E-01    8.684E-01    8.654E-01
     8.624E-01    8.595E-01    8.566E-01    8.538E-01    8.511E-01    8.484E-01    8.459E-01    8.433E-01    8.409E-01    8.385E-01
     8.361E-01    8.339E-01    8.317E-01    8.295E-01    8.274E-01    8.254E-01    8.235E-01    8.216E-01    8.198E-01    8.180E-01
     8.164E-01    8.148E-01    8.132E-01    8.117E-01    8.103E-01    8.089E-01    8.077E-01    8.064E-01    8.053E-01    8.042E-01
     8.032E-01    8.022E-01    8.013E-01    8.005E-01    7.997E-01    7.990E-01    7.983E-01    7.978E-01    7.972E-01    7.968E-01
     7.964E-01    7.960E-01    7.957E-01    7.955E-01    7.953E-01    7.952E-01    7.952E-01    7.952E-01    7.953E-01    7.954E-01
     7.955E-01    7.958E-01    7.961E-01    7.964E-01    7.968E-01    7.972E-01    7.977E-01    7.983E-01    7.989E-01    7.996E-01
     8.003E-01    8.010E-01    8.018E-01    8.027E-01    8.036E-01    8.046E-01    8.056E-01    8.066E-01    8.077E-01    8.089E-01
     8.101E-01    8.113E-01    8.126E-01    8.140E-01    8.153E-01    8.168E-01    8.182E-01    8.198E-01    8.213E-01    8.229E-01
     8.246E-01    8.263E-01    8.280E-01    8.298E-01    8.316E-01    8.334E-01    8.353E-01    8.373E-01    8.392E-01    8.412E-01
     8.433E-01    8.454E-01    8.475E-01    8.497E-01    8.519E-01    8.541E-01    8.564E-01    8.587E-01    8.611E-01    8.635E-01
     8.659E-01    8.683E-01    8.708E-01    8.733E-01    8.759E-01    8.785E-01    8.811E-01    8.838E-01    8.864E-01    8.892E-01
     8.919E-01    8.947E-01    8.975E-01    9.003E-01    9.032E-01    9.061E-01    9.090E-01    9.120E-01    9.149E-01    9.179E-01
     9.210E-01    9.240E-01    9.271E-01    9.302E-01    9.334E-01    9.365E-01    9.397E-01    9.429E-01    9.461E-01    9.494E-01
     9.527E-01    9.560E-01    9.593E-01    9.626E-01    9.659E-01    9.693E-01    9.727E-01    9.761E-01    9.795E-01    9.830E-01
     9.864E-01    9.899E-01    9.934E-01    9.969E-01    1.000E+00    1.004E+00    1.007E+00    1.011E+00    1.015E+00    1.018E+00
     1.022E+00    1.025E+00    1.029E+00    1.033E+00    1.036E+00    1.040E+00    1.043E+00    1.047E+00    1.051E+00    1.054E+00
     1.058E+00    1.062E+00    1.065E+00    1.069E+00    1.073E+00    1.076E+00    1.080E+00    1.084E+00    1.087E+00    1.091E+00
     1.095E+00    1.099E+00    1.102E+00    1.106E+00    1.110E+00    1.113E+00    1.117E+00    1.121E+00    1.124E+00    1.128E+00
     1.132E+00    1.136E+00    1.139E+00    1.143E+00    1.147E+00    1.151E+00    1.154E+00    1.158E+00    1.162E+00    1.165E+00
     1.169E+00    1.173E+00    1.177E+00    1.180E+00    1.184E+00    1.188E+00    1.191E+00    1.195E+00    1.199E+00    1.203E+00
     1.206E+00    1.210E+00    1.214E+00    1.218E+00    1.221E+00    1.225E+00    1.229E+00    1.232E+00
 Cr       Conc. = 5.72E+02
