 LCModel (Version 6.3-1L) Copyright: S.W. Provencher.          Ref.: Magn. Reson. Med. 30:672-679 (1993).                
 Slice#3 Row#8 Col#4  PD_05_press_2_raw_act
 36 lines in following concentration table = NCONC+1
    Conc.  %SD /Cr+PCr  Metabolite                                         
  355.911  80% 9.8E-02 Ala                                                 
    0.000 999%   0.000 Asp                                                 
 1.97E+03  27%   0.544 Cr                                                  
 1.65E+03  33%   0.456 PCr                                                 
  142.717 264% 3.9E-02 GABA                                                
    0.000 999%   0.000 Glc                                                 
 3.02E+03  21%   0.834 Gln                                                 
 3.98E+03  18%   1.098 Glu                                                 
 1.15E+03   4%   0.318 GPC                                                 
    0.000 999%   0.000 PCh                                                 
 1.37E+03  12%   0.379 GSH                                                 
 2.00E+03  28%   0.551 Ins                                                 
  257.156 143% 7.1E-02 Lac                                                 
 5.62E+03   6%   1.553 NAA                                                 
  366.253  96%   0.101 NAAG                                                
    0.000 999%   0.000 Scyllo                                              
    0.000 999%   0.000 Tau                                                 
    0.000 999%   0.000 -CrCH2                                              
 1.15E+03   4%   0.318 GPC+PCh                                             
 5.99E+03   3%   1.654 NAA+NAAG                                            
 3.62E+03   3%   1.000 Cr+PCr                                              
 7.00E+03  15%   1.932 Glu+Gln                                             
    0.000 999%   0.000 Lip13a                                              
 1.22E+03  36%   0.337 Lip13b                                              
    0.000 999%   0.000 Lip09                                               
 2.51E+03  17%   0.693 MM09                                                
  258.961  90% 7.1E-02 Lip20                                               
 6.32E+03  13%   1.744 MM20                                                
  837.960  34%   0.231 MM12                                                
 1.97E+03  32%   0.545 MM14                                                
 2.01E+03  25%   0.555 MM17                                                
 1.22E+03  36%   0.337 Lip13a+Lip13b                                       
 4.03E+03  19%   1.113 MM14+Lip13a+Lip13b+MM12                             
 2.51E+03  17%   0.693 MM09+Lip09                                          
 6.58E+03  12%   1.816 MM20+Lip20                                          
   6 lines in following misc. output table
  FWHM = 0.061 ppm    S/N =  13                                            
  Data shift =-0.015 ppm                                                   
  Ph:   4 deg      -0.1 deg/ppm                                            
  alphaB,S = 8.7E-01,   1.0E+02                                            
   14 spline knots.   Ns = 8(1)                                            
  (15) 4 infls.   (17) 1 extrs.                                            
  498 points on ppm-axis = NY
      4.000000     3.992357     3.984714     3.977070     3.969427     3.961784     3.954141     3.946497     3.938854     3.931211
      3.923568     3.915925     3.908281     3.900638     3.892995     3.885352     3.877708     3.870065     3.862422     3.854779
      3.847136     3.839492     3.831849     3.824206     3.816563     3.808919     3.801276     3.793633     3.785990     3.778347
      3.770703     3.763060     3.755417     3.747774     3.740130     3.732487     3.724844     3.717201     3.709558     3.701914
      3.694271     3.686628     3.678985     3.671341     3.663698     3.656055     3.648412     3.640769     3.633125     3.625482
      3.617839     3.610196     3.602552     3.594909     3.587266     3.579623     3.571980     3.564336     3.556693     3.549050
      3.541407     3.533763     3.526120     3.518477     3.510834     3.503191     3.495547     3.487904     3.480261     3.472618
      3.464974     3.457331     3.449688     3.442045     3.434402     3.426758     3.419115     3.411472     3.403829     3.396185
      3.388542     3.380899     3.373256     3.365613     3.357969     3.350326     3.342683     3.335040     3.327396     3.319753
      3.312110     3.304467     3.296824     3.289180     3.281537     3.273894     3.266251     3.258607     3.250964     3.243321
      3.235678     3.228034     3.220391     3.212748     3.205105     3.197462     3.189818     3.182175     3.174532     3.166889
      3.159245     3.151602     3.143959     3.136316     3.128673     3.121029     3.113386     3.105743     3.098100     3.090456
      3.082813     3.075170     3.067527     3.059884     3.052240     3.044597     3.036954     3.029311     3.021667     3.014024
      3.006381     2.998738     2.991095     2.983451     2.975808     2.968165     2.960522     2.952878     2.945235     2.937592
      2.929949     2.922306     2.914662     2.907019     2.899376     2.891733     2.884089     2.876446     2.868803     2.861160
      2.853517     2.845873     2.838230     2.830587     2.822944     2.815300     2.807657     2.800014     2.792371     2.784728
      2.777084     2.769441     2.761798     2.754155     2.746511     2.738868     2.731225     2.723582     2.715939     2.708295
      2.700652     2.693009     2.685366     2.677722     2.670079     2.662436     2.654793     2.647150     2.639506     2.631863
      2.624220     2.616577     2.608933     2.601290     2.593647     2.586004     2.578361     2.570717     2.563074     2.555431
      2.547788     2.540144     2.532501     2.524858     2.517215     2.509572     2.501928     2.494285     2.486642     2.478999
      2.471355     2.463712     2.456069     2.448426     2.440783     2.433139     2.425496     2.417853     2.410210     2.402566
      2.394923     2.387280     2.379637     2.371994     2.364350     2.356707     2.349064     2.341421     2.333777     2.326134
      2.318491     2.310848     2.303205     2.295561     2.287918     2.280275     2.272632     2.264988     2.257345     2.249702
      2.242059     2.234416     2.226772     2.219129     2.211486     2.203843     2.196199     2.188556     2.180913     2.173270
      2.165627     2.157983     2.150340     2.142697     2.135054     2.127410     2.119767     2.112124     2.104481     2.096838
      2.089194     2.081551     2.073908     2.066265     2.058621     2.050978     2.043335     2.035692     2.028049     2.020405
      2.012762     2.005119     1.997476     1.989833     1.982190     1.974546     1.966903     1.959260     1.951617     1.943974
      1.936331     1.928688     1.921045     1.913402     1.905759     1.898115     1.890472     1.882829     1.875186     1.867543
      1.859900     1.852257     1.844614     1.836971     1.829327     1.821684     1.814041     1.806398     1.798755     1.791112
      1.783469     1.775826     1.768183     1.760540     1.752896     1.745253     1.737610     1.729967     1.722324     1.714681
      1.707038     1.699395     1.691752     1.684108     1.676465     1.668822     1.661179     1.653536     1.645893     1.638250
      1.630607     1.622964     1.615321     1.607677     1.600034     1.592391     1.584748     1.577105     1.569462     1.561819
      1.554176     1.546533     1.538890     1.531246     1.523603     1.515960     1.508317     1.500674     1.493031     1.485388
      1.477745     1.470102     1.462458     1.454815     1.447172     1.439529     1.431886     1.424243     1.416600     1.408957
      1.401314     1.393671     1.386027     1.378384     1.370741     1.363098     1.355455     1.347812     1.340169     1.332526
      1.324883     1.317240     1.309596     1.301953     1.294310     1.286667     1.279024     1.271381     1.263738     1.256095
      1.248452     1.240808     1.233165     1.225522     1.217879     1.210236     1.202593     1.194950     1.187307     1.179664
      1.172021     1.164377     1.156734     1.149091     1.141448     1.133805     1.126162     1.118519     1.110876     1.103233
      1.095590     1.087946     1.080303     1.072660     1.065017     1.057374     1.049731     1.042088     1.034445     1.026802
      1.019158     1.011515     1.003872     0.996229     0.988586     0.980943     0.973300     0.965657     0.958014     0.950371
      0.942727     0.935084     0.927441     0.919798     0.912155     0.904512     0.896869     0.889226     0.881583     0.873940
      0.866296     0.858653     0.851010     0.843367     0.835724     0.828081     0.820438     0.812795     0.805152     0.797508
      0.789865     0.782222     0.774579     0.766936     0.759293     0.751650     0.744007     0.736364     0.728721     0.721077
      0.713434     0.705791     0.698148     0.690505     0.682862     0.675219     0.667576     0.659933     0.652290     0.644646
      0.637003     0.629360     0.621717     0.614074     0.606431     0.598788     0.591145     0.583502     0.575858     0.568215
      0.560572     0.552929     0.545286     0.537643     0.530000     0.522357     0.514714     0.507071     0.499427     0.491784
      0.484141     0.476498     0.468855     0.461212     0.453569     0.445925     0.438282     0.430639     0.422996     0.415353
      0.407710     0.400067     0.392424     0.384780     0.377137     0.369494     0.361851     0.354208     0.346565     0.338922
      0.331278     0.323635     0.315992     0.308349     0.300706     0.293063     0.285420     0.277777     0.270133     0.262490
      0.254847     0.247204     0.239561     0.231918     0.224275     0.216631     0.208988     0.201345
 NY phased data points follow
   8.62792E+01  7.86402E+01  8.54548E+01  8.97869E+01  9.02655E+01  1.00132E+02  1.17348E+02  1.13068E+02  1.34719E+02  1.42926E+02
   1.45514E+02  1.37362E+02  1.43058E+02  1.26352E+02  1.20851E+02  1.05675E+02  1.15570E+02  9.93801E+01  8.86041E+01  8.13138E+01
   9.12458E+01  8.35262E+01  8.33403E+01  8.29765E+01  8.41216E+01  8.04539E+01  8.41439E+01  8.50356E+01  8.39030E+01  8.42378E+01
   8.66037E+01  8.21058E+01  8.91676E+01  8.77323E+01  8.53488E+01  6.92932E+01  7.41661E+01  7.05266E+01  5.83161E+01  6.83789E+01
   8.24767E+01  6.43766E+01  7.36918E+01  6.33184E+01  7.88042E+01  7.30246E+01  7.36850E+01  7.86794E+01  7.17237E+01  8.26098E+01
   7.45092E+01  6.83975E+01  6.69349E+01  5.07118E+01  6.35406E+01  4.89830E+01  6.77870E+01  5.58767E+01  5.45850E+01  6.14638E+01
   5.75115E+01  3.94072E+01  4.96329E+01  3.46004E+01  3.21614E+01  3.64968E+01  2.99080E+01  3.42432E+01  2.53651E+01  3.05870E+01
   4.00705E+01  3.26619E+01  2.85124E+01  3.10858E+01  3.40420E+01  2.91551E+01  2.81113E+01  3.49590E+01  3.76776E+01  3.31080E+01
   2.64472E+01  2.73418E+01  3.89042E+01  2.96352E+01  2.94412E+01  3.52260E+01  2.94343E+01  2.37730E+01  3.04362E+01  2.26498E+01
   3.72436E+01  3.03885E+01  3.10927E+01  3.03643E+01  3.63531E+01  3.15636E+01  3.96018E+01  4.69161E+01  6.34878E+01  5.30129E+01
   7.48012E+01  8.48935E+01  9.70490E+01  1.07873E+02  1.18170E+02  1.20456E+02  1.13241E+02  9.02882E+01  7.80151E+01  6.15620E+01
   5.84205E+01  5.30965E+01  4.10037E+01  3.63512E+01  3.75726E+01  4.19060E+01  4.21728E+01  2.95052E+01  3.01701E+01  3.58549E+01
   4.05977E+01  4.47029E+01  5.88520E+01  7.02281E+01  7.92240E+01  1.03605E+02  1.21072E+02  1.21673E+02  1.22901E+02  1.17393E+02
   1.06056E+02  8.43873E+01  6.72402E+01  5.21390E+01  4.11996E+01  3.84293E+01  3.14839E+01  2.49916E+01  3.13739E+01  2.23729E+01
   1.75594E+01  1.85543E+01  2.60534E+01  1.92537E+01  2.46989E+01  1.24538E+01  2.42235E+01  1.75932E+01  2.20518E+01  1.67975E+01
   2.32639E+01  1.34596E+01  1.38368E+01  1.34147E+01  2.17327E+01  9.94384E+00  9.32887E+00  1.98070E+00  8.29813E+00  1.52882E+01
   1.11864E+01  4.42637E-01  7.93247E+00  1.10006E+01  5.84577E+00  9.65417E+00  1.49351E+01  8.75632E-01  1.20307E+01 -4.69394E-02
  -8.06694E-01 -1.36146E+01 -4.64377E+00 -1.85528E+01 -6.93549E+00 -1.24135E+01 -1.98965E+01 -1.92447E+01 -1.33695E+01 -2.29197E+01
  -1.30171E+01 -1.92927E+01 -1.39025E+01 -1.61381E+01 -2.01683E+01 -2.46157E+01 -8.56627E+00 -1.08997E+01 -6.16900E+00 -1.68788E+00
   1.75295E+01  1.50813E+01  2.16976E+01  2.08947E+01  1.98738E+01  1.14602E+01  1.34707E+01  3.89254E+00  5.12677E+00  1.73140E+00
   2.39186E+00  2.01028E+00  1.39202E+01  9.04885E+00  8.25328E+00  2.84686E-01  5.51053E+00 -2.28176E+00  4.22809E+00 -5.00243E+00
  -9.12251E+00 -1.61540E+00  7.71287E+00  1.00939E+01  1.33419E+01  2.58610E+01  2.63612E+01  2.32410E+01  2.73422E+01  1.22494E+01
   2.23215E+01  7.25911E+00  7.41447E+00  5.15678E+00  1.51936E+00  8.73293E+00  1.43386E+01  2.31732E+01  1.30424E+01  2.76557E+01
   2.72891E+01  1.10927E+01  2.22903E+01  1.47491E+01  1.90223E+01  2.75671E+01  2.53842E+01  2.29082E+01  2.59113E+01  1.42523E+01
   1.94681E+01  1.32491E+01  1.72453E+01  1.09824E+01  3.36194E+00  1.01006E+01  3.17079E+01  3.05157E+01  3.13822E+01  3.34537E+01
   3.78239E+01  2.81821E+01  4.69791E+01  5.25486E+01  5.81034E+01  8.87588E+01  1.03645E+02  1.25354E+02  1.45572E+02  1.68001E+02
   1.73570E+02  1.89429E+02  1.79636E+02  1.65730E+02  1.26111E+02  9.77826E+01  6.66382E+01  4.59866E+01  3.94492E+01  3.93601E+01
   2.90690E+01  1.50329E+01  2.33440E+01  1.28259E+01  2.12268E+01  2.67664E+01  1.70762E+01  1.35065E+01  1.02787E+01  1.03168E+01
   1.05294E+01  1.10202E+01  1.49475E+01  1.48385E+01  2.06873E+01  1.46059E+01  1.14039E+01  9.66414E+00  1.05453E+01  8.31761E+00
   3.48787E+00  8.20588E+00  1.08974E+01  1.31119E+01  7.86326E+00  1.57662E+01  1.91564E+01  1.19696E+01  1.26735E+01  6.28620E+00
   1.73766E+01  1.24019E+01  1.05132E+01  2.58957E+00  1.75059E+01  1.45510E+01  1.30524E+01  1.65140E+01  1.52878E+01  3.39308E+00
   2.39636E+01  1.94647E+01  2.10178E+01  1.55615E+01  1.06184E+01  9.72063E+00  1.52762E+01  7.20519E+00  8.14573E+00  1.08074E+01
   1.59147E+01  5.10368E+00  1.69957E+01  1.56963E+01  2.04169E+01  1.16521E+01  5.10645E+00  7.12186E+00  1.05301E+01  7.39368E+00
   1.53957E+01  7.27716E+00  8.29458E+00  1.33120E+01  3.99143E+00  1.14555E+01  1.94950E+01  1.14182E+01  1.08262E+01  5.71485E+00
   2.10392E+01  1.35589E+01  6.00326E+00  7.05146E+00  2.29669E+01  1.47023E+01  7.32885E+00  6.64836E+00  2.14164E+01  1.47977E+01
   1.17886E+01  1.26019E+01  1.75803E+01  1.53159E+01  2.57279E+01  1.61829E+01  2.43374E+01  1.60224E+01  2.66537E+01  2.35220E+01
   2.70499E+01  1.89227E+01  1.73227E+01  1.51239E+01  1.42389E+01  1.23280E+01  1.06320E+01  7.48028E+00  1.48270E+01  1.23211E+01
   7.12554E+00  5.96981E+00  1.23325E+01  1.28457E+01  9.24310E+00  5.97522E+00  6.69386E+00  3.81973E+00  1.14605E+01  1.06170E+01
  -3.38507E-01  3.31122E+00  1.12280E+01  1.17840E+01  3.99240E+00 -1.40185E+00  7.86069E+00  8.77827E+00  1.00540E+01  5.74433E+00
   9.22301E+00  1.02396E+01  1.21461E+01  9.14004E+00  1.16654E+01  1.38700E+01  1.59880E+01  1.57207E+01  1.10569E+01  1.08414E+01
   1.91451E+01  9.49379E+00  2.20222E+01  9.16675E+00  1.06607E+01  1.62634E+01  1.73302E+01  1.35215E+01  1.64906E+01  1.73741E+01
   1.44543E+01  1.44656E+01  1.97901E+01  7.49470E+00  2.24695E+01  1.92262E+01  2.16932E+01  8.16755E+00  1.30368E+01  1.01580E+01
   1.78473E+01  3.55999E+00  1.15558E+01  6.05114E+00  5.88294E+00 -8.64922E-01  9.35191E+00  7.26373E+00  2.08967E+00  1.23002E+00
   1.34262E+00  3.89426E+00  1.38385E+00  2.38812E+00  1.54740E+01  1.16863E+00  3.37899E+00  2.43132E+00  1.02814E+01  6.96090E+00
   4.64245E+00  5.65281E+00  4.32853E-01  6.94213E+00 -1.57158E-01  2.87940E+00 -3.15381E+00  1.65884E+01  3.48736E+00  3.36266E+00
  -3.93115E-02  3.25511E+00  8.22953E+00  3.04094E+00  7.91841E+00  9.42819E+00  8.91999E+00  4.74468E+00  3.71677E+00  1.01042E+01
   5.90671E+00  1.09628E+01  8.48942E+00  3.58293E-02  5.95742E+00  5.00374E+00  2.83678E+00  8.01363E+00  8.90567E+00 -3.46667E+00
   4.42041E+00  3.93140E-01  5.80525E+00  3.45969E+00  4.73866E+00  8.41350E+00  8.79059E+00  8.85543E-01 -1.07096E+00 -1.36056E+00
   1.61154E+00  9.64617E+00  1.60697E+00 -1.01560E+01  1.30011E+00 -7.00551E-01  6.23698E+00  1.35510E+00  3.95096E-01  1.70279E+00
   6.24642E+00  8.61469E+00  8.46918E+00  8.44345E+00  3.93474E+00  3.54920E+00  1.14115E+01  1.82507E+00
 NY points of the fit to the data follow
   7.96657E+01  8.07969E+01  8.31056E+01  8.70902E+01  9.31718E+01  1.00370E+02  1.08566E+02  1.17432E+02  1.26271E+02  1.33936E+02
   1.38908E+02  1.39834E+02  1.36294E+02  1.28904E+02  1.19089E+02  1.08847E+02  9.98326E+01  9.23363E+01  8.62252E+01  8.22732E+01
   7.86587E+01  7.52879E+01  7.43347E+01  7.44551E+01  7.49898E+01  7.60267E+01  7.79821E+01  8.10143E+01  8.47926E+01  8.89143E+01
   9.27058E+01  9.48315E+01  9.41560E+01  9.03887E+01  8.42593E+01  7.74164E+01  7.14315E+01  6.72734E+01  6.42729E+01  6.23421E+01
   6.25789E+01  6.39964E+01  6.55548E+01  6.69337E+01  6.82737E+01  6.96410E+01  7.04782E+01  7.05641E+01  6.98741E+01  6.79150E+01
   6.48137E+01  6.14327E+01  5.83008E+01  5.59113E+01  5.45858E+01  5.37934E+01  5.28355E+01  5.20040E+01  5.17139E+01  5.15994E+01
   5.11554E+01  5.03728E+01  4.92516E+01  4.78735E+01  4.64525E+01  4.51881E+01  4.43525E+01  4.39721E+01  4.38357E+01  4.38142E+01
   4.37909E+01  4.36617E+01  4.34170E+01  4.29908E+01  4.23742E+01  4.15924E+01  4.07112E+01  3.98514E+01  3.90521E+01  3.82591E+01
   3.73676E+01  3.63322E+01  3.52737E+01  3.41694E+01  3.29954E+01  3.17827E+01  3.06216E+01  2.96047E+01  2.88824E+01  2.85654E+01
   2.86784E+01  2.91714E+01  2.98980E+01  3.06791E+01  3.15340E+01  3.34826E+01  3.89855E+01  4.63103E+01  5.40712E+01  6.31641E+01
   7.43848E+01  8.73159E+01  1.00465E+02  1.11842E+02  1.19288E+02  1.20179E+02  1.12714E+02  9.78597E+01  7.97590E+01  6.33161E+01
   5.17491E+01  4.49070E+01  3.90874E+01  3.20851E+01  2.80193E+01  2.69135E+01  2.66254E+01  2.68586E+01  2.84538E+01  3.36865E+01
   4.16718E+01  5.05069E+01  6.08292E+01  7.33943E+01  8.78588E+01  1.02814E+02  1.16144E+02  1.25335E+02  1.27785E+02  1.21435E+02
   1.06710E+02  8.75761E+01  6.91787E+01  5.51316E+01  4.58310E+01  3.79226E+01  2.88942E+01  2.24621E+01  2.03399E+01  2.02773E+01
   2.12076E+01  2.23175E+01  2.28702E+01  2.27592E+01  2.22072E+01  2.12265E+01  2.00573E+01  1.89217E+01  1.78222E+01  1.67906E+01
   1.57751E+01  1.48064E+01  1.40004E+01  1.31532E+01  1.23184E+01  1.16147E+01  1.10391E+01  1.05795E+01  1.00147E+01  9.26496E+00
   8.43555E+00  7.63753E+00  7.00521E+00  6.67565E+00  6.60430E+00  6.50444E+00  6.04109E+00  4.94715E+00  3.23976E+00  1.45802E+00
   2.50669E-01 -6.13924E-01 -1.44758E+00 -2.50475E+00 -3.70310E+00 -4.53562E+00 -4.97234E+00 -5.20666E+00 -5.19456E+00 -5.06953E+00
  -4.95257E+00 -4.88723E+00 -4.85645E+00 -4.57634E+00 -3.68245E+00 -2.16798E+00 -4.14487E-01  1.31022E+00  3.23105E+00  5.43570E+00
   7.49010E+00  8.76957E+00  8.85881E+00  7.94095E+00  6.47955E+00  5.17113E+00  4.94230E+00  5.84149E+00  7.69112E+00  1.03650E+01
   1.32841E+01  1.57252E+01  1.70753E+01  1.71633E+01  1.55403E+01  1.20334E+01  7.25649E+00  2.33143E+00 -1.82844E+00 -4.37625E+00
  -4.86632E+00 -2.55168E+00  2.23064E+00  8.01716E+00  1.33694E+01  1.70977E+01  1.88958E+01  1.88886E+01  1.67569E+01  1.23078E+01
   6.31131E+00  1.19247E+00 -1.52194E+00 -1.85804E+00 -1.66001E-01  3.14120E+00  7.59087E+00  1.20282E+01  1.49505E+01  1.63476E+01
   1.67449E+01  1.69413E+01  1.74143E+01  1.79434E+01  1.85391E+01  1.96051E+01  2.09253E+01  2.21649E+01  2.29371E+01  2.27364E+01
   2.15171E+01  1.93837E+01  1.67996E+01  1.49200E+01  1.46624E+01  1.59148E+01  1.81450E+01  2.11491E+01  2.45104E+01  2.74350E+01
   2.99788E+01  3.34019E+01  4.15607E+01  5.54966E+01  7.01966E+01  8.60105E+01  1.04502E+02  1.25512E+02  1.46909E+02  1.66126E+02
   1.80566E+02  1.86756E+02  1.80365E+02  1.60034E+02  1.29980E+02  9.84409E+01  7.32179E+01  5.73631E+01  4.66784E+01  3.41841E+01
   2.27240E+01  1.83508E+01  1.65363E+01  1.53794E+01  1.46274E+01  1.41803E+01  1.36948E+01  1.31003E+01  1.24116E+01  1.16686E+01
   1.09520E+01  1.03539E+01  9.86554E+00  9.46094E+00  9.17897E+00  9.03420E+00  8.99371E+00  9.01939E+00  9.09305E+00  9.22899E+00
   9.44314E+00  9.70579E+00  1.00123E+01  1.03670E+01  1.07562E+01  1.11589E+01  1.15678E+01  1.19760E+01  1.23744E+01  1.27544E+01
   1.31066E+01  1.34165E+01  1.36768E+01  1.38801E+01  1.40156E+01  1.40757E+01  1.40584E+01  1.39683E+01  1.38134E+01  1.36001E+01
   1.33407E+01  1.30499E+01  1.27408E+01  1.24277E+01  1.21272E+01  1.18561E+01  1.16331E+01  1.14821E+01  1.14463E+01  1.15896E+01
   1.17838E+01  1.19268E+01  1.20770E+01  1.22294E+01  1.23042E+01  1.21857E+01  1.17750E+01  1.11481E+01  1.03916E+01  9.46355E+00
   8.54606E+00  7.96552E+00  7.96570E+00  8.56813E+00  9.58985E+00  1.07428E+01  1.18469E+01  1.29201E+01  1.37449E+01  1.41260E+01
   1.41279E+01  1.39067E+01  1.37522E+01  1.37293E+01  1.36153E+01  1.33831E+01  1.32195E+01  1.31961E+01  1.33115E+01  1.35231E+01
   1.39403E+01  1.47524E+01  1.60639E+01  1.77888E+01  1.96702E+01  2.13577E+01  2.25642E+01  2.32140E+01  2.31869E+01  2.23607E+01
   2.09266E+01  1.91810E+01  1.73910E+01  1.56505E+01  1.39070E+01  1.23106E+01  1.10011E+01  9.94342E+00  9.10135E+00  8.44002E+00
   7.92440E+00  7.52233E+00  7.20692E+00  6.95748E+00  6.75944E+00  6.60359E+00  6.48505E+00  6.40209E+00  6.35507E+00  6.34563E+00
   6.37619E+00  6.44972E+00  6.56946E+00  6.73867E+00  6.96030E+00  7.23692E+00  7.57061E+00  7.96286E+00  8.41435E+00  8.92461E+00
   9.49176E+00  1.01123E+01  1.07812E+01  1.14913E+01  1.22340E+01  1.29982E+01  1.37713E+01  1.45387E+01  1.52849E+01  1.59938E+01
   1.66488E+01  1.72338E+01  1.77337E+01  1.81351E+01  1.84272E+01  1.86021E+01  1.86551E+01  1.85847E+01  1.83932E+01  1.80862E+01
   1.76724E+01  1.71632E+01  1.65722E+01  1.59139E+01  1.52040E+01  1.44582E+01  1.36918E+01  1.29191E+01  1.21528E+01  1.14040E+01
   1.06818E+01  9.99360E+00  9.34488E+00  8.73923E+00  8.17857E+00  7.66350E+00  7.19351E+00  6.76727E+00  6.38274E+00  6.03731E+00
   5.72808E+00  5.45205E+00  5.20631E+00  4.98802E+00  4.79442E+00  4.62287E+00  4.47093E+00  4.33645E+00  4.21758E+00  4.11262E+00
   4.02003E+00  3.93836E+00  3.86640E+00  3.80314E+00  3.74772E+00  3.69935E+00  3.65726E+00  3.62076E+00  3.58928E+00  3.56241E+00
   3.53978E+00  3.52099E+00  3.50561E+00  3.49332E+00  3.48388E+00  3.47714E+00  3.47290E+00  3.47093E+00  3.47099E+00  3.47291E+00
   3.47661E+00  3.48202E+00  3.48902E+00  3.49744E+00  3.50714E+00  3.51805E+00  3.53015E+00  3.54341E+00  3.55770E+00  3.57292E+00
   3.58896E+00  3.60585E+00  3.62359E+00  3.64213E+00  3.66138E+00  3.68125E+00  3.70171E+00  3.72279E+00  3.74450E+00  3.76676E+00
   3.78950E+00  3.81264E+00  3.83623E+00  3.86028E+00  3.88479E+00  3.90968E+00  3.93489E+00  3.96039E+00  3.98622E+00  4.01242E+00
   4.03894E+00  4.06571E+00  4.09268E+00  4.11987E+00  4.14732E+00  4.17506E+00  4.20301E+00  4.23111E+00
 NY background values follow
     7.001E+01    6.954E+01    6.907E+01    6.859E+01    6.812E+01    6.765E+01    6.717E+01    6.670E+01    6.622E+01    6.575E+01
     6.528E+01    6.480E+01    6.433E+01    6.385E+01    6.338E+01    6.291E+01    6.243E+01    6.196E+01    6.149E+01    6.101E+01
     6.054E+01    6.007E+01    5.959E+01    5.912E+01    5.865E+01    5.818E+01    5.771E+01    5.724E+01    5.677E+01    5.630E+01
     5.583E+01    5.536E+01    5.490E+01    5.443E+01    5.396E+01    5.350E+01    5.303E+01    5.257E+01    5.210E+01    5.164E+01
     5.118E+01    5.072E+01    5.026E+01    4.980E+01    4.934E+01    4.888E+01    4.842E+01    4.797E+01    4.751E+01    4.706E+01
     4.661E+01    4.616E+01    4.571E+01    4.526E+01    4.481E+01    4.436E+01    4.392E+01    4.347E+01    4.303E+01    4.259E+01
     4.215E+01    4.171E+01    4.127E+01    4.084E+01    4.040E+01    3.997E+01    3.954E+01    3.911E+01    3.868E+01    3.826E+01
     3.783E+01    3.741E+01    3.699E+01    3.657E+01    3.615E+01    3.574E+01    3.533E+01    3.491E+01    3.450E+01    3.410E+01
     3.369E+01    3.329E+01    3.289E+01    3.249E+01    3.209E+01    3.170E+01    3.131E+01    3.092E+01    3.053E+01    3.014E+01
     2.976E+01    2.938E+01    2.900E+01    2.863E+01    2.825E+01    2.788E+01    2.751E+01    2.715E+01    2.678E+01    2.642E+01
     2.607E+01    2.571E+01    2.536E+01    2.500E+01    2.465E+01    2.431E+01    2.396E+01    2.362E+01    2.328E+01    2.295E+01
     2.261E+01    2.228E+01    2.195E+01    2.162E+01    2.130E+01    2.098E+01    2.066E+01    2.034E+01    2.002E+01    1.971E+01
     1.940E+01    1.909E+01    1.879E+01    1.848E+01    1.818E+01    1.789E+01    1.759E+01    1.730E+01    1.701E+01    1.672E+01
     1.643E+01    1.615E+01    1.587E+01    1.559E+01    1.531E+01    1.504E+01    1.477E+01    1.450E+01    1.423E+01    1.397E+01
     1.371E+01    1.345E+01    1.319E+01    1.294E+01    1.269E+01    1.244E+01    1.219E+01    1.195E+01    1.171E+01    1.147E+01
     1.123E+01    1.100E+01    1.077E+01    1.054E+01    1.031E+01    1.009E+01    9.871E+00    9.654E+00    9.439E+00    9.226E+00
     9.017E+00    8.810E+00    8.605E+00    8.404E+00    8.205E+00    8.009E+00    7.816E+00    7.625E+00    7.437E+00    7.252E+00
     7.070E+00    6.891E+00    6.714E+00    6.541E+00    6.370E+00    6.202E+00    6.037E+00    5.874E+00    5.715E+00    5.558E+00
     5.405E+00    5.254E+00    5.106E+00    4.961E+00    4.819E+00    4.680E+00    4.543E+00    4.410E+00    4.278E+00    4.150E+00
     4.024E+00    3.901E+00    3.780E+00    3.662E+00    3.546E+00    3.432E+00    3.321E+00    3.212E+00    3.106E+00    3.001E+00
     2.899E+00    2.799E+00    2.701E+00    2.606E+00    2.512E+00    2.420E+00    2.331E+00    2.243E+00    2.157E+00    2.073E+00
     1.990E+00    1.910E+00    1.831E+00    1.754E+00    1.679E+00    1.605E+00    1.533E+00    1.462E+00    1.393E+00    1.325E+00
     1.259E+00    1.194E+00    1.130E+00    1.068E+00    1.006E+00    9.465E-01    8.878E-01    8.302E-01    7.738E-01    7.184E-01
     6.642E-01    6.110E-01    5.589E-01    5.078E-01    4.578E-01    4.088E-01    3.609E-01    3.139E-01    2.679E-01    2.229E-01
     1.788E-01    1.357E-01    9.350E-02    5.222E-02    1.184E-02   -2.766E-02   -6.629E-02   -1.041E-01   -1.410E-01   -1.771E-01
    -2.124E-01   -2.468E-01   -2.805E-01   -3.134E-01   -3.456E-01   -3.770E-01   -4.077E-01   -4.376E-01   -4.669E-01   -4.955E-01
    -5.234E-01   -5.506E-01   -5.772E-01   -6.031E-01   -6.285E-01   -6.532E-01   -6.773E-01   -7.009E-01   -7.239E-01   -7.463E-01
    -7.682E-01   -7.896E-01   -8.105E-01   -8.308E-01   -8.507E-01   -8.701E-01   -8.890E-01   -9.074E-01   -9.253E-01   -9.428E-01
    -9.598E-01   -9.763E-01   -9.924E-01   -1.008E+00   -1.023E+00   -1.038E+00   -1.052E+00   -1.066E+00   -1.079E+00   -1.092E+00
    -1.105E+00   -1.117E+00   -1.129E+00   -1.140E+00   -1.151E+00   -1.162E+00   -1.172E+00   -1.182E+00   -1.191E+00   -1.200E+00
    -1.209E+00   -1.217E+00   -1.225E+00   -1.232E+00   -1.240E+00   -1.246E+00   -1.253E+00   -1.259E+00   -1.265E+00   -1.270E+00
    -1.276E+00   -1.281E+00   -1.285E+00   -1.289E+00   -1.293E+00   -1.297E+00   -1.300E+00   -1.303E+00   -1.306E+00   -1.308E+00
    -1.311E+00   -1.313E+00   -1.314E+00   -1.315E+00   -1.316E+00   -1.317E+00   -1.318E+00   -1.318E+00   -1.317E+00   -1.317E+00
    -1.316E+00   -1.315E+00   -1.314E+00   -1.312E+00   -1.310E+00   -1.308E+00   -1.305E+00   -1.302E+00   -1.299E+00   -1.296E+00
    -1.292E+00   -1.288E+00   -1.283E+00   -1.278E+00   -1.273E+00   -1.268E+00   -1.262E+00   -1.256E+00   -1.250E+00   -1.243E+00
    -1.236E+00   -1.229E+00   -1.222E+00   -1.214E+00   -1.205E+00   -1.197E+00   -1.188E+00   -1.179E+00   -1.169E+00   -1.160E+00
    -1.149E+00   -1.139E+00   -1.128E+00   -1.117E+00   -1.106E+00   -1.094E+00   -1.082E+00   -1.069E+00   -1.057E+00   -1.043E+00
    -1.030E+00   -1.016E+00   -1.002E+00   -9.873E-01   -9.724E-01   -9.571E-01   -9.415E-01   -9.254E-01   -9.091E-01   -8.923E-01
    -8.752E-01   -8.577E-01   -8.398E-01   -8.215E-01   -8.028E-01   -7.837E-01   -7.643E-01   -7.444E-01   -7.242E-01   -7.035E-01
    -6.824E-01   -6.609E-01   -6.390E-01   -6.167E-01   -5.940E-01   -5.708E-01   -5.472E-01   -5.232E-01   -4.988E-01   -4.739E-01
    -4.486E-01   -4.229E-01   -3.967E-01   -3.700E-01   -3.429E-01   -3.154E-01   -2.874E-01   -2.589E-01   -2.300E-01   -2.007E-01
    -1.709E-01   -1.407E-01   -1.100E-01   -7.898E-02   -4.753E-02   -1.569E-02    1.652E-02    4.911E-02    8.206E-02    1.154E-01
     1.490E-01    1.830E-01    2.173E-01    2.519E-01    2.868E-01    3.220E-01    3.575E-01    3.932E-01    4.293E-01    4.656E-01
     5.021E-01    5.389E-01    5.759E-01    6.131E-01    6.505E-01    6.881E-01    7.259E-01    7.639E-01    8.021E-01    8.404E-01
     8.789E-01    9.175E-01    9.562E-01    9.951E-01    1.034E+00    1.073E+00    1.112E+00    1.152E+00    1.191E+00    1.230E+00
     1.270E+00    1.309E+00    1.349E+00    1.388E+00    1.428E+00    1.468E+00    1.507E+00    1.547E+00    1.587E+00    1.626E+00
     1.666E+00    1.706E+00    1.746E+00    1.786E+00    1.825E+00    1.865E+00    1.905E+00    1.945E+00    1.985E+00    2.025E+00
     2.065E+00    2.105E+00    2.145E+00    2.185E+00    2.225E+00    2.265E+00    2.305E+00    2.345E+00    2.385E+00    2.426E+00
     2.466E+00    2.506E+00    2.546E+00    2.586E+00    2.626E+00    2.667E+00    2.707E+00    2.747E+00    2.787E+00    2.827E+00
     2.868E+00    2.908E+00    2.948E+00    2.988E+00    3.029E+00    3.069E+00    3.109E+00    3.150E+00
 Ala      Conc. = 3.56E+02
