 LCModel (Version 6.3-1L) Copyright: S.W. Provencher.          Ref.: Magn. Reson. Med. 30:672-679 (1993).                
 Slice#1 Row#2 Col#12  PD_05_press_2_raw_act
 36 lines in following concentration table = NCONC+1
    Conc.  %SD /Cr+PCr  Metabolite                                         
  184.520  69%   0.000 Ala                                                 
    1.625 627%   0.000 Asp                                                 
    0.000 999%   0.000 Cr                                                  
    0.000 999%   0.000 PCr                                                 
    1.014 602%   0.000 GABA                                                
    0.986 620%   0.000 Glc                                                 
   48.778 443%   0.000 Gln                                                 
  301.010  84%   0.000 Glu                                                 
    0.000 999%   0.000 GPC                                                 
    0.000 999%   0.000 PCh                                                 
   45.981 179%   0.000 GSH                                                 
    0.000 999%   0.000 Ins                                                 
    0.000 999%   0.000 Lac                                                 
   39.621 180%   0.000 NAA                                                 
    0.000 999%   0.000 NAAG                                                
    0.348 583%   0.000 Scyllo                                              
    1.534 663%   0.000 Tau                                                 
    4.311 356%   0.000 -CrCH2                                              
    0.000 999%   0.000 GPC+PCh                                             
   39.621 180%   0.000 NAA+NAAG                                            
    0.000 999%   0.000 Cr+PCr                                              
  349.788  91%   0.000 Glu+Gln                                             
    0.000 999%   0.000 Lip13a                                              
  271.376 157%   0.000 Lip13b                                              
   72.454 215%   0.000 Lip09                                               
 1.50E+03  18%   0.000 MM09                                                
   40.707 215%   0.000 Lip20                                               
 2.22E+03  18%   0.000 MM20                                                
  437.085  29%   0.000 MM12                                                
 2.68E+03   9%   0.000+MM14                                                
  713.299  35%   0.000 MM17                                                
  271.376 215%   0.000 Lip13a+Lip13b                                       
 3.39E+03  14%   0.000 MM14+Lip13a+Lip13b+MM12                             
 1.57E+03  14%   0.000 MM09+Lip09                                          
 2.26E+03  17%   0.000 MM20+Lip20                                          
   6 lines in following misc. output table
  FWHM = 0.038 ppm    S/N =   2                                            
  Data shift = 0.000 ppm                                                   
  Ph:  98 deg      12.6 deg/ppm                                            
  alphaB,S = 8.5E+01,   1.8E+01                                            
   14 spline knots.   Ns = 5(1)                                            
   2 inflections.     1 extrema                                            
  498 points on ppm-axis = NY
      4.000000     3.992357     3.984714     3.977070     3.969427     3.961784     3.954141     3.946497     3.938854     3.931211
      3.923568     3.915925     3.908281     3.900638     3.892995     3.885352     3.877708     3.870065     3.862422     3.854779
      3.847136     3.839492     3.831849     3.824206     3.816563     3.808919     3.801276     3.793633     3.785990     3.778347
      3.770703     3.763060     3.755417     3.747774     3.740130     3.732487     3.724844     3.717201     3.709558     3.701914
      3.694271     3.686628     3.678985     3.671341     3.663698     3.656055     3.648412     3.640769     3.633125     3.625482
      3.617839     3.610196     3.602552     3.594909     3.587266     3.579623     3.571980     3.564336     3.556693     3.549050
      3.541407     3.533763     3.526120     3.518477     3.510834     3.503191     3.495547     3.487904     3.480261     3.472618
      3.464974     3.457331     3.449688     3.442045     3.434402     3.426758     3.419115     3.411472     3.403829     3.396185
      3.388542     3.380899     3.373256     3.365613     3.357969     3.350326     3.342683     3.335040     3.327396     3.319753
      3.312110     3.304467     3.296824     3.289180     3.281537     3.273894     3.266251     3.258607     3.250964     3.243321
      3.235678     3.228034     3.220391     3.212748     3.205105     3.197462     3.189818     3.182175     3.174532     3.166889
      3.159245     3.151602     3.143959     3.136316     3.128673     3.121029     3.113386     3.105743     3.098100     3.090456
      3.082813     3.075170     3.067527     3.059884     3.052240     3.044597     3.036954     3.029311     3.021667     3.014024
      3.006381     2.998738     2.991095     2.983451     2.975808     2.968165     2.960522     2.952878     2.945235     2.937592
      2.929949     2.922306     2.914662     2.907019     2.899376     2.891733     2.884089     2.876446     2.868803     2.861160
      2.853517     2.845873     2.838230     2.830587     2.822944     2.815300     2.807657     2.800014     2.792371     2.784728
      2.777084     2.769441     2.761798     2.754155     2.746511     2.738868     2.731225     2.723582     2.715939     2.708295
      2.700652     2.693009     2.685366     2.677722     2.670079     2.662436     2.654793     2.647150     2.639506     2.631863
      2.624220     2.616577     2.608933     2.601290     2.593647     2.586004     2.578361     2.570717     2.563074     2.555431
      2.547788     2.540144     2.532501     2.524858     2.517215     2.509572     2.501928     2.494285     2.486642     2.478999
      2.471355     2.463712     2.456069     2.448426     2.440783     2.433139     2.425496     2.417853     2.410210     2.402566
      2.394923     2.387280     2.379637     2.371994     2.364350     2.356707     2.349064     2.341421     2.333777     2.326134
      2.318491     2.310848     2.303205     2.295561     2.287918     2.280275     2.272632     2.264988     2.257345     2.249702
      2.242059     2.234416     2.226772     2.219129     2.211486     2.203843     2.196199     2.188556     2.180913     2.173270
      2.165627     2.157983     2.150340     2.142697     2.135054     2.127410     2.119767     2.112124     2.104481     2.096838
      2.089194     2.081551     2.073908     2.066265     2.058621     2.050978     2.043335     2.035692     2.028049     2.020405
      2.012762     2.005119     1.997476     1.989833     1.982190     1.974546     1.966903     1.959260     1.951617     1.943974
      1.936331     1.928688     1.921045     1.913402     1.905759     1.898115     1.890472     1.882829     1.875186     1.867543
      1.859900     1.852257     1.844614     1.836971     1.829327     1.821684     1.814041     1.806398     1.798755     1.791112
      1.783469     1.775826     1.768183     1.760540     1.752896     1.745253     1.737610     1.729967     1.722324     1.714681
      1.707038     1.699395     1.691752     1.684108     1.676465     1.668822     1.661179     1.653536     1.645893     1.638250
      1.630607     1.622964     1.615321     1.607677     1.600034     1.592391     1.584748     1.577105     1.569462     1.561819
      1.554176     1.546533     1.538890     1.531246     1.523603     1.515960     1.508317     1.500674     1.493031     1.485388
      1.477745     1.470102     1.462458     1.454815     1.447172     1.439529     1.431886     1.424243     1.416600     1.408957
      1.401314     1.393671     1.386027     1.378384     1.370741     1.363098     1.355455     1.347812     1.340169     1.332526
      1.324883     1.317240     1.309596     1.301953     1.294310     1.286667     1.279024     1.271381     1.263738     1.256095
      1.248452     1.240808     1.233165     1.225522     1.217879     1.210236     1.202593     1.194950     1.187307     1.179664
      1.172021     1.164377     1.156734     1.149091     1.141448     1.133805     1.126162     1.118519     1.110876     1.103233
      1.095590     1.087946     1.080303     1.072660     1.065017     1.057374     1.049731     1.042088     1.034445     1.026802
      1.019158     1.011515     1.003872     0.996229     0.988586     0.980943     0.973300     0.965657     0.958014     0.950371
      0.942727     0.935084     0.927441     0.919798     0.912155     0.904512     0.896869     0.889226     0.881583     0.873940
      0.866296     0.858653     0.851010     0.843367     0.835724     0.828081     0.820438     0.812795     0.805152     0.797508
      0.789865     0.782222     0.774579     0.766936     0.759293     0.751650     0.744007     0.736364     0.728721     0.721077
      0.713434     0.705791     0.698148     0.690505     0.682862     0.675219     0.667576     0.659933     0.652290     0.644646
      0.637003     0.629360     0.621717     0.614074     0.606431     0.598788     0.591145     0.583502     0.575858     0.568215
      0.560572     0.552929     0.545286     0.537643     0.530000     0.522357     0.514714     0.507071     0.499427     0.491784
      0.484141     0.476498     0.468855     0.461212     0.453569     0.445925     0.438282     0.430639     0.422996     0.415353
      0.407710     0.400067     0.392424     0.384780     0.377137     0.369494     0.361851     0.354208     0.346565     0.338922
      0.331278     0.323635     0.315992     0.308349     0.300706     0.293063     0.285420     0.277777     0.270133     0.262490
      0.254847     0.247204     0.239561     0.231918     0.224275     0.216631     0.208988     0.201345
 NY phased data points follow
   2.34332E+00 -1.17553E+01 -5.99912E+00 -4.28913E-01 -6.36298E+00 -8.03646E+00 -4.04426E+00  4.17471E+00 -2.27028E+00  3.92223E+00
  -1.19369E+01 -6.34813E+00 -1.54574E+01 -2.54669E+00  9.48892E+00  1.13512E+01 -6.98074E-01 -1.24900E+01 -2.90587E-01 -7.76891E+00
   1.44270E-02 -8.25664E-02  2.56558E+00  1.20637E+01 -5.35264E+00 -1.11603E+01  9.09370E-01  8.87676E+00 -3.44952E+00  7.25089E+00
  -7.97870E+00 -7.29132E+00 -7.23273E+00  3.78159E+00  1.40037E+01  3.24637E+00 -2.53259E+00 -8.08100E+00 -6.97699E+00  2.10767E-01
  -1.21590E+01 -3.13135E+00 -1.21590E+00 -4.82095E+00  4.32526E+00 -7.70368E-01 -5.26196E+00  3.26930E-01 -1.90779E+00  1.60690E+00
  -7.78707E+00  1.95524E+00 -3.01290E+00  2.65015E+00 -2.90342E+00 -3.03377E+00 -2.39987E+00  4.60070E+00 -2.60210E+00  2.66258E+00
  -4.29846E+00 -1.84106E-01  1.82502E+00 -6.09271E+00  2.56248E+00 -1.15808E+00  4.50561E+00  4.39580E+00 -2.58528E+00  2.86335E+00
   9.72626E+00 -5.66075E+00  5.65074E+00  3.11808E+00  3.88554E+00 -5.93506E-01 -4.97353E+00 -4.01896E+00 -2.86197E+00 -4.33101E+00
  -1.99591E+00  2.28895E-01  4.14737E-01 -2.62650E+00  5.35241E-03 -3.32923E+00 -6.97367E+00  2.11951E+00 -4.30360E+00 -3.10185E-01
   2.16026E+00  3.01932E+00  2.57983E+00 -1.15213E+00  1.93138E+00  3.74430E+00  1.41805E+00  9.75590E+00 -4.92921E+00 -2.29153E+00
   1.07745E+01 -9.20694E+00 -1.02693E+01 -7.14716E+00 -1.44333E+00  1.13507E+01 -6.23516E+00  7.30217E+00 -2.96554E+00  4.53856E+00
   6.52705E+00 -3.25780E+00  6.25329E+00 -6.43465E+00  8.02919E+00  1.04864E+00  2.87594E+00  3.41283E+00 -7.67336E+00 -3.24056E+00
   6.84966E+00 -5.58520E-01 -1.92270E+00  3.26124E+00  1.17209E+00 -6.01547E+00 -3.49783E+00 -1.44722E+01  5.04190E-01 -6.01800E+00
   6.29896E+00 -1.84741E+00  6.70244E+00  1.17126E+00 -1.47466E+00  1.05906E+01 -1.79528E+00  1.17603E+00  8.73942E+00  2.70607E+00
   1.01890E+01 -3.03825E+00  1.38574E+01 -4.58052E+00  6.34942E+00  3.79153E+00 -7.31537E-01  2.29809E+00  1.18386E+00  6.45067E+00
  -2.62522E+00  7.75209E+00  3.18754E+00  5.87498E+00  5.17941E+00 -1.50336E+00  5.69693E+00  3.00284E+00  1.26509E+01  7.44079E+00
   6.86568E+00 -2.63121E+00  1.28036E+01  6.18493E+00  4.00736E+00  3.77145E+00  1.58290E+00  6.14918E+00  9.80541E+00  7.63869E-02
   5.85032E+00  1.07120E+00 -2.51622E+00  7.58378E+00  6.91439E+00  1.52927E+00  5.50949E-01  5.64422E+00 -4.86466E+00  3.75622E+00
   1.24024E+00 -3.19605E+00 -5.25088E+00  7.67390E+00 -3.60600E+00  9.83932E-01  5.93310E+00  6.92889E+00 -1.02844E+01  7.22532E+00
   1.54078E-01  2.75966E-01 -5.04943E+00  4.26828E+00  1.27093E+01  2.27100E+00  2.51117E+00 -5.09635E+00  4.86179E+00 -9.50029E-01
   5.47607E+00 -1.44437E+00  1.03619E+01  3.10557E+00 -2.88549E+00  6.05302E+00  3.79518E+00  6.28314E+00  1.30441E+01  1.39402E+01
  -3.00972E-01  1.58002E+00  5.01765E+00 -1.16613E-02  6.54420E+00  1.03060E+01  7.07016E+00  7.87856E+00  8.75046E+00  1.23357E+01
   3.41400E+00  1.00036E+01  1.03713E+01  5.33003E+00  1.22952E-01  3.75645E+00  1.24490E+01  6.24646E-01  8.11185E+00  1.25314E+01
   9.24670E+00  7.53217E+00  2.65034E+00  1.57513E+01 -3.98992E+00  1.76965E+01  7.81379E+00  2.99312E+00  9.84511E+00  8.91971E+00
   5.86019E+00  8.73530E+00  3.43381E+00  9.12619E+00  1.93548E+00  1.54844E+01  5.59642E+00  1.85566E+01  1.32444E+01  1.23083E+01
   6.15124E+00  5.03297E+00  1.30351E+01 -3.41057E-01  1.09419E+01  7.29370E+00  7.35532E+00  3.55998E+00  7.13535E+00  4.66119E+00
  -5.17642E-01  1.29625E+01  2.16353E+01  5.38285E+00  1.54070E+01  6.11563E-01 -2.80647E+00  3.08995E-01  5.10787E+00  6.13892E+00
   6.77209E+00 -4.54964E-01  5.68946E+00  9.86695E+00  2.96078E+00  3.63219E+00 -1.69492E+00  2.84680E+00 -8.30240E-01 -8.11714E-01
   3.50079E+00 -3.03545E+00  1.34826E+00  1.24329E+01  5.02281E+00  7.39854E+00  4.81601E+00 -3.50539E+00  7.71528E+00  1.17458E+00
   4.40522E+00  5.21392E+00  8.12571E+00  8.54652E+00  3.07201E+00  1.08745E+01  4.75954E+00  8.52295E+00  8.89436E+00  2.15043E+00
   1.25643E+01  6.46581E+00  7.47100E+00  4.22793E+00  7.94331E+00  4.97812E+00  8.68663E+00  4.08245E-01  4.98680E+00  8.13546E+00
  -7.57440E-01  1.34533E+01  6.55690E+00  8.67773E+00  4.03242E+00  1.63000E+01  1.01305E+01  8.96349E+00  9.46341E+00  1.08174E+01
   1.67829E+01  1.76068E+01  1.58532E+01  1.55961E+01  2.55152E+01  2.58849E+01  2.02255E+01  2.57243E+01  3.31191E+01  3.38807E+01
   3.53452E+01  1.69341E+01  2.61823E+01  2.27463E+01  2.16533E+01  1.96879E+01  1.57209E+01  2.09888E+01  2.53432E+01  2.41326E+01
   8.08073E+00  1.11580E+01  1.97001E+01  1.44882E+01  7.82136E+00  1.59133E+01  1.99159E+01  9.43909E+00  1.28480E+01  1.70545E+01
   4.90257E+00  1.81463E+01  1.03568E+01  1.07207E+01  1.59068E+01  1.71816E+01 -4.21481E+00  5.89065E+00  2.40884E+00  7.23299E+00
   3.00093E+00  9.86985E+00  7.18595E-01  7.01223E+00 -1.26525E+00  1.06678E+01  1.46404E-01  5.12986E+00  4.11300E+00  5.71369E+00
   7.46239E+00 -5.61429E-01  3.18811E+00 -2.33564E+00 -1.70123E+00 -1.06191E+00  7.08118E+00  1.07890E+01  8.08823E+00  5.06859E-01
   9.32006E+00  1.60020E+01  9.68530E+00  8.95094E+00  1.33016E+01  9.38863E+00  9.43646E+00  4.94791E+00  1.48674E+01  1.06491E+01
   1.83391E+01  5.89458E+00  1.02819E+01  1.30955E+01  8.98900E+00  8.52133E+00  3.74581E+00  2.19127E+01  9.17016E+00  5.53660E+00
   1.21919E+01  1.41810E+01  3.03371E+00  4.76054E-01  1.71188E+01  1.66548E+01  2.72659E+00  5.13739E+00  7.47959E+00  7.40869E+00
   7.16989E+00  8.37770E+00  8.10279E+00  9.56391E+00 -8.56530E-01  6.76222E+00  9.82584E+00  2.47667E+00  8.20733E+00 -2.81130E+00
   9.69984E+00  5.46757E+00  1.17058E+01  7.43361E-02  6.70624E+00 -1.76654E+00  6.43999E+00  1.27127E+01  1.73742E+01  2.41860E+00
   1.17646E+01  6.40260E+00  7.67950E+00  7.22198E+00  1.03282E+01  6.02072E+00  6.72712E+00  1.37129E+00  1.39450E+01  6.70866E+00
  -1.88651E+00  6.87694E+00  1.52448E+01  1.15141E+01  1.70001E+00  3.65551E+00  1.24683E+01  4.34873E+00  6.18515E+00  1.43839E+01
   1.06322E+01  5.43822E+00 -8.10876E-01  4.67285E+00  7.32735E+00 -4.53313E+00  7.45292E+00 -9.24820E-01 -1.01902E+00  6.50481E+00
  -2.66415E-01  4.03691E+00 -8.71784E+00  2.77035E+00  4.85581E+00  1.08242E+01  1.45184E+00 -2.40787E+00 -4.73538E+00  5.15740E+00
  -4.50152E-01  2.44099E+00  8.35420E+00 -5.29907E+00  6.90193E+00  1.80114E+00  6.95630E+00  2.94496E+00 -5.29610E+00 -1.22219E+01
   6.73559E-01 -6.75300E+00 -6.57091E+00 -5.36388E+00  7.72099E+00 -1.25745E+00 -4.88987E+00  4.71498E+00 -2.22396E+00  5.39962E+00
  -1.84696E-02  2.09965E+00  5.63363E+00  7.26545E+00  5.63701E-01 -1.19755E+01 -9.45987E+00 -6.53819E+00
 NY points of the fit to the data follow
  -6.36767E-01 -6.26868E-01 -6.17190E-01 -6.06517E-01 -5.92791E-01 -5.80742E-01 -5.77072E-01 -5.85091E-01 -6.04533E-01 -6.30284E-01
  -6.50892E-01 -6.51890E-01 -6.23406E-01 -5.66791E-01 -5.09132E-01 -4.84555E-01 -5.05649E-01 -5.55980E-01 -6.08301E-01 -6.25354E-01
  -5.74203E-01 -4.12648E-01 -1.16386E-01  2.66628E-01  5.99724E-01  7.19018E-01  5.80188E-01  2.12293E-01 -3.09187E-01 -7.76936E-01
  -8.91010E-01 -4.92884E-01  3.08943E-01  1.18006E+00  1.76666E+00  1.86972E+00  1.52966E+00  9.08334E-01  1.48711E-01 -5.10718E-01
  -8.16112E-01 -7.32551E-01 -4.63976E-01 -2.05418E-01 -4.50460E-02 -2.30296E-03 -2.49554E-02 -4.69401E-02 -7.64180E-02 -1.03895E-01
  -1.24971E-01 -1.41183E-01 -1.53926E-01 -1.63794E-01 -1.70780E-01 -1.74485E-01 -1.74818E-01 -1.72431E-01 -1.68483E-01 -1.63752E-01
  -1.58823E-01 -1.53436E-01 -1.47165E-01 -1.39852E-01 -1.31885E-01 -1.23577E-01 -1.15181E-01 -1.07213E-01 -1.00190E-01 -9.42632E-02
  -8.92373E-02 -8.42959E-02 -7.77902E-02 -6.86339E-02 -5.67291E-02 -4.28461E-02 -2.80914E-02 -1.48544E-02 -4.97644E-03  1.43556E-03
   5.93232E-03  1.07624E-02  1.93011E-02  3.35382E-02  5.22474E-02  7.39051E-02  9.68296E-02  1.18592E-01  1.36811E-01  1.50300E-01
   1.59595E-01  1.67276E-01  1.76835E-01  1.90618E-01  2.07342E-01  2.25836E-01  2.47291E-01  2.73027E-01  3.03766E-01  3.38785E-01
   3.75685E-01  4.12408E-01  4.48708E-01  4.85678E-01  5.25309E-01  5.69637E-01  6.19407E-01  6.73694E-01  7.31991E-01  7.93938E-01
   8.58826E-01  9.26413E-01  9.96964E-01  1.07043E+00  1.14705E+00  1.22788E+00  1.31163E+00  1.39571E+00  1.47758E+00  1.55432E+00
   1.62353E+00  1.68730E+00  1.75086E+00  1.81901E+00  1.89367E+00  1.97192E+00  2.04576E+00  2.10522E+00  2.14554E+00  2.17248E+00
   2.21032E+00  2.27674E+00  2.36546E+00  2.44976E+00  2.48715E+00  2.43139E+00  2.26585E+00  2.02120E+00  1.78021E+00  1.63363E+00
   1.63176E+00  1.75052E+00  1.89902E+00  1.99904E+00  2.01135E+00  1.93309E+00  1.80107E+00  1.66317E+00  1.54616E+00  1.46343E+00
   1.39751E+00  1.33525E+00  1.27096E+00  1.20571E+00  1.14437E+00  1.09354E+00  1.05930E+00  1.03898E+00  1.02496E+00  1.00929E+00
   9.85270E-01  9.53456E-01  9.21048E-01  8.98851E-01  8.92818E-01  8.99102E-01  9.07642E-01  9.07242E-01  8.92589E-01  8.71384E-01
   8.55306E-01  8.50781E-01  8.55872E-01  8.58902E-01  8.54300E-01  8.43327E-01  8.29693E-01  8.18180E-01  8.13981E-01  8.19940E-01
   8.35262E-01  8.52124E-01  8.61115E-01  8.58577E-01  8.48227E-01  8.35091E-01  8.21167E-01  8.19166E-01  8.52994E-01  9.47908E-01
   1.10320E+00  1.28807E+00  1.44994E+00  1.53972E+00  1.52048E+00  1.39683E+00  1.21649E+00  1.04585E+00  9.49390E-01  9.72488E-01
   1.12492E+00  1.38187E+00  1.70700E+00  2.03077E+00  2.28691E+00  2.45617E+00  2.51869E+00  2.43156E+00  2.18585E+00  1.81869E+00
   1.41654E+00  1.10287E+00  1.10130E+00  1.55923E+00  2.42568E+00  3.53170E+00  4.60221E+00  5.30728E+00  5.41054E+00  4.80244E+00
   3.62262E+00  2.26299E+00  1.13927E+00  5.91141E-01  6.82902E-01  1.40146E+00  2.59589E+00  3.91978E+00  4.97878E+00  5.54040E+00
   5.68062E+00  5.63571E+00  5.55124E+00  5.49669E+00  5.57931E+00  5.84819E+00  6.26526E+00  6.73906E+00  7.17547E+00  7.49069E+00
   7.65210E+00  7.67927E+00  7.65033E+00  7.66622E+00  7.84229E+00  8.22935E+00  8.75673E+00  9.28372E+00  9.67974E+00  9.86325E+00
   9.81231E+00  9.64298E+00  9.47865E+00  9.40284E+00  9.41453E+00  9.43523E+00  9.37497E+00  9.25006E+00  9.13682E+00  9.13415E+00
   9.32173E+00  9.64010E+00  9.87823E+00  9.80379E+00  9.32188E+00  8.52220E+00  7.65882E+00  6.98413E+00  6.52965E+00  6.15465E+00
   5.82519E+00  5.54250E+00  5.29246E+00  5.08360E+00  4.93886E+00  4.84297E+00  4.76496E+00  4.67218E+00  4.54647E+00  4.39258E+00
   4.23700E+00  4.10226E+00  3.99614E+00  3.92318E+00  3.88611E+00  3.88223E+00  3.90463E+00  3.94545E+00  4.00179E+00  4.07660E+00
   4.17101E+00  4.28505E+00  4.41793E+00  4.56782E+00  4.73174E+00  4.90576E+00  5.08620E+00  5.26946E+00  5.45115E+00  5.62731E+00
   5.79512E+00  5.95238E+00  6.09781E+00  6.23135E+00  6.35432E+00  6.46962E+00  6.58194E+00  6.69802E+00  6.82680E+00  6.97915E+00
   7.16746E+00  7.40470E+00  7.70402E+00  8.07834E+00  8.53957E+00  9.09778E+00  9.76041E+00  1.05315E+01  1.14111E+01  1.23944E+01
   1.34708E+01  1.46199E+01  1.58144E+01  1.71471E+01  1.87353E+01  2.04873E+01  2.21886E+01  2.35589E+01  2.42711E+01  2.40868E+01
   2.29864E+01  2.12841E+01  1.96471E+01  1.86522E+01  1.85154E+01  1.89867E+01  1.97351E+01  2.05385E+01  2.09663E+01  2.06131E+01
   1.93765E+01  1.75295E+01  1.56357E+01  1.40992E+01  1.28330E+01  1.17725E+01  1.09075E+01  1.02376E+01  9.75847E+00  9.45442E+00
   9.29658E+00  9.24340E+00  9.24445E+00  9.24670E+00  9.20218E+00  9.07525E+00  8.84783E+00  8.52129E+00  8.11442E+00  7.65826E+00
   7.18910E+00  6.74151E+00  6.34288E+00  6.01043E+00  5.75080E+00  5.56171E+00  5.43475E+00  5.35846E+00  5.32104E+00  5.31213E+00
   5.32384E+00  5.35095E+00  5.39072E+00  5.44240E+00  5.50671E+00  5.58540E+00  5.68080E+00  5.79557E+00  5.93243E+00  6.09399E+00
   6.28265E+00  6.50041E+00  6.74881E+00  7.02873E+00  7.34031E+00  7.68279E+00  8.05443E+00  8.45240E+00  8.87274E+00  9.31028E+00
   9.75869E+00  1.02106E+01  1.06577E+01  1.10910E+01  1.15010E+01  1.18783E+01  1.22135E+01  1.24979E+01  1.27240E+01  1.28855E+01
   1.29777E+01  1.29979E+01  1.29453E+01  1.28210E+01  1.26283E+01  1.23722E+01  1.20590E+01  1.16965E+01  1.12931E+01  1.08580E+01
   1.04003E+01  9.92875E+00  9.45188E+00  8.97727E+00  8.51158E+00  8.06046E+00  7.62842E+00  7.21892E+00  6.83434E+00  6.47613E+00
   6.14494E+00  5.84069E+00  5.56275E+00  5.31006E+00  5.08122E+00  4.87466E+00  4.68867E+00  4.52152E+00  4.37149E+00  4.23690E+00
   4.11620E+00  4.00791E+00  3.91071E+00  3.82338E+00  3.74484E+00  3.67410E+00  3.61030E+00  3.55267E+00  3.50054E+00  3.45332E+00
   3.41048E+00  3.37157E+00  3.33619E+00  3.30397E+00  3.27462E+00  3.24785E+00  3.22343E+00  3.20113E+00  3.18075E+00  3.16214E+00
   3.14515E+00  3.12964E+00  3.11548E+00  3.10256E+00  3.09079E+00  3.08008E+00  3.07035E+00  3.06154E+00  3.05356E+00  3.04637E+00
   3.03990E+00  3.03411E+00  3.02896E+00  3.02439E+00  3.02037E+00  3.01687E+00  3.01385E+00  3.01130E+00  3.00917E+00  3.00744E+00
   3.00608E+00  3.00508E+00  3.00442E+00  3.00408E+00  3.00404E+00  3.00428E+00  3.00479E+00  3.00556E+00  3.00657E+00  3.00781E+00
   3.00927E+00  3.01093E+00  3.01278E+00  3.01483E+00  3.01706E+00  3.01946E+00  3.02201E+00  3.02472E+00  3.02758E+00  3.03059E+00
   3.03373E+00  3.03700E+00  3.04039E+00  3.04390E+00  3.04752E+00  3.05126E+00  3.05511E+00  3.05905E+00
 NY background values follow
    -7.011E-01   -6.939E-01   -6.867E-01   -6.795E-01   -6.722E-01   -6.650E-01   -6.578E-01   -6.506E-01   -6.434E-01   -6.362E-01
    -6.290E-01   -6.218E-01   -6.145E-01   -6.073E-01   -6.001E-01   -5.929E-01   -5.857E-01   -5.785E-01   -5.713E-01   -5.641E-01
    -5.568E-01   -5.496E-01   -5.424E-01   -5.352E-01   -5.280E-01   -5.208E-01   -5.136E-01   -5.064E-01   -4.991E-01   -4.919E-01
    -4.847E-01   -4.775E-01   -4.703E-01   -4.631E-01   -4.559E-01   -4.487E-01   -4.414E-01   -4.342E-01   -4.270E-01   -4.198E-01
    -4.126E-01   -4.054E-01   -3.982E-01   -3.910E-01   -3.837E-01   -3.765E-01   -3.693E-01   -3.621E-01   -3.549E-01   -3.477E-01
    -3.405E-01   -3.333E-01   -3.260E-01   -3.188E-01   -3.116E-01   -3.044E-01   -2.972E-01   -2.900E-01   -2.828E-01   -2.756E-01
    -2.684E-01   -2.611E-01   -2.539E-01   -2.467E-01   -2.395E-01   -2.323E-01   -2.251E-01   -2.179E-01   -2.107E-01   -2.034E-01
    -1.962E-01   -1.890E-01   -1.818E-01   -1.746E-01   -1.674E-01   -1.602E-01   -1.530E-01   -1.457E-01   -1.385E-01   -1.313E-01
    -1.241E-01   -1.169E-01   -1.097E-01   -1.025E-01   -9.526E-02   -8.804E-02   -8.083E-02   -7.362E-02   -6.641E-02   -5.920E-02
    -5.198E-02   -4.477E-02   -3.756E-02   -3.035E-02   -2.313E-02   -1.592E-02   -8.711E-03   -1.499E-03    5.713E-03    1.293E-02
     2.014E-02    2.735E-02    3.456E-02    4.177E-02    4.898E-02    5.620E-02    6.341E-02    7.062E-02    7.783E-02    8.504E-02
     9.226E-02    9.947E-02    1.067E-01    1.139E-01    1.211E-01    1.283E-01    1.355E-01    1.427E-01    1.499E-01    1.572E-01
     1.644E-01    1.716E-01    1.788E-01    1.860E-01    1.932E-01    2.004E-01    2.076E-01    2.149E-01    2.221E-01    2.293E-01
     2.365E-01    2.437E-01    2.509E-01    2.581E-01    2.653E-01    2.725E-01    2.798E-01    2.870E-01    2.942E-01    3.014E-01
     3.086E-01    3.158E-01    3.230E-01    3.302E-01    3.374E-01    3.447E-01    3.519E-01    3.591E-01    3.663E-01    3.735E-01
     3.807E-01    3.879E-01    3.951E-01    4.023E-01    4.096E-01    4.168E-01    4.240E-01    4.312E-01    4.384E-01    4.456E-01
     4.528E-01    4.600E-01    4.672E-01    4.745E-01    4.817E-01    4.889E-01    4.961E-01    5.033E-01    5.105E-01    5.177E-01
     5.249E-01    5.321E-01    5.393E-01    5.466E-01    5.538E-01    5.610E-01    5.682E-01    5.754E-01    5.826E-01    5.898E-01
     5.970E-01    6.042E-01    6.114E-01    6.187E-01    6.259E-01    6.331E-01    6.403E-01    6.475E-01    6.547E-01    6.619E-01
     6.691E-01    6.763E-01    6.835E-01    6.908E-01    6.980E-01    7.052E-01    7.124E-01    7.196E-01    7.268E-01    7.340E-01
     7.412E-01    7.484E-01    7.556E-01    7.629E-01    7.701E-01    7.773E-01    7.845E-01    7.917E-01    7.989E-01    8.061E-01
     8.133E-01    8.205E-01    8.277E-01    8.349E-01    8.422E-01    8.494E-01    8.566E-01    8.638E-01    8.710E-01    8.782E-01
     8.854E-01    8.926E-01    8.998E-01    9.070E-01    9.142E-01    9.215E-01    9.287E-01    9.359E-01    9.431E-01    9.503E-01
     9.575E-01    9.647E-01    9.719E-01    9.791E-01    9.863E-01    9.935E-01    1.001E+00    1.008E+00    1.015E+00    1.022E+00
     1.030E+00    1.037E+00    1.044E+00    1.051E+00    1.058E+00    1.066E+00    1.073E+00    1.080E+00    1.087E+00    1.094E+00
     1.102E+00    1.109E+00    1.116E+00    1.123E+00    1.130E+00    1.138E+00    1.145E+00    1.152E+00    1.159E+00    1.167E+00
     1.174E+00    1.181E+00    1.188E+00    1.195E+00    1.203E+00    1.210E+00    1.217E+00    1.224E+00    1.231E+00    1.239E+00
     1.246E+00    1.253E+00    1.260E+00    1.267E+00    1.275E+00    1.282E+00    1.289E+00    1.296E+00    1.303E+00    1.311E+00
     1.318E+00    1.325E+00    1.332E+00    1.340E+00    1.347E+00    1.354E+00    1.361E+00    1.368E+00    1.376E+00    1.383E+00
     1.390E+00    1.397E+00    1.404E+00    1.412E+00    1.419E+00    1.426E+00    1.433E+00    1.440E+00    1.448E+00    1.455E+00
     1.462E+00    1.469E+00    1.476E+00    1.484E+00    1.491E+00    1.498E+00    1.505E+00    1.512E+00    1.520E+00    1.527E+00
     1.534E+00    1.541E+00    1.549E+00    1.556E+00    1.563E+00    1.570E+00    1.577E+00    1.585E+00    1.592E+00    1.599E+00
     1.606E+00    1.613E+00    1.621E+00    1.628E+00    1.635E+00    1.642E+00    1.649E+00    1.657E+00    1.664E+00    1.671E+00
     1.678E+00    1.685E+00    1.693E+00    1.700E+00    1.707E+00    1.714E+00    1.721E+00    1.729E+00    1.736E+00    1.743E+00
     1.750E+00    1.757E+00    1.765E+00    1.772E+00    1.779E+00    1.786E+00    1.794E+00    1.801E+00    1.808E+00    1.815E+00
     1.822E+00    1.830E+00    1.837E+00    1.844E+00    1.851E+00    1.858E+00    1.866E+00    1.873E+00    1.880E+00    1.887E+00
     1.894E+00    1.902E+00    1.909E+00    1.916E+00    1.923E+00    1.930E+00    1.938E+00    1.945E+00    1.952E+00    1.959E+00
     1.966E+00    1.974E+00    1.981E+00    1.988E+00    1.995E+00    2.002E+00    2.010E+00    2.017E+00    2.024E+00    2.031E+00
     2.038E+00    2.046E+00    2.053E+00    2.060E+00    2.067E+00    2.075E+00    2.082E+00    2.089E+00    2.096E+00    2.103E+00
     2.111E+00    2.118E+00    2.125E+00    2.132E+00    2.139E+00    2.147E+00    2.154E+00    2.161E+00    2.168E+00    2.175E+00
     2.183E+00    2.190E+00    2.197E+00    2.204E+00    2.211E+00    2.219E+00    2.226E+00    2.233E+00    2.240E+00    2.247E+00
     2.255E+00    2.262E+00    2.269E+00    2.276E+00    2.283E+00    2.291E+00    2.298E+00    2.305E+00    2.312E+00    2.319E+00
     2.327E+00    2.334E+00    2.341E+00    2.348E+00    2.355E+00    2.363E+00    2.370E+00    2.377E+00    2.384E+00    2.392E+00
     2.399E+00    2.406E+00    2.413E+00    2.420E+00    2.428E+00    2.435E+00    2.442E+00    2.449E+00    2.456E+00    2.464E+00
     2.471E+00    2.478E+00    2.485E+00    2.492E+00    2.500E+00    2.507E+00    2.514E+00    2.521E+00    2.528E+00    2.536E+00
     2.543E+00    2.550E+00    2.557E+00    2.564E+00    2.572E+00    2.579E+00    2.586E+00    2.593E+00    2.600E+00    2.608E+00
     2.615E+00    2.622E+00    2.629E+00    2.636E+00    2.644E+00    2.651E+00    2.658E+00    2.665E+00    2.672E+00    2.680E+00
     2.687E+00    2.694E+00    2.701E+00    2.708E+00    2.716E+00    2.723E+00    2.730E+00    2.737E+00    2.745E+00    2.752E+00
     2.759E+00    2.766E+00    2.773E+00    2.781E+00    2.788E+00    2.795E+00    2.802E+00    2.809E+00    2.817E+00    2.824E+00
     2.831E+00    2.838E+00    2.845E+00    2.853E+00    2.860E+00    2.867E+00    2.874E+00    2.881E+00
 Ala      Conc. = 1.85E+02
