 LCModel (Version 6.3-1L) Copyright: S.W. Provencher.          Ref.: Magn. Reson. Med. 30:672-679 (1993).                
 Slice#3 Row#4 Col#10  PD_05_press_2_raw_act
 36 lines in following concentration table = NCONC+1
    Conc.  %SD /Cr+PCr  Metabolite                                         
 1.09E+03  25%   0.458 Ala                                                 
  181.474 219% 7.6E-02 Asp                                                 
  724.377  75%   0.304 Cr                                                  
 1.66E+03  33%   0.696 PCr                                                 
  126.895 205% 5.3E-02 GABA                                                
  251.614 102%   0.106 Glc                                                 
 1.93E+03  30%   0.809 Gln                                                 
 2.88E+03  23%   1.211 Glu                                                 
  820.104   6%   0.344 GPC                                                 
    0.000 999%   0.000 PCh                                                 
  625.749  28%   0.263 GSH                                                 
 1.27E+03  44%   0.533 Ins                                                 
    0.000 999%   0.000 Lac                                                 
 3.11E+03   4%   1.305 NAA                                                 
    0.000 999%   0.000 NAAG                                                
  212.321  26% 8.9E-02 Scyllo                                              
   27.152 999% 1.1E-02 Tau                                                 
 1.01E+03  23%   0.423 -CrCH2                                              
  820.104   6%   0.344 GPC+PCh                                             
 3.11E+03   4%   1.305 NAA+NAAG                                            
 2.38E+03   5%   1.000 Cr+PCr                                              
 4.81E+03  20%   2.020 Glu+Gln                                             
 1.84E+04   7%   7.712 Lip13a                                              
    0.000 999%   0.000 Lip13b                                              
 1.73E+03  26%   0.726-Lip09                                               
    0.000 999%   0.000 MM09                                                
 2.47E+03  21%   1.036 Lip20                                               
  162.461 170% 6.8E-02 MM20                                                
   10.028 780% 4.2E-03 MM12                                                
  632.920  53%   0.266 MM14                                                
  471.228  44%   0.198 MM17                                                
 1.84E+04   7%   7.712 Lip13a+Lip13b                                       
 1.90E+04   7%   7.981 MM14+Lip13a+Lip13b+MM12                             
 1.73E+03  26%   0.726 MM09+Lip09                                          
 2.63E+03  21%   1.104 MM20+Lip20                                          
   6 lines in following misc. output table
  FWHM = 0.061 ppm    S/N =   7                                            
  Data shift = 0.023 ppm                                                   
  Ph: -70 deg     -26.6 deg/ppm                                            
  alphaB,S = 1.3E+00,   6.8E+01                                            
   14 spline knots.   Ns = 7(1)                                            
  (10) 5 infls.   ( 9) 1 extrs.                                            
  498 points on ppm-axis = NY
      4.000000     3.992357     3.984714     3.977070     3.969427     3.961784     3.954141     3.946497     3.938854     3.931211
      3.923568     3.915925     3.908281     3.900638     3.892995     3.885352     3.877708     3.870065     3.862422     3.854779
      3.847136     3.839492     3.831849     3.824206     3.816563     3.808919     3.801276     3.793633     3.785990     3.778347
      3.770703     3.763060     3.755417     3.747774     3.740130     3.732487     3.724844     3.717201     3.709558     3.701914
      3.694271     3.686628     3.678985     3.671341     3.663698     3.656055     3.648412     3.640769     3.633125     3.625482
      3.617839     3.610196     3.602552     3.594909     3.587266     3.579623     3.571980     3.564336     3.556693     3.549050
      3.541407     3.533763     3.526120     3.518477     3.510834     3.503191     3.495547     3.487904     3.480261     3.472618
      3.464974     3.457331     3.449688     3.442045     3.434402     3.426758     3.419115     3.411472     3.403829     3.396185
      3.388542     3.380899     3.373256     3.365613     3.357969     3.350326     3.342683     3.335040     3.327396     3.319753
      3.312110     3.304467     3.296824     3.289180     3.281537     3.273894     3.266251     3.258607     3.250964     3.243321
      3.235678     3.228034     3.220391     3.212748     3.205105     3.197462     3.189818     3.182175     3.174532     3.166889
      3.159245     3.151602     3.143959     3.136316     3.128673     3.121029     3.113386     3.105743     3.098100     3.090456
      3.082813     3.075170     3.067527     3.059884     3.052240     3.044597     3.036954     3.029311     3.021667     3.014024
      3.006381     2.998738     2.991095     2.983451     2.975808     2.968165     2.960522     2.952878     2.945235     2.937592
      2.929949     2.922306     2.914662     2.907019     2.899376     2.891733     2.884089     2.876446     2.868803     2.861160
      2.853517     2.845873     2.838230     2.830587     2.822944     2.815300     2.807657     2.800014     2.792371     2.784728
      2.777084     2.769441     2.761798     2.754155     2.746511     2.738868     2.731225     2.723582     2.715939     2.708295
      2.700652     2.693009     2.685366     2.677722     2.670079     2.662436     2.654793     2.647150     2.639506     2.631863
      2.624220     2.616577     2.608933     2.601290     2.593647     2.586004     2.578361     2.570717     2.563074     2.555431
      2.547788     2.540144     2.532501     2.524858     2.517215     2.509572     2.501928     2.494285     2.486642     2.478999
      2.471355     2.463712     2.456069     2.448426     2.440783     2.433139     2.425496     2.417853     2.410210     2.402566
      2.394923     2.387280     2.379637     2.371994     2.364350     2.356707     2.349064     2.341421     2.333777     2.326134
      2.318491     2.310848     2.303205     2.295561     2.287918     2.280275     2.272632     2.264988     2.257345     2.249702
      2.242059     2.234416     2.226772     2.219129     2.211486     2.203843     2.196199     2.188556     2.180913     2.173270
      2.165627     2.157983     2.150340     2.142697     2.135054     2.127410     2.119767     2.112124     2.104481     2.096838
      2.089194     2.081551     2.073908     2.066265     2.058621     2.050978     2.043335     2.035692     2.028049     2.020405
      2.012762     2.005119     1.997476     1.989833     1.982190     1.974546     1.966903     1.959260     1.951617     1.943974
      1.936331     1.928688     1.921045     1.913402     1.905759     1.898115     1.890472     1.882829     1.875186     1.867543
      1.859900     1.852257     1.844614     1.836971     1.829327     1.821684     1.814041     1.806398     1.798755     1.791112
      1.783469     1.775826     1.768183     1.760540     1.752896     1.745253     1.737610     1.729967     1.722324     1.714681
      1.707038     1.699395     1.691752     1.684108     1.676465     1.668822     1.661179     1.653536     1.645893     1.638250
      1.630607     1.622964     1.615321     1.607677     1.600034     1.592391     1.584748     1.577105     1.569462     1.561819
      1.554176     1.546533     1.538890     1.531246     1.523603     1.515960     1.508317     1.500674     1.493031     1.485388
      1.477745     1.470102     1.462458     1.454815     1.447172     1.439529     1.431886     1.424243     1.416600     1.408957
      1.401314     1.393671     1.386027     1.378384     1.370741     1.363098     1.355455     1.347812     1.340169     1.332526
      1.324883     1.317240     1.309596     1.301953     1.294310     1.286667     1.279024     1.271381     1.263738     1.256095
      1.248452     1.240808     1.233165     1.225522     1.217879     1.210236     1.202593     1.194950     1.187307     1.179664
      1.172021     1.164377     1.156734     1.149091     1.141448     1.133805     1.126162     1.118519     1.110876     1.103233
      1.095590     1.087946     1.080303     1.072660     1.065017     1.057374     1.049731     1.042088     1.034445     1.026802
      1.019158     1.011515     1.003872     0.996229     0.988586     0.980943     0.973300     0.965657     0.958014     0.950371
      0.942727     0.935084     0.927441     0.919798     0.912155     0.904512     0.896869     0.889226     0.881583     0.873940
      0.866296     0.858653     0.851010     0.843367     0.835724     0.828081     0.820438     0.812795     0.805152     0.797508
      0.789865     0.782222     0.774579     0.766936     0.759293     0.751650     0.744007     0.736364     0.728721     0.721077
      0.713434     0.705791     0.698148     0.690505     0.682862     0.675219     0.667576     0.659933     0.652290     0.644646
      0.637003     0.629360     0.621717     0.614074     0.606431     0.598788     0.591145     0.583502     0.575858     0.568215
      0.560572     0.552929     0.545286     0.537643     0.530000     0.522357     0.514714     0.507071     0.499427     0.491784
      0.484141     0.476498     0.468855     0.461212     0.453569     0.445925     0.438282     0.430639     0.422996     0.415353
      0.407710     0.400067     0.392424     0.384780     0.377137     0.369494     0.361851     0.354208     0.346565     0.338922
      0.331278     0.323635     0.315992     0.308349     0.300706     0.293063     0.285420     0.277777     0.270133     0.262490
      0.254847     0.247204     0.239561     0.231918     0.224275     0.216631     0.208988     0.201345
 NY phased data points follow
   3.10457E+01  2.98058E+01  2.03970E+01  3.20047E+01  3.38125E+01  3.41418E+01  2.83283E+01  3.21974E+01  3.40808E+01  4.07533E+01
   4.58923E+01  4.17454E+01  5.09409E+01  5.07250E+01  4.39120E+01  3.58633E+01  2.59783E+01  2.22077E+01  2.15687E+01  3.08669E+01
   2.60828E+01  2.87108E+01  3.14954E+01  2.64373E+01  2.42728E+01  2.03714E+01  1.25307E+01  2.38358E+01  3.40295E+01  3.04545E+01
   2.36075E+01  3.15669E+01  3.89530E+01  2.37406E+01  2.78467E+01  3.96095E+01  2.82656E+01  2.70633E+01  2.75433E+01  2.77772E+01
   2.81574E+01  2.90461E+01  3.15396E+01  3.96685E+01  2.52748E+01  2.70873E+01  2.96190E+01  2.40802E+01  2.94371E+01  2.67262E+01
   2.94781E+01  2.60936E+01  2.33455E+01  2.97767E+01  2.68569E+01  2.60576E+01  3.25285E+01  2.90689E+01  1.99335E+01  1.61908E+01
   1.68110E+01  2.02411E+01  1.20878E+01  1.71814E+00  6.77154E+00  7.31029E+00  1.05638E+01  9.20757E+00  4.28888E-01  1.60720E+01
   1.14682E+01  7.72969E+00  2.36158E+00  1.27894E+01  1.73525E+01  1.67853E+01  1.56954E+01  9.75748E+00  2.41269E+01  1.79297E+01
   2.50216E+01  1.65592E+01  1.67768E+01  1.07739E+01  2.33225E+01  1.78525E+01  2.11195E+01  2.87899E+01  2.65103E+01  2.71507E+01
   1.70168E+01  1.93908E+01  1.63223E+01  1.63122E+01  2.03522E+01  1.70200E+01  3.32691E+01  3.19845E+01  2.99879E+01  4.00214E+01
   5.12524E+01  6.85313E+01  7.38726E+01  7.49573E+01  7.71619E+01  7.55434E+01  6.12408E+01  5.23681E+01  4.74262E+01  2.94352E+01
   1.87344E+01  2.11433E+01  2.24081E+01  1.86420E+01  5.46135E+00  2.14616E+01  2.17044E+01  1.72416E+01  1.46104E+01  2.26336E+01
   2.47668E+01  1.80117E+01  3.31088E+01  3.41253E+01  4.66693E+01  6.38214E+01  6.90012E+01  8.35046E+01  8.37346E+01  7.63614E+01
   7.26546E+01  5.07447E+01  4.83040E+01  3.50682E+01  2.69212E+01  1.94972E+01  2.43310E+01  1.55876E+01  4.03169E+00  1.47420E+01
   1.43294E+01  2.03466E+01  1.47143E+01  8.75980E+00  8.14876E+00  1.92114E+01  1.11827E+01  1.71229E+01  1.02761E+01  7.05467E+00
   2.71260E+00  1.25317E+01  6.51025E+00  9.66941E+00  5.61307E+00  3.16784E+00  7.44921E+00  2.00196E+01  5.88407E+00  9.19284E+00
   5.75425E+00  8.71070E+00  1.06424E+01  7.34792E+00  2.06899E+01  9.87752E+00  3.53970E+00  7.59630E+00  4.04386E+00  5.06697E+00
  -2.89481E+00 -1.09663E+01 -1.74224E+00 -1.29372E+00 -2.55804E+00 -9.99568E+00 -7.56110E-01 -3.89681E+00 -3.95087E+00 -3.43971E+00
  -8.22377E+00 -1.26096E+01 -1.43588E+01  1.05200E+01  7.58063E+00 -7.89013E+00 -1.27988E+01 -3.44813E+00 -5.76680E-01 -6.34534E-01
   2.33571E+00  1.35421E+01  5.81588E+00  1.06467E+01  5.72966E-01 -3.06602E+00  5.90813E+00 -2.40955E+00 -3.80366E+00  9.88336E+00
  -1.93739E+00  2.26051E+00  4.54005E+00  3.70585E+00  9.36737E+00  1.27405E+01  1.41158E+01 -1.57989E+00  9.65663E+00 -4.57078E-01
   1.17228E+01  1.01960E+01  1.20163E+01  1.32596E+01  1.88803E+01  9.39338E+00  2.77654E+01  3.66299E+01  1.58193E+01  1.41804E+01
   1.57839E+01  8.70812E+00  6.95889E+00  5.61631E+00  7.18793E+00  1.29381E+01  2.22537E+01  2.18393E+01  1.98381E+01  2.68848E+01
   2.74623E+01  1.71306E+01  1.03143E+01  2.18414E+01  1.14185E+01  2.48970E+01  2.24993E+01  2.20143E+01  1.29138E+01  1.36773E+01
   1.44899E+01  2.37807E+01  1.49633E+01  1.69768E+01  1.18342E+01  6.33999E+00  1.06617E+01  2.50942E+01  2.32863E+01  1.60790E+01
   1.85302E+01  1.28556E+01  1.94859E+01  3.03060E+01  3.22787E+01  4.04224E+01  5.23183E+01  6.80562E+01  7.78103E+01  9.24328E+01
   1.11701E+02  1.18343E+02  1.17908E+02  9.73700E+01  6.99458E+01  5.08174E+01  4.42169E+01  2.82810E+01  3.89611E+01  4.31360E+01
   4.24998E+01  2.58176E+01  2.28152E+01  2.30562E+01  2.31974E+01  1.74535E+01  2.07262E+01  2.15173E+01  1.65447E+01  3.11085E+01
   1.37749E+01  1.17495E+01  7.50459E+00  2.10480E+01  2.90233E+01  1.49782E+01  1.72848E+01  1.02066E+01  6.67972E+00 -1.76587E-01
   2.07802E+01  8.83571E+00  6.47287E+00  1.40798E+01  1.28675E+01  2.39171E+01  2.33149E+01  1.20698E+01  7.68403E+00  1.23685E+01
   1.75961E+01  2.54711E+01  2.43908E+01  2.13174E+01  2.68831E+01  1.75657E+01  2.22827E+01  2.33033E+01  2.56360E+01  2.01991E+01
   3.03307E+01  1.87866E+01  3.14269E+01  3.20152E+01  3.28784E+01  4.25508E+01  3.74114E+01  4.38340E+01  4.26390E+01  3.34871E+01
   4.54343E+01  3.29799E+01  3.99486E+01  4.06188E+01  3.50065E+01  3.53847E+01  4.34545E+01  3.61730E+01  4.85731E+01  4.41032E+01
   4.73637E+01  3.27774E+01  4.06986E+01  4.18686E+01  3.02131E+01  3.71425E+01  3.76770E+01  5.20487E+01  5.07057E+01  5.26305E+01
   7.00294E+01  6.15363E+01  5.48019E+01  6.37581E+01  6.43534E+01  6.13337E+01  6.57325E+01  6.57088E+01  6.79170E+01  5.75048E+01
   6.56790E+01  6.96414E+01  6.28928E+01  6.75197E+01  6.31905E+01  5.47408E+01  5.88157E+01  5.28477E+01  5.38348E+01  5.79627E+01
   4.55249E+01  4.75536E+01  5.49224E+01  5.27166E+01  5.00489E+01  4.02900E+01  5.55940E+01  4.94077E+01  4.68368E+01  4.49341E+01
   4.75435E+01  4.40433E+01  4.29991E+01  4.89240E+01  3.13790E+01  3.36360E+01  3.43009E+01  3.33884E+01  2.92352E+01  2.58126E+01
   2.99797E+01  3.02508E+01  3.03943E+01  2.45776E+01  1.68483E+01  9.25921E+00  2.33699E+01  1.65510E+01  2.01239E+01  7.29735E+00
   1.97447E+01  1.45658E+01  9.15853E+00  1.62430E+01  1.09026E+01  1.37359E+01  1.53819E+01  1.77936E+01  2.33273E+01  9.02336E+00
   1.83710E+01  1.03118E+01  1.11707E+01  1.65520E+01  2.73244E+01  1.67967E+01  1.14191E+01  1.41466E+01  1.58269E+01  1.61624E+01
   8.29355E+00  2.24991E+01  2.16538E+01  1.80470E+01  1.69586E+01  2.40867E+01  1.44893E+01  3.04781E+01  2.74191E+01  1.97652E+01
   1.87996E+01  2.19861E+01  1.09727E+01  1.70710E+01  1.36551E+01  2.17020E+01  1.24025E+01  1.45412E+01  8.63944E+00  1.86803E+01
   7.14627E+00  1.14926E+01  1.00210E+01  2.24612E+01  1.10833E+01  1.05930E+01  1.04110E+01  1.68809E+01  5.72347E+00  1.36262E+01
   1.31337E+01  8.17623E+00  2.54345E+00  6.96501E+00  1.54322E+01  1.23556E+01  1.38704E+01  8.99946E+00  5.00299E+00  1.17645E+01
   1.26123E+01  9.83007E+00  7.86698E+00  8.02863E+00  1.33339E+01  2.08507E+00  6.87300E+00  7.32379E+00  1.36231E+01  1.43749E+01
   9.96829E+00 -9.07935E-01  1.09749E+01  1.11284E+01  5.25674E+00  1.38939E+01  1.24228E+01  1.65750E+01  1.74178E+01  1.50591E+01
   4.44196E+00  1.23440E+01  1.42672E+01  8.52681E+00  7.76273E+00  3.98420E+00  1.59012E+01  7.08256E+00  3.20989E+00  4.17815E+00
   6.32800E+00  7.81892E+00  1.26637E+01  1.01572E+01  6.74069E+00  8.91735E+00  8.10196E+00  5.34348E+00  5.68616E+00  1.03143E+01
   1.01839E+01  5.55484E+00  1.07521E+01  1.75928E+01  8.71651E+00  1.21257E+01  1.20822E+01  7.41091E+00
 NY points of the fit to the data follow
   2.10131E+01  2.09016E+01  2.17472E+01  2.31430E+01  2.52156E+01  2.82633E+01  3.16548E+01  3.53377E+01  3.93637E+01  4.33134E+01
   4.63717E+01  4.77294E+01  4.70496E+01  4.46125E+01  4.09683E+01  3.68601E+01  3.30078E+01  2.97280E+01  2.73431E+01  2.54327E+01
   2.39421E+01  2.32540E+01  2.32508E+01  2.39676E+01  2.45231E+01  2.47369E+01  2.48577E+01  2.51417E+01  2.58867E+01  2.74835E+01
   3.02420E+01  3.33877E+01  3.56178E+01  3.59175E+01  3.43694E+01  3.19095E+01  2.90293E+01  2.57105E+01  2.26508E+01  2.11603E+01
   2.09427E+01  2.14821E+01  2.22522E+01  2.31782E+01  2.44113E+01  2.57616E+01  2.69877E+01  2.77988E+01  2.81180E+01  2.77868E+01
   2.65017E+01  2.45169E+01  2.25979E+01  2.10102E+01  1.96877E+01  1.86719E+01  1.79697E+01  1.76629E+01  1.76868E+01  1.78995E+01
   1.81164E+01  1.81562E+01  1.78419E+01  1.71584E+01  1.63261E+01  1.56624E+01  1.52615E+01  1.50399E+01  1.50164E+01  1.52220E+01
   1.55568E+01  1.59501E+01  1.63143E+01  1.65757E+01  1.66638E+01  1.65493E+01  1.63278E+01  1.60826E+01  1.59077E+01  1.61560E+01
   1.67754E+01  1.72345E+01  1.77265E+01  1.86034E+01  1.98835E+01  2.12981E+01  2.24506E+01  2.28711E+01  2.21410E+01  2.03216E+01
   1.81268E+01  1.63828E+01  1.53276E+01  1.46564E+01  1.43664E+01  1.64803E+01  2.25734E+01  2.85219E+01  3.41442E+01  4.16195E+01
   5.16845E+01  6.32737E+01  7.42408E+01  8.17070E+01  8.24908E+01  7.53408E+01  6.29337E+01  5.02975E+01  4.01783E+01  3.16130E+01
   2.30290E+01  1.55971E+01  1.26967E+01  1.18861E+01  1.15467E+01  1.14084E+01  1.13833E+01  1.15010E+01  1.19635E+01  1.38677E+01
   1.92662E+01  2.54872E+01  3.11958E+01  3.83607E+01  4.81492E+01  5.98270E+01  7.15382E+01  8.06375E+01  8.37715E+01  7.89300E+01
   6.77354E+01  5.49328E+01  4.42174E+01  3.53815E+01  2.66038E+01  1.78473E+01  1.28413E+01  1.09954E+01  1.03936E+01  1.06122E+01
   1.12952E+01  1.20789E+01  1.27995E+01  1.33891E+01  1.36810E+01  1.37012E+01  1.35744E+01  1.33036E+01  1.29322E+01  1.25653E+01
   1.22472E+01  1.20511E+01  1.18992E+01  1.17365E+01  1.14750E+01  1.12240E+01  1.10545E+01  1.08978E+01  1.07349E+01  1.03835E+01
   9.86706E+00  9.40874E+00  9.18455E+00  9.24748E+00  9.47713E+00  9.62178E+00  9.44560E+00  8.91425E+00  8.20411E+00  7.48015E+00
   6.75834E+00  6.14063E+00  5.51106E+00  4.79383E+00  4.10919E+00  3.55499E+00  3.22889E+00  3.16033E+00  3.27153E+00  3.41050E+00
   3.36243E+00  3.20378E+00  3.20216E+00  3.49941E+00  4.07032E+00  4.65665E+00  5.13373E+00  5.81869E+00  6.99441E+00  8.53778E+00
   9.92676E+00  1.06399E+01  1.06876E+01  1.02466E+01  9.56569E+00  8.89377E+00  8.36369E+00  8.29815E+00  9.00429E+00  1.04682E+01
   1.24735E+01  1.48487E+01  1.68730E+01  1.75569E+01  1.72476E+01  1.60313E+01  1.34976E+01  9.85364E+00  6.14043E+00  3.51338E+00
   2.13908E+00  2.65898E+00  5.53606E+00  1.01468E+01  1.49263E+01  1.83698E+01  2.00260E+01  2.00588E+01  1.80289E+01  1.36628E+01
   8.86542E+00  5.32310E+00  3.31150E+00  3.13505E+00  5.01588E+00  8.98151E+00  1.33502E+01  1.66930E+01  1.86553E+01  1.95273E+01
   1.98813E+01  1.95433E+01  1.84876E+01  1.75369E+01  1.73413E+01  1.74955E+01  1.75502E+01  1.78704E+01  1.85821E+01  1.91683E+01
   1.89108E+01  1.77754E+01  1.62775E+01  1.49222E+01  1.40786E+01  1.37649E+01  1.42101E+01  1.51955E+01  1.62773E+01  1.73663E+01
   1.88246E+01  2.07388E+01  2.34878E+01  3.00970E+01  3.95869E+01  4.74471E+01  5.53755E+01  6.61606E+01  7.97904E+01  9.42851E+01
   1.06757E+02  1.13197E+02  1.09878E+02  9.66886E+01  7.88435E+01  6.27012E+01  5.00143E+01  3.85883E+01  2.69196E+01  1.86784E+01
   1.60900E+01  1.52019E+01  1.48477E+01  1.48953E+01  1.50997E+01  1.52896E+01  1.54083E+01  1.54001E+01  1.52909E+01  1.51240E+01
   1.49161E+01  1.46724E+01  1.44732E+01  1.43888E+01  1.43984E+01  1.44688E+01  1.45921E+01  1.47534E+01  1.49411E+01  1.51363E+01
   1.53325E+01  1.55423E+01  1.57696E+01  1.60115E+01  1.62755E+01  1.65708E+01  1.69007E+01  1.72585E+01  1.76446E+01  1.80612E+01
   1.85047E+01  1.89697E+01  1.94569E+01  1.99609E+01  2.04790E+01  2.10069E+01  2.15424E+01  2.20837E+01  2.26320E+01  2.31874E+01
   2.37522E+01  2.43286E+01  2.49232E+01  2.55426E+01  2.61965E+01  2.68969E+01  2.76612E+01  2.85114E+01  2.94841E+01  3.06444E+01
   3.21463E+01  3.41246E+01  3.57957E+01  3.70102E+01  3.83234E+01  3.96959E+01  4.06302E+01  4.05796E+01  3.92093E+01  3.70735E+01
   3.46813E+01  3.23786E+01  3.13689E+01  3.24072E+01  3.51998E+01  3.92540E+01  4.44232E+01  5.06375E+01  5.62362E+01  5.97762E+01
   6.15119E+01  6.24325E+01  6.31546E+01  6.35685E+01  6.32492E+01  6.27935E+01  6.28604E+01  6.31259E+01  6.34028E+01  6.36111E+01
   6.37086E+01  6.36681E+01  6.34740E+01  6.31159E+01  6.25906E+01  6.18975E+01  6.10413E+01  6.00286E+01  5.88706E+01  5.75796E+01
   5.61715E+01  5.46618E+01  5.30686E+01  5.14088E+01  4.97014E+01  4.79633E+01  4.62122E+01  4.44630E+01  4.27310E+01  4.10283E+01
   3.93672E+01  3.77570E+01  3.62064E+01  3.47212E+01  3.33070E+01  3.19668E+01  3.07038E+01  2.95185E+01  2.84121E+01  2.73832E+01
   2.64315E+01  2.55546E+01  2.47516E+01  2.40195E+01  2.33566E+01  2.27595E+01  2.22266E+01  2.17547E+01  2.13420E+01  2.09853E+01
   2.06827E+01  2.04307E+01  2.02274E+01  2.00694E+01  1.99545E+01  1.98786E+01  1.98386E+01  1.98300E+01  1.98492E+01  1.98909E+01
   1.99506E+01  2.00222E+01  2.01004E+01  2.01785E+01  2.02514E+01  2.03122E+01  2.03558E+01  2.03757E+01  2.03676E+01  2.03265E+01
   2.02497E+01  2.01337E+01  1.99777E+01  1.97804E+01  1.95430E+01  1.92665E+01  1.89543E+01  1.86090E+01  1.82355E+01  1.78376E+01
   1.74212E+01  1.69907E+01  1.65523E+01  1.61101E+01  1.56696E+01  1.52343E+01  1.48089E+01  1.43959E+01  1.39988E+01  1.36188E+01
   1.32583E+01  1.29173E+01  1.25975E+01  1.22980E+01  1.20195E+01  1.17606E+01  1.15212E+01  1.12999E+01  1.10963E+01  1.09087E+01
   1.07367E+01  1.05783E+01  1.04333E+01  1.02999E+01  1.01779E+01  1.00657E+01  9.96292E+00  9.86815E+00  9.78139E+00  9.70132E+00
   9.62807E+00  9.56031E+00  9.49819E+00  9.44055E+00  9.38778E+00  9.33886E+00  9.29414E+00  9.25255E+00  9.21446E+00  9.17898E+00
   9.14665E+00  9.11661E+00  9.08932E+00  9.06385E+00  9.04074E+00  9.01922E+00  8.99993E+00  8.98204E+00  8.96607E+00  8.95118E+00
   8.93800E+00  8.92585E+00  8.91538E+00  8.90579E+00  8.89764E+00  8.89015E+00  8.88403E+00  8.87861E+00  8.87455E+00  8.87102E+00
   8.86864E+00  8.86670E+00  8.86594E+00  8.86569E+00  8.86659E+00  8.86785E+00  8.87011E+00  8.87273E+00  8.87646E+00  8.88064E+00
   8.88587E+00  8.89141E+00  8.89795E+00  8.90490E+00  8.91303E+00  8.92166E+00  8.93143E+00  8.94164E+00
 NY background values follow
     1.607E+01    1.600E+01    1.594E+01    1.587E+01    1.581E+01    1.574E+01    1.568E+01    1.561E+01    1.555E+01    1.548E+01
     1.542E+01    1.535E+01    1.528E+01    1.522E+01    1.515E+01    1.509E+01    1.502E+01    1.496E+01    1.489E+01    1.483E+01
     1.476E+01    1.470E+01    1.463E+01    1.457E+01    1.450E+01    1.444E+01    1.437E+01    1.431E+01    1.424E+01    1.418E+01
     1.411E+01    1.405E+01    1.398E+01    1.392E+01    1.385E+01    1.379E+01    1.372E+01    1.366E+01    1.359E+01    1.353E+01
     1.346E+01    1.340E+01    1.333E+01    1.327E+01    1.321E+01    1.314E+01    1.308E+01    1.301E+01    1.295E+01    1.289E+01
     1.282E+01    1.276E+01    1.269E+01    1.263E+01    1.257E+01    1.250E+01    1.244E+01    1.238E+01    1.232E+01    1.225E+01
     1.219E+01    1.213E+01    1.206E+01    1.200E+01    1.194E+01    1.188E+01    1.182E+01    1.175E+01    1.169E+01    1.163E+01
     1.157E+01    1.151E+01    1.145E+01    1.139E+01    1.133E+01    1.126E+01    1.120E+01    1.114E+01    1.108E+01    1.102E+01
     1.096E+01    1.090E+01    1.085E+01    1.079E+01    1.073E+01    1.067E+01    1.061E+01    1.055E+01    1.049E+01    1.044E+01
     1.038E+01    1.032E+01    1.026E+01    1.021E+01    1.015E+01    1.009E+01    1.004E+01    9.980E+00    9.924E+00    9.869E+00
     9.814E+00    9.759E+00    9.704E+00    9.649E+00    9.595E+00    9.541E+00    9.487E+00    9.434E+00    9.381E+00    9.328E+00
     9.276E+00    9.224E+00    9.172E+00    9.120E+00    9.069E+00    9.018E+00    8.968E+00    8.918E+00    8.868E+00    8.818E+00
     8.769E+00    8.720E+00    8.672E+00    8.624E+00    8.576E+00    8.529E+00    8.482E+00    8.435E+00    8.389E+00    8.343E+00
     8.298E+00    8.253E+00    8.208E+00    8.164E+00    8.120E+00    8.077E+00    8.034E+00    7.991E+00    7.949E+00    7.908E+00
     7.867E+00    7.826E+00    7.786E+00    7.746E+00    7.706E+00    7.668E+00    7.629E+00    7.591E+00    7.554E+00    7.517E+00
     7.481E+00    7.445E+00    7.410E+00    7.375E+00    7.341E+00    7.307E+00    7.274E+00    7.242E+00    7.210E+00    7.178E+00
     7.147E+00    7.117E+00    7.088E+00    7.059E+00    7.030E+00    7.002E+00    6.975E+00    6.949E+00    6.923E+00    6.897E+00
     6.873E+00    6.849E+00    6.826E+00    6.803E+00    6.781E+00    6.760E+00    6.739E+00    6.719E+00    6.700E+00    6.681E+00
     6.664E+00    6.647E+00    6.630E+00    6.615E+00    6.600E+00    6.585E+00    6.572E+00    6.559E+00    6.547E+00    6.535E+00
     6.525E+00    6.514E+00    6.505E+00    6.496E+00    6.488E+00    6.480E+00    6.473E+00    6.466E+00    6.460E+00    6.455E+00
     6.450E+00    6.446E+00    6.442E+00    6.439E+00    6.437E+00    6.435E+00    6.433E+00    6.432E+00    6.432E+00    6.432E+00
     6.432E+00    6.433E+00    6.435E+00    6.437E+00    6.439E+00    6.442E+00    6.445E+00    6.449E+00    6.453E+00    6.457E+00
     6.462E+00    6.467E+00    6.473E+00    6.479E+00    6.486E+00    6.492E+00    6.500E+00    6.507E+00    6.515E+00    6.523E+00
     6.532E+00    6.540E+00    6.549E+00    6.559E+00    6.569E+00    6.578E+00    6.589E+00    6.599E+00    6.610E+00    6.621E+00
     6.632E+00    6.644E+00    6.656E+00    6.668E+00    6.680E+00    6.692E+00    6.705E+00    6.718E+00    6.731E+00    6.744E+00
     6.757E+00    6.771E+00    6.784E+00    6.798E+00    6.812E+00    6.826E+00    6.840E+00    6.855E+00    6.869E+00    6.884E+00
     6.898E+00    6.913E+00    6.928E+00    6.943E+00    6.958E+00    6.973E+00    6.988E+00    7.003E+00    7.018E+00    7.033E+00
     7.048E+00    7.063E+00    7.079E+00    7.094E+00    7.109E+00    7.124E+00    7.140E+00    7.155E+00    7.170E+00    7.185E+00
     7.200E+00    7.215E+00    7.230E+00    7.245E+00    7.260E+00    7.275E+00    7.290E+00    7.305E+00    7.320E+00    7.335E+00
     7.350E+00    7.364E+00    7.379E+00    7.394E+00    7.408E+00    7.423E+00    7.437E+00    7.451E+00    7.465E+00    7.479E+00
     7.493E+00    7.507E+00    7.521E+00    7.535E+00    7.548E+00    7.562E+00    7.575E+00    7.589E+00    7.602E+00    7.615E+00
     7.628E+00    7.641E+00    7.653E+00    7.666E+00    7.678E+00    7.691E+00    7.703E+00    7.715E+00    7.727E+00    7.738E+00
     7.750E+00    7.761E+00    7.772E+00    7.784E+00    7.795E+00    7.806E+00    7.816E+00    7.827E+00    7.837E+00    7.848E+00
     7.858E+00    7.868E+00    7.878E+00    7.888E+00    7.898E+00    7.908E+00    7.918E+00    7.927E+00    7.937E+00    7.946E+00
     7.955E+00    7.965E+00    7.974E+00    7.983E+00    7.992E+00    8.001E+00    8.010E+00    8.018E+00    8.027E+00    8.036E+00
     8.044E+00    8.053E+00    8.061E+00    8.070E+00    8.078E+00    8.086E+00    8.095E+00    8.103E+00    8.111E+00    8.119E+00
     8.127E+00    8.135E+00    8.143E+00    8.151E+00    8.159E+00    8.167E+00    8.175E+00    8.183E+00    8.191E+00    8.199E+00
     8.207E+00    8.215E+00    8.223E+00    8.231E+00    8.239E+00    8.247E+00    8.254E+00    8.262E+00    8.270E+00    8.278E+00
     8.286E+00    8.294E+00    8.302E+00    8.311E+00    8.319E+00    8.327E+00    8.335E+00    8.343E+00    8.351E+00    8.360E+00
     8.368E+00    8.377E+00    8.385E+00    8.394E+00    8.402E+00    8.411E+00    8.420E+00    8.428E+00    8.437E+00    8.446E+00
     8.455E+00    8.464E+00    8.473E+00    8.483E+00    8.492E+00    8.501E+00    8.511E+00    8.521E+00    8.530E+00    8.540E+00
     8.550E+00    8.560E+00    8.570E+00    8.580E+00    8.591E+00    8.601E+00    8.611E+00    8.622E+00    8.633E+00    8.643E+00
     8.654E+00    8.665E+00    8.676E+00    8.687E+00    8.698E+00    8.709E+00    8.720E+00    8.731E+00    8.742E+00    8.754E+00
     8.765E+00    8.777E+00    8.788E+00    8.800E+00    8.811E+00    8.823E+00    8.835E+00    8.846E+00    8.858E+00    8.870E+00
     8.882E+00    8.894E+00    8.906E+00    8.918E+00    8.930E+00    8.942E+00    8.954E+00    8.966E+00    8.978E+00    8.990E+00
     9.002E+00    9.015E+00    9.027E+00    9.039E+00    9.051E+00    9.063E+00    9.076E+00    9.088E+00    9.100E+00    9.113E+00
     9.125E+00    9.137E+00    9.149E+00    9.162E+00    9.174E+00    9.187E+00    9.199E+00    9.211E+00    9.224E+00    9.236E+00
     9.248E+00    9.261E+00    9.273E+00    9.286E+00    9.298E+00    9.310E+00    9.323E+00    9.335E+00    9.348E+00    9.360E+00
     9.373E+00    9.385E+00    9.397E+00    9.410E+00    9.422E+00    9.435E+00    9.447E+00    9.460E+00    9.472E+00    9.485E+00
     9.497E+00    9.509E+00    9.522E+00    9.534E+00    9.547E+00    9.559E+00    9.571E+00    9.584E+00
 Ala      Conc. = 1.09E+03
