 LCModel (Version 6.3-1L) Copyright: S.W. Provencher.          Ref.: Magn. Reson. Med. 30:672-679 (1993).                
 Slice#1 Row#2 Col#2  PD_05_press_2_raw_act
 36 lines in following concentration table = NCONC+1
    Conc.  %SD /Cr+PCr  Metabolite                                         
   93.955 110%   0.649 Ala                                                 
   29.181  55%   0.201 Asp                                                 
  118.141 114%   0.816 Cr                                                  
   26.695 508%   0.184 PCr                                                 
   17.158  56%   0.118 GABA                                                
   17.537  55%   0.121 Glc                                                 
    0.000 999%   0.000 Gln                                                 
  494.868  46%   3.417 Glu                                                 
   24.759 480%   0.171 GPC                                                 
   34.390 344%   0.237 PCh                                                 
  115.027  67%   0.794 GSH                                                 
  358.680  69%   2.476 Ins                                                 
    0.000 999%   0.000 Lac                                                 
  256.511  30%   1.771 NAA                                                 
    0.000 999%   0.000 NAAG                                                
    5.740  56% 4.0E-02 Scyllo                                              
   28.060  57%   0.194 Tau                                                 
   13.856  92% 9.6E-02 -CrCH2                                              
   59.149  40%   0.408 GPC+PCh                                             
  256.511  30%   1.771 NAA+NAAG                                            
  144.836  43%   1.000 Cr+PCr                                              
  494.868  46%   3.417 Glu+Gln                                             
 1.32E+04  12%  91.466 Lip13a                                              
   86.288 404%   0.596 Lip13b                                              
  678.808  90%   4.687 Lip09                                               
 1.69E+03  29%  11.642 MM09                                                
 1.21E+03  48%   8.372 Lip20                                               
 1.75E+03  37%  12.056 MM20                                                
  560.446  42%   3.870 MM12                                                
 4.48E+03  10%  30.929+MM14                                                
  809.660  55%   5.590 MM17                                                
 1.33E+04  12%  92.061 Lip13a+Lip13b                                       
 1.84E+04   7% 126.860 MM14+Lip13a+Lip13b+MM12                             
 2.37E+03  19%  16.329 MM09+Lip09                                          
 2.96E+03  18%  20.428 MM20+Lip20                                          
   6 lines in following misc. output table
  FWHM = 0.031 ppm    S/N =   4                                            
  Data shift = 0.015 ppm                                                   
  Ph:  -6 deg      -8.5 deg/ppm                                            
  alphaB,S = 8.5E+01,   1.3E+01                                            
   14 spline knots.   Ns = 5(1)                                            
   2 inflections.     1 extrema                                            
  498 points on ppm-axis = NY
      4.000000     3.992357     3.984714     3.977070     3.969427     3.961784     3.954141     3.946497     3.938854     3.931211
      3.923568     3.915925     3.908281     3.900638     3.892995     3.885352     3.877708     3.870065     3.862422     3.854779
      3.847136     3.839492     3.831849     3.824206     3.816563     3.808919     3.801276     3.793633     3.785990     3.778347
      3.770703     3.763060     3.755417     3.747774     3.740130     3.732487     3.724844     3.717201     3.709558     3.701914
      3.694271     3.686628     3.678985     3.671341     3.663698     3.656055     3.648412     3.640769     3.633125     3.625482
      3.617839     3.610196     3.602552     3.594909     3.587266     3.579623     3.571980     3.564336     3.556693     3.549050
      3.541407     3.533763     3.526120     3.518477     3.510834     3.503191     3.495547     3.487904     3.480261     3.472618
      3.464974     3.457331     3.449688     3.442045     3.434402     3.426758     3.419115     3.411472     3.403829     3.396185
      3.388542     3.380899     3.373256     3.365613     3.357969     3.350326     3.342683     3.335040     3.327396     3.319753
      3.312110     3.304467     3.296824     3.289180     3.281537     3.273894     3.266251     3.258607     3.250964     3.243321
      3.235678     3.228034     3.220391     3.212748     3.205105     3.197462     3.189818     3.182175     3.174532     3.166889
      3.159245     3.151602     3.143959     3.136316     3.128673     3.121029     3.113386     3.105743     3.098100     3.090456
      3.082813     3.075170     3.067527     3.059884     3.052240     3.044597     3.036954     3.029311     3.021667     3.014024
      3.006381     2.998738     2.991095     2.983451     2.975808     2.968165     2.960522     2.952878     2.945235     2.937592
      2.929949     2.922306     2.914662     2.907019     2.899376     2.891733     2.884089     2.876446     2.868803     2.861160
      2.853517     2.845873     2.838230     2.830587     2.822944     2.815300     2.807657     2.800014     2.792371     2.784728
      2.777084     2.769441     2.761798     2.754155     2.746511     2.738868     2.731225     2.723582     2.715939     2.708295
      2.700652     2.693009     2.685366     2.677722     2.670079     2.662436     2.654793     2.647150     2.639506     2.631863
      2.624220     2.616577     2.608933     2.601290     2.593647     2.586004     2.578361     2.570717     2.563074     2.555431
      2.547788     2.540144     2.532501     2.524858     2.517215     2.509572     2.501928     2.494285     2.486642     2.478999
      2.471355     2.463712     2.456069     2.448426     2.440783     2.433139     2.425496     2.417853     2.410210     2.402566
      2.394923     2.387280     2.379637     2.371994     2.364350     2.356707     2.349064     2.341421     2.333777     2.326134
      2.318491     2.310848     2.303205     2.295561     2.287918     2.280275     2.272632     2.264988     2.257345     2.249702
      2.242059     2.234416     2.226772     2.219129     2.211486     2.203843     2.196199     2.188556     2.180913     2.173270
      2.165627     2.157983     2.150340     2.142697     2.135054     2.127410     2.119767     2.112124     2.104481     2.096838
      2.089194     2.081551     2.073908     2.066265     2.058621     2.050978     2.043335     2.035692     2.028049     2.020405
      2.012762     2.005119     1.997476     1.989833     1.982190     1.974546     1.966903     1.959260     1.951617     1.943974
      1.936331     1.928688     1.921045     1.913402     1.905759     1.898115     1.890472     1.882829     1.875186     1.867543
      1.859900     1.852257     1.844614     1.836971     1.829327     1.821684     1.814041     1.806398     1.798755     1.791112
      1.783469     1.775826     1.768183     1.760540     1.752896     1.745253     1.737610     1.729967     1.722324     1.714681
      1.707038     1.699395     1.691752     1.684108     1.676465     1.668822     1.661179     1.653536     1.645893     1.638250
      1.630607     1.622964     1.615321     1.607677     1.600034     1.592391     1.584748     1.577105     1.569462     1.561819
      1.554176     1.546533     1.538890     1.531246     1.523603     1.515960     1.508317     1.500674     1.493031     1.485388
      1.477745     1.470102     1.462458     1.454815     1.447172     1.439529     1.431886     1.424243     1.416600     1.408957
      1.401314     1.393671     1.386027     1.378384     1.370741     1.363098     1.355455     1.347812     1.340169     1.332526
      1.324883     1.317240     1.309596     1.301953     1.294310     1.286667     1.279024     1.271381     1.263738     1.256095
      1.248452     1.240808     1.233165     1.225522     1.217879     1.210236     1.202593     1.194950     1.187307     1.179664
      1.172021     1.164377     1.156734     1.149091     1.141448     1.133805     1.126162     1.118519     1.110876     1.103233
      1.095590     1.087946     1.080303     1.072660     1.065017     1.057374     1.049731     1.042088     1.034445     1.026802
      1.019158     1.011515     1.003872     0.996229     0.988586     0.980943     0.973300     0.965657     0.958014     0.950371
      0.942727     0.935084     0.927441     0.919798     0.912155     0.904512     0.896869     0.889226     0.881583     0.873940
      0.866296     0.858653     0.851010     0.843367     0.835724     0.828081     0.820438     0.812795     0.805152     0.797508
      0.789865     0.782222     0.774579     0.766936     0.759293     0.751650     0.744007     0.736364     0.728721     0.721077
      0.713434     0.705791     0.698148     0.690505     0.682862     0.675219     0.667576     0.659933     0.652290     0.644646
      0.637003     0.629360     0.621717     0.614074     0.606431     0.598788     0.591145     0.583502     0.575858     0.568215
      0.560572     0.552929     0.545286     0.537643     0.530000     0.522357     0.514714     0.507071     0.499427     0.491784
      0.484141     0.476498     0.468855     0.461212     0.453569     0.445925     0.438282     0.430639     0.422996     0.415353
      0.407710     0.400067     0.392424     0.384780     0.377137     0.369494     0.361851     0.354208     0.346565     0.338922
      0.331278     0.323635     0.315992     0.308349     0.300706     0.293063     0.285420     0.277777     0.270133     0.262490
      0.254847     0.247204     0.239561     0.231918     0.224275     0.216631     0.208988     0.201345
 NY phased data points follow
  -5.41165E+00 -7.97773E+00 -1.74182E+01 -3.71793E+00 -1.11371E+01 -9.39375E+00 -8.25955E+00 -4.83990E+00 -1.78259E+00 -3.97177E+00
   4.97850E+00  6.88783E-02  4.04805E+00  3.27653E+00 -9.15686E+00 -1.25463E+01 -2.64283E+00  5.67917E+00  2.63618E+00 -6.31536E+00
  -7.91491E+00 -6.46228E+00  1.61970E+00 -6.76068E+00  1.39515E+00  5.60484E-01  2.96533E+00  2.51448E+00 -9.87025E+00 -4.25932E+00
   2.98104E+00  5.51613E+00 -4.43658E+00  4.63002E+00  1.04416E+00 -7.52822E+00 -6.21748E+00 -2.86671E+00 -2.54899E+00 -1.51455E+01
  -2.81724E+00 -9.86025E+00 -2.86577E+00 -9.73819E+00 -5.14672E+00 -1.49576E+00 -6.38001E+00 -6.29820E+00 -3.45178E+00 -7.31893E+00
   1.30107E+01 -1.12565E+01  1.29136E+00  5.40348E+00  9.01525E+00 -8.21562E+00 -4.98076E+00 -4.20648E+00  8.85374E+00 -8.35314E-01
   9.52626E+00  3.68872E+00  7.20416E+00 -5.71780E+00 -9.58336E+00 -1.13269E+00 -9.28891E+00 -8.10053E+00 -8.03459E+00 -3.42816E+00
  -1.56049E+00  7.19139E+00  7.98050E+00 -6.05572E-01  4.03132E+00 -4.84289E+00 -1.12978E+00 -7.66358E+00 -7.77536E+00  7.63276E+00
  -4.50821E+00  3.92771E+00 -6.13981E+00 -7.14838E+00 -9.53590E+00 -2.28788E+00 -3.08738E+00 -1.06756E+01  3.73378E-01  5.61671E-01
   8.09936E-01  3.20422E+00 -8.54285E-01 -1.03427E+01  7.89055E-01 -5.92259E+00  7.90456E+00 -7.24917E-01 -1.91954E+00 -1.41433E+01
  -4.41775E+00  9.89068E-01  5.58492E+00  6.55877E+00  5.64660E-01  9.69113E+00  1.06616E+00 -6.26924E+00 -1.13835E+00 -1.44092E-01
  -1.34740E+01 -1.09686E+01  8.89733E+00  6.66437E+00 -5.60413E+00 -4.21190E+00 -8.60964E+00  1.40305E+00 -1.40378E+00 -2.12212E+01
  -5.06649E+00 -8.69781E-01 -9.25296E+00  3.12833E+00  4.78233E+00  2.03747E+00 -8.26499E+00  9.80247E+00  1.43770E+01 -7.11085E-01
   1.04533E+00  3.56096E+00  2.47179E+00 -8.14181E+00  5.46754E-01  6.85798E+00 -7.52921E+00  6.77369E+00 -2.77106E+00 -5.93928E+00
   3.62687E+00 -2.25456E+00 -8.93280E+00 -1.50582E+00  3.62000E+00 -7.32269E+00 -3.09325E+00  4.78314E+00  5.34174E+00  7.78648E+00
   1.02417E+00  1.64017E+00  2.33133E-01  3.11891E+00 -2.13866E+00 -2.57529E+00 -5.22251E+00 -4.94192E+00  5.48145E+00  1.44268E+00
   2.28659E-01 -6.21536E+00 -1.27256E+00 -7.91265E+00  4.23086E+00  6.69885E-01 -2.42303E+00  5.71494E+00 -6.55441E+00 -6.55519E+00
  -4.85341E+00  2.24986E+00  2.71215E+00 -5.49116E-01  1.66272E+00 -6.82268E+00 -4.01626E+00 -1.87182E+00 -4.98309E+00  2.14236E+00
  -1.19594E+01  5.37835E-01 -4.92208E+00 -4.60030E+00  4.32971E+00  9.00869E-01 -3.29038E+00 -2.40991E+00 -5.50367E+00 -8.25449E+00
  -1.40856E+01 -1.07779E+01 -8.65725E+00  3.33731E+00  8.12429E+00 -8.01824E+00 -3.35675E+00  7.09630E+00  1.53804E-01  1.34747E+00
  -8.62242E+00  4.00035E+00 -2.83588E+00  4.92141E+00  1.51015E+00 -2.43777E-01  5.72845E+00  1.12692E+01  3.23457E+00 -5.90394E+00
   1.54824E+00  4.39345E-01  4.79885E+00 -1.39146E+00 -1.09347E+01  1.02172E+01  5.48199E+00  4.83284E+00  3.26983E+00  6.50795E+00
  -3.65719E+00  6.45165E+00 -4.36089E+00  1.13224E+00 -2.70079E+00 -4.09154E+00  3.44471E+00  1.50398E+01  6.53487E+00  7.78038E+00
   1.49093E+01  4.03141E+00  3.68087E+00  6.09293E+00  1.18268E+01  9.93751E+00  1.17806E+01  7.61516E+00  1.74938E+01  4.91022E+00
   5.20280E+00  6.47726E+00  4.05755E+00  9.89810E+00  1.10191E+01  1.21912E+01  7.82492E+00  1.50182E+01  2.37240E+01  1.70547E+01
   4.64868E+00  5.56755E+00  1.07028E+00  6.57353E+00  2.88871E+00  1.55136E+01  2.57376E+00  7.23424E+00  1.19421E+01  2.16157E+01
   2.59895E+01  2.01454E+01  2.59926E+01  8.85040E+00  3.21277E+00  4.62634E+00  5.46295E+00 -2.52787E+00 -7.45266E+00 -7.56316E+00
  -1.09086E+00  2.93715E+00  1.10608E+01 -7.33922E-01  8.20622E+00  9.31061E+00  8.80305E+00 -3.78293E+00  8.09360E+00 -1.57400E+00
  -5.21834E+00  9.57318E+00 -4.49639E+00  2.10817E+00  8.14108E+00  8.03452E-01  2.90125E+00  2.28254E+00 -2.59773E+00  3.62579E+00
  -4.66705E+00  4.03538E+00  4.60064E+00 -4.17872E+00  5.83393E+00  4.00295E+00  3.33683E+00 -8.46318E-01  5.58337E+00  3.95215E+00
   4.64600E+00 -1.18349E+00 -3.90382E+00  1.39794E+01  8.73433E-01  1.54266E+01  2.07340E+01  1.00690E+01  9.06173E+00 -4.00562E+00
   1.41192E+01  1.01522E+01  2.38965E+01  2.08997E+01  2.88939E+01  1.68441E+01  2.40029E+01  2.50420E+01  2.31525E+01  2.28940E+01
   2.50487E+01  2.67539E+01  3.53721E+01  4.23900E+01  4.28993E+01  4.18396E+01  4.25067E+01  4.78077E+01  4.79923E+01  4.96368E+01
   4.52627E+01  4.86931E+01  4.69425E+01  5.19807E+01  5.30534E+01  5.69603E+01  4.90706E+01  5.26977E+01  5.20389E+01  4.99922E+01
   4.83505E+01  3.86096E+01  5.12274E+01  4.78729E+01  4.00613E+01  4.21365E+01  3.60472E+01  4.34676E+01  4.76781E+01  3.71439E+01
   4.17000E+01  4.44725E+01  4.05072E+01  4.93407E+01  5.02123E+01  5.98400E+01  5.02362E+01  4.52526E+01  4.21055E+01  4.61580E+01
   4.11529E+01  5.21491E+01  5.52580E+01  3.84580E+01  3.59493E+01  3.75988E+01  3.87235E+01  3.80914E+01  3.73943E+01  3.41872E+01
   3.54052E+01  3.73190E+01  3.23096E+01  2.36458E+01  4.02387E+01  3.02636E+01  3.04091E+01  3.42781E+01  3.49393E+01  3.12477E+01
   3.25733E+01  3.10312E+01  2.59577E+01  3.28753E+01  2.74793E+01  1.54444E+01  2.37688E+01  2.45170E+01  1.81384E+01  2.26944E+01
   1.93146E+01  2.53091E+01  2.19556E+01  2.28093E+01  2.49030E+01  2.45831E+01  2.07268E+01  2.22592E+01  1.38820E+01  2.67085E+01
   1.10909E+01  1.61631E+01  1.75441E+01  2.10952E+01  1.78969E+01  7.75186E+00  2.54773E+01  1.18640E+01  1.59578E+01  1.11135E+01
   2.05302E+01  1.30717E+01  7.67255E+00  1.75830E+01  8.51542E+00  1.26723E+01  1.15617E+01  1.54456E+01  6.12785E+00  9.44394E+00
   1.06211E+01  1.02549E+00  1.05461E+01  8.13702E+00  1.28000E+01  7.21674E+00  9.08221E+00  4.27394E+00  6.79492E+00  8.71023E+00
   1.28927E+01  7.16302E+00  6.43651E+00 -5.26498E+00  1.41826E+01  3.96402E+00  6.26626E+00 -3.07996E+00 -7.73392E+00  1.23955E+01
  -2.14932E+00  4.99896E+00  3.16860E+00  5.91105E+00  5.87543E+00  9.05218E+00 -1.57543E+00  8.04715E-01  6.77263E+00  2.05779E+00
   5.30590E+00  1.04252E+01 -1.05046E+00  1.18241E+01  6.53164E+00  4.55603E+00 -7.30634E+00  1.17125E+00  3.62073E+00  4.00653E+00
  -1.47260E+01 -3.06892E+00 -6.44737E+00  1.67907E+00 -7.47066E-01 -3.55005E+00  5.38626E+00  2.72158E-01 -5.67935E+00  2.66384E+00
   1.09343E+00  1.03060E+01 -2.22630E-01  2.22406E+00  1.25071E+01  8.53324E+00  5.34643E+00  6.69489E+00  5.74136E+00 -1.25515E+01
   1.33122E+01  3.93153E+00 -2.17883E+00  1.23842E+00  3.00838E+00  3.68988E+00 -3.17005E+00  5.15488E+00  4.64331E+00 -3.67207E-01
   1.34476E+01  7.12149E+00  4.17219E+00  3.69965E+00  6.73280E+00  7.74924E+00 -2.98197E+00  1.96176E+00
 NY points of the fit to the data follow
  -4.44916E+00 -4.62442E+00 -4.64500E+00 -4.61343E+00 -4.57040E+00 -4.52285E+00 -4.50745E+00 -4.29973E+00 -3.55390E+00 -2.27503E+00
  -8.48017E-01  1.22636E-01  1.34184E-01 -8.72187E-01 -2.41715E+00 -3.74123E+00 -4.38914E+00 -4.46149E+00 -4.38730E+00 -4.30605E+00
  -4.12934E+00 -3.87036E+00 -3.59811E+00 -3.33964E+00 -3.22679E+00 -3.47974E+00 -3.91197E+00 -4.03168E+00 -3.59037E+00 -2.56072E+00
  -1.16084E+00  1.44904E-01  7.43791E-01  4.12927E-01 -4.82416E-01 -1.52351E+00 -2.62467E+00 -3.79290E+00 -4.68063E+00 -4.94738E+00
  -4.73383E+00 -4.33896E+00 -4.02036E+00 -3.77812E+00 -3.33777E+00 -2.39879E+00 -9.94693E-01  3.05204E-01  7.78048E-01  4.55523E-02
  -1.63993E+00 -3.47744E+00 -4.64224E+00 -4.87558E+00 -4.58412E+00 -4.24702E+00 -3.94789E+00 -3.57575E+00 -3.05884E+00 -2.48115E+00
  -2.03866E+00 -1.94021E+00 -2.28937E+00 -2.95270E+00 -3.61854E+00 -3.98544E+00 -3.97797E+00 -3.73403E+00 -3.38953E+00 -3.05361E+00
  -2.77747E+00 -2.57892E+00 -2.45132E+00 -2.40023E+00 -2.45177E+00 -2.58821E+00 -2.75844E+00 -2.91600E+00 -3.04750E+00 -3.16350E+00
  -3.22351E+00 -3.20861E+00 -3.11408E+00 -2.97932E+00 -2.90169E+00 -3.00471E+00 -3.34388E+00 -3.84649E+00 -4.32565E+00 -4.56353E+00
  -4.42859E+00 -3.99720E+00 -3.48826E+00 -3.09620E+00 -2.87334E+00 -2.78401E+00 -2.80758E+00 -2.98358E+00 -3.38097E+00 -3.47455E+00
  -2.36849E+00  1.02235E-01  3.22471E+00  5.68421E+00  6.25039E+00  4.55912E+00  1.47260E+00 -1.36168E+00 -2.78295E+00 -2.89046E+00
  -2.64190E+00 -2.53616E+00 -2.45799E+00 -2.37733E+00 -2.29364E+00 -2.21069E+00 -2.13351E+00 -2.07162E+00 -2.02542E+00 -1.99034E+00
  -1.95802E+00 -1.94783E+00 -2.00867E+00 -1.60118E+00 -1.24945E-01  2.33302E+00  5.02740E+00  6.84620E+00  6.88127E+00  5.07400E+00
   2.47527E+00  5.28360E-01 -1.11687E-01  6.06583E-02  8.43948E-03 -5.38209E-01 -1.25056E+00 -1.77088E+00 -1.79740E+00 -1.30874E+00
  -5.76496E-01  5.41881E-02  3.98622E-01  4.35290E-01  2.56109E-01  2.60985E-02 -1.33135E-01 -2.07191E-01 -2.24924E-01 -2.44617E-01
  -2.69493E-01 -3.03527E-01 -3.49588E-01 -3.92875E-01 -4.09511E-01 -3.84973E-01 -3.28698E-01 -2.93900E-01 -3.41380E-01 -4.90796E-01
  -6.99176E-01 -8.48314E-01 -8.48399E-01 -7.13255E-01 -5.46024E-01 -4.74792E-01 -5.62618E-01 -7.64030E-01 -9.66495E-01 -1.09821E+00
  -1.15726E+00 -1.18404E+00 -1.24871E+00 -1.38764E+00 -1.57534E+00 -1.74835E+00 -1.82880E+00 -1.80179E+00 -1.72522E+00 -1.68720E+00
  -1.73969E+00 -1.84931E+00 -1.93122E+00 -1.95470E+00 -1.97940E+00 -2.06678E+00 -2.15419E+00 -2.08232E+00 -1.71806E+00 -1.11496E+00
  -5.00013E-01 -1.19353E-01 -7.51705E-02 -2.87405E-01 -6.59075E-01 -1.09358E+00 -1.46064E+00 -1.65475E+00 -1.63168E+00 -1.39121E+00
  -9.56302E-01 -4.33499E-01  4.63533E-02  4.17818E-01  6.42654E-01  7.66370E-01  7.05083E-01  4.01342E-01 -5.75001E-02 -5.65829E-01
  -9.86777E-01 -1.18680E+00 -8.13385E-01  4.65853E-01  2.45227E+00  4.48164E+00  5.70816E+00  5.63218E+00  4.18913E+00  1.75037E+00
  -8.77120E-01 -2.80429E+00 -3.50437E+00 -2.88624E+00 -1.04175E+00  1.56713E+00  4.00810E+00  5.48185E+00  5.79661E+00  5.40227E+00
   4.84587E+00  4.38941E+00  4.18138E+00  4.42555E+00  5.16294E+00  6.17499E+00  7.09010E+00  7.55673E+00  7.48551E+00  6.94841E+00
   6.14193E+00  5.46591E+00  5.37097E+00  6.01723E+00  7.21241E+00  8.60923E+00  9.84857E+00  1.06049E+01  1.07082E+01  1.02673E+01
   9.66716E+00  9.24373E+00  9.17838E+00  9.49328E+00  9.96539E+00  1.00208E+01  9.96643E+00  1.12024E+01  1.43309E+01  1.86275E+01
   2.23178E+01  2.34580E+01  2.10976E+01  1.61816E+01  1.11618E+01  8.10600E+00  7.16196E+00  6.91822E+00  6.46691E+00  5.99403E+00
   5.55489E+00  5.17138E+00  4.90364E+00  4.79664E+00  4.77772E+00  4.75235E+00  4.64857E+00  4.44132E+00  4.16517E+00  3.88806E+00
   3.64989E+00  3.46079E+00  3.33030E+00  3.26350E+00  3.24791E+00  3.26046E+00  3.28404E+00  3.31579E+00  3.36309E+00  3.42957E+00
   3.51999E+00  3.63937E+00  3.78876E+00  3.96760E+00  4.17724E+00  4.41996E+00  4.69659E+00  5.00622E+00  5.34848E+00  5.72366E+00
   6.13209E+00  6.57478E+00  7.05261E+00  7.56646E+00  8.11758E+00  8.70833E+00  9.34307E+00  1.00290E+01  1.07759E+01  1.15949E+01
   1.24983E+01  1.34990E+01  1.46110E+01  1.58483E+01  1.72238E+01  1.87479E+01  2.04271E+01  2.22631E+01  2.42515E+01  2.63813E+01
   2.86339E+01  3.09803E+01  3.34008E+01  3.59989E+01  3.87723E+01  4.14595E+01  4.37088E+01  4.52481E+01  4.60408E+01  4.63294E+01
   4.64417E+01  4.66899E+01  4.72634E+01  4.80872E+01  4.89764E+01  4.98200E+01  5.03771E+01  5.03057E+01  4.94992E+01  4.82338E+01
   4.69678E+01  4.59963E+01  4.52760E+01  4.46896E+01  4.42512E+01  4.39769E+01  4.38717E+01  4.39318E+01  4.41442E+01  4.44876E+01
   4.49325E+01  4.54420E+01  4.59743E+01  4.64849E+01  4.69295E+01  4.72682E+01  4.74678E+01  4.75049E+01  4.73666E+01  4.70501E+01
   4.65612E+01  4.59118E+01  4.51176E+01  4.41956E+01  4.31631E+01  4.20369E+01  4.08327E+01  3.95662E+01  3.82525E+01  3.69075E+01
   3.55472E+01  3.41878E+01  3.28455E+01  3.15360E+01  3.02740E+01  2.90731E+01  2.79454E+01  2.69014E+01  2.59495E+01  2.50963E+01
   2.43461E+01  2.37016E+01  2.31631E+01  2.27288E+01  2.23947E+01  2.21548E+01  2.20012E+01  2.19239E+01  2.19112E+01  2.19499E+01
   2.20256E+01  2.21231E+01  2.22267E+01  2.23209E+01  2.23909E+01  2.24229E+01  2.24046E+01  2.23259E+01  2.21790E+01  2.19585E+01
   2.16618E+01  2.12889E+01  2.08422E+01  2.03264E+01  1.97481E+01  1.91153E+01  1.84370E+01  1.77232E+01  1.69835E+01  1.62279E+01
   1.54658E+01  1.47056E+01  1.39550E+01  1.32208E+01  1.25085E+01  1.18226E+01  1.11666E+01  1.05432E+01  9.95374E+00  9.39923E+00
   8.87987E+00  8.39533E+00  7.94481E+00  7.52715E+00  7.14087E+00  6.78439E+00  6.45598E+00  6.15385E+00  5.87615E+00  5.62104E+00
   5.38672E+00  5.17152E+00  4.97384E+00  4.79219E+00  4.62510E+00  4.47125E+00  4.32944E+00  4.19859E+00  4.07772E+00  3.96593E+00
   3.86236E+00  3.76628E+00  3.67703E+00  3.59406E+00  3.51682E+00  3.44482E+00  3.37761E+00  3.31481E+00  3.25607E+00  3.20112E+00
   3.14967E+00  3.10143E+00  3.05615E+00  3.01365E+00  2.97375E+00  2.93630E+00  2.90111E+00  2.86804E+00  2.83692E+00  2.80766E+00
   2.78016E+00  2.75434E+00  2.73006E+00  2.70722E+00  2.68575E+00  2.66560E+00  2.64671E+00  2.62901E+00  2.61240E+00  2.59683E+00
   2.58226E+00  2.56866E+00  2.55599E+00  2.54419E+00  2.53320E+00  2.52298E+00  2.51353E+00  2.50482E+00  2.49681E+00  2.48944E+00
   2.48268E+00  2.47653E+00  2.47096E+00  2.46598E+00  2.46153E+00  2.45758E+00  2.45410E+00  2.45111E+00  2.44859E+00  2.44653E+00
   2.44488E+00  2.44362E+00  2.44274E+00  2.44226E+00  2.44218E+00  2.44246E+00  2.44305E+00  2.44397E+00
 NY background values follow
    -5.252E+00   -5.238E+00   -5.224E+00   -5.211E+00   -5.197E+00   -5.183E+00   -5.169E+00   -5.155E+00   -5.142E+00   -5.128E+00
    -5.114E+00   -5.100E+00   -5.086E+00   -5.073E+00   -5.059E+00   -5.045E+00   -5.031E+00   -5.017E+00   -5.003E+00   -4.990E+00
    -4.976E+00   -4.962E+00   -4.948E+00   -4.934E+00   -4.921E+00   -4.907E+00   -4.893E+00   -4.879E+00   -4.865E+00   -4.851E+00
    -4.838E+00   -4.824E+00   -4.810E+00   -4.796E+00   -4.782E+00   -4.769E+00   -4.755E+00   -4.741E+00   -4.727E+00   -4.713E+00
    -4.699E+00   -4.686E+00   -4.672E+00   -4.658E+00   -4.644E+00   -4.630E+00   -4.617E+00   -4.603E+00   -4.589E+00   -4.575E+00
    -4.561E+00   -4.548E+00   -4.534E+00   -4.520E+00   -4.506E+00   -4.492E+00   -4.478E+00   -4.465E+00   -4.451E+00   -4.437E+00
    -4.423E+00   -4.409E+00   -4.396E+00   -4.382E+00   -4.368E+00   -4.354E+00   -4.340E+00   -4.326E+00   -4.313E+00   -4.299E+00
    -4.285E+00   -4.271E+00   -4.257E+00   -4.244E+00   -4.230E+00   -4.216E+00   -4.202E+00   -4.188E+00   -4.174E+00   -4.161E+00
    -4.147E+00   -4.133E+00   -4.119E+00   -4.105E+00   -4.092E+00   -4.078E+00   -4.064E+00   -4.050E+00   -4.036E+00   -4.023E+00
    -4.009E+00   -3.995E+00   -3.981E+00   -3.967E+00   -3.953E+00   -3.940E+00   -3.926E+00   -3.912E+00   -3.898E+00   -3.884E+00
    -3.871E+00   -3.857E+00   -3.843E+00   -3.829E+00   -3.815E+00   -3.801E+00   -3.788E+00   -3.774E+00   -3.760E+00   -3.746E+00
    -3.732E+00   -3.719E+00   -3.705E+00   -3.691E+00   -3.677E+00   -3.663E+00   -3.649E+00   -3.636E+00   -3.622E+00   -3.608E+00
    -3.594E+00   -3.580E+00   -3.567E+00   -3.553E+00   -3.539E+00   -3.525E+00   -3.511E+00   -3.497E+00   -3.484E+00   -3.470E+00
    -3.456E+00   -3.442E+00   -3.428E+00   -3.415E+00   -3.401E+00   -3.387E+00   -3.373E+00   -3.359E+00   -3.346E+00   -3.332E+00
    -3.318E+00   -3.304E+00   -3.290E+00   -3.276E+00   -3.263E+00   -3.249E+00   -3.235E+00   -3.221E+00   -3.207E+00   -3.194E+00
    -3.180E+00   -3.166E+00   -3.152E+00   -3.138E+00   -3.124E+00   -3.111E+00   -3.097E+00   -3.083E+00   -3.069E+00   -3.055E+00
    -3.042E+00   -3.028E+00   -3.014E+00   -3.000E+00   -2.986E+00   -2.972E+00   -2.959E+00   -2.945E+00   -2.931E+00   -2.917E+00
    -2.903E+00   -2.890E+00   -2.876E+00   -2.862E+00   -2.848E+00   -2.834E+00   -2.820E+00   -2.807E+00   -2.793E+00   -2.779E+00
    -2.765E+00   -2.751E+00   -2.738E+00   -2.724E+00   -2.710E+00   -2.696E+00   -2.682E+00   -2.669E+00   -2.655E+00   -2.641E+00
    -2.627E+00   -2.613E+00   -2.599E+00   -2.586E+00   -2.572E+00   -2.558E+00   -2.544E+00   -2.530E+00   -2.517E+00   -2.503E+00
    -2.489E+00   -2.475E+00   -2.461E+00   -2.447E+00   -2.434E+00   -2.420E+00   -2.406E+00   -2.392E+00   -2.378E+00   -2.365E+00
    -2.351E+00   -2.337E+00   -2.323E+00   -2.309E+00   -2.295E+00   -2.282E+00   -2.268E+00   -2.254E+00   -2.240E+00   -2.226E+00
    -2.213E+00   -2.199E+00   -2.185E+00   -2.171E+00   -2.157E+00   -2.143E+00   -2.130E+00   -2.116E+00   -2.102E+00   -2.088E+00
    -2.074E+00   -2.061E+00   -2.047E+00   -2.033E+00   -2.019E+00   -2.005E+00   -1.991E+00   -1.978E+00   -1.964E+00   -1.950E+00
    -1.936E+00   -1.922E+00   -1.909E+00   -1.895E+00   -1.881E+00   -1.867E+00   -1.853E+00   -1.839E+00   -1.826E+00   -1.812E+00
    -1.798E+00   -1.784E+00   -1.770E+00   -1.757E+00   -1.743E+00   -1.729E+00   -1.715E+00   -1.701E+00   -1.687E+00   -1.674E+00
    -1.660E+00   -1.646E+00   -1.632E+00   -1.618E+00   -1.605E+00   -1.591E+00   -1.577E+00   -1.563E+00   -1.549E+00   -1.535E+00
    -1.522E+00   -1.508E+00   -1.494E+00   -1.480E+00   -1.466E+00   -1.453E+00   -1.439E+00   -1.425E+00   -1.411E+00   -1.397E+00
    -1.383E+00   -1.370E+00   -1.356E+00   -1.342E+00   -1.328E+00   -1.314E+00   -1.301E+00   -1.287E+00   -1.273E+00   -1.259E+00
    -1.245E+00   -1.231E+00   -1.218E+00   -1.204E+00   -1.190E+00   -1.176E+00   -1.162E+00   -1.149E+00   -1.135E+00   -1.121E+00
    -1.107E+00   -1.093E+00   -1.079E+00   -1.066E+00   -1.052E+00   -1.038E+00   -1.024E+00   -1.010E+00   -9.965E-01   -9.827E-01
    -9.689E-01   -9.550E-01   -9.412E-01   -9.274E-01   -9.136E-01   -8.998E-01   -8.859E-01   -8.721E-01   -8.583E-01   -8.445E-01
    -8.307E-01   -8.168E-01   -8.030E-01   -7.892E-01   -7.754E-01   -7.616E-01   -7.478E-01   -7.339E-01   -7.201E-01   -7.063E-01
    -6.925E-01   -6.787E-01   -6.648E-01   -6.510E-01   -6.372E-01   -6.234E-01   -6.096E-01   -5.957E-01   -5.819E-01   -5.681E-01
    -5.543E-01   -5.405E-01   -5.266E-01   -5.128E-01   -4.990E-01   -4.852E-01   -4.714E-01   -4.575E-01   -4.437E-01   -4.299E-01
    -4.161E-01   -4.023E-01   -3.884E-01   -3.746E-01   -3.608E-01   -3.470E-01   -3.332E-01   -3.193E-01   -3.055E-01   -2.917E-01
    -2.779E-01   -2.641E-01   -2.502E-01   -2.364E-01   -2.226E-01   -2.088E-01   -1.950E-01   -1.811E-01   -1.673E-01   -1.535E-01
    -1.397E-01   -1.259E-01   -1.120E-01   -9.821E-02   -8.439E-02   -7.057E-02   -5.675E-02   -4.293E-02   -2.911E-02   -1.529E-02
    -1.472E-03    1.235E-02    2.617E-02    3.999E-02    5.381E-02    6.763E-02    8.145E-02    9.527E-02    1.091E-01    1.229E-01
     1.367E-01    1.506E-01    1.644E-01    1.782E-01    1.920E-01    2.058E-01    2.197E-01    2.335E-01    2.473E-01    2.611E-01
     2.749E-01    2.888E-01    3.026E-01    3.164E-01    3.302E-01    3.440E-01    3.579E-01    3.717E-01    3.855E-01    3.993E-01
     4.131E-01    4.270E-01    4.408E-01    4.546E-01    4.684E-01    4.822E-01    4.961E-01    5.099E-01    5.237E-01    5.375E-01
     5.513E-01    5.652E-01    5.790E-01    5.928E-01    6.066E-01    6.204E-01    6.343E-01    6.481E-01    6.619E-01    6.757E-01
     6.895E-01    7.034E-01    7.172E-01    7.310E-01    7.448E-01    7.586E-01    7.725E-01    7.863E-01    8.001E-01    8.139E-01
     8.277E-01    8.416E-01    8.554E-01    8.692E-01    8.830E-01    8.968E-01    9.107E-01    9.245E-01    9.383E-01    9.521E-01
     9.659E-01    9.798E-01    9.936E-01    1.007E+00    1.021E+00    1.035E+00    1.049E+00    1.063E+00    1.077E+00    1.090E+00
     1.104E+00    1.118E+00    1.132E+00    1.146E+00    1.159E+00    1.173E+00    1.187E+00    1.201E+00    1.215E+00    1.229E+00
     1.242E+00    1.256E+00    1.270E+00    1.284E+00    1.298E+00    1.311E+00    1.325E+00    1.339E+00    1.353E+00    1.367E+00
     1.381E+00    1.394E+00    1.408E+00    1.422E+00    1.436E+00    1.450E+00    1.463E+00    1.477E+00    1.491E+00    1.505E+00
     1.519E+00    1.533E+00    1.546E+00    1.560E+00    1.574E+00    1.588E+00    1.602E+00    1.616E+00
 Ala      Conc. = 9.40E+01
