 LCModel (Version 6.3-1L) Copyright: S.W. Provencher.          Ref.: Magn. Reson. Med. 30:672-679 (1993).                
 Slice#3 Row#5 Col#7  PD_05_press_2_raw_act
 36 lines in following concentration table = NCONC+1
    Conc.  %SD /Cr+PCr  Metabolite                                         
    0.000 999%   0.000 Ala                                                 
  239.042 173%   0.125 Asp                                                 
    0.000 999%   0.000 Cr                                                  
 1.91E+03  10%   1.000 PCr                                                 
  201.418 131%   0.105 GABA                                                
  242.527 107%   0.127 Glc                                                 
 1.15E+03  84%   0.604 Gln                                                 
 2.27E+03  49%   1.187 Glu                                                 
 1.03E+03   7%   0.538 GPC                                                 
    0.000 999%   0.000 PCh                                                 
  914.302  28%   0.478 GSH                                                 
 5.00E+03  18%   2.616 Ins                                                 
  367.671 131%   0.192 Lac                                                 
 2.39E+03  11%   1.249 NAA                                                 
  143.143 187% 7.5E-02 NAAG                                                
  288.072  24%   0.151 Scyllo                                              
  817.476  49%   0.428 Tau                                                 
 2.00E+03  17%   1.044 -CrCH2                                              
 1.03E+03   7%   0.538 GPC+PCh                                             
 2.53E+03   8%   1.324 NAA+NAAG                                            
 1.91E+03  10%   1.000 Cr+PCr                                              
 3.42E+03  51%   1.791 Glu+Gln                                             
    0.000 999%   0.000 Lip13a                                              
  770.370  38%   0.403 Lip13b                                              
  195.760  89%   0.102 Lip09                                               
  966.153  38%   0.505 MM09                                                
  103.626 114% 5.4E-02 Lip20                                               
 1.42E+03  47%   0.745 MM20                                                
  299.859  63%   0.157 MM12                                                
 1.42E+03  37%   0.742 MM14                                                
    0.000 999%   0.000 MM17                                                
  770.370  38%   0.403 Lip13a+Lip13b                                       
 2.49E+03  27%   1.302 MM14+Lip13a+Lip13b+MM12                             
 1.16E+03  31%   0.608 MM09+Lip09                                          
 1.53E+03  44%   0.799 MM20+Lip20                                          
   6 lines in following misc. output table
  FWHM = 0.076 ppm    S/N =   4                                            
  Data shift = 0.038 ppm                                                   
  Ph: -48 deg     -15.9 deg/ppm                                            
  alphaB,S = 1.2E+00,   2.5E+01                                            
   14 spline knots.   Ns = 9(1)                                            
  (19) 7 infls.   (15) 3 extrs.                                            
  498 points on ppm-axis = NY
      4.000000     3.992357     3.984714     3.977070     3.969427     3.961784     3.954141     3.946497     3.938854     3.931211
      3.923568     3.915925     3.908281     3.900638     3.892995     3.885352     3.877708     3.870065     3.862422     3.854779
      3.847136     3.839492     3.831849     3.824206     3.816563     3.808919     3.801276     3.793633     3.785990     3.778347
      3.770703     3.763060     3.755417     3.747774     3.740130     3.732487     3.724844     3.717201     3.709558     3.701914
      3.694271     3.686628     3.678985     3.671341     3.663698     3.656055     3.648412     3.640769     3.633125     3.625482
      3.617839     3.610196     3.602552     3.594909     3.587266     3.579623     3.571980     3.564336     3.556693     3.549050
      3.541407     3.533763     3.526120     3.518477     3.510834     3.503191     3.495547     3.487904     3.480261     3.472618
      3.464974     3.457331     3.449688     3.442045     3.434402     3.426758     3.419115     3.411472     3.403829     3.396185
      3.388542     3.380899     3.373256     3.365613     3.357969     3.350326     3.342683     3.335040     3.327396     3.319753
      3.312110     3.304467     3.296824     3.289180     3.281537     3.273894     3.266251     3.258607     3.250964     3.243321
      3.235678     3.228034     3.220391     3.212748     3.205105     3.197462     3.189818     3.182175     3.174532     3.166889
      3.159245     3.151602     3.143959     3.136316     3.128673     3.121029     3.113386     3.105743     3.098100     3.090456
      3.082813     3.075170     3.067527     3.059884     3.052240     3.044597     3.036954     3.029311     3.021667     3.014024
      3.006381     2.998738     2.991095     2.983451     2.975808     2.968165     2.960522     2.952878     2.945235     2.937592
      2.929949     2.922306     2.914662     2.907019     2.899376     2.891733     2.884089     2.876446     2.868803     2.861160
      2.853517     2.845873     2.838230     2.830587     2.822944     2.815300     2.807657     2.800014     2.792371     2.784728
      2.777084     2.769441     2.761798     2.754155     2.746511     2.738868     2.731225     2.723582     2.715939     2.708295
      2.700652     2.693009     2.685366     2.677722     2.670079     2.662436     2.654793     2.647150     2.639506     2.631863
      2.624220     2.616577     2.608933     2.601290     2.593647     2.586004     2.578361     2.570717     2.563074     2.555431
      2.547788     2.540144     2.532501     2.524858     2.517215     2.509572     2.501928     2.494285     2.486642     2.478999
      2.471355     2.463712     2.456069     2.448426     2.440783     2.433139     2.425496     2.417853     2.410210     2.402566
      2.394923     2.387280     2.379637     2.371994     2.364350     2.356707     2.349064     2.341421     2.333777     2.326134
      2.318491     2.310848     2.303205     2.295561     2.287918     2.280275     2.272632     2.264988     2.257345     2.249702
      2.242059     2.234416     2.226772     2.219129     2.211486     2.203843     2.196199     2.188556     2.180913     2.173270
      2.165627     2.157983     2.150340     2.142697     2.135054     2.127410     2.119767     2.112124     2.104481     2.096838
      2.089194     2.081551     2.073908     2.066265     2.058621     2.050978     2.043335     2.035692     2.028049     2.020405
      2.012762     2.005119     1.997476     1.989833     1.982190     1.974546     1.966903     1.959260     1.951617     1.943974
      1.936331     1.928688     1.921045     1.913402     1.905759     1.898115     1.890472     1.882829     1.875186     1.867543
      1.859900     1.852257     1.844614     1.836971     1.829327     1.821684     1.814041     1.806398     1.798755     1.791112
      1.783469     1.775826     1.768183     1.760540     1.752896     1.745253     1.737610     1.729967     1.722324     1.714681
      1.707038     1.699395     1.691752     1.684108     1.676465     1.668822     1.661179     1.653536     1.645893     1.638250
      1.630607     1.622964     1.615321     1.607677     1.600034     1.592391     1.584748     1.577105     1.569462     1.561819
      1.554176     1.546533     1.538890     1.531246     1.523603     1.515960     1.508317     1.500674     1.493031     1.485388
      1.477745     1.470102     1.462458     1.454815     1.447172     1.439529     1.431886     1.424243     1.416600     1.408957
      1.401314     1.393671     1.386027     1.378384     1.370741     1.363098     1.355455     1.347812     1.340169     1.332526
      1.324883     1.317240     1.309596     1.301953     1.294310     1.286667     1.279024     1.271381     1.263738     1.256095
      1.248452     1.240808     1.233165     1.225522     1.217879     1.210236     1.202593     1.194950     1.187307     1.179664
      1.172021     1.164377     1.156734     1.149091     1.141448     1.133805     1.126162     1.118519     1.110876     1.103233
      1.095590     1.087946     1.080303     1.072660     1.065017     1.057374     1.049731     1.042088     1.034445     1.026802
      1.019158     1.011515     1.003872     0.996229     0.988586     0.980943     0.973300     0.965657     0.958014     0.950371
      0.942727     0.935084     0.927441     0.919798     0.912155     0.904512     0.896869     0.889226     0.881583     0.873940
      0.866296     0.858653     0.851010     0.843367     0.835724     0.828081     0.820438     0.812795     0.805152     0.797508
      0.789865     0.782222     0.774579     0.766936     0.759293     0.751650     0.744007     0.736364     0.728721     0.721077
      0.713434     0.705791     0.698148     0.690505     0.682862     0.675219     0.667576     0.659933     0.652290     0.644646
      0.637003     0.629360     0.621717     0.614074     0.606431     0.598788     0.591145     0.583502     0.575858     0.568215
      0.560572     0.552929     0.545286     0.537643     0.530000     0.522357     0.514714     0.507071     0.499427     0.491784
      0.484141     0.476498     0.468855     0.461212     0.453569     0.445925     0.438282     0.430639     0.422996     0.415353
      0.407710     0.400067     0.392424     0.384780     0.377137     0.369494     0.361851     0.354208     0.346565     0.338922
      0.331278     0.323635     0.315992     0.308349     0.300706     0.293063     0.285420     0.277777     0.270133     0.262490
      0.254847     0.247204     0.239561     0.231918     0.224275     0.216631     0.208988     0.201345
 NY phased data points follow
  -2.55437E+02 -2.51524E+02 -2.44039E+02 -2.33124E+02 -2.34956E+02 -2.29253E+02 -2.21112E+02 -2.04173E+02 -2.01827E+02 -2.11325E+02
  -1.98907E+02 -2.15348E+02 -2.14681E+02 -1.95343E+02 -2.02865E+02 -2.22063E+02 -2.11767E+02 -2.18372E+02 -2.01342E+02 -1.97323E+02
  -1.95089E+02 -1.89293E+02 -2.00261E+02 -1.82549E+02 -1.78443E+02 -1.78640E+02 -1.69623E+02 -1.70285E+02 -1.70219E+02 -1.66149E+02
  -1.59122E+02 -1.73789E+02 -1.71365E+02 -1.65775E+02 -1.69108E+02 -1.55726E+02 -1.63327E+02 -1.56074E+02 -1.62688E+02 -1.72525E+02
  -1.57041E+02 -1.38294E+02 -1.52076E+02 -1.29023E+02 -1.35895E+02 -1.35413E+02 -1.43353E+02 -1.21252E+02 -1.28920E+02 -1.40567E+02
  -1.25840E+02 -1.37141E+02 -1.29865E+02 -1.41219E+02 -1.45760E+02 -1.43652E+02 -1.29948E+02 -1.30645E+02 -1.34260E+02 -1.30306E+02
  -1.26167E+02 -1.27345E+02 -1.38420E+02 -1.41458E+02 -1.44979E+02 -1.35533E+02 -1.15807E+02 -1.38369E+02 -1.24202E+02 -1.33823E+02
  -1.07710E+02 -1.24519E+02 -1.19191E+02 -1.12473E+02 -1.17806E+02 -1.24056E+02 -1.13183E+02 -1.17410E+02 -1.16678E+02 -1.00877E+02
  -1.04905E+02 -1.08648E+02 -1.03586E+02 -1.18203E+02 -1.01159E+02 -9.55363E+01 -1.03955E+02 -1.02156E+02 -9.98771E+01 -9.67716E+01
  -1.00206E+02 -9.92310E+01 -1.03804E+02 -9.01408E+01 -7.78776E+01 -1.01966E+02 -5.84268E+01 -7.29419E+01 -6.07446E+01 -6.34877E+01
  -4.01127E+01 -3.45198E+01 -1.13895E+01 -1.81494E+01 -4.43096E+01 -5.22776E+01 -5.91747E+01 -6.49317E+01 -6.05956E+01 -8.19178E+01
  -6.87246E+01 -8.46311E+01 -7.20092E+01 -8.62973E+01 -7.28108E+01 -8.58855E+01 -7.68096E+01 -7.33239E+01 -6.75558E+01 -7.32578E+01
  -6.07363E+01 -6.49702E+01 -4.83434E+01 -5.39566E+01 -4.16092E+01 -2.64655E+01 -3.02339E+01 -3.22581E+01 -2.49476E+01 -5.68920E+01
  -4.52048E+01 -5.00547E+01 -5.68083E+01 -6.46784E+01 -6.83537E+01 -7.50166E+01 -6.79542E+01 -7.81625E+01 -4.44019E+01 -6.19772E+01
  -6.77991E+01 -6.81924E+01 -6.86301E+01 -8.01161E+01 -7.27940E+01 -6.53100E+01 -7.75229E+01 -6.04750E+01 -6.44180E+01 -7.06051E+01
  -6.94304E+01 -7.25629E+01 -6.69080E+01 -6.72741E+01 -6.27247E+01 -6.17875E+01 -6.51950E+01 -5.54995E+01 -6.23977E+01 -6.08392E+01
  -6.70774E+01 -6.35758E+01 -7.01133E+01 -6.54538E+01 -5.43076E+01 -5.04523E+01 -6.66611E+01 -3.99738E+01 -4.76549E+01 -5.57724E+01
  -6.72095E+01 -6.91694E+01 -5.65079E+01 -6.80175E+01 -5.10628E+01 -6.50173E+01 -6.55930E+01 -6.93898E+01 -5.52597E+01 -7.02387E+01
  -5.36400E+01 -6.41412E+01 -5.96908E+01 -4.79601E+01 -5.37604E+01 -5.56591E+01 -4.16525E+01 -4.11672E+01 -4.36876E+01 -4.57625E+01
  -2.98341E+01 -3.63843E+01 -4.87216E+01 -3.60956E+01 -2.28131E+01 -3.54606E+01 -4.11476E+01 -4.50371E+01 -3.72607E+01 -3.63545E+01
  -3.26658E+01 -3.18584E+01 -3.64196E+01 -2.68994E+01 -3.08892E+01 -5.05322E+01 -2.77218E+01 -3.46440E+01 -4.16062E+01 -3.46005E+01
  -3.66008E+01 -4.20820E+01 -3.71831E+01 -3.99889E+01 -2.72957E+01 -1.24460E+01 -2.57888E+01 -3.78584E+01 -2.63751E+01 -2.56973E+01
  -2.54923E+01 -3.22098E+01 -4.45011E+01 -3.13334E+01 -2.55748E+01 -2.83457E+01 -2.74324E+01 -3.89473E+01 -1.55263E+01 -2.28311E+01
  -2.25780E+01 -2.40022E+01 -3.22227E+01 -1.44213E+01 -2.96743E+01 -2.45220E+01 -9.39107E+00 -2.23209E+01 -2.21056E+01 -1.85797E+01
  -1.28433E+01 -2.09496E+01 -3.19409E+01 -3.25663E+01 -3.39224E+01 -1.61395E+01 -2.19186E+01 -6.28408E+00 -1.79005E+00 -1.51343E+01
  -1.47361E+00 -5.80344E+00  4.35153E+00  3.34251E+00  1.11566E+01  3.45766E+01  2.88348E+01  1.54476E+01  1.80338E+01  4.01174E+01
   4.77571E+01  4.80495E+01  4.34993E+01  4.30858E+01  3.84496E+01  5.98246E+00 -2.19160E+00 -6.29187E+00 -5.92017E+00 -1.30803E+01
  -1.64168E+01 -1.26069E+01 -6.65345E+00 -1.41317E+01 -1.05067E+01 -1.07276E+01 -1.89732E+01 -1.34102E+01 -7.95803E+00 -1.88528E+01
  -2.50695E+00 -3.18268E+00 -2.36527E+01 -1.20561E+01 -1.13365E+01 -2.54984E+01 -1.76998E+01 -2.40847E+01 -1.38847E+01 -1.70630E+01
  -2.02138E+01 -5.05083E+00  1.25119E+00 -4.76346E+00 -2.35752E+01 -1.53609E+01 -5.85264E+00 -2.18816E+01  1.20706E+00 -9.33072E+00
  -1.13954E+01 -2.71058E+01 -1.84945E+01 -2.27728E+01 -5.27741E+00 -1.81302E+01 -8.46182E+00 -1.67643E+01  2.11299E+00 -4.09253E+00
  -7.77317E+00 -1.02031E+01 -9.70593E+00  9.91916E-01 -1.53088E-01  1.20991E+01  2.34082E+01  7.38909E+00  1.22258E+01  1.71928E+01
   1.47091E+01  4.15090E+00  1.20400E+01  9.60576E-01 -1.26123E+00  7.63995E+00  7.60859E+00 -8.18110E+00  9.89027E+00  1.39981E+01
   4.62691E+00  1.75157E+01  4.38891E+00  9.93714E+00  1.67664E+01  7.20073E+00  6.85173E+00 -5.72074E+00  7.90641E+00 -1.03859E+01
   9.00364E+00  1.06422E+01  9.71380E+00  1.89693E+00  6.55439E+00  9.71211E+00  1.28602E+01  1.77386E+01  1.44453E+01 -5.15858E+00
   1.75307E+01  6.37161E+00  1.39792E+01  1.33668E+01  1.46579E+01  1.25481E+01  3.07924E+01  6.25565E+00  1.93048E+01  2.24397E+01
   1.74269E+01  4.06688E+00  1.65475E+01  1.53820E+01  2.42951E+01  7.22961E+00  2.05276E+01 -5.56687E+00  7.41681E+00  1.24872E+01
   6.62152E+00  1.27104E+01  2.93660E+00  1.80378E+01  7.18767E+00  8.74910E+00  1.35900E+01  5.19202E+00  1.01985E+01  1.77070E+01
   1.87632E+00  6.81905E+00  3.26018E+01  2.63619E+00  1.74277E+01  2.41197E+01  1.60965E+01  1.44642E+01  1.32424E+01  7.71034E+00
   8.27852E+00  4.05814E+00  2.67284E+00  1.49080E+01  1.91658E+01  4.42296E+00  2.07055E+01  7.28671E+00  1.55914E+01  1.53181E+01
   1.73092E+01  2.87550E+01  2.19302E+01  1.93038E+01  1.43104E+01  2.03864E+01  3.89327E+01  1.06033E+01  2.99933E+01  3.22298E+01
   3.18315E+01  1.38844E+01  2.34609E+01  2.25837E+01  5.25899E+00  1.19233E+01  2.54503E+01  3.73047E+01  3.07061E+01  2.67033E+01
   1.60349E+01  9.73773E+00  1.20037E+01  1.35671E+01  1.42637E+01  4.11738E+00  1.13586E+01  2.98866E+01  4.22855E+00  2.27313E+01
   2.46283E+01  1.92782E+00  2.45005E+01  1.39451E+01  1.54398E+01  1.67085E+01  2.00839E+01  2.93162E+01  2.40108E+01  2.26954E+01
   2.26848E+01  1.76974E+01  3.37992E+01  1.29009E+01  1.73889E+01  1.12181E+01  1.62367E+01  1.23605E+01  2.09805E+01  2.02149E+01
   2.82025E+01  2.90623E+01  1.73727E+01  1.57562E+01  1.79816E+01  9.87594E+00  2.90104E+01  1.68554E+01  3.03790E+01  1.10306E+01
   2.66195E+01  1.93246E+01  1.16664E+01  1.25833E+01  2.93617E+01  1.61140E+01  2.29681E+01  1.49839E+01  1.98190E+01  2.37260E+01
   1.29457E+01  3.81923E+01  1.23863E+01  2.21100E+01  3.98894E+01  2.25050E+01  2.37221E+01  3.37385E+01  2.93453E+01  2.32266E+01
   4.27650E+01  1.39881E+01  2.94455E+01  2.52194E+01  2.16426E+01  1.13885E+01  2.10834E+01  1.38630E+01  2.98994E+01  2.49459E+01
   2.34913E+01  1.28092E+01  2.00126E+01  1.26711E+01  1.14725E+01  1.99276E+01  3.58140E+01  3.18812E+01
 NY points of the fit to the data follow
  -2.23370E+02 -2.23408E+02 -2.23644E+02 -2.22492E+02 -2.20507E+02 -2.19098E+02 -2.18221E+02 -2.16884E+02 -2.14997E+02 -2.12588E+02
  -2.10286E+02 -2.08796E+02 -2.07265E+02 -2.05539E+02 -2.03857E+02 -2.02255E+02 -2.00633E+02 -1.99706E+02 -1.98690E+02 -1.97477E+02
  -1.95040E+02 -1.92116E+02 -1.90514E+02 -1.86761E+02 -1.82496E+02 -1.80269E+02 -1.78507E+02 -1.74642E+02 -1.69065E+02 -1.64605E+02
  -1.62623E+02 -1.61971E+02 -1.61558E+02 -1.61675E+02 -1.63011E+02 -1.64435E+02 -1.64707E+02 -1.63913E+02 -1.62623E+02 -1.60913E+02
  -1.57490E+02 -1.52450E+02 -1.49539E+02 -1.48624E+02 -1.45804E+02 -1.39440E+02 -1.32875E+02 -1.30638E+02 -1.33369E+02 -1.37291E+02
  -1.39950E+02 -1.42442E+02 -1.44376E+02 -1.44818E+02 -1.43915E+02 -1.42680E+02 -1.41591E+02 -1.39962E+02 -1.37158E+02 -1.34188E+02
  -1.32134E+02 -1.31667E+02 -1.31650E+02 -1.31740E+02 -1.31690E+02 -1.30708E+02 -1.28670E+02 -1.26502E+02 -1.24776E+02 -1.22609E+02
  -1.20163E+02 -1.18637E+02 -1.17880E+02 -1.17086E+02 -1.15939E+02 -1.14756E+02 -1.13993E+02 -1.13390E+02 -1.13139E+02 -1.13043E+02
  -1.11721E+02 -1.10889E+02 -1.11074E+02 -1.10195E+02 -1.07554E+02 -1.05091E+02 -1.04660E+02 -1.05965E+02 -1.07765E+02 -1.07706E+02
  -1.06420E+02 -1.05632E+02 -1.03711E+02 -9.63307E+01 -8.71626E+01 -8.20237E+01 -7.13340E+01 -6.16403E+01 -6.03414E+01 -5.90445E+01
  -4.77182E+01 -3.07425E+01 -2.01962E+01 -2.29782E+01 -3.49036E+01 -4.53492E+01 -5.31896E+01 -6.31994E+01 -7.28362E+01 -7.88519E+01
  -8.19832E+01 -8.41042E+01 -8.61787E+01 -8.87843E+01 -8.90401E+01 -8.81964E+01 -8.65978E+01 -8.22833E+01 -7.59805E+01 -7.22264E+01
  -6.50368E+01 -5.74978E+01 -5.54189E+01 -5.42723E+01 -4.64951E+01 -3.46408E+01 -2.67658E+01 -2.73465E+01 -3.49354E+01 -4.26378E+01
  -4.76566E+01 -5.35742E+01 -5.95757E+01 -6.39806E+01 -6.70211E+01 -6.94500E+01 -7.12306E+01 -7.29885E+01 -7.27124E+01 -7.11195E+01
  -6.93782E+01 -6.81380E+01 -6.73652E+01 -6.69293E+01 -6.65830E+01 -6.62866E+01 -6.60925E+01 -6.58703E+01 -6.55982E+01 -6.53654E+01
  -6.50701E+01 -6.48388E+01 -6.47057E+01 -6.45095E+01 -6.41485E+01 -6.37623E+01 -6.31915E+01 -6.25168E+01 -6.19783E+01 -6.16131E+01
  -6.15363E+01 -6.14864E+01 -6.10036E+01 -6.00797E+01 -5.92092E+01 -5.86424E+01 -5.83467E+01 -5.82374E+01 -5.81805E+01 -5.79424E+01
  -5.78227E+01 -5.75831E+01 -5.71103E+01 -5.67919E+01 -5.67652E+01 -5.69763E+01 -5.68394E+01 -5.59812E+01 -5.51116E+01 -5.46813E+01
  -5.42520E+01 -5.35301E+01 -5.22803E+01 -5.06892E+01 -4.94837E+01 -4.87276E+01 -4.79174E+01 -4.68494E+01 -4.54848E+01 -4.38072E+01
  -4.25891E+01 -4.21770E+01 -4.18711E+01 -4.16126E+01 -4.16760E+01 -4.16936E+01 -4.12735E+01 -4.02254E+01 -3.85760E+01 -3.68628E+01
  -3.55854E+01 -3.52113E+01 -3.44995E+01 -3.39563E+01 -3.44076E+01 -3.48007E+01 -3.48727E+01 -3.53072E+01 -3.65544E+01 -3.72873E+01
  -3.63058E+01 -3.49341E+01 -3.41098E+01 -3.31836E+01 -3.09512E+01 -2.83640E+01 -2.77488E+01 -2.92235E+01 -3.02976E+01 -3.08834E+01
  -3.24827E+01 -3.49083E+01 -3.60570E+01 -3.45452E+01 -3.16823E+01 -2.93102E+01 -2.74915E+01 -2.54698E+01 -2.33809E+01 -2.29385E+01
  -2.33599E+01 -2.29441E+01 -2.18623E+01 -2.11898E+01 -2.13203E+01 -2.08204E+01 -1.99614E+01 -1.98591E+01 -2.01682E+01 -2.00652E+01
  -2.01120E+01 -2.08469E+01 -2.15514E+01 -2.13180E+01 -1.99850E+01 -1.84431E+01 -1.70783E+01 -1.54606E+01 -1.38779E+01 -1.24925E+01
  -1.08088E+01 -6.11103E+00  1.75770E+00  6.59948E+00  1.55312E+01  2.51031E+01  2.68032E+01  2.53526E+01  3.15762E+01  4.41094E+01
   5.27273E+01  5.08240E+01  4.04480E+01  2.99112E+01  2.21609E+01  1.30164E+01  3.58046E+00 -2.76476E+00 -6.14397E+00 -8.72830E+00
  -1.09056E+01 -1.36437E+01 -1.44937E+01 -1.42795E+01 -1.38948E+01 -1.35965E+01 -1.33286E+01 -1.31215E+01 -1.30128E+01 -1.29786E+01
  -1.29388E+01 -1.28657E+01 -1.27409E+01 -1.25534E+01 -1.23378E+01 -1.20903E+01 -1.18215E+01 -1.15549E+01 -1.12982E+01 -1.10315E+01
  -1.07665E+01 -1.04928E+01 -1.02258E+01 -9.96104E+00 -9.69665E+00 -9.42135E+00 -9.14412E+00 -8.86071E+00 -8.57221E+00 -8.27044E+00
  -7.95999E+00 -7.63532E+00 -7.30377E+00 -6.96203E+00 -6.61391E+00 -6.25668E+00 -5.89301E+00 -5.51558E+00 -5.12915E+00 -4.72739E+00
  -4.31458E+00 -3.88471E+00 -3.44105E+00 -2.97852E+00 -2.50199E+00 -2.00676E+00 -1.49800E+00 -9.71702E-01 -4.33676E-01  1.18508E-01
   6.77163E-01  1.24329E+00  1.80896E+00  2.37511E+00  2.93297E+00  3.48200E+00  4.01262E+00  4.52468E+00  5.00997E+00  5.46976E+00
   5.89709E+00  6.29463E+00  6.65820E+00  6.99497E+00  7.30706E+00  7.61080E+00  7.92590E+00  8.31589E+00  8.85282E+00  9.11994E+00
   9.23897E+00  9.52621E+00  9.37224E+00  8.91928E+00  8.91997E+00  9.42746E+00  1.00208E+01  9.88039E+00  9.37426E+00  9.65265E+00
   1.05493E+01  1.11865E+01  1.18317E+01  1.33251E+01  1.54513E+01  1.72616E+01  1.80701E+01  1.79493E+01  1.75218E+01  1.68788E+01
   1.57671E+01  1.44438E+01  1.32162E+01  1.21416E+01  1.12526E+01  1.04500E+01  9.79526E+00  9.38207E+00  9.13892E+00  9.02238E+00
   8.99522E+00  9.03542E+00  9.12023E+00  9.23998E+00  9.38193E+00  9.54401E+00  9.71946E+00  9.91098E+00  1.01154E+01  1.03373E+01
   1.05743E+01  1.08313E+01  1.11062E+01  1.14049E+01  1.17258E+01  1.20744E+01  1.24486E+01  1.28529E+01  1.32850E+01  1.37489E+01
   1.42412E+01  1.47639E+01  1.53111E+01  1.58824E+01  1.64697E+01  1.70704E+01  1.76738E+01  1.82741E+01  1.88579E+01  1.94181E+01
   1.99407E+01  2.04187E+01  2.08388E+01  2.11952E+01  2.14773E+01  2.16834E+01  2.18079E+01  2.18539E+01  2.18204E+01  2.17153E+01
   2.15422E+01  2.13136E+01  2.10368E+01  2.07259E+01  2.03890E+01  2.00403E+01  1.96872E+01  1.93427E+01  1.90120E+01  1.87048E+01
   1.84229E+01  1.81729E+01  1.79542E+01  1.77709E+01  1.76198E+01  1.75027E+01  1.74145E+01  1.73562E+01  1.73224E+01  1.73136E+01
   1.73242E+01  1.73544E+01  1.73986E+01  1.74578E+01  1.75273E+01  1.76083E+01  1.76962E+01  1.77924E+01  1.78928E+01  1.79995E+01
   1.81091E+01  1.82236E+01  1.83393E+01  1.84586E+01  1.85782E+01  1.87009E+01  1.88235E+01  1.89486E+01  1.90729E+01  1.91990E+01
   1.93240E+01  1.94509E+01  1.95767E+01  1.97039E+01  1.98295E+01  1.99563E+01  2.00817E+01  2.02086E+01  2.03339E+01  2.04603E+01
   2.05848E+01  2.07104E+01  2.08346E+01  2.09600E+01  2.10838E+01  2.12084E+01  2.13313E+01  2.14553E+01  2.15778E+01  2.17015E+01
   2.18236E+01  2.19465E+01  2.20677E+01  2.21902E+01  2.23114E+01  2.24336E+01  2.25543E+01  2.26758E+01  2.27960E+01  2.29175E+01
   2.30377E+01  2.31591E+01  2.32789E+01  2.33999E+01  2.35197E+01  2.36410E+01  2.37611E+01  2.38825E+01  2.40026E+01  2.41240E+01
   2.42447E+01  2.43670E+01  2.44884E+01  2.46112E+01  2.47332E+01  2.48570E+01  2.49805E+01  2.51061E+01
 NY background values follow
    -2.357E+02   -2.342E+02   -2.327E+02   -2.312E+02   -2.298E+02   -2.283E+02   -2.268E+02   -2.253E+02   -2.238E+02   -2.223E+02
    -2.209E+02   -2.194E+02   -2.179E+02   -2.164E+02   -2.149E+02   -2.135E+02   -2.120E+02   -2.105E+02   -2.090E+02   -2.076E+02
    -2.061E+02   -2.046E+02   -2.032E+02   -2.017E+02   -2.003E+02   -1.988E+02   -1.974E+02   -1.959E+02   -1.945E+02   -1.930E+02
    -1.916E+02   -1.901E+02   -1.887E+02   -1.873E+02   -1.858E+02   -1.844E+02   -1.830E+02   -1.816E+02   -1.802E+02   -1.788E+02
    -1.774E+02   -1.760E+02   -1.746E+02   -1.732E+02   -1.718E+02   -1.705E+02   -1.691E+02   -1.677E+02   -1.664E+02   -1.650E+02
    -1.637E+02   -1.623E+02   -1.610E+02   -1.596E+02   -1.583E+02   -1.570E+02   -1.557E+02   -1.544E+02   -1.531E+02   -1.518E+02
    -1.505E+02   -1.492E+02   -1.479E+02   -1.467E+02   -1.454E+02   -1.442E+02   -1.429E+02   -1.417E+02   -1.404E+02   -1.392E+02
    -1.380E+02   -1.368E+02   -1.356E+02   -1.344E+02   -1.332E+02   -1.320E+02   -1.308E+02   -1.296E+02   -1.285E+02   -1.273E+02
    -1.262E+02   -1.250E+02   -1.239E+02   -1.228E+02   -1.217E+02   -1.206E+02   -1.195E+02   -1.184E+02   -1.173E+02   -1.162E+02
    -1.151E+02   -1.141E+02   -1.130E+02   -1.120E+02   -1.110E+02   -1.099E+02   -1.089E+02   -1.079E+02   -1.069E+02   -1.059E+02
    -1.049E+02   -1.040E+02   -1.030E+02   -1.020E+02   -1.011E+02   -1.001E+02   -9.922E+01   -9.829E+01   -9.737E+01   -9.646E+01
    -9.556E+01   -9.466E+01   -9.378E+01   -9.290E+01   -9.203E+01   -9.116E+01   -9.030E+01   -8.946E+01   -8.861E+01   -8.778E+01
    -8.695E+01   -8.614E+01   -8.532E+01   -8.452E+01   -8.372E+01   -8.293E+01   -8.215E+01   -8.137E+01   -8.061E+01   -7.985E+01
    -7.909E+01   -7.834E+01   -7.760E+01   -7.687E+01   -7.614E+01   -7.543E+01   -7.471E+01   -7.401E+01   -7.331E+01   -7.262E+01
    -7.193E+01   -7.125E+01   -7.058E+01   -6.991E+01   -6.925E+01   -6.860E+01   -6.795E+01   -6.731E+01   -6.667E+01   -6.604E+01
    -6.542E+01   -6.480E+01   -6.419E+01   -6.358E+01   -6.298E+01   -6.239E+01   -6.179E+01   -6.121E+01   -6.063E+01   -6.006E+01
    -5.949E+01   -5.892E+01   -5.836E+01   -5.781E+01   -5.726E+01   -5.671E+01   -5.617E+01   -5.564E+01   -5.511E+01   -5.458E+01
    -5.406E+01   -5.354E+01   -5.303E+01   -5.252E+01   -5.202E+01   -5.151E+01   -5.102E+01   -5.052E+01   -5.004E+01   -4.955E+01
    -4.907E+01   -4.859E+01   -4.812E+01   -4.764E+01   -4.718E+01   -4.671E+01   -4.625E+01   -4.580E+01   -4.534E+01   -4.489E+01
    -4.445E+01   -4.400E+01   -4.356E+01   -4.312E+01   -4.269E+01   -4.226E+01   -4.183E+01   -4.141E+01   -4.099E+01   -4.057E+01
    -4.016E+01   -3.975E+01   -3.934E+01   -3.893E+01   -3.853E+01   -3.813E+01   -3.774E+01   -3.734E+01   -3.695E+01   -3.657E+01
    -3.618E+01   -3.580E+01   -3.542E+01   -3.505E+01   -3.467E+01   -3.430E+01   -3.394E+01   -3.357E+01   -3.321E+01   -3.285E+01
    -3.249E+01   -3.214E+01   -3.179E+01   -3.144E+01   -3.109E+01   -3.075E+01   -3.041E+01   -3.007E+01   -2.973E+01   -2.940E+01
    -2.907E+01   -2.874E+01   -2.841E+01   -2.809E+01   -2.776E+01   -2.744E+01   -2.713E+01   -2.681E+01   -2.650E+01   -2.618E+01
    -2.587E+01   -2.556E+01   -2.526E+01   -2.495E+01   -2.465E+01   -2.434E+01   -2.404E+01   -2.374E+01   -2.345E+01   -2.315E+01
    -2.285E+01   -2.256E+01   -2.227E+01   -2.198E+01   -2.169E+01   -2.140E+01   -2.111E+01   -2.082E+01   -2.054E+01   -2.025E+01
    -1.997E+01   -1.968E+01   -1.940E+01   -1.912E+01   -1.884E+01   -1.855E+01   -1.827E+01   -1.799E+01   -1.771E+01   -1.744E+01
    -1.716E+01   -1.688E+01   -1.660E+01   -1.632E+01   -1.604E+01   -1.577E+01   -1.549E+01   -1.521E+01   -1.494E+01   -1.466E+01
    -1.438E+01   -1.411E+01   -1.383E+01   -1.356E+01   -1.329E+01   -1.301E+01   -1.274E+01   -1.247E+01   -1.219E+01   -1.192E+01
    -1.165E+01   -1.138E+01   -1.111E+01   -1.084E+01   -1.057E+01   -1.031E+01   -1.004E+01   -9.772E+00   -9.506E+00   -9.241E+00
    -8.976E+00   -8.713E+00   -8.450E+00   -8.188E+00   -7.927E+00   -7.666E+00   -7.407E+00   -7.148E+00   -6.890E+00   -6.633E+00
    -6.377E+00   -6.122E+00   -5.868E+00   -5.615E+00   -5.363E+00   -5.112E+00   -4.862E+00   -4.613E+00   -4.365E+00   -4.118E+00
    -3.873E+00   -3.628E+00   -3.384E+00   -3.141E+00   -2.900E+00   -2.659E+00   -2.420E+00   -2.181E+00   -1.944E+00   -1.708E+00
    -1.473E+00   -1.238E+00   -1.005E+00   -7.734E-01   -5.424E-01   -3.125E-01   -8.365E-02    1.441E-01    3.709E-01    5.965E-01
     8.211E-01    1.045E+00    1.267E+00    1.488E+00    1.709E+00    1.928E+00    2.146E+00    2.363E+00    2.579E+00    2.794E+00
     3.008E+00    3.221E+00    3.433E+00    3.644E+00    3.853E+00    4.062E+00    4.269E+00    4.476E+00    4.681E+00    4.886E+00
     5.089E+00    5.291E+00    5.492E+00    5.692E+00    5.891E+00    6.089E+00    6.286E+00    6.482E+00    6.676E+00    6.870E+00
     7.063E+00    7.255E+00    7.446E+00    7.636E+00    7.825E+00    8.013E+00    8.200E+00    8.386E+00    8.571E+00    8.756E+00
     8.939E+00    9.122E+00    9.304E+00    9.485E+00    9.665E+00    9.844E+00    1.002E+01    1.020E+01    1.038E+01    1.055E+01
     1.073E+01    1.090E+01    1.108E+01    1.125E+01    1.142E+01    1.159E+01    1.176E+01    1.193E+01    1.210E+01    1.227E+01
     1.244E+01    1.261E+01    1.277E+01    1.294E+01    1.311E+01    1.327E+01    1.343E+01    1.360E+01    1.376E+01    1.392E+01
     1.409E+01    1.425E+01    1.441E+01    1.457E+01    1.473E+01    1.489E+01    1.504E+01    1.520E+01    1.536E+01    1.551E+01
     1.567E+01    1.582E+01    1.598E+01    1.613E+01    1.629E+01    1.644E+01    1.659E+01    1.674E+01    1.689E+01    1.704E+01
     1.719E+01    1.734E+01    1.749E+01    1.763E+01    1.778E+01    1.792E+01    1.807E+01    1.821E+01    1.836E+01    1.850E+01
     1.864E+01    1.878E+01    1.892E+01    1.906E+01    1.920E+01    1.934E+01    1.948E+01    1.961E+01    1.975E+01    1.988E+01
     2.002E+01    2.015E+01    2.028E+01    2.042E+01    2.055E+01    2.068E+01    2.081E+01    2.094E+01    2.106E+01    2.119E+01
     2.132E+01    2.145E+01    2.157E+01    2.170E+01    2.182E+01    2.195E+01    2.207E+01    2.219E+01    2.231E+01    2.244E+01
     2.256E+01    2.268E+01    2.280E+01    2.292E+01    2.304E+01    2.316E+01    2.328E+01    2.339E+01    2.351E+01    2.363E+01
     2.375E+01    2.387E+01    2.398E+01    2.410E+01    2.421E+01    2.433E+01    2.445E+01    2.456E+01    2.468E+01    2.479E+01
     2.491E+01    2.502E+01    2.514E+01    2.525E+01    2.537E+01    2.548E+01    2.560E+01    2.571E+01
 Asp      Conc. = 2.39E+02
