 LCModel (Version 6.3-1L) Copyright: S.W. Provencher.          Ref.: Magn. Reson. Med. 30:672-679 (1993).                
 Slice#3 Row#3 Col#12  PD_05_press_2_raw_act
 36 lines in following concentration table = NCONC+1
    Conc.  %SD /Cr+PCr  Metabolite                                         
 1.95E+03  43% 1.5E+03 Ala                                                 
    2.593 486%   1.933 Asp                                                 
    1.341 999%   1.000 Cr                                                  
    0.000 999%   0.000 PCr                                                 
    1.679 450%   1.252 GABA                                                
    1.580 479%   1.178 Glc                                                 
    0.000 999%   0.000 Gln                                                 
    0.000 999%   0.000 Glu                                                 
    0.000 999%   0.000 GPC                                                 
    0.000 999%   0.000 PCh                                                 
    0.000 999%   0.000 GSH                                                 
    0.000 999%   0.000 Ins                                                 
    0.000 999%   0.000 Lac                                                 
   55.082 250%  41.068 NAA                                                 
    0.000 999%   0.000 NAAG                                                
    0.559 451%   0.417 Scyllo                                              
    2.746 459%   2.047 Tau                                                 
    0.713 999%   0.532 -CrCH2                                              
    0.000 999%   0.000 GPC+PCh                                             
   55.082 250%  41.068 NAA+NAAG                                            
    1.341 999%   1.000 Cr+PCr                                              
    0.000 999%   0.000 Glu+Gln                                             
  146.159 394% 108.972 Lip13a                                              
  280.800  68% 209.358 Lip13b                                              
  125.709 118%  93.726 Lip09                                               
  697.514  29% 520.050 MM09                                                
   68.785 132%  51.285 Lip20                                               
  826.183  46% 615.983 MM20                                                
  235.474  53% 175.564 MM12                                                
  118.558 272%  88.394 MM14                                                
  511.001  41% 380.991 MM17                                                
  426.958 103% 318.330 Lip13a+Lip13b                                       
  780.991  53% 582.289 MM14+Lip13a+Lip13b+MM12                             
  823.223  18% 613.776 MM09+Lip09                                          
  894.968  41% 667.268 MM20+Lip20                                          
   6 lines in following misc. output table
  FWHM = 0.168 ppm    S/N =   1                                            
  Data shift = 0.107 ppm                                                   
  Ph:  -3 deg       0.5 deg/ppm                                            
  alphaB,S = 8.5E+01,   2.0E+02                                            
   11 spline knots.   Ns = 9(2)                                            
   2 inflections.     1 extrema                                            
  498 points on ppm-axis = NY
      4.000000     3.992357     3.984714     3.977070     3.969427     3.961784     3.954141     3.946497     3.938854     3.931211
      3.923568     3.915925     3.908281     3.900638     3.892995     3.885352     3.877708     3.870065     3.862422     3.854779
      3.847136     3.839492     3.831849     3.824206     3.816563     3.808919     3.801276     3.793633     3.785990     3.778347
      3.770703     3.763060     3.755417     3.747774     3.740130     3.732487     3.724844     3.717201     3.709558     3.701914
      3.694271     3.686628     3.678985     3.671341     3.663698     3.656055     3.648412     3.640769     3.633125     3.625482
      3.617839     3.610196     3.602552     3.594909     3.587266     3.579623     3.571980     3.564336     3.556693     3.549050
      3.541407     3.533763     3.526120     3.518477     3.510834     3.503191     3.495547     3.487904     3.480261     3.472618
      3.464974     3.457331     3.449688     3.442045     3.434402     3.426758     3.419115     3.411472     3.403829     3.396185
      3.388542     3.380899     3.373256     3.365613     3.357969     3.350326     3.342683     3.335040     3.327396     3.319753
      3.312110     3.304467     3.296824     3.289180     3.281537     3.273894     3.266251     3.258607     3.250964     3.243321
      3.235678     3.228034     3.220391     3.212748     3.205105     3.197462     3.189818     3.182175     3.174532     3.166889
      3.159245     3.151602     3.143959     3.136316     3.128673     3.121029     3.113386     3.105743     3.098100     3.090456
      3.082813     3.075170     3.067527     3.059884     3.052240     3.044597     3.036954     3.029311     3.021667     3.014024
      3.006381     2.998738     2.991095     2.983451     2.975808     2.968165     2.960522     2.952878     2.945235     2.937592
      2.929949     2.922306     2.914662     2.907019     2.899376     2.891733     2.884089     2.876446     2.868803     2.861160
      2.853517     2.845873     2.838230     2.830587     2.822944     2.815300     2.807657     2.800014     2.792371     2.784728
      2.777084     2.769441     2.761798     2.754155     2.746511     2.738868     2.731225     2.723582     2.715939     2.708295
      2.700652     2.693009     2.685366     2.677722     2.670079     2.662436     2.654793     2.647150     2.639506     2.631863
      2.624220     2.616577     2.608933     2.601290     2.593647     2.586004     2.578361     2.570717     2.563074     2.555431
      2.547788     2.540144     2.532501     2.524858     2.517215     2.509572     2.501928     2.494285     2.486642     2.478999
      2.471355     2.463712     2.456069     2.448426     2.440783     2.433139     2.425496     2.417853     2.410210     2.402566
      2.394923     2.387280     2.379637     2.371994     2.364350     2.356707     2.349064     2.341421     2.333777     2.326134
      2.318491     2.310848     2.303205     2.295561     2.287918     2.280275     2.272632     2.264988     2.257345     2.249702
      2.242059     2.234416     2.226772     2.219129     2.211486     2.203843     2.196199     2.188556     2.180913     2.173270
      2.165627     2.157983     2.150340     2.142697     2.135054     2.127410     2.119767     2.112124     2.104481     2.096838
      2.089194     2.081551     2.073908     2.066265     2.058621     2.050978     2.043335     2.035692     2.028049     2.020405
      2.012762     2.005119     1.997476     1.989833     1.982190     1.974546     1.966903     1.959260     1.951617     1.943974
      1.936331     1.928688     1.921045     1.913402     1.905759     1.898115     1.890472     1.882829     1.875186     1.867543
      1.859900     1.852257     1.844614     1.836971     1.829327     1.821684     1.814041     1.806398     1.798755     1.791112
      1.783469     1.775826     1.768183     1.760540     1.752896     1.745253     1.737610     1.729967     1.722324     1.714681
      1.707038     1.699395     1.691752     1.684108     1.676465     1.668822     1.661179     1.653536     1.645893     1.638250
      1.630607     1.622964     1.615321     1.607677     1.600034     1.592391     1.584748     1.577105     1.569462     1.561819
      1.554176     1.546533     1.538890     1.531246     1.523603     1.515960     1.508317     1.500674     1.493031     1.485388
      1.477745     1.470102     1.462458     1.454815     1.447172     1.439529     1.431886     1.424243     1.416600     1.408957
      1.401314     1.393671     1.386027     1.378384     1.370741     1.363098     1.355455     1.347812     1.340169     1.332526
      1.324883     1.317240     1.309596     1.301953     1.294310     1.286667     1.279024     1.271381     1.263738     1.256095
      1.248452     1.240808     1.233165     1.225522     1.217879     1.210236     1.202593     1.194950     1.187307     1.179664
      1.172021     1.164377     1.156734     1.149091     1.141448     1.133805     1.126162     1.118519     1.110876     1.103233
      1.095590     1.087946     1.080303     1.072660     1.065017     1.057374     1.049731     1.042088     1.034445     1.026802
      1.019158     1.011515     1.003872     0.996229     0.988586     0.980943     0.973300     0.965657     0.958014     0.950371
      0.942727     0.935084     0.927441     0.919798     0.912155     0.904512     0.896869     0.889226     0.881583     0.873940
      0.866296     0.858653     0.851010     0.843367     0.835724     0.828081     0.820438     0.812795     0.805152     0.797508
      0.789865     0.782222     0.774579     0.766936     0.759293     0.751650     0.744007     0.736364     0.728721     0.721077
      0.713434     0.705791     0.698148     0.690505     0.682862     0.675219     0.667576     0.659933     0.652290     0.644646
      0.637003     0.629360     0.621717     0.614074     0.606431     0.598788     0.591145     0.583502     0.575858     0.568215
      0.560572     0.552929     0.545286     0.537643     0.530000     0.522357     0.514714     0.507071     0.499427     0.491784
      0.484141     0.476498     0.468855     0.461212     0.453569     0.445925     0.438282     0.430639     0.422996     0.415353
      0.407710     0.400067     0.392424     0.384780     0.377137     0.369494     0.361851     0.354208     0.346565     0.338922
      0.331278     0.323635     0.315992     0.308349     0.300706     0.293063     0.285420     0.277777     0.270133     0.262490
      0.254847     0.247204     0.239561     0.231918     0.224275     0.216631     0.208988     0.201345
 NY phased data points follow
   2.05463E+00 -2.04986E+00  5.76638E+00 -3.71148E+00 -4.49534E+00 -1.61214E+00  2.30000E+00  1.64226E+00  3.26700E+00 -6.07810E+00
  -5.36001E-01  5.51465E+00 -1.51560E+00 -2.12225E+00  1.49621E-01 -7.94257E-01 -1.26063E+00 -3.87864E+00  6.35980E-01 -2.54563E+00
   1.29822E+00  3.45852E+00 -6.47292E+00  2.80316E+00 -5.15568E-01  1.18069E+00  2.05762E+00 -2.67186E+00 -1.49492E+00 -2.21372E+00
  -8.16466E-01 -1.00724E+00 -7.62713E+00  1.00218E+00  2.66421E+00 -4.31825E-02  1.47694E-01 -5.52159E+00 -5.36288E+00 -4.36378E+00
   4.77548E+00  5.42542E+00 -1.25224E+00  8.32567E+00  1.64944E+00  2.53743E+00 -2.33232E+00  2.17617E+00 -2.64363E+00  5.04735E+00
   3.56279E+00 -1.29141E+00  1.41621E+00 -2.22262E+00  1.33015E+00  3.53717E+00  8.49564E+00 -7.42343E+00  5.88529E+00  5.55413E+00
   6.79578E-01  4.56972E+00  7.70415E+00 -5.36193E+00  1.32311E+00  2.03887E+00 -2.13303E+00 -6.71152E+00 -1.68670E+00  6.35307E-01
   3.62547E-01  3.15657E+00 -2.29729E+00  5.60078E+00  4.79204E-01 -2.95302E+00 -3.24796E+00  7.08206E-01  4.42786E-01 -3.91056E+00
   8.51322E+00  2.87078E-02 -5.25151E+00 -4.76309E-01  1.60432E+00  7.14820E+00 -2.09406E+00  3.87948E+00  7.64630E-01 -6.72220E+00
   5.34167E+00  3.32805E+00  6.49877E+00 -3.02580E+00  6.32334E+00  3.93678E-01  2.34305E+00 -1.31820E+00 -1.86448E+00  2.34540E+00
   3.07562E+00 -2.39176E+00  7.74666E+00 -4.58232E+00  2.18124E-01 -7.00132E-01  2.70639E+00  4.22568E+00 -1.30196E+00  3.07916E+00
  -2.70407E+00  4.33857E-01 -5.53690E+00  1.72225E+00  1.60176E+00  3.03602E+00 -5.03612E+00  2.15300E+00  2.18545E+00 -1.53751E+00
   5.43223E+00  4.88836E-01  4.79286E+00  7.50146E-01  4.83009E-01  7.30874E+00  7.77843E+00 -1.49047E+00 -2.23459E+00  9.00177E-01
   4.20401E+00  1.06828E+00  8.31114E+00  1.90348E+00  6.65181E+00  4.51150E+00  1.82790E+00 -1.51417E+00  1.30249E+00 -5.06081E+00
  -4.97998E-01  6.64444E+00  5.57351E-01  7.62010E+00 -3.05058E+00  6.62437E+00 -8.77157E-02  1.74465E+00  1.15333E-01  5.40033E+00
   5.26033E+00  3.70266E+00 -7.40697E-01  6.41684E+00  6.40494E-01  2.15137E+00  4.91541E+00  3.55052E+00 -1.41761E+00  3.28474E+00
   1.21554E+00  1.21412E-01  3.46286E+00  1.39077E+00 -1.68810E+00  2.70879E+00  2.86699E+00  3.41758E+00  1.02502E+00  1.92520E-01
   7.30373E+00  3.00277E-01  3.01456E+00  3.67185E+00 -4.19018E+00  1.29809E+00  1.67088E-01 -2.57419E+00  3.07577E+00  4.97108E+00
  -2.01269E+00  6.90803E+00  5.34817E+00  4.11679E+00  9.86329E-01 -3.82967E+00 -6.21594E+00  5.81812E+00  1.47960E+00 -5.21408E+00
   6.86914E+00  2.22210E+00  4.07389E+00 -8.06728E+00  3.78258E-01 -6.33370E-01  1.90172E+00  1.46476E+00  7.82160E+00  2.60953E+00
  -1.97208E+00 -2.80396E+00  1.04474E+00  4.66835E+00  4.25396E+00  1.00465E+01  8.67523E+00 -1.99359E+00  9.45086E-01  2.30854E+00
   2.30813E+00 -2.29133E+00  1.78066E+00 -1.74812E-01 -2.38523E+00 -3.10364E+00  2.05939E+00 -3.56540E-01  4.76829E+00  2.92750E+00
   3.67907E+00  3.15098E+00  1.57362E+00  6.63621E-01  4.10570E+00 -4.36692E+00  5.00404E+00  2.13428E-01  4.44578E+00  1.67396E+00
   4.10420E+00 -9.91159E-01 -9.85405E-01 -1.35940E+00  6.31827E-01  4.83562E+00  3.72269E+00  2.67085E+00  1.36060E+00  7.04893E+00
  -4.61814E+00  7.86817E+00  4.91022E+00  1.57281E+00 -1.54555E+00  6.83786E+00  3.39998E+00  3.55929E+00  6.23671E+00  4.78270E+00
   4.51004E+00  8.46050E+00  1.32460E+01  1.84997E+00  9.30556E-01  1.02958E+01  3.01835E+00  5.16836E+00  6.56789E+00  5.20878E+00
   5.09924E+00  7.43017E+00  3.60773E+00  5.04077E+00  7.88090E-01 -8.27950E-01  2.87440E+00  8.23150E+00 -4.86030E-01 -7.09365E-01
   3.89405E+00  9.10779E+00 -1.80243E+00  3.77095E+00 -4.07017E+00 -2.09383E+00 -1.68454E+00 -3.20903E+00 -3.12557E+00 -3.93442E+00
   5.47418E-01  7.56602E-02  9.05532E+00 -3.82836E+00  4.58145E+00 -1.21844E+00  7.65523E+00  1.69736E+00  2.79137E+00  8.18484E+00
   6.18437E+00 -1.15694E+00  6.41596E+00  2.07297E-01  1.12822E+00  6.74811E+00  3.25133E+00 -1.90397E-01  2.07057E+00  1.11861E+01
   6.13184E+00  9.68779E+00  3.18283E+00  1.49362E+00  4.74824E+00  7.23492E-01  1.10604E+01  7.76614E+00  7.33311E+00  9.09809E+00
   1.29278E+01  6.97468E+00  8.22948E+00  9.62756E+00  1.15527E+01  6.32124E+00  5.96681E+00  1.99568E+00  1.23519E+01  7.86717E+00
   9.01252E-01 -3.89085E+00  2.41628E+00  5.00476E+00  3.75506E+00  1.05060E+00  9.49733E-01  2.14916E+00  5.39230E+00  3.42056E+00
   2.85259E+00  6.25050E+00  8.24739E+00  9.69903E+00 -2.27446E-01  4.44504E+00  3.54039E+00  6.34307E+00  5.38052E+00  3.10126E-01
   7.58832E+00  1.33339E+00  6.42748E+00  4.21505E+00  3.64284E+00  9.47078E+00  9.32767E+00  4.65281E+00  9.02554E+00  3.18367E-01
   7.49576E+00  1.78787E+00  3.45015E+00  4.52267E+00  1.07792E+01  5.93592E+00  9.83697E+00  7.97787E+00  8.20298E+00  1.17436E+01
   7.84504E+00  7.32627E+00  6.23561E+00  7.78272E+00  5.44677E+00  6.34285E+00  1.63329E+00  4.98420E+00 -1.22798E+00  5.41755E+00
   2.74742E+00  8.53221E+00  1.34582E+00  9.43080E+00  3.83489E+00  9.51956E-01  2.89255E+00  1.69153E+00 -3.15720E-01  3.09355E+00
   5.41073E+00  5.63676E+00 -3.35772E-01  6.06795E+00  3.19823E+00  9.94345E+00  1.12988E+01  1.79389E+00  1.16273E+01  4.06371E+00
   6.09777E+00  1.08336E+01  1.25226E+01  2.63872E+00  6.67485E+00  5.91657E+00  1.08768E+01  5.33943E+00  7.13007E+00  2.75374E+00
   5.84559E+00  4.04928E+00  2.03966E+00  9.16759E+00  3.17599E+00  3.75256E+00  3.58648E+00  6.42498E+00  7.88873E+00  1.07881E+01
   3.98996E-01  5.60318E+00  9.65495E+00  9.13415E+00  9.72958E+00 -1.74925E-01  2.61074E+00  3.01268E+00  3.22324E+00  9.72238E+00
   3.51884E+00 -2.82512E+00  2.88639E+00  4.42891E+00  1.88082E+00  4.96186E+00  8.17355E+00  2.51199E+00  1.11672E+00  6.90374E+00
   3.28916E+00  1.61777E+00  1.34293E+00 -1.03283E+00  7.55301E+00  2.73622E+00  2.00135E+00  3.76114E+00  5.87909E+00  2.41934E+00
   2.29965E+00  1.64748E+00  5.55801E+00  8.72829E-01 -6.18224E-01 -1.47333E+00  1.06719E+00 -3.12471E+00  3.09003E+00  5.84306E+00
   6.98299E-01 -7.50461E+00  1.58830E+00  6.51289E-01  2.06696E+00  5.75610E+00  2.55526E+00  2.67364E+00  7.66624E+00 -5.23314E-01
  -1.10258E+00  4.82556E+00  6.24591E-01 -7.25873E+00  8.92979E+00 -4.58818E+00 -8.57832E+00  1.18020E+00  2.16839E+00 -5.52916E+00
   4.35376E+00 -4.66700E+00 -1.27382E+00 -7.19839E+00  1.36743E+00  2.88104E-01  3.85208E+00  7.21278E-01  1.60968E+00 -4.96000E+00
  -4.83185E+00  6.68094E+00 -4.94718E+00  3.59233E+00  4.69101E+00  3.53576E+00  2.03106E+00 -1.84814E+00 -8.70426E-01  1.11725E+00
  -3.74135E-01 -3.52768E+00  7.08303E+00  4.18933E+00  9.49041E+00  1.90955E+00  1.12841E+00 -2.55203E-01
 NY points of the fit to the data follow
   5.71974E-01  5.56711E-01  4.78832E-01  5.04845E-01  4.19859E-01  5.26751E-01  4.91903E-01  7.29411E-01  6.23684E-01  9.17306E-01
   6.96221E-01  1.00565E+00  6.33764E-01  8.98282E-01  3.69952E-01  7.00182E-01  1.35861E-01  5.29969E-01 -1.83434E-02  4.37241E-01
  -3.32604E-02  4.58679E-01  3.29956E-02  4.94928E-01  1.43646E-01  5.49804E-01  2.71380E-01  5.75708E-01  3.62018E-01  5.57633E-01
   4.08009E-01  4.81221E-01  3.87920E-01  3.64158E-01  3.51708E-01  2.70202E-01  3.45902E-01  2.38866E-01  4.14801E-01  3.01785E-01
   5.35898E-01  4.17149E-01  6.66468E-01  5.26976E-01  7.49077E-01  5.80063E-01  7.60832E-01  5.94382E-01  7.08181E-01  5.53673E-01
   6.38839E-01  5.26025E-01  5.99271E-01  5.28197E-01  5.84443E-01  5.74470E-01  6.30838E-01  6.39032E-01  6.77953E-01  6.90599E-01
   7.13872E-01  7.25242E-01  7.27438E-01  7.30411E-01  7.30542E-01  7.32811E-01  7.32920E-01  7.35348E-01  7.36447E-01  7.39032E-01
   7.40993E-01  7.43635E-01  7.46348E-01  7.48915E-01  7.52169E-01  7.54452E-01  7.57916E-01  7.59822E-01  7.63388E-01  7.64985E-01
   7.68800E-01  7.70416E-01  7.74415E-01  7.76253E-01  7.80404E-01  7.82622E-01  7.86960E-01  7.89833E-01  7.94424E-01  7.98170E-01
   8.03160E-01  8.07901E-01  8.13389E-01  8.19154E-01  8.25337E-01  8.32265E-01  8.39410E-01  8.47799E-01  8.56319E-01  8.66399E-01
   8.76745E-01  8.88869E-01  9.01436E-01  9.15952E-01  9.31094E-01  9.48175E-01  9.66084E-01  9.85958E-01  1.00723E+00  1.03068E+00
   1.05494E+00  1.08162E+00  1.10855E+00  1.13802E+00  1.16689E+00  1.19819E+00  1.22793E+00  1.25989E+00  1.28941E+00  1.32064E+00
   1.34868E+00  1.37777E+00  1.40296E+00  1.42850E+00  1.44948E+00  1.47011E+00  1.48578E+00  1.50059E+00  1.51015E+00  1.51832E+00
   1.52122E+00  1.52236E+00  1.51849E+00  1.51266E+00  1.50237E+00  1.49012E+00  1.47428E+00  1.45668E+00  1.43655E+00  1.41501E+00
   1.39214E+00  1.36832E+00  1.34384E+00  1.31827E+00  1.29367E+00  1.26784E+00  1.24486E+00  1.22057E+00  1.19942E+00  1.17740E+00
   1.15814E+00  1.13854E+00  1.12102E+00  1.10385E+00  1.08789E+00  1.07300E+00  1.05825E+00  1.04498E+00  1.03050E+00  1.01871E+00
   1.00568E+00  9.95160E-01  9.83719E-01  9.73290E-01  9.64081E-01  9.54061E-01  9.47424E-01  9.37939E-01  9.33532E-01  9.24276E-01
   9.22825E-01  9.14833E-01  9.16270E-01  9.10008E-01  9.14334E-01  9.10079E-01  9.16989E-01  9.14838E-01  9.24640E-01  9.25355E-01
   9.36931E-01  9.40230E-01  9.52485E-01  9.57758E-01  9.70040E-01  9.77899E-01  9.90726E-01  1.00062E+00  1.01362E+00  1.02481E+00
   1.03796E+00  1.04996E+00  1.06343E+00  1.07601E+00  1.08959E+00  1.10152E+00  1.11585E+00  1.12737E+00  1.14285E+00  1.15462E+00
   1.17241E+00  1.18519E+00  1.20569E+00  1.22025E+00  1.24437E+00  1.26212E+00  1.29067E+00  1.31247E+00  1.34556E+00  1.37159E+00
   1.40950E+00  1.44034E+00  1.48230E+00  1.51766E+00  1.56305E+00  1.60272E+00  1.65093E+00  1.69470E+00  1.74545E+00  1.79317E+00
   1.84598E+00  1.89716E+00  1.95198E+00  2.00646E+00  2.06357E+00  2.12179E+00  2.18215E+00  2.24467E+00  2.30959E+00  2.37802E+00
   2.44977E+00  2.52644E+00  2.60767E+00  2.69512E+00  2.78816E+00  2.88808E+00  2.99445E+00  3.10768E+00  3.22694E+00  3.35208E+00
   3.48242E+00  3.62139E+00  3.78509E+00  3.94284E+00  4.11494E+00  4.27918E+00  4.43755E+00  4.59427E+00  4.71432E+00  4.84816E+00
   4.91281E+00  5.01188E+00  5.01278E+00  5.07014E+00  5.00601E+00  5.02068E+00  4.90292E+00  4.88044E+00  4.72070E+00  4.66916E+00
   4.48471E+00  4.41437E+00  4.21748E+00  4.13631E+00  3.93644E+00  3.84986E+00  3.65190E+00  3.56217E+00  3.36896E+00  3.27709E+00
   3.09487E+00  3.00312E+00  2.83796E+00  2.75023E+00  2.61282E+00  2.53589E+00  2.43265E+00  2.37248E+00  2.30378E+00  2.26431E+00
   2.22807E+00  2.21335E+00  2.21421E+00  2.22851E+00  2.25656E+00  2.29933E+00  2.35749E+00  2.43199E+00  2.52327E+00  2.63195E+00
   2.75795E+00  2.90127E+00  3.06107E+00  3.23646E+00  3.42563E+00  3.62676E+00  3.83711E+00  4.05407E+00  4.27439E+00  4.49526E+00
   4.71377E+00  4.92805E+00  5.13696E+00  5.34143E+00  5.54478E+00  5.75502E+00  5.98802E+00  6.27838E+00  6.71624E+00  7.37144E+00
   7.61310E+00  8.26892E+00  8.12582E+00  8.59913E+00  7.91250E+00  7.96148E+00  6.64209E+00  6.66536E+00  5.26902E+00  5.31606E+00
   4.09112E+00  4.18444E+00  3.38182E+00  3.52274E+00  3.17843E+00  3.28488E+00  3.38729E+00  3.43601E+00  3.86691E+00  3.74068E+00
   4.32936E+00  4.01456E+00  4.67214E+00  4.12295E+00  4.77515E+00  4.05353E+00  4.77208E+00  3.98884E+00  4.82429E+00  4.08182E+00
   5.09734E+00  4.49947E+00  5.62561E+00  5.14787E+00  6.21482E+00  5.81276E+00  6.71271E+00  6.36137E+00  7.07460E+00  6.90932E+00
   7.38873E+00  7.34183E+00  7.72016E+00  7.79993E+00  8.06424E+00  8.10647E+00  8.12931E+00  8.07927E+00  7.90482E+00  7.59798E+00
   7.17645E+00  6.67417E+00  6.13250E+00  5.59233E+00  5.08763E+00  4.64180E+00  4.26662E+00  3.96378E+00  3.72743E+00  3.54763E+00
   3.41298E+00  3.31294E+00  3.23886E+00  3.18454E+00  3.14598E+00  3.12117E+00  3.10943E+00  3.11110E+00  3.12707E+00  3.15863E+00
   3.20711E+00  3.27396E+00  3.36039E+00  3.46755E+00  3.59619E+00  3.74677E+00  3.91922E+00  4.11298E+00  4.32676E+00  4.55866E+00
   4.80590E+00  5.06501E+00  5.33168E+00  5.60095E+00  5.86721E+00  6.12447E+00  6.36645E+00  6.58693E+00  6.77989E+00  6.93989E+00
   7.06220E+00  7.14317E+00  7.18023E+00  7.17220E+00  7.11917E+00  7.02261E+00  6.88519E+00  6.71070E+00  6.50376E+00  6.26972E+00
   6.01424E+00  5.74320E+00  5.46230E+00  5.17703E+00  4.89230E+00  4.61253E+00  4.34133E+00  4.08171E+00  3.83586E+00  3.60536E+00
   3.39110E+00  3.19351E+00  3.01248E+00  2.84761E+00  2.69814E+00  2.56322E+00  2.44175E+00  2.33269E+00  2.23488E+00  2.14726E+00
   2.06874E+00  1.99839E+00  1.93524E+00  1.87853E+00  1.82746E+00  1.78143E+00  1.73979E+00  1.70209E+00  1.66782E+00  1.63663E+00
   1.60813E+00  1.58207E+00  1.55814E+00  1.53616E+00  1.51588E+00  1.49717E+00  1.47983E+00  1.46377E+00  1.44883E+00  1.43496E+00
   1.42200E+00  1.40993E+00  1.39862E+00  1.38806E+00  1.37814E+00  1.36886E+00  1.36011E+00  1.35191E+00  1.34416E+00  1.33689E+00
   1.33001E+00  1.32353E+00  1.31740E+00  1.31162E+00  1.30613E+00  1.30096E+00  1.29604E+00  1.29139E+00  1.28697E+00  1.28279E+00
   1.27881E+00  1.27504E+00  1.27145E+00  1.26805E+00  1.26479E+00  1.26172E+00  1.25877E+00  1.25599E+00  1.25332E+00  1.25079E+00
   1.24836E+00  1.24606E+00  1.24385E+00  1.24176E+00  1.23975E+00  1.23784E+00  1.23600E+00  1.23426E+00  1.23257E+00  1.23097E+00
   1.22942E+00  1.22795E+00  1.22652E+00  1.22516E+00  1.22384E+00  1.22258E+00  1.22136E+00  1.22020E+00
 NY background values follow
     3.272E-01    3.285E-01    3.299E-01    3.312E-01    3.326E-01    3.340E-01    3.353E-01    3.367E-01    3.380E-01    3.394E-01
     3.407E-01    3.421E-01    3.435E-01    3.448E-01    3.462E-01    3.475E-01    3.489E-01    3.503E-01    3.516E-01    3.530E-01
     3.544E-01    3.557E-01    3.571E-01    3.584E-01    3.598E-01    3.612E-01    3.625E-01    3.639E-01    3.653E-01    3.666E-01
     3.680E-01    3.693E-01    3.707E-01    3.721E-01    3.734E-01    3.748E-01    3.762E-01    3.775E-01    3.789E-01    3.803E-01
     3.816E-01    3.830E-01    3.844E-01    3.857E-01    3.871E-01    3.885E-01    3.898E-01    3.912E-01    3.925E-01    3.939E-01
     3.953E-01    3.966E-01    3.980E-01    3.994E-01    4.007E-01    4.021E-01    4.035E-01    4.048E-01    4.062E-01    4.076E-01
     4.090E-01    4.103E-01    4.117E-01    4.131E-01    4.144E-01    4.158E-01    4.172E-01    4.185E-01    4.199E-01    4.213E-01
     4.226E-01    4.240E-01    4.254E-01    4.267E-01    4.281E-01    4.295E-01    4.308E-01    4.322E-01    4.336E-01    4.350E-01
     4.363E-01    4.377E-01    4.391E-01    4.404E-01    4.418E-01    4.432E-01    4.445E-01    4.459E-01    4.473E-01    4.487E-01
     4.500E-01    4.514E-01    4.528E-01    4.541E-01    4.555E-01    4.569E-01    4.583E-01    4.596E-01    4.610E-01    4.624E-01
     4.637E-01    4.651E-01    4.665E-01    4.679E-01    4.692E-01    4.706E-01    4.720E-01    4.733E-01    4.747E-01    4.761E-01
     4.775E-01    4.788E-01    4.802E-01    4.816E-01    4.829E-01    4.843E-01    4.857E-01    4.871E-01    4.884E-01    4.898E-01
     4.912E-01    4.926E-01    4.939E-01    4.953E-01    4.967E-01    4.980E-01    4.994E-01    5.008E-01    5.022E-01    5.035E-01
     5.049E-01    5.063E-01    5.077E-01    5.090E-01    5.104E-01    5.118E-01    5.131E-01    5.145E-01    5.159E-01    5.173E-01
     5.186E-01    5.200E-01    5.214E-01    5.228E-01    5.241E-01    5.255E-01    5.269E-01    5.282E-01    5.296E-01    5.310E-01
     5.324E-01    5.337E-01    5.351E-01    5.365E-01    5.379E-01    5.392E-01    5.406E-01    5.420E-01    5.433E-01    5.447E-01
     5.461E-01    5.475E-01    5.488E-01    5.502E-01    5.516E-01    5.530E-01    5.543E-01    5.557E-01    5.571E-01    5.584E-01
     5.598E-01    5.612E-01    5.626E-01    5.639E-01    5.653E-01    5.667E-01    5.681E-01    5.694E-01    5.708E-01    5.722E-01
     5.735E-01    5.749E-01    5.763E-01    5.777E-01    5.790E-01    5.804E-01    5.818E-01    5.831E-01    5.845E-01    5.859E-01
     5.873E-01    5.886E-01    5.900E-01    5.914E-01    5.928E-01    5.941E-01    5.955E-01    5.969E-01    5.982E-01    5.996E-01
     6.010E-01    6.023E-01    6.037E-01    6.051E-01    6.065E-01    6.078E-01    6.092E-01    6.106E-01    6.119E-01    6.133E-01
     6.147E-01    6.161E-01    6.174E-01    6.188E-01    6.202E-01    6.215E-01    6.229E-01    6.243E-01    6.256E-01    6.270E-01
     6.284E-01    6.298E-01    6.311E-01    6.325E-01    6.339E-01    6.352E-01    6.366E-01    6.380E-01    6.393E-01    6.407E-01
     6.421E-01    6.434E-01    6.448E-01    6.462E-01    6.475E-01    6.489E-01    6.503E-01    6.516E-01    6.530E-01    6.544E-01
     6.557E-01    6.571E-01    6.585E-01    6.598E-01    6.612E-01    6.626E-01    6.639E-01    6.653E-01    6.667E-01    6.680E-01
     6.694E-01    6.708E-01    6.721E-01    6.735E-01    6.749E-01    6.762E-01    6.776E-01    6.790E-01    6.803E-01    6.817E-01
     6.831E-01    6.844E-01    6.858E-01    6.872E-01    6.885E-01    6.899E-01    6.913E-01    6.926E-01    6.940E-01    6.953E-01
     6.967E-01    6.981E-01    6.994E-01    7.008E-01    7.022E-01    7.035E-01    7.049E-01    7.062E-01    7.076E-01    7.090E-01
     7.103E-01    7.117E-01    7.130E-01    7.144E-01    7.158E-01    7.171E-01    7.185E-01    7.199E-01    7.212E-01    7.226E-01
     7.239E-01    7.253E-01    7.267E-01    7.280E-01    7.294E-01    7.307E-01    7.321E-01    7.334E-01    7.348E-01    7.362E-01
     7.375E-01    7.389E-01    7.402E-01    7.416E-01    7.429E-01    7.443E-01    7.457E-01    7.470E-01    7.484E-01    7.497E-01
     7.511E-01    7.524E-01    7.538E-01    7.552E-01    7.565E-01    7.579E-01    7.592E-01    7.606E-01    7.619E-01    7.633E-01
     7.646E-01    7.660E-01    7.673E-01    7.687E-01    7.700E-01    7.714E-01    7.727E-01    7.741E-01    7.755E-01    7.768E-01
     7.782E-01    7.795E-01    7.809E-01    7.822E-01    7.836E-01    7.849E-01    7.863E-01    7.876E-01    7.890E-01    7.903E-01
     7.917E-01    7.930E-01    7.943E-01    7.957E-01    7.970E-01    7.984E-01    7.997E-01    8.011E-01    8.024E-01    8.038E-01
     8.051E-01    8.065E-01    8.078E-01    8.092E-01    8.105E-01    8.119E-01    8.132E-01    8.145E-01    8.159E-01    8.172E-01
     8.186E-01    8.199E-01    8.213E-01    8.226E-01    8.239E-01    8.253E-01    8.266E-01    8.280E-01    8.293E-01    8.306E-01
     8.320E-01    8.333E-01    8.347E-01    8.360E-01    8.373E-01    8.387E-01    8.400E-01    8.414E-01    8.427E-01    8.440E-01
     8.454E-01    8.467E-01    8.481E-01    8.494E-01    8.507E-01    8.521E-01    8.534E-01    8.547E-01    8.561E-01    8.574E-01
     8.587E-01    8.601E-01    8.614E-01    8.627E-01    8.641E-01    8.654E-01    8.667E-01    8.681E-01    8.694E-01    8.707E-01
     8.721E-01    8.734E-01    8.747E-01    8.761E-01    8.774E-01    8.787E-01    8.800E-01    8.814E-01    8.827E-01    8.840E-01
     8.854E-01    8.867E-01    8.880E-01    8.893E-01    8.907E-01    8.920E-01    8.933E-01    8.946E-01    8.960E-01    8.973E-01
     8.986E-01    8.999E-01    9.013E-01    9.026E-01    9.039E-01    9.052E-01    9.065E-01    9.079E-01    9.092E-01    9.105E-01
     9.118E-01    9.132E-01    9.145E-01    9.158E-01    9.171E-01    9.184E-01    9.197E-01    9.211E-01    9.224E-01    9.237E-01
     9.250E-01    9.263E-01    9.277E-01    9.290E-01    9.303E-01    9.316E-01    9.329E-01    9.342E-01    9.355E-01    9.369E-01
     9.382E-01    9.395E-01    9.408E-01    9.421E-01    9.434E-01    9.447E-01    9.460E-01    9.473E-01    9.487E-01    9.500E-01
     9.513E-01    9.526E-01    9.539E-01    9.552E-01    9.565E-01    9.578E-01    9.591E-01    9.604E-01    9.617E-01    9.630E-01
     9.643E-01    9.656E-01    9.669E-01    9.682E-01    9.696E-01    9.709E-01    9.722E-01    9.735E-01    9.748E-01    9.761E-01
     9.774E-01    9.787E-01    9.800E-01    9.813E-01    9.826E-01    9.839E-01    9.852E-01    9.864E-01    9.877E-01    9.890E-01
     9.903E-01    9.916E-01    9.929E-01    9.942E-01    9.955E-01    9.968E-01    9.981E-01    9.994E-01
 Ala      Conc. = 1.95E+03
