 LCModel (Version 6.3-1L) Copyright: S.W. Provencher.          Ref.: Magn. Reson. Med. 30:672-679 (1993).                
 Slice#1 Row#9 Col#1  PD_05_press_2_raw_act
 36 lines in following concentration table = NCONC+1
    Conc.  %SD /Cr+PCr  Metabolite                                         
 4.36E+04  25%   7.141 Ala                                                 
    0.000 999%   0.000 Asp                                                 
    0.000 999%   0.000 Cr                                                  
 6.10E+03  22%   1.000 PCr                                                 
  911.985  85%   0.149 GABA                                                
 1.27E+03  61%   0.208 Glc                                                 
 1.62E+05   6%  26.604 Gln                                                 
 5.96E+03 198%   0.976 Glu                                                 
    0.000 999%   0.000 GPC                                                 
 4.84E+03  10%   0.793 PCh                                                 
    0.000 999%   0.000 GSH                                                 
 4.23E+04  11%   6.935 Ins                                                 
 2.25E+04  49%   3.683 Lac                                                 
 3.50E+03  57%   0.573 NAA                                                 
    0.000 999%   0.000 NAAG                                                
  928.789  26%   0.152+Scyllo                                              
 3.55E+03  35%   0.582 Tau                                                 
 2.08E+03 102%   0.342 -CrCH2                                              
 4.84E+03  10%   0.793 GPC+PCh                                             
 3.50E+03  57%   0.573 NAA+NAAG                                            
 6.10E+03  22%   1.000 Cr+PCr                                              
 1.68E+05   8%  27.581 Glu+Gln                                             
    0.000 999%   0.000 Lip13a                                              
    0.000 999%   0.000 Lip13b                                              
    0.000 999%   0.000 Lip09                                               
 2.00E+04  17%   3.283 MM09                                                
 7.60E+03  39%   1.246 Lip20                                               
 6.33E+04  10%  10.379+MM20                                                
 5.64E+03  36%   0.924 MM12                                                
 4.73E+04  14%   7.752+MM14                                                
 2.87E+04  16%   4.710+MM17                                                
    0.000 999%   0.000 Lip13a+Lip13b                                       
 5.29E+04  13%   8.676 MM14+Lip13a+Lip13b+MM12                             
 2.00E+04  17%   3.283 MM09+Lip09                                          
 7.09E+04   9%  11.624 MM20+Lip20                                          
   6 lines in following misc. output table
  FWHM = 0.168 ppm    S/N =   3                                            
  Data shift = 0.153 ppm                                                   
  Ph:  41 deg     105.0 deg/ppm                                            
  alphaB,S = 8.5E+01,   8.2E+02                                            
    9 spline knots.   Ns = 9(2)                                            
  (11) 2 infls.   ( 1) 1 extrs.                                            
  498 points on ppm-axis = NY
      4.000000     3.992357     3.984714     3.977070     3.969427     3.961784     3.954141     3.946497     3.938854     3.931211
      3.923568     3.915925     3.908281     3.900638     3.892995     3.885352     3.877708     3.870065     3.862422     3.854779
      3.847136     3.839492     3.831849     3.824206     3.816563     3.808919     3.801276     3.793633     3.785990     3.778347
      3.770703     3.763060     3.755417     3.747774     3.740130     3.732487     3.724844     3.717201     3.709558     3.701914
      3.694271     3.686628     3.678985     3.671341     3.663698     3.656055     3.648412     3.640769     3.633125     3.625482
      3.617839     3.610196     3.602552     3.594909     3.587266     3.579623     3.571980     3.564336     3.556693     3.549050
      3.541407     3.533763     3.526120     3.518477     3.510834     3.503191     3.495547     3.487904     3.480261     3.472618
      3.464974     3.457331     3.449688     3.442045     3.434402     3.426758     3.419115     3.411472     3.403829     3.396185
      3.388542     3.380899     3.373256     3.365613     3.357969     3.350326     3.342683     3.335040     3.327396     3.319753
      3.312110     3.304467     3.296824     3.289180     3.281537     3.273894     3.266251     3.258607     3.250964     3.243321
      3.235678     3.228034     3.220391     3.212748     3.205105     3.197462     3.189818     3.182175     3.174532     3.166889
      3.159245     3.151602     3.143959     3.136316     3.128673     3.121029     3.113386     3.105743     3.098100     3.090456
      3.082813     3.075170     3.067527     3.059884     3.052240     3.044597     3.036954     3.029311     3.021667     3.014024
      3.006381     2.998738     2.991095     2.983451     2.975808     2.968165     2.960522     2.952878     2.945235     2.937592
      2.929949     2.922306     2.914662     2.907019     2.899376     2.891733     2.884089     2.876446     2.868803     2.861160
      2.853517     2.845873     2.838230     2.830587     2.822944     2.815300     2.807657     2.800014     2.792371     2.784728
      2.777084     2.769441     2.761798     2.754155     2.746511     2.738868     2.731225     2.723582     2.715939     2.708295
      2.700652     2.693009     2.685366     2.677722     2.670079     2.662436     2.654793     2.647150     2.639506     2.631863
      2.624220     2.616577     2.608933     2.601290     2.593647     2.586004     2.578361     2.570717     2.563074     2.555431
      2.547788     2.540144     2.532501     2.524858     2.517215     2.509572     2.501928     2.494285     2.486642     2.478999
      2.471355     2.463712     2.456069     2.448426     2.440783     2.433139     2.425496     2.417853     2.410210     2.402566
      2.394923     2.387280     2.379637     2.371994     2.364350     2.356707     2.349064     2.341421     2.333777     2.326134
      2.318491     2.310848     2.303205     2.295561     2.287918     2.280275     2.272632     2.264988     2.257345     2.249702
      2.242059     2.234416     2.226772     2.219129     2.211486     2.203843     2.196199     2.188556     2.180913     2.173270
      2.165627     2.157983     2.150340     2.142697     2.135054     2.127410     2.119767     2.112124     2.104481     2.096838
      2.089194     2.081551     2.073908     2.066265     2.058621     2.050978     2.043335     2.035692     2.028049     2.020405
      2.012762     2.005119     1.997476     1.989833     1.982190     1.974546     1.966903     1.959260     1.951617     1.943974
      1.936331     1.928688     1.921045     1.913402     1.905759     1.898115     1.890472     1.882829     1.875186     1.867543
      1.859900     1.852257     1.844614     1.836971     1.829327     1.821684     1.814041     1.806398     1.798755     1.791112
      1.783469     1.775826     1.768183     1.760540     1.752896     1.745253     1.737610     1.729967     1.722324     1.714681
      1.707038     1.699395     1.691752     1.684108     1.676465     1.668822     1.661179     1.653536     1.645893     1.638250
      1.630607     1.622964     1.615321     1.607677     1.600034     1.592391     1.584748     1.577105     1.569462     1.561819
      1.554176     1.546533     1.538890     1.531246     1.523603     1.515960     1.508317     1.500674     1.493031     1.485388
      1.477745     1.470102     1.462458     1.454815     1.447172     1.439529     1.431886     1.424243     1.416600     1.408957
      1.401314     1.393671     1.386027     1.378384     1.370741     1.363098     1.355455     1.347812     1.340169     1.332526
      1.324883     1.317240     1.309596     1.301953     1.294310     1.286667     1.279024     1.271381     1.263738     1.256095
      1.248452     1.240808     1.233165     1.225522     1.217879     1.210236     1.202593     1.194950     1.187307     1.179664
      1.172021     1.164377     1.156734     1.149091     1.141448     1.133805     1.126162     1.118519     1.110876     1.103233
      1.095590     1.087946     1.080303     1.072660     1.065017     1.057374     1.049731     1.042088     1.034445     1.026802
      1.019158     1.011515     1.003872     0.996229     0.988586     0.980943     0.973300     0.965657     0.958014     0.950371
      0.942727     0.935084     0.927441     0.919798     0.912155     0.904512     0.896869     0.889226     0.881583     0.873940
      0.866296     0.858653     0.851010     0.843367     0.835724     0.828081     0.820438     0.812795     0.805152     0.797508
      0.789865     0.782222     0.774579     0.766936     0.759293     0.751650     0.744007     0.736364     0.728721     0.721077
      0.713434     0.705791     0.698148     0.690505     0.682862     0.675219     0.667576     0.659933     0.652290     0.644646
      0.637003     0.629360     0.621717     0.614074     0.606431     0.598788     0.591145     0.583502     0.575858     0.568215
      0.560572     0.552929     0.545286     0.537643     0.530000     0.522357     0.514714     0.507071     0.499427     0.491784
      0.484141     0.476498     0.468855     0.461212     0.453569     0.445925     0.438282     0.430639     0.422996     0.415353
      0.407710     0.400067     0.392424     0.384780     0.377137     0.369494     0.361851     0.354208     0.346565     0.338922
      0.331278     0.323635     0.315992     0.308349     0.300706     0.293063     0.285420     0.277777     0.270133     0.262490
      0.254847     0.247204     0.239561     0.231918     0.224275     0.216631     0.208988     0.201345
 NY phased data points follow
  -1.74933E+01 -1.85724E+01 -2.25605E+01 -1.78558E+01 -1.60135E+01 -1.40761E+01 -1.69824E+01 -1.39712E+01 -1.36874E+01 -1.35804E+01
  -9.81561E+00 -1.39811E+01 -1.26434E+01 -1.39395E+01 -1.85652E+01 -1.31360E+01 -1.40064E+01 -1.33315E+01 -1.68619E+01 -1.66967E+01
  -1.68245E+01 -2.12320E+01 -1.58745E+01 -2.22872E+01 -1.59059E+01 -1.39818E+01 -1.55351E+01 -1.57706E+01 -1.91098E+01 -2.18233E+01
  -1.11765E+01 -1.53175E+01 -1.98484E+01 -1.81067E+01 -1.92718E+01 -1.71493E+01 -1.37608E+01 -2.06187E+01 -1.57379E+01 -1.53875E+01
  -1.48048E+01 -2.29539E+01 -2.23748E+01 -2.01254E+01 -2.04498E+01 -2.78441E+01 -2.29013E+01 -2.61197E+01 -2.20039E+01 -2.62315E+01
  -1.82555E+01 -2.21836E+01 -2.02007E+01 -2.69064E+01 -2.16467E+01 -2.92441E+01 -2.34333E+01 -3.08639E+01 -2.57019E+01 -3.20039E+01
  -3.07005E+01 -2.75405E+01 -2.92798E+01 -3.06837E+01 -3.02075E+01 -3.62627E+01 -3.45276E+01 -3.51092E+01 -3.56885E+01 -3.44871E+01
  -3.79228E+01 -4.08058E+01 -3.64323E+01 -4.11435E+01 -4.20840E+01 -4.54867E+01 -4.17716E+01 -4.23615E+01 -4.00106E+01 -4.38937E+01
  -5.37942E+01 -4.42285E+01 -4.65911E+01 -5.25864E+01 -5.03743E+01 -6.26631E+01 -6.25737E+01 -5.71013E+01 -5.65066E+01 -6.11378E+01
  -6.02735E+01 -6.53057E+01 -6.67156E+01 -7.35338E+01 -7.00246E+01 -7.28238E+01 -7.52246E+01 -8.03598E+01 -8.18850E+01 -8.69371E+01
  -8.72197E+01 -8.39955E+01 -8.54806E+01 -8.78588E+01 -9.22804E+01 -8.78961E+01 -9.97447E+01 -9.61033E+01 -9.97736E+01 -9.45623E+01
  -1.00286E+02 -9.94240E+01 -9.93057E+01 -9.15850E+01 -9.10795E+01 -8.43665E+01 -8.52468E+01 -7.97498E+01 -7.64469E+01 -7.23514E+01
  -7.29566E+01 -7.65416E+01 -7.55531E+01 -6.98070E+01 -6.63001E+01 -6.45593E+01 -6.09446E+01 -6.39357E+01 -6.80416E+01 -6.08831E+01
  -6.55490E+01 -6.99950E+01 -6.40023E+01 -7.06594E+01 -6.57204E+01 -6.67831E+01 -7.37494E+01 -7.40806E+01 -7.35487E+01 -7.62209E+01
  -8.29089E+01 -7.96763E+01 -8.21321E+01 -8.57910E+01 -8.67412E+01 -9.27420E+01 -9.03658E+01 -9.34736E+01 -9.93689E+01 -9.99939E+01
  -1.00004E+02 -1.03811E+02 -1.04840E+02 -1.14463E+02 -1.10646E+02 -1.19298E+02 -1.22829E+02 -1.23871E+02 -1.27382E+02 -1.29175E+02
  -1.28523E+02 -1.30748E+02 -1.30959E+02 -1.38295E+02 -1.39414E+02 -1.37698E+02 -1.26022E+02 -1.30659E+02 -1.25879E+02 -1.18901E+02
  -1.15802E+02 -1.04806E+02 -1.03101E+02 -8.98922E+01 -8.19874E+01 -7.31968E+01 -6.17417E+01 -4.89350E+01 -2.49408E+01 -1.33637E+01
   4.68818E+00  1.77200E+01  3.12385E+01  4.65313E+01  5.98680E+01  7.14948E+01  8.87057E+01  9.47441E+01  1.07130E+02  1.14329E+02
   1.24118E+02  1.33176E+02  1.39749E+02  1.45237E+02  1.50475E+02  1.53712E+02  1.56526E+02  1.68573E+02  1.76074E+02  1.81979E+02
   1.92767E+02  1.96102E+02  2.06986E+02  2.14460E+02  2.20146E+02  2.30048E+02  2.41646E+02  2.55301E+02  2.59695E+02  2.66843E+02
   2.67868E+02  2.78905E+02  2.87966E+02  2.90860E+02  3.00145E+02  3.00016E+02  3.00044E+02  3.01475E+02  2.97111E+02  2.90956E+02
   2.89435E+02  2.87696E+02  2.76479E+02  2.67445E+02  2.59007E+02  2.46775E+02  2.44234E+02  2.27639E+02  2.20125E+02  2.13061E+02
   2.08755E+02  1.99472E+02  1.89195E+02  1.84206E+02  1.67032E+02  1.60811E+02  1.50363E+02  1.46179E+02  1.39912E+02  1.32954E+02
   1.30117E+02  1.20020E+02  1.14606E+02  1.12263E+02  1.12304E+02  1.06030E+02  1.02872E+02  1.00055E+02  9.16892E+01  8.63407E+01
   8.32375E+01  7.70229E+01  7.17819E+01  7.32400E+01  6.66506E+01  6.03025E+01  6.21391E+01  5.63992E+01  5.37097E+01  5.10963E+01
   5.21818E+01  4.61061E+01  4.74509E+01  3.73805E+01  3.95496E+01  3.57811E+01  3.53700E+01  2.70710E+01  3.17689E+01  3.00960E+01
   3.04061E+01  3.77709E+01  3.40479E+01  3.39011E+01  3.95070E+01  3.77696E+01  4.30814E+01  5.13899E+01  5.36556E+01  4.97171E+01
   6.07519E+01  6.61524E+01  6.96730E+01  8.03853E+01  8.30827E+01  9.50425E+01  1.04602E+02  1.07929E+02  1.24559E+02  1.29957E+02
   1.49319E+02  1.53269E+02  1.62155E+02  1.74447E+02  1.87546E+02  1.94686E+02  2.00777E+02  2.10833E+02  2.25265E+02  2.24689E+02
   2.33499E+02  2.36453E+02  2.41213E+02  2.35773E+02  2.27069E+02  2.14689E+02  1.96701E+02  1.80220E+02  1.67246E+02  1.31736E+02
   1.06038E+02  7.69300E+01  4.71750E+01  3.11898E+01  5.45185E-01 -2.69914E+01 -5.85816E+01 -7.82550E+01 -9.75939E+01 -1.16959E+02
  -1.35675E+02 -1.49192E+02 -1.56674E+02 -1.76640E+02 -1.85532E+02 -1.87434E+02 -1.91113E+02 -1.94373E+02 -1.96896E+02 -1.97526E+02
  -1.97531E+02 -1.97442E+02 -1.92871E+02 -1.90628E+02 -1.85665E+02 -1.92021E+02 -1.80356E+02 -1.82512E+02 -1.83736E+02 -1.77507E+02
  -1.76837E+02 -1.76624E+02 -1.73100E+02 -1.62050E+02 -1.69245E+02 -1.58730E+02 -1.56028E+02 -1.58077E+02 -1.46248E+02 -1.42681E+02
  -1.46150E+02 -1.36965E+02 -1.37797E+02 -1.31822E+02 -1.28522E+02 -1.23426E+02 -1.24009E+02 -1.18241E+02 -1.16776E+02 -1.16118E+02
  -1.14329E+02 -1.11033E+02 -1.10013E+02 -1.09387E+02 -1.06464E+02 -1.07981E+02 -1.04786E+02 -1.05316E+02 -1.04145E+02 -1.01148E+02
  -1.03979E+02 -9.92756E+01 -1.02750E+02 -1.00100E+02 -1.02257E+02 -9.83104E+01 -1.01694E+02 -9.62602E+01 -1.02220E+02 -9.58520E+01
  -9.53981E+01 -9.40267E+01 -9.84500E+01 -9.47216E+01 -9.50195E+01 -9.24180E+01 -9.22772E+01 -8.68839E+01 -9.07568E+01 -8.16114E+01
  -8.74522E+01 -8.63054E+01 -7.89557E+01 -7.79439E+01 -7.47371E+01 -7.16625E+01 -7.57220E+01 -8.17584E+01 -7.31815E+01 -7.10725E+01
  -7.52399E+01 -7.03896E+01 -6.67249E+01 -7.19762E+01 -6.69357E+01 -6.57610E+01 -6.37923E+01 -6.26884E+01 -6.10684E+01 -6.12533E+01
  -5.44906E+01 -6.17678E+01 -5.86471E+01 -5.54932E+01 -5.39209E+01 -5.52538E+01 -5.08444E+01 -5.19168E+01 -5.05497E+01 -5.05731E+01
  -4.45034E+01 -4.73794E+01 -4.74896E+01 -4.62249E+01 -3.76082E+01 -4.20338E+01 -4.82001E+01 -4.12395E+01 -4.01734E+01 -3.63129E+01
  -4.12200E+01 -3.51077E+01 -3.70814E+01 -3.61738E+01 -2.99664E+01 -3.09016E+01 -3.07011E+01 -3.01576E+01 -3.21371E+01 -3.05613E+01
  -2.62825E+01 -2.52794E+01 -3.21190E+01 -2.38907E+01 -2.17153E+01 -2.39904E+01 -2.29611E+01 -2.06041E+01 -2.29472E+01 -1.52142E+01
  -2.06006E+01 -1.62908E+01 -2.51420E+01 -1.68150E+01 -1.58527E+01 -1.65309E+01 -1.73750E+01 -1.41361E+01 -1.52340E+01 -1.38937E+01
  -8.18408E+00 -4.74646E+00 -9.13176E+00 -9.30765E+00 -1.44349E+01 -3.22642E+00 -5.77708E+00 -7.75683E+00 -1.70085E+00 -5.15955E+00
  -3.74160E+00 -3.83168E+00 -4.90059E+00 -7.15165E-01  1.48708E+00 -2.27405E+00 -3.09188E+00 -1.17619E+00  5.17201E+00  3.04954E+00
   4.64024E+00  4.48978E+00  4.54238E+00  6.60380E-01  6.52290E+00  7.07844E+00  3.80990E+00  5.19423E+00  8.23771E+00  1.36193E+01
   9.42855E+00  1.25867E+01  1.47697E+01  1.10235E+01  1.33446E+01  1.20209E+01  1.26410E+01  1.92055E+01
 NY points of the fit to the data follow
   1.90275E+01  1.09303E+01  8.89554E+00  1.81410E+00  1.04222E+00 -6.18391E+00 -7.00446E+00 -1.71144E+01 -1.99283E+01 -2.82555E+01
  -2.91521E+01 -3.14553E+01 -2.61318E+01 -2.05316E+01 -1.73845E+01 -1.05387E+01 -1.13706E+01 -5.31583E+00 -1.15512E+01 -4.19380E+00
  -8.89619E+00 -1.39603E+00 -6.74301E+00 -9.39120E-01 -6.32862E+00 -2.28066E+00 -6.45808E+00 -4.08895E+00 -5.75558E+00 -4.33407E+00
  -1.95190E+00  2.89967E-02  4.67778E+00  5.41444E-01  5.58190E+00 -4.00152E+00  2.25464E+00 -1.14335E+01 -3.52994E+00 -1.98275E+01
  -9.99016E+00 -2.68135E+01 -1.53274E+01 -3.19832E+01 -2.05573E+01 -3.88167E+01 -3.05370E+01 -5.29413E+01 -4.81948E+01 -6.66212E+01
  -5.94409E+01 -7.07672E+01 -6.13934E+01 -6.64742E+01 -6.30823E+01 -6.95923E+01 -6.89328E+01 -7.63920E+01 -7.56435E+01 -8.11758E+01
  -7.62901E+01 -8.14780E+01 -7.64472E+01 -8.23312E+01 -7.61373E+01 -8.15131E+01 -7.37919E+01 -7.81811E+01 -6.97223E+01 -7.31104E+01
  -6.44596E+01 -6.75680E+01 -6.09110E+01 -6.72618E+01 -6.26532E+01 -6.91899E+01 -6.38994E+01 -6.89412E+01 -6.18453E+01 -6.44818E+01
  -5.43589E+01 -5.35517E+01 -3.92643E+01 -3.95641E+01 -2.70277E+01 -2.99906E+01 -2.03234E+01 -2.54646E+01 -1.80126E+01 -2.38499E+01
  -1.82306E+01 -2.41121E+01 -2.07556E+01 -2.66083E+01 -2.58489E+01 -3.16834E+01 -3.33881E+01 -3.95338E+01 -4.41911E+01 -5.00495E+01
  -5.68062E+01 -6.15226E+01 -6.96047E+01 -7.24039E+01 -8.09890E+01 -8.14202E+01 -8.97025E+01 -8.72793E+01 -9.48088E+01 -8.94639E+01
  -9.74771E+01 -9.14388E+01 -9.84090E+01 -9.13834E+01 -9.60992E+01 -8.83903E+01 -9.07428E+01 -8.25154E+01 -8.23793E+01 -7.42608E+01
  -7.14389E+01 -6.50305E+01 -6.09049E+01 -6.10554E+01 -6.13437E+01 -6.48859E+01 -6.69257E+01 -7.21975E+01 -7.49478E+01 -8.09765E+01
  -8.37521E+01 -9.02230E+01 -9.24826E+01 -9.87896E+01 -1.00122E+02 -1.05763E+02 -1.05907E+02 -1.10485E+02 -1.09331E+02 -1.12562E+02
  -1.10148E+02 -1.11870E+02 -1.08305E+02 -1.08399E+02 -1.03628E+02 -1.01950E+02 -9.59224E+01 -9.23209E+01 -8.56140E+01 -8.05105E+01
  -7.57739E+01 -7.20572E+01 -6.81708E+01 -6.50115E+01 -6.15804E+01 -5.87334E+01 -5.55955E+01 -5.29240E+01 -4.99746E+01 -4.73649E+01
  -4.44934E+01 -4.18711E+01 -3.90790E+01 -3.64065E+01 -3.36141E+01 -3.08802E+01 -2.81119E+01 -2.54035E+01 -2.26809E+01 -2.00858E+01
  -1.75696E+01 -1.52416E+01 -1.31215E+01 -1.14305E+01 -1.03905E+01 -1.02414E+01 -9.47079E+00 -1.06832E+01 -8.53301E+00 -7.91081E+00
  -2.70251E+00  2.10278E+00  1.26401E+01  2.14379E+01  3.29997E+01  4.16055E+01  5.24847E+01  5.66223E+01  6.27483E+01  6.05135E+01
   6.03248E+01  5.36631E+01  6.15807E+01  6.02503E+01  7.41049E+01  7.67021E+01  9.39953E+01  9.88302E+01  1.17711E+02  1.23870E+02
   1.43801E+02  1.51238E+02  1.71539E+02  1.80050E+02  1.99978E+02  2.09284E+02  2.27521E+02  2.36567E+02  2.52016E+02  2.59879E+02
   2.71444E+02  2.77190E+02  2.83555E+02  2.85733E+02  2.86178E+02  2.83503E+02  2.77516E+02  2.70802E+02  2.67655E+02  2.65091E+02
   2.66613E+02  2.67743E+02  2.70933E+02  2.65582E+02  2.58132E+02  2.44377E+02  2.26940E+02  2.06382E+02  1.81002E+02  1.60050E+02
   1.34762E+02  1.23125E+02  1.13148E+02  1.17952E+02  1.10968E+02  1.23677E+02  1.15717E+02  1.32717E+02  1.21396E+02  1.41164E+02
   1.25954E+02  1.48987E+02  1.30347E+02  1.53503E+02  1.31115E+02  1.53111E+02  1.27346E+02  1.46774E+02  1.18776E+02  1.34994E+02
   1.05979E+02  1.18485E+02  8.94352E+01  9.77039E+01  6.97919E+01  7.40179E+01  4.90372E+01  5.09937E+01  3.75104E+01  4.17208E+01
   3.49364E+01  3.62165E+01  3.03676E+01  2.33696E+01  1.34066E+01  5.61369E+00 -3.27326E+00 -9.01833E+00 -1.29541E+01 -1.38018E+01
  -1.22566E+01 -8.22518E+00 -1.57601E+00  4.16748E+00  1.21898E+01  1.80660E+01  2.63835E+01  3.23136E+01  4.10335E+01  4.88477E+01
   5.83387E+01  6.89605E+01  7.97220E+01  9.03842E+01  1.01347E+02  1.12449E+02  1.23729E+02  1.35019E+02  1.46404E+02  1.57577E+02
   1.68644E+02  1.79219E+02  1.89452E+02  1.98844E+02  2.07571E+02  2.15070E+02  2.21512E+02  2.26350E+02  2.29774E+02  2.31259E+02
   2.31086E+02  2.28832E+02  2.24819E+02  2.18771E+02  2.11080E+02  2.01595E+02  1.90770E+02  1.78542E+02  1.65186E+02  1.48533E+02
   1.22940E+02  1.01330E+02  6.82482E+01  4.49642E+01  8.31688E+00 -1.34864E+01 -4.88331E+01 -5.96008E+01 -9.22321E+01 -9.81798E+01
  -1.28588E+02 -1.31623E+02 -1.58431E+02 -1.58412E+02 -1.79838E+02 -1.76602E+02 -1.91361E+02 -1.85443E+02 -1.93619E+02 -1.90975E+02
  -1.95952E+02 -1.94932E+02 -1.96315E+02 -1.95824E+02 -1.93251E+02 -1.91628E+02 -1.81582E+02 -1.80112E+02 -1.67319E+02 -1.67096E+02
  -1.54052E+02 -1.54868E+02 -1.42615E+02 -1.43726E+02 -1.32586E+02 -1.33218E+02 -1.23938E+02 -1.24113E+02 -1.20056E+02 -1.21774E+02
  -1.30659E+02 -1.32766E+02 -1.43711E+02 -1.41975E+02 -1.52032E+02 -1.43370E+02 -1.49634E+02 -1.30502E+02 -1.35078E+02 -1.18429E+02
  -1.23473E+02 -1.09385E+02 -1.14233E+02 -1.02415E+02 -1.06395E+02 -9.67209E+01 -9.95327E+01 -9.30348E+01 -9.58338E+01 -9.55547E+01
  -1.00532E+02 -1.00273E+02 -1.04092E+02 -1.02356E+02 -1.02959E+02 -9.86822E+01 -9.37450E+01 -8.92761E+01 -8.50672E+01 -8.12701E+01
  -7.76730E+01 -7.44577E+01 -7.14363E+01 -6.88048E+01 -6.63853E+01 -6.43757E+01 -6.25990E+01 -6.12490E+01 -6.01450E+01 -5.94733E+01
  -5.90467E+01 -5.90410E+01 -5.92598E+01 -5.98674E+01 -6.06588E+01 -6.17879E+01 -6.30420E+01 -6.45657E+01 -6.61407E+01 -6.79057E+01
  -6.96408E+01 -7.14828E+01 -7.32136E+01 -7.49716E+01 -7.65444E+01 -7.80757E+01 -7.93620E+01 -8.05551E+01 -8.14617E+01 -8.22420E+01
  -8.27138E+01 -8.30463E+01 -8.30673E+01 -8.29534E+01 -8.25407E+01 -8.20105E+01 -8.12055E+01 -8.03100E+01 -7.91704E+01 -7.79719E+01
  -7.65627E+01 -7.51263E+01 -7.35117E+01 -7.19003E+01 -7.01401E+01 -6.84096E+01 -6.65554E+01 -6.47523E+01 -6.28461E+01 -6.10084E+01
  -5.90834E+01 -5.72397E+01 -5.53204E+01 -5.34916E+01 -5.15958E+01 -4.97968E+01 -4.79366E+01 -4.61769E+01 -4.43596E+01 -4.26451E+01
  -4.08753E+01 -3.92092E+01 -3.74888E+01 -3.58719E+01 -3.42012E+01 -3.26331E+01 -3.10112E+01 -2.94909E+01 -2.79162E+01 -2.64415E+01
  -2.49118E+01 -2.34805E+01 -2.19936E+01 -2.06033E+01 -1.91565E+01 -1.78042E+01 -1.63948E+01 -1.50781E+01 -1.37034E+01 -1.24196E+01
  -1.10768E+01 -9.82300E+00 -8.50938E+00 -7.28304E+00 -5.99596E+00 -4.79424E+00 -3.53078E+00 -2.35088E+00 -1.10838E+00  5.22862E-02
   1.27665E+00  2.42119E+00  3.63056E+00  4.76197E+00  5.95936E+00  7.08081E+00  8.26973E+00  9.38501E+00  1.05693E+01  1.16823E+01
   1.28661E+01  1.39814E+01  1.51698E+01  1.62929E+01  1.74918E+01  1.86292E+01  1.98457E+01  2.10053E+01  2.22485E+01  2.34407E+01
   2.47223E+01  2.59605E+01  2.72962E+01  2.85990E+01  3.00113E+01  3.14059E+01  3.29281E+01  3.44566E+01
 NY background values follow
    -1.168E+02   -1.162E+02   -1.156E+02   -1.150E+02   -1.144E+02   -1.138E+02   -1.132E+02   -1.126E+02   -1.120E+02   -1.114E+02
    -1.108E+02   -1.102E+02   -1.096E+02   -1.090E+02   -1.084E+02   -1.078E+02   -1.073E+02   -1.067E+02   -1.061E+02   -1.055E+02
    -1.049E+02   -1.043E+02   -1.037E+02   -1.032E+02   -1.026E+02   -1.020E+02   -1.014E+02   -1.008E+02   -1.003E+02   -9.968E+01
    -9.910E+01   -9.852E+01   -9.795E+01   -9.737E+01   -9.680E+01   -9.622E+01   -9.565E+01   -9.508E+01   -9.451E+01   -9.394E+01
    -9.337E+01   -9.280E+01   -9.223E+01   -9.166E+01   -9.109E+01   -9.053E+01   -8.996E+01   -8.939E+01   -8.883E+01   -8.827E+01
    -8.770E+01   -8.714E+01   -8.658E+01   -8.602E+01   -8.546E+01   -8.490E+01   -8.434E+01   -8.379E+01   -8.323E+01   -8.267E+01
    -8.212E+01   -8.156E+01   -8.101E+01   -8.046E+01   -7.990E+01   -7.935E+01   -7.880E+01   -7.825E+01   -7.770E+01   -7.715E+01
    -7.661E+01   -7.606E+01   -7.551E+01   -7.497E+01   -7.442E+01   -7.388E+01   -7.333E+01   -7.279E+01   -7.225E+01   -7.171E+01
    -7.117E+01   -7.063E+01   -7.009E+01   -6.955E+01   -6.902E+01   -6.848E+01   -6.794E+01   -6.741E+01   -6.687E+01   -6.634E+01
    -6.581E+01   -6.527E+01   -6.474E+01   -6.421E+01   -6.368E+01   -6.315E+01   -6.262E+01   -6.210E+01   -6.157E+01   -6.104E+01
    -6.052E+01   -5.999E+01   -5.947E+01   -5.895E+01   -5.842E+01   -5.790E+01   -5.738E+01   -5.686E+01   -5.634E+01   -5.582E+01
    -5.531E+01   -5.479E+01   -5.427E+01   -5.376E+01   -5.324E+01   -5.273E+01   -5.221E+01   -5.170E+01   -5.119E+01   -5.068E+01
    -5.017E+01   -4.966E+01   -4.915E+01   -4.864E+01   -4.813E+01   -4.763E+01   -4.712E+01   -4.661E+01   -4.611E+01   -4.561E+01
    -4.510E+01   -4.460E+01   -4.410E+01   -4.360E+01   -4.310E+01   -4.260E+01   -4.210E+01   -4.160E+01   -4.111E+01   -4.061E+01
    -4.011E+01   -3.962E+01   -3.913E+01   -3.863E+01   -3.814E+01   -3.765E+01   -3.716E+01   -3.667E+01   -3.618E+01   -3.569E+01
    -3.520E+01   -3.471E+01   -3.423E+01   -3.374E+01   -3.325E+01   -3.277E+01   -3.229E+01   -3.180E+01   -3.132E+01   -3.084E+01
    -3.036E+01   -2.988E+01   -2.940E+01   -2.892E+01   -2.845E+01   -2.797E+01   -2.749E+01   -2.702E+01   -2.654E+01   -2.607E+01
    -2.559E+01   -2.512E+01   -2.465E+01   -2.418E+01   -2.371E+01   -2.324E+01   -2.277E+01   -2.230E+01   -2.184E+01   -2.137E+01
    -2.090E+01   -2.044E+01   -1.998E+01   -1.951E+01   -1.905E+01   -1.859E+01   -1.813E+01   -1.767E+01   -1.721E+01   -1.675E+01
    -1.629E+01   -1.583E+01   -1.537E+01   -1.492E+01   -1.446E+01   -1.401E+01   -1.356E+01   -1.310E+01   -1.265E+01   -1.220E+01
    -1.175E+01   -1.130E+01   -1.085E+01   -1.040E+01   -9.953E+00   -9.506E+00   -9.060E+00   -8.614E+00   -8.169E+00   -7.725E+00
    -7.282E+00   -6.840E+00   -6.398E+00   -5.957E+00   -5.517E+00   -5.077E+00   -4.638E+00   -4.200E+00   -3.763E+00   -3.327E+00
    -2.891E+00   -2.456E+00   -2.021E+00   -1.588E+00   -1.155E+00   -7.231E-01   -2.918E-01    1.387E-01    5.685E-01    9.976E-01
     1.426E+00    1.853E+00    2.280E+00    2.706E+00    3.132E+00    3.556E+00    3.980E+00    4.403E+00    4.825E+00    5.247E+00
     5.668E+00    6.088E+00    6.507E+00    6.926E+00    7.344E+00    7.761E+00    8.177E+00    8.593E+00    9.007E+00    9.421E+00
     9.835E+00    1.025E+01    1.066E+01    1.107E+01    1.148E+01    1.189E+01    1.230E+01    1.271E+01    1.311E+01    1.352E+01
     1.393E+01    1.433E+01    1.474E+01    1.514E+01    1.554E+01    1.595E+01    1.635E+01    1.675E+01    1.715E+01    1.755E+01
     1.794E+01    1.834E+01    1.874E+01    1.914E+01    1.953E+01    1.993E+01    2.032E+01    2.071E+01    2.110E+01    2.150E+01
     2.189E+01    2.228E+01    2.267E+01    2.306E+01    2.344E+01    2.383E+01    2.422E+01    2.460E+01    2.499E+01    2.537E+01
     2.576E+01    2.614E+01    2.652E+01    2.690E+01    2.728E+01    2.766E+01    2.804E+01    2.842E+01    2.880E+01    2.917E+01
     2.955E+01    2.992E+01    3.030E+01    3.067E+01    3.105E+01    3.142E+01    3.179E+01    3.216E+01    3.253E+01    3.290E+01
     3.327E+01    3.363E+01    3.400E+01    3.437E+01    3.473E+01    3.510E+01    3.546E+01    3.583E+01    3.619E+01    3.655E+01
     3.691E+01    3.727E+01    3.763E+01    3.799E+01    3.835E+01    3.870E+01    3.906E+01    3.942E+01    3.977E+01    4.013E+01
     4.048E+01    4.083E+01    4.118E+01    4.154E+01    4.189E+01    4.224E+01    4.258E+01    4.293E+01    4.328E+01    4.363E+01
     4.397E+01    4.432E+01    4.466E+01    4.501E+01    4.535E+01    4.569E+01    4.603E+01    4.637E+01    4.671E+01    4.705E+01
     4.739E+01    4.773E+01    4.807E+01    4.840E+01    4.874E+01    4.907E+01    4.941E+01    4.974E+01    5.007E+01    5.041E+01
     5.074E+01    5.107E+01    5.140E+01    5.173E+01    5.205E+01    5.238E+01    5.271E+01    5.303E+01    5.336E+01    5.368E+01
     5.401E+01    5.433E+01    5.465E+01    5.497E+01    5.529E+01    5.561E+01    5.593E+01    5.625E+01    5.657E+01    5.688E+01
     5.720E+01    5.752E+01    5.783E+01    5.814E+01    5.846E+01    5.877E+01    5.908E+01    5.939E+01    5.970E+01    6.001E+01
     6.032E+01    6.063E+01    6.094E+01    6.124E+01    6.155E+01    6.185E+01    6.216E+01    6.246E+01    6.276E+01    6.306E+01
     6.337E+01    6.367E+01    6.397E+01    6.426E+01    6.456E+01    6.486E+01    6.516E+01    6.545E+01    6.575E+01    6.604E+01
     6.634E+01    6.663E+01    6.692E+01    6.721E+01    6.750E+01    6.779E+01    6.808E+01    6.837E+01    6.866E+01    6.895E+01
     6.923E+01    6.952E+01    6.980E+01    7.009E+01    7.037E+01    7.065E+01    7.093E+01    7.121E+01    7.149E+01    7.177E+01
     7.205E+01    7.233E+01    7.261E+01    7.288E+01    7.316E+01    7.343E+01    7.371E+01    7.398E+01    7.425E+01    7.453E+01
     7.480E+01    7.507E+01    7.534E+01    7.561E+01    7.587E+01    7.614E+01    7.641E+01    7.667E+01    7.694E+01    7.720E+01
     7.747E+01    7.773E+01    7.799E+01    7.825E+01    7.852E+01    7.878E+01    7.903E+01    7.929E+01    7.955E+01    7.981E+01
     8.006E+01    8.032E+01    8.057E+01    8.083E+01    8.108E+01    8.133E+01    8.159E+01    8.184E+01    8.209E+01    8.234E+01
     8.258E+01    8.283E+01    8.308E+01    8.333E+01    8.357E+01    8.382E+01    8.406E+01    8.430E+01    8.455E+01    8.479E+01
     8.503E+01    8.527E+01    8.551E+01    8.575E+01    8.599E+01    8.623E+01    8.646E+01    8.670E+01    8.693E+01    8.717E+01
     8.740E+01    8.764E+01    8.787E+01    8.810E+01    8.833E+01    8.856E+01    8.879E+01    8.902E+01
 Ala      Conc. = 4.36E+04
