 LCModel (Version 6.3-1L) Copyright: S.W. Provencher.          Ref.: Magn. Reson. Med. 30:672-679 (1993).                
 Slice#1 Row#1 Col#5  PD_05_press_2_raw_act
 36 lines in following concentration table = NCONC+1
    Conc.  %SD /Cr+PCr  Metabolite                                         
    0.000 999%   0.000 Ala                                                 
   37.149  85%   0.208 Asp                                                 
  178.189  70%   1.000 Cr                                                  
    0.000 999%   0.000 PCr                                                 
   21.429  88%   0.120 GABA                                                
   20.705  92%   0.116 Glc                                                 
  324.532 161%   1.821 Gln                                                 
  105.666 546%   0.593 Glu                                                 
   10.743 450% 6.0E-02 GPC                                                 
    0.000 999%   0.000 PCh                                                 
    0.000 999%   0.000 GSH                                                 
  726.984  77%   4.080 Ins                                                 
    0.000 999%   0.000 Lac                                                 
  508.444  31%   2.853 NAA                                                 
    0.000 999%   0.000 NAAG                                                
    6.845  93% 3.8E-02 Scyllo                                              
   34.656  91%   0.194 Tau                                                 
    3.676 999% 2.1E-02 -CrCH2                                              
   10.743 450% 6.0E-02 GPC+PCh                                             
  508.444  31%   2.853 NAA+NAAG                                            
  178.189  70%   1.000 Cr+PCr                                              
  430.198 176%   2.414 Glu+Gln                                             
    0.000 999%   0.000 Lip13a                                              
    0.000 999%   0.000 Lip13b                                              
    0.711 999% 4.0E-03 Lip09                                               
 2.25E+03  17%  12.614 MM09                                                
    0.000 999%   0.000 Lip20                                               
 1.55E+03  45%   8.688 MM20                                                
  700.170  39%   3.929 MM12                                                
  898.950  67%   5.045 MM14                                                
    0.000 999%   0.000 MM17                                                
    0.000 999%   0.000 Lip13a+Lip13b                                       
 1.60E+03  43%   8.974 MM14+Lip13a+Lip13b+MM12                             
 2.25E+03  17%  12.618 MM09+Lip09                                          
 1.55E+03  45%   8.688 MM20+Lip20                                          
   6 lines in following misc. output table
  FWHM = 0.046 ppm    S/N =   1                                            
  Data shift =-0.023 ppm                                                   
  Ph:-147 deg     -27.4 deg/ppm                                            
  alphaB,S = 8.5E+01,   2.4E+01                                            
   14 spline knots.   Ns = 5(1)                                            
   2 inflections.     1 extrema                                            
  498 points on ppm-axis = NY
      4.000000     3.992357     3.984714     3.977070     3.969427     3.961784     3.954141     3.946497     3.938854     3.931211
      3.923568     3.915925     3.908281     3.900638     3.892995     3.885352     3.877708     3.870065     3.862422     3.854779
      3.847136     3.839492     3.831849     3.824206     3.816563     3.808919     3.801276     3.793633     3.785990     3.778347
      3.770703     3.763060     3.755417     3.747774     3.740130     3.732487     3.724844     3.717201     3.709558     3.701914
      3.694271     3.686628     3.678985     3.671341     3.663698     3.656055     3.648412     3.640769     3.633125     3.625482
      3.617839     3.610196     3.602552     3.594909     3.587266     3.579623     3.571980     3.564336     3.556693     3.549050
      3.541407     3.533763     3.526120     3.518477     3.510834     3.503191     3.495547     3.487904     3.480261     3.472618
      3.464974     3.457331     3.449688     3.442045     3.434402     3.426758     3.419115     3.411472     3.403829     3.396185
      3.388542     3.380899     3.373256     3.365613     3.357969     3.350326     3.342683     3.335040     3.327396     3.319753
      3.312110     3.304467     3.296824     3.289180     3.281537     3.273894     3.266251     3.258607     3.250964     3.243321
      3.235678     3.228034     3.220391     3.212748     3.205105     3.197462     3.189818     3.182175     3.174532     3.166889
      3.159245     3.151602     3.143959     3.136316     3.128673     3.121029     3.113386     3.105743     3.098100     3.090456
      3.082813     3.075170     3.067527     3.059884     3.052240     3.044597     3.036954     3.029311     3.021667     3.014024
      3.006381     2.998738     2.991095     2.983451     2.975808     2.968165     2.960522     2.952878     2.945235     2.937592
      2.929949     2.922306     2.914662     2.907019     2.899376     2.891733     2.884089     2.876446     2.868803     2.861160
      2.853517     2.845873     2.838230     2.830587     2.822944     2.815300     2.807657     2.800014     2.792371     2.784728
      2.777084     2.769441     2.761798     2.754155     2.746511     2.738868     2.731225     2.723582     2.715939     2.708295
      2.700652     2.693009     2.685366     2.677722     2.670079     2.662436     2.654793     2.647150     2.639506     2.631863
      2.624220     2.616577     2.608933     2.601290     2.593647     2.586004     2.578361     2.570717     2.563074     2.555431
      2.547788     2.540144     2.532501     2.524858     2.517215     2.509572     2.501928     2.494285     2.486642     2.478999
      2.471355     2.463712     2.456069     2.448426     2.440783     2.433139     2.425496     2.417853     2.410210     2.402566
      2.394923     2.387280     2.379637     2.371994     2.364350     2.356707     2.349064     2.341421     2.333777     2.326134
      2.318491     2.310848     2.303205     2.295561     2.287918     2.280275     2.272632     2.264988     2.257345     2.249702
      2.242059     2.234416     2.226772     2.219129     2.211486     2.203843     2.196199     2.188556     2.180913     2.173270
      2.165627     2.157983     2.150340     2.142697     2.135054     2.127410     2.119767     2.112124     2.104481     2.096838
      2.089194     2.081551     2.073908     2.066265     2.058621     2.050978     2.043335     2.035692     2.028049     2.020405
      2.012762     2.005119     1.997476     1.989833     1.982190     1.974546     1.966903     1.959260     1.951617     1.943974
      1.936331     1.928688     1.921045     1.913402     1.905759     1.898115     1.890472     1.882829     1.875186     1.867543
      1.859900     1.852257     1.844614     1.836971     1.829327     1.821684     1.814041     1.806398     1.798755     1.791112
      1.783469     1.775826     1.768183     1.760540     1.752896     1.745253     1.737610     1.729967     1.722324     1.714681
      1.707038     1.699395     1.691752     1.684108     1.676465     1.668822     1.661179     1.653536     1.645893     1.638250
      1.630607     1.622964     1.615321     1.607677     1.600034     1.592391     1.584748     1.577105     1.569462     1.561819
      1.554176     1.546533     1.538890     1.531246     1.523603     1.515960     1.508317     1.500674     1.493031     1.485388
      1.477745     1.470102     1.462458     1.454815     1.447172     1.439529     1.431886     1.424243     1.416600     1.408957
      1.401314     1.393671     1.386027     1.378384     1.370741     1.363098     1.355455     1.347812     1.340169     1.332526
      1.324883     1.317240     1.309596     1.301953     1.294310     1.286667     1.279024     1.271381     1.263738     1.256095
      1.248452     1.240808     1.233165     1.225522     1.217879     1.210236     1.202593     1.194950     1.187307     1.179664
      1.172021     1.164377     1.156734     1.149091     1.141448     1.133805     1.126162     1.118519     1.110876     1.103233
      1.095590     1.087946     1.080303     1.072660     1.065017     1.057374     1.049731     1.042088     1.034445     1.026802
      1.019158     1.011515     1.003872     0.996229     0.988586     0.980943     0.973300     0.965657     0.958014     0.950371
      0.942727     0.935084     0.927441     0.919798     0.912155     0.904512     0.896869     0.889226     0.881583     0.873940
      0.866296     0.858653     0.851010     0.843367     0.835724     0.828081     0.820438     0.812795     0.805152     0.797508
      0.789865     0.782222     0.774579     0.766936     0.759293     0.751650     0.744007     0.736364     0.728721     0.721077
      0.713434     0.705791     0.698148     0.690505     0.682862     0.675219     0.667576     0.659933     0.652290     0.644646
      0.637003     0.629360     0.621717     0.614074     0.606431     0.598788     0.591145     0.583502     0.575858     0.568215
      0.560572     0.552929     0.545286     0.537643     0.530000     0.522357     0.514714     0.507071     0.499427     0.491784
      0.484141     0.476498     0.468855     0.461212     0.453569     0.445925     0.438282     0.430639     0.422996     0.415353
      0.407710     0.400067     0.392424     0.384780     0.377137     0.369494     0.361851     0.354208     0.346565     0.338922
      0.331278     0.323635     0.315992     0.308349     0.300706     0.293063     0.285420     0.277777     0.270133     0.262490
      0.254847     0.247204     0.239561     0.231918     0.224275     0.216631     0.208988     0.201345
 NY phased data points follow
  -5.10112E+00  2.13367E+01  2.91710E+01  4.06614E+00 -2.20765E+01  2.09705E-02  1.77451E+01  4.10696E+00  9.77479E+00  1.69421E+00
  -9.50906E+00  3.07180E+00  6.95703E+00  2.36599E+01  7.35617E-01 -2.45355E+00  1.64873E+01  1.38400E+01  1.22949E+01  1.83568E+01
   3.03015E+00  9.82185E+00 -5.23075E+00 -2.60510E+01 -1.44802E+01 -4.26484E+00 -2.35648E+01 -1.73317E+00 -5.26980E+00 -1.60913E+01
  -1.26267E+01 -1.56985E+01 -1.74670E+01  3.27749E+00  1.39477E+01  8.13711E+00  3.36991E+00  1.25611E+01  1.09367E+01  2.36305E+00
  -1.36261E+01 -5.15352E+00 -1.11824E+01 -2.75067E+00 -1.78978E+00 -8.61062E+00 -1.66577E+01  9.22176E+00 -1.02240E+01  5.38736E+00
  -1.66202E+01  1.59987E+00  2.26028E+00 -1.16927E+01 -1.10869E+01 -5.22468E-01 -7.07979E+00  5.50526E+00 -1.57131E+01  8.14898E+00
  -2.23052E+01 -1.91107E+01  1.10537E+00 -3.43358E-01  3.81595E+00 -1.29786E+01 -5.53540E+00 -3.86243E+00 -1.73659E+01 -4.09648E+00
  -1.30060E+01 -2.34870E+00  5.61431E+00  1.33279E+01 -8.68222E+00 -9.31945E+00  3.12961E+00  8.86942E+00 -1.00389E+01 -1.71814E+01
  -1.51017E+01  3.75172E+00 -1.67637E+00 -1.02400E+01 -6.03778E+00 -9.85860E+00 -9.69216E+00  1.37797E+00 -1.45387E+00 -2.01737E+01
  -5.00401E+00 -1.09894E+01 -8.65901E+00 -1.42671E+01 -2.68154E+01 -1.39475E+01 -1.71973E+00 -1.95628E+01  5.76549E+00 -1.05698E+01
  -2.43958E-01  5.33009E+00 -4.58559E+00 -3.38199E-01 -3.94406E+00 -1.17195E+01 -1.20457E+01 -7.98693E+00 -9.36894E+00  5.08197E+00
  -4.99136E-01  1.21865E+01 -1.29923E+01  5.50420E+00 -1.09939E+01 -1.39486E+01 -2.71858E+01  1.53534E+00 -2.87308E+01 -8.95219E-01
  -6.50471E+00 -1.00902E+01 -2.59134E+01 -1.28445E+00 -2.53335E+00 -5.79606E+00 -1.68405E+00 -4.25664E+00 -9.33234E+00  1.07553E+00
  -1.59417E+00 -6.86653E+00 -3.25947E+00 -3.11230E+00 -3.70548E+00 -6.67660E-01 -1.22627E+01  6.37607E+00 -1.20705E+01 -8.53563E+00
  -1.02787E+01 -4.86830E+00  8.11615E+00 -3.60511E+00 -2.76378E+00 -2.03197E+01  8.19726E+00 -1.96286E+01 -2.18997E+01 -1.73352E+01
  -1.34195E+01  1.12967E+01 -4.56872E+00 -2.05769E+01 -1.95674E+01 -1.07099E+01 -1.60765E+01 -1.32850E+01 -1.26673E+01 -6.69897E+00
   1.55984E+00 -1.89553E-01 -1.45626E+01 -1.15238E+01 -2.10438E+00 -2.35851E+01 -4.86413E+00 -1.97274E+01 -2.65786E+00 -9.54659E+00
  -2.42081E+01 -1.18759E+01 -1.82237E+01 -7.10200E+00 -1.08129E+01 -1.34965E+00  9.73131E+00 -3.09944E+01  6.42128E+00 -1.20012E+01
  -8.85274E+00 -9.62612E+00 -1.03528E+01 -8.35969E-01 -5.64903E+00 -2.43637E+00 -7.14347E+00 -1.12012E+00  1.32974E+01 -1.05615E+01
  -1.33747E+01 -1.72638E+01  3.87915E+00 -8.13523E+00 -7.17824E+00 -1.49173E+01 -1.93729E+01  7.79008E+00 -8.68420E+00 -6.86042E+00
  -5.66542E-01 -2.53066E+00 -4.14529E-01 -1.50748E+00 -5.87534E+00 -7.01989E-01 -8.96822E+00  5.66411E+00  1.14503E+01 -1.56542E+01
   2.02308E-01 -5.58840E+00  7.18388E+00 -1.85048E+01 -6.47922E+00 -8.01118E+00  1.48622E+00  1.85485E+00 -9.69850E+00 -1.89848E+01
  -5.00195E+00  1.07960E+00  6.14250E+00 -1.14168E+01  2.93105E+00  6.94508E+00 -2.02043E+01 -1.99896E+01  1.08438E+01 -1.81616E+01
  -5.82851E+00 -8.83157E+00  1.20647E+01 -1.53769E+01  6.82242E+00  3.22494E+00  2.74458E+00 -3.74142E+00 -9.53373E-01 -4.99252E-01
   1.61528E+00  6.67980E+00  1.21747E+01  1.57024E+01 -5.88557E-01  9.11402E+00  6.98144E+00  5.66360E+00  6.34367E+00 -3.53275E+00
   1.46134E+00  1.15678E+01  7.43199E+00 -6.58999E+00 -2.10832E+01 -2.06321E+01  1.45629E+00  5.70553E+00  1.57804E+01  4.05212E+00
   1.07394E+01  7.74168E+00  2.87844E+01  3.38217E+01  1.00287E+01  9.94240E+00 -3.76103E+00 -7.74966E+00 -4.40901E+00  3.53501E+00
   5.73288E+00  2.02512E+01 -1.31258E+01 -1.02372E+01  1.04421E+01 -1.51387E+01 -2.27766E+00 -1.57606E+01 -1.67716E+01  4.31210E+00
  -8.31331E+00 -5.50389E+00 -2.23766E+01 -1.13722E+01 -8.04009E+00 -4.89979E+00 -1.92223E+01 -4.99884E+00 -7.87574E+00  4.70709E+00
  -9.02462E+00  7.42418E+00 -1.01158E+01 -9.45200E+00 -3.44610E-01  3.89107E+00 -2.37774E+00  4.73202E-01  4.82020E+00 -9.12954E+00
   1.99646E+00 -8.85960E+00 -2.35504E+01 -1.91234E+01 -1.73236E+01 -3.52884E+01 -1.39061E+01 -1.48954E+01 -8.90031E+00 -1.94547E+00
  -2.80473E+01  1.21805E+01 -2.37089E+01  2.09358E+01  3.79064E+00  3.92762E+00 -1.48089E+01  1.23009E+01  1.12966E+01  1.28555E+01
   1.39743E+01 -3.12670E+00  1.60406E+01 -1.96619E+01  1.35252E+01 -1.23066E+01 -2.05823E+00  1.32885E+01 -2.46504E-01  5.65964E+00
  -1.21834E+01 -1.36917E+01  1.37749E+01 -6.05075E+00  1.06231E+01  2.57762E-01 -7.29964E-01  9.26442E+00 -8.66321E+00  2.01189E+00
  -1.62359E+01 -7.72294E+00 -2.27726E+00 -1.38730E+00 -8.55007E-01  5.92202E+00 -1.12367E+01 -4.14188E+00 -6.87910E+00  1.32894E+00
   1.33167E+01 -2.16568E+01  1.05857E+01  1.93284E-01  1.63139E+00 -6.54350E+00  1.92394E+00  1.04853E+01 -1.53126E+01 -1.64426E+01
   8.56357E-01 -8.81914E-01  1.92712E+01  3.19534E+00  5.90402E+00  1.38147E+01 -2.24537E+00 -3.41490E+00 -2.15917E+01 -2.06239E+01
   1.68345E+00 -9.78458E-01  1.07887E+00  9.59772E+00  4.64716E+00  3.69810E+00  7.21775E+00  2.11938E+00 -1.78145E+01  2.12561E+00
   1.11297E+01  2.33616E+01  7.96043E+00 -1.44915E+00  2.25430E+01 -6.59335E+00  8.20445E+00  6.95475E+00  2.01199E+01  1.14190E+01
   8.62695E+00  1.53855E+01  4.84972E+00  3.10560E+01  2.16287E+01  1.18984E+01  2.46283E+01  1.51292E+01  2.06979E+01  1.71081E+01
   1.35850E+01  2.22531E+01  1.26040E+01  1.01775E+01  3.07360E+01  9.71009E+00  2.77541E+01 -6.59276E+00  9.89269E+00 -3.51979E+00
   1.01347E+01  1.19508E+01 -9.93777E+00 -6.80408E+00  2.32812E+01  1.23220E+01  2.45206E-01 -2.07534E+00 -9.19860E+00  1.61028E+01
   1.49480E+01  4.27234E-01 -1.50019E+01  5.62233E+00  6.77567E+00 -6.47808E+00  1.28988E+00  4.76788E-01 -2.91260E+00  1.67791E+01
   7.54055E+00 -1.62629E+00  1.36750E+01  2.28917E+00  2.20838E+01  3.61876E+00 -8.77968E+00  2.74240E+00  1.05096E+01  1.12567E+00
   2.08613E+01 -8.22897E+00 -1.17569E+00  2.01177E+00 -4.12210E+00  9.66922E+00  4.05370E+00  4.59210E+00 -1.27505E+00 -1.34541E+01
   1.59966E+01 -2.05412E+00 -1.42967E-01  5.65796E+00  6.76444E+00 -1.76572E+01 -1.90102E+01 -5.21985E+00 -8.00496E+00 -1.65535E+01
  -4.47143E+00 -1.72458E+00 -1.15896E+01  1.01376E+01 -6.62273E+00  2.02866E+00 -2.10004E+01  1.02095E+01 -6.46546E+00 -1.66213E+00
  -6.22021E+00 -3.81589E+00 -1.05610E+01 -6.23716E+00 -6.75826E+00  2.63200E+00 -2.54562E+01 -1.27190E-01 -9.34194E+00 -2.39736E-01
  -1.79274E+01  2.65846E+00 -8.25580E+00 -1.29269E+01  1.23475E+01 -1.50227E+01  5.17607E+00  5.20032E+00 -4.76018E+00 -8.84925E+00
  -1.56936E-01  8.16877E+00  6.30696E+00 -1.74063E+00  5.35677E+00 -1.67458E+00 -2.96704E+00  3.84041E+00
 NY points of the fit to the data follow
  -3.33600E+00 -3.93911E+00 -4.46476E+00 -4.76837E+00 -4.90641E+00 -4.95134E+00 -4.83828E+00 -4.50583E+00 -4.03646E+00 -3.49944E+00
  -2.84413E+00 -2.02656E+00 -1.17570E+00 -6.11758E-01 -6.70839E-01 -1.44234E+00 -2.68335E+00 -3.91687E+00 -4.62352E+00 -4.80506E+00
  -4.82971E+00 -4.80444E+00 -4.76293E+00 -4.71848E+00 -4.68552E+00 -4.69931E+00 -4.79665E+00 -4.95715E+00 -5.10684E+00 -5.17664E+00
  -5.08629E+00 -4.75030E+00 -4.16766E+00 -3.51334E+00 -3.04110E+00 -2.93005E+00 -3.21312E+00 -3.76422E+00 -4.34928E+00 -4.73150E+00
  -4.91980E+00 -5.03840E+00 -5.02736E+00 -4.73627E+00 -4.11877E+00 -3.25989E+00 -2.24119E+00 -1.09717E+00  7.02969E-02  9.14194E-01
   9.58476E-01 -5.74444E-02 -1.92420E+00 -4.00318E+00 -5.46607E+00 -5.87060E+00 -5.52043E+00 -4.90699E+00 -4.26109E+00 -3.63072E+00
  -3.04355E+00 -2.56599E+00 -2.31124E+00 -2.37905E+00 -2.80675E+00 -3.50780E+00 -4.19069E+00 -4.55851E+00 -4.53597E+00 -4.19465E+00
  -3.73276E+00 -3.28868E+00 -2.93791E+00 -2.71836E+00 -2.63148E+00 -2.68155E+00 -2.85457E+00 -3.11734E+00 -3.41017E+00 -3.62037E+00
  -3.75972E+00 -3.85944E+00 -3.93309E+00 -4.01832E+00 -4.15997E+00 -4.37012E+00 -4.65484E+00 -5.03849E+00 -5.51988E+00 -6.01586E+00
  -6.37782E+00 -6.45308E+00 -6.16555E+00 -5.59818E+00 -5.00559E+00 -4.57845E+00 -4.37757E+00 -4.36056E+00 -4.47010E+00 -4.67433E+00
  -4.93248E+00 -5.14200E+00 -5.20583E+00 -5.07707E+00 -4.82125E+00 -4.60478E+00 -4.51730E+00 -4.56917E+00 -4.69350E+00 -4.78544E+00
  -4.76976E+00 -4.71755E+00 -4.66784E+00 -4.60518E+00 -4.54295E+00 -4.48425E+00 -4.43876E+00 -4.40651E+00 -4.38382E+00 -4.36350E+00
  -4.33210E+00 -4.24345E+00 -3.93574E+00 -3.31204E+00 -2.48503E+00 -1.53516E+00 -3.89883E-01  9.69704E-01  2.29947E+00  3.10206E+00
   2.91302E+00  1.66962E+00 -2.32103E-01 -2.08036E+00 -3.12899E+00 -3.47924E+00 -3.64402E+00 -3.74968E+00 -3.82366E+00 -3.88017E+00
  -3.92786E+00 -3.97395E+00 -4.02380E+00 -4.07698E+00 -4.13340E+00 -4.18567E+00 -4.22490E+00 -4.25604E+00 -4.29218E+00 -4.34577E+00
  -4.41310E+00 -4.47926E+00 -4.53253E+00 -4.56672E+00 -4.58886E+00 -4.61201E+00 -4.65322E+00 -4.71977E+00 -4.80118E+00 -4.88910E+00
  -4.98137E+00 -5.08461E+00 -5.19102E+00 -5.25410E+00 -5.22125E+00 -5.09074E+00 -4.92671E+00 -4.83439E+00 -4.89690E+00 -5.07378E+00
  -5.27500E+00 -5.44004E+00 -5.53957E+00 -5.60710E+00 -5.66761E+00 -5.72929E+00 -5.80393E+00 -5.86997E+00 -5.87461E+00 -5.78973E+00
  -5.65158E+00 -5.53675E+00 -5.50923E+00 -5.56882E+00 -5.61664E+00 -5.55522E+00 -5.42684E+00 -5.30086E+00 -5.21220E+00 -5.10924E+00
  -4.93548E+00 -4.72057E+00 -4.53878E+00 -4.47678E+00 -4.57180E+00 -4.73724E+00 -4.86548E+00 -4.91473E+00 -4.86908E+00 -4.73148E+00
  -4.50328E+00 -4.17464E+00 -3.73948E+00 -3.24967E+00 -2.82417E+00 -2.66370E+00 -2.89736E+00 -3.47813E+00 -4.29415E+00 -5.22421E+00
  -6.10013E+00 -6.68168E+00 -6.75485E+00 -6.26180E+00 -5.34993E+00 -4.26683E+00 -3.32234E+00 -2.80105E+00 -2.64912E+00 -2.68691E+00
  -2.89534E+00 -3.18022E+00 -3.40355E+00 -3.47335E+00 -3.38767E+00 -3.16733E+00 -2.84936E+00 -2.51177E+00 -2.24161E+00 -2.09564E+00
  -2.05925E+00 -2.09063E+00 -2.15304E+00 -2.20052E+00 -2.19026E+00 -2.12750E+00 -2.01420E+00 -1.81718E+00 -1.50240E+00 -1.02108E+00
  -3.72242E-01  3.18388E-01  8.09086E-01  8.83995E-01  5.93248E-01  1.38465E-01 -2.83578E-01 -4.98954E-01 -4.11451E-01 -8.92511E-02
   2.89882E-01  7.04542E-01  1.11492E+00  1.45649E+00  1.74790E+00  2.34129E+00  3.63694E+00  5.44034E+00  7.52791E+00  1.01249E+01
   1.34659E+01  1.70938E+01  1.97143E+01  1.98441E+01  1.69116E+01  1.17146E+01  6.08620E+00  2.33627E+00  9.29334E-01  2.69430E-01
  -1.87480E-01 -5.43571E-01 -8.35152E-01 -1.07851E+00 -1.27624E+00 -1.43840E+00 -1.58188E+00 -1.72295E+00 -1.87001E+00 -2.02762E+00
  -2.19152E+00 -2.35245E+00 -2.50388E+00 -2.63903E+00 -2.75358E+00 -2.84879E+00 -2.92705E+00 -2.99128E+00 -3.04653E+00 -3.09620E+00
  -3.14287E+00 -3.18808E+00 -3.23070E+00 -3.26910E+00 -3.30343E+00 -3.33406E+00 -3.35992E+00 -3.37998E+00 -3.39452E+00 -3.40369E+00
  -3.40723E+00 -3.40606E+00 -3.40038E+00 -3.39005E+00 -3.37473E+00 -3.35396E+00 -3.32719E+00 -3.29398E+00 -3.25390E+00 -3.20646E+00
  -3.15097E+00 -3.08667E+00 -3.01286E+00 -2.92884E+00 -2.83409E+00 -2.72813E+00 -2.61053E+00 -2.48097E+00 -2.33948E+00 -2.18640E+00
  -2.02235E+00 -1.84819E+00 -1.66504E+00 -1.47441E+00 -1.27823E+00 -1.07877E+00 -8.78569E-01 -6.80279E-01 -4.86702E-01 -3.00775E-01
  -1.25474E-01  3.63463E-02  1.82153E-01  3.09807E-01  4.17586E-01  5.04206E-01  5.68912E-01  6.11588E-01  6.32821E-01  6.33852E-01
   6.16464E-01  5.82886E-01  5.35774E-01  4.78168E-01  4.13388E-01  3.44847E-01  2.75878E-01  2.09608E-01  1.48911E-01  9.63453E-02
   5.40479E-02  2.35874E-02  5.89131E-03  1.25534E-03  9.41612E-03  2.95939E-02  6.05055E-02  1.00373E-01  1.47029E-01  1.98071E-01
   2.51059E-01  3.03617E-01  3.53530E-01  3.98830E-01  4.37955E-01  4.69911E-01  4.94406E-01  5.11878E-01  5.23503E-01  5.31211E-01
   5.37753E-01  5.46738E-01  5.62615E-01  5.90576E-01  6.36462E-01  7.06700E-01  8.08261E-01  9.48551E-01  1.13523E+00  1.37593E+00
   1.67802E+00  2.04824E+00  2.49247E+00  3.01523E+00  3.61922E+00  4.30481E+00  5.06953E+00  5.90778E+00  6.81056E+00  7.76525E+00
   8.75569E+00  9.76234E+00  1.07629E+01  1.17329E+01  1.26470E+01  1.34796E+01  1.42066E+01  1.48060E+01  1.52595E+01  1.55533E+01
   1.56791E+01  1.56340E+01  1.54210E+01  1.50487E+01  1.45306E+01  1.38843E+01  1.31308E+01  1.22926E+01  1.13934E+01  1.04561E+01
   9.50275E+00  8.55312E+00  7.62437E+00  6.73058E+00  5.88268E+00  5.08849E+00  4.35300E+00  3.67863E+00  3.06565E+00  2.51253E+00
   2.01642E+00  1.57360E+00  1.17981E+00  8.30518E-01  5.21125E-01  2.47141E-01  4.34976E-03 -2.11097E-01 -4.02650E-01 -5.73399E-01
  -7.26084E-01 -8.63109E-01 -9.86524E-01 -1.09806E+00 -1.19919E+00 -1.29121E+00 -1.37524E+00 -1.45224E+00 -1.52301E+00 -1.58821E+00
  -1.64841E+00 -1.70415E+00 -1.75590E+00 -1.80406E+00 -1.84894E+00 -1.89083E+00 -1.92996E+00 -1.96662E+00 -2.00102E+00 -2.03336E+00
  -2.06376E+00 -2.09236E+00 -2.11929E+00 -2.14472E+00 -2.16875E+00 -2.19148E+00 -2.21296E+00 -2.23327E+00 -2.25250E+00 -2.27076E+00
  -2.28810E+00 -2.30455E+00 -2.32015E+00 -2.33496E+00 -2.34903E+00 -2.36244E+00 -2.37521E+00 -2.38735E+00 -2.39887E+00 -2.40983E+00
  -2.42029E+00 -2.43028E+00 -2.43980E+00 -2.44885E+00 -2.45745E+00 -2.46565E+00 -2.47350E+00 -2.48100E+00 -2.48813E+00 -2.49491E+00
  -2.50135E+00 -2.50752E+00 -2.51343E+00 -2.51906E+00 -2.52442E+00 -2.52949E+00 -2.53434E+00 -2.53898E+00 -2.54343E+00 -2.54767E+00
  -2.55168E+00 -2.55549E+00 -2.55914E+00 -2.56266E+00 -2.56603E+00 -2.56923E+00 -2.57226E+00 -2.57516E+00
 NY background values follow
    -5.673E+00   -5.668E+00   -5.663E+00   -5.658E+00   -5.653E+00   -5.648E+00   -5.644E+00   -5.639E+00   -5.634E+00   -5.629E+00
    -5.624E+00   -5.619E+00   -5.614E+00   -5.609E+00   -5.605E+00   -5.600E+00   -5.595E+00   -5.590E+00   -5.585E+00   -5.580E+00
    -5.575E+00   -5.571E+00   -5.566E+00   -5.561E+00   -5.556E+00   -5.551E+00   -5.546E+00   -5.541E+00   -5.536E+00   -5.532E+00
    -5.527E+00   -5.522E+00   -5.517E+00   -5.512E+00   -5.507E+00   -5.502E+00   -5.498E+00   -5.493E+00   -5.488E+00   -5.483E+00
    -5.478E+00   -5.473E+00   -5.468E+00   -5.463E+00   -5.459E+00   -5.454E+00   -5.449E+00   -5.444E+00   -5.439E+00   -5.434E+00
    -5.429E+00   -5.424E+00   -5.420E+00   -5.415E+00   -5.410E+00   -5.405E+00   -5.400E+00   -5.395E+00   -5.390E+00   -5.385E+00
    -5.380E+00   -5.376E+00   -5.371E+00   -5.366E+00   -5.361E+00   -5.356E+00   -5.351E+00   -5.346E+00   -5.341E+00   -5.337E+00
    -5.332E+00   -5.327E+00   -5.322E+00   -5.317E+00   -5.312E+00   -5.307E+00   -5.302E+00   -5.297E+00   -5.293E+00   -5.288E+00
    -5.283E+00   -5.278E+00   -5.273E+00   -5.268E+00   -5.263E+00   -5.258E+00   -5.253E+00   -5.249E+00   -5.244E+00   -5.239E+00
    -5.234E+00   -5.229E+00   -5.224E+00   -5.219E+00   -5.214E+00   -5.209E+00   -5.205E+00   -5.200E+00   -5.195E+00   -5.190E+00
    -5.185E+00   -5.180E+00   -5.175E+00   -5.170E+00   -5.165E+00   -5.160E+00   -5.156E+00   -5.151E+00   -5.146E+00   -5.141E+00
    -5.136E+00   -5.131E+00   -5.126E+00   -5.121E+00   -5.116E+00   -5.111E+00   -5.107E+00   -5.102E+00   -5.097E+00   -5.092E+00
    -5.087E+00   -5.082E+00   -5.077E+00   -5.072E+00   -5.067E+00   -5.062E+00   -5.058E+00   -5.053E+00   -5.048E+00   -5.043E+00
    -5.038E+00   -5.033E+00   -5.028E+00   -5.023E+00   -5.018E+00   -5.013E+00   -5.009E+00   -5.004E+00   -4.999E+00   -4.994E+00
    -4.989E+00   -4.984E+00   -4.979E+00   -4.974E+00   -4.969E+00   -4.964E+00   -4.959E+00   -4.955E+00   -4.950E+00   -4.945E+00
    -4.940E+00   -4.935E+00   -4.930E+00   -4.925E+00   -4.920E+00   -4.915E+00   -4.910E+00   -4.905E+00   -4.901E+00   -4.896E+00
    -4.891E+00   -4.886E+00   -4.881E+00   -4.876E+00   -4.871E+00   -4.866E+00   -4.861E+00   -4.856E+00   -4.851E+00   -4.847E+00
    -4.842E+00   -4.837E+00   -4.832E+00   -4.827E+00   -4.822E+00   -4.817E+00   -4.812E+00   -4.807E+00   -4.802E+00   -4.797E+00
    -4.792E+00   -4.788E+00   -4.783E+00   -4.778E+00   -4.773E+00   -4.768E+00   -4.763E+00   -4.758E+00   -4.753E+00   -4.748E+00
    -4.743E+00   -4.738E+00   -4.733E+00   -4.729E+00   -4.724E+00   -4.719E+00   -4.714E+00   -4.709E+00   -4.704E+00   -4.699E+00
    -4.694E+00   -4.689E+00   -4.684E+00   -4.679E+00   -4.674E+00   -4.670E+00   -4.665E+00   -4.660E+00   -4.655E+00   -4.650E+00
    -4.645E+00   -4.640E+00   -4.635E+00   -4.630E+00   -4.625E+00   -4.620E+00   -4.615E+00   -4.610E+00   -4.606E+00   -4.601E+00
    -4.596E+00   -4.591E+00   -4.586E+00   -4.581E+00   -4.576E+00   -4.571E+00   -4.566E+00   -4.561E+00   -4.556E+00   -4.551E+00
    -4.546E+00   -4.542E+00   -4.537E+00   -4.532E+00   -4.527E+00   -4.522E+00   -4.517E+00   -4.512E+00   -4.507E+00   -4.502E+00
    -4.497E+00   -4.492E+00   -4.487E+00   -4.482E+00   -4.477E+00   -4.473E+00   -4.468E+00   -4.463E+00   -4.458E+00   -4.453E+00
    -4.448E+00   -4.443E+00   -4.438E+00   -4.433E+00   -4.428E+00   -4.423E+00   -4.418E+00   -4.413E+00   -4.408E+00   -4.404E+00
    -4.399E+00   -4.394E+00   -4.389E+00   -4.384E+00   -4.379E+00   -4.374E+00   -4.369E+00   -4.364E+00   -4.359E+00   -4.354E+00
    -4.349E+00   -4.344E+00   -4.339E+00   -4.335E+00   -4.330E+00   -4.325E+00   -4.320E+00   -4.315E+00   -4.310E+00   -4.305E+00
    -4.300E+00   -4.295E+00   -4.290E+00   -4.285E+00   -4.280E+00   -4.275E+00   -4.270E+00   -4.266E+00   -4.261E+00   -4.256E+00
    -4.251E+00   -4.246E+00   -4.241E+00   -4.236E+00   -4.231E+00   -4.226E+00   -4.221E+00   -4.216E+00   -4.211E+00   -4.206E+00
    -4.201E+00   -4.196E+00   -4.192E+00   -4.187E+00   -4.182E+00   -4.177E+00   -4.172E+00   -4.167E+00   -4.162E+00   -4.157E+00
    -4.152E+00   -4.147E+00   -4.142E+00   -4.137E+00   -4.132E+00   -4.127E+00   -4.122E+00   -4.118E+00   -4.113E+00   -4.108E+00
    -4.103E+00   -4.098E+00   -4.093E+00   -4.088E+00   -4.083E+00   -4.078E+00   -4.073E+00   -4.068E+00   -4.063E+00   -4.058E+00
    -4.053E+00   -4.049E+00   -4.044E+00   -4.039E+00   -4.034E+00   -4.029E+00   -4.024E+00   -4.019E+00   -4.014E+00   -4.009E+00
    -4.004E+00   -3.999E+00   -3.994E+00   -3.989E+00   -3.984E+00   -3.979E+00   -3.975E+00   -3.970E+00   -3.965E+00   -3.960E+00
    -3.955E+00   -3.950E+00   -3.945E+00   -3.940E+00   -3.935E+00   -3.930E+00   -3.925E+00   -3.920E+00   -3.915E+00   -3.910E+00
    -3.905E+00   -3.901E+00   -3.896E+00   -3.891E+00   -3.886E+00   -3.881E+00   -3.876E+00   -3.871E+00   -3.866E+00   -3.861E+00
    -3.856E+00   -3.851E+00   -3.846E+00   -3.841E+00   -3.836E+00   -3.831E+00   -3.827E+00   -3.822E+00   -3.817E+00   -3.812E+00
    -3.807E+00   -3.802E+00   -3.797E+00   -3.792E+00   -3.787E+00   -3.782E+00   -3.777E+00   -3.772E+00   -3.767E+00   -3.762E+00
    -3.758E+00   -3.753E+00   -3.748E+00   -3.743E+00   -3.738E+00   -3.733E+00   -3.728E+00   -3.723E+00   -3.718E+00   -3.713E+00
    -3.708E+00   -3.703E+00   -3.698E+00   -3.693E+00   -3.689E+00   -3.684E+00   -3.679E+00   -3.674E+00   -3.669E+00   -3.664E+00
    -3.659E+00   -3.654E+00   -3.649E+00   -3.644E+00   -3.639E+00   -3.634E+00   -3.629E+00   -3.624E+00   -3.620E+00   -3.615E+00
    -3.610E+00   -3.605E+00   -3.600E+00   -3.595E+00   -3.590E+00   -3.585E+00   -3.580E+00   -3.575E+00   -3.570E+00   -3.565E+00
    -3.560E+00   -3.555E+00   -3.551E+00   -3.546E+00   -3.541E+00   -3.536E+00   -3.531E+00   -3.526E+00   -3.521E+00   -3.516E+00
    -3.511E+00   -3.506E+00   -3.501E+00   -3.496E+00   -3.491E+00   -3.487E+00   -3.482E+00   -3.477E+00   -3.472E+00   -3.467E+00
    -3.462E+00   -3.457E+00   -3.452E+00   -3.447E+00   -3.442E+00   -3.437E+00   -3.432E+00   -3.427E+00   -3.423E+00   -3.418E+00
    -3.413E+00   -3.408E+00   -3.403E+00   -3.398E+00   -3.393E+00   -3.388E+00   -3.383E+00   -3.378E+00   -3.373E+00   -3.368E+00
    -3.363E+00   -3.359E+00   -3.354E+00   -3.349E+00   -3.344E+00   -3.339E+00   -3.334E+00   -3.329E+00   -3.324E+00   -3.319E+00
    -3.314E+00   -3.309E+00   -3.304E+00   -3.300E+00   -3.295E+00   -3.290E+00   -3.285E+00   -3.280E+00   -3.275E+00   -3.270E+00
    -3.265E+00   -3.260E+00   -3.255E+00   -3.250E+00   -3.245E+00   -3.241E+00   -3.236E+00   -3.231E+00
 Asp      Conc. = 3.71E+01
