 LCModel (Version 6.3-1L) Copyright: S.W. Provencher.          Ref.: Magn. Reson. Med. 30:672-679 (1993).                
 Slice#1 Row#11 Col#9  PD_05_press_2_raw_act
 36 lines in following concentration table = NCONC+1
    Conc.  %SD /Cr+PCr  Metabolite                                         
    5.961 517% 9.1E-02 Ala                                                 
   10.855 137%   0.165 Asp                                                 
    0.000 999%   0.000 Cr                                                  
   65.719  30%   1.000 PCr                                                 
    8.387 106%   0.128 GABA                                                
    8.487 105%   0.129 Glc                                                 
   85.159  74%   1.296 Gln                                                 
   52.863 128%   0.804 Glu                                                 
   30.169  28%   0.459 GPC                                                 
    0.000 999%   0.000 PCh                                                 
    0.000 999%   0.000 GSH                                                 
   51.712 144%   0.787 Ins                                                 
    0.000 999%   0.000 Lac                                                 
  100.888  25%   1.535 NAA                                                 
    0.000 999%   0.000 NAAG                                                
    3.713  78% 5.6E-02 Scyllo                                              
   18.829  78%   0.287 Tau                                                 
    0.000 999%   0.000 -CrCH2                                              
   30.169  28%   0.459 GPC+PCh                                             
  100.888  25%   1.535 NAA+NAAG                                            
   65.719  30%   1.000 Cr+PCr                                              
  138.021  61%   2.100 Glu+Gln                                             
 1.44E+03  10%  21.867 Lip13a                                              
    0.000 999%   0.000 Lip13b                                              
  383.694  10%   5.838 Lip09                                               
    0.000 999%   0.000 MM09                                                
  215.558  10%   3.280 Lip20                                               
    0.000 999%   0.000 MM20                                                
    0.000 999%   0.000 MM12                                                
   90.026 104%   1.370 MM14                                                
   44.066 129%   0.671 MM17                                                
 1.44E+03  10%  21.867 Lip13a+Lip13b                                       
 1.53E+03   9%  23.237 MM14+Lip13a+Lip13b+MM12                             
  383.694  10%   5.838 MM09+Lip09                                          
  215.558  10%   3.280 MM20+Lip20                                          
   6 lines in following misc. output table
  FWHM = 0.046 ppm    S/N =   2                                            
  Data shift =-0.023 ppm                                                   
  Ph:  61 deg     -15.8 deg/ppm                                            
  alphaB,S = 8.5E+01,   1.2E+01                                            
   14 spline knots.   Ns = 5(1)                                            
   1 inflections.     2 extrema                                            
  498 points on ppm-axis = NY
      4.000000     3.992357     3.984714     3.977070     3.969427     3.961784     3.954141     3.946497     3.938854     3.931211
      3.923568     3.915925     3.908281     3.900638     3.892995     3.885352     3.877708     3.870065     3.862422     3.854779
      3.847136     3.839492     3.831849     3.824206     3.816563     3.808919     3.801276     3.793633     3.785990     3.778347
      3.770703     3.763060     3.755417     3.747774     3.740130     3.732487     3.724844     3.717201     3.709558     3.701914
      3.694271     3.686628     3.678985     3.671341     3.663698     3.656055     3.648412     3.640769     3.633125     3.625482
      3.617839     3.610196     3.602552     3.594909     3.587266     3.579623     3.571980     3.564336     3.556693     3.549050
      3.541407     3.533763     3.526120     3.518477     3.510834     3.503191     3.495547     3.487904     3.480261     3.472618
      3.464974     3.457331     3.449688     3.442045     3.434402     3.426758     3.419115     3.411472     3.403829     3.396185
      3.388542     3.380899     3.373256     3.365613     3.357969     3.350326     3.342683     3.335040     3.327396     3.319753
      3.312110     3.304467     3.296824     3.289180     3.281537     3.273894     3.266251     3.258607     3.250964     3.243321
      3.235678     3.228034     3.220391     3.212748     3.205105     3.197462     3.189818     3.182175     3.174532     3.166889
      3.159245     3.151602     3.143959     3.136316     3.128673     3.121029     3.113386     3.105743     3.098100     3.090456
      3.082813     3.075170     3.067527     3.059884     3.052240     3.044597     3.036954     3.029311     3.021667     3.014024
      3.006381     2.998738     2.991095     2.983451     2.975808     2.968165     2.960522     2.952878     2.945235     2.937592
      2.929949     2.922306     2.914662     2.907019     2.899376     2.891733     2.884089     2.876446     2.868803     2.861160
      2.853517     2.845873     2.838230     2.830587     2.822944     2.815300     2.807657     2.800014     2.792371     2.784728
      2.777084     2.769441     2.761798     2.754155     2.746511     2.738868     2.731225     2.723582     2.715939     2.708295
      2.700652     2.693009     2.685366     2.677722     2.670079     2.662436     2.654793     2.647150     2.639506     2.631863
      2.624220     2.616577     2.608933     2.601290     2.593647     2.586004     2.578361     2.570717     2.563074     2.555431
      2.547788     2.540144     2.532501     2.524858     2.517215     2.509572     2.501928     2.494285     2.486642     2.478999
      2.471355     2.463712     2.456069     2.448426     2.440783     2.433139     2.425496     2.417853     2.410210     2.402566
      2.394923     2.387280     2.379637     2.371994     2.364350     2.356707     2.349064     2.341421     2.333777     2.326134
      2.318491     2.310848     2.303205     2.295561     2.287918     2.280275     2.272632     2.264988     2.257345     2.249702
      2.242059     2.234416     2.226772     2.219129     2.211486     2.203843     2.196199     2.188556     2.180913     2.173270
      2.165627     2.157983     2.150340     2.142697     2.135054     2.127410     2.119767     2.112124     2.104481     2.096838
      2.089194     2.081551     2.073908     2.066265     2.058621     2.050978     2.043335     2.035692     2.028049     2.020405
      2.012762     2.005119     1.997476     1.989833     1.982190     1.974546     1.966903     1.959260     1.951617     1.943974
      1.936331     1.928688     1.921045     1.913402     1.905759     1.898115     1.890472     1.882829     1.875186     1.867543
      1.859900     1.852257     1.844614     1.836971     1.829327     1.821684     1.814041     1.806398     1.798755     1.791112
      1.783469     1.775826     1.768183     1.760540     1.752896     1.745253     1.737610     1.729967     1.722324     1.714681
      1.707038     1.699395     1.691752     1.684108     1.676465     1.668822     1.661179     1.653536     1.645893     1.638250
      1.630607     1.622964     1.615321     1.607677     1.600034     1.592391     1.584748     1.577105     1.569462     1.561819
      1.554176     1.546533     1.538890     1.531246     1.523603     1.515960     1.508317     1.500674     1.493031     1.485388
      1.477745     1.470102     1.462458     1.454815     1.447172     1.439529     1.431886     1.424243     1.416600     1.408957
      1.401314     1.393671     1.386027     1.378384     1.370741     1.363098     1.355455     1.347812     1.340169     1.332526
      1.324883     1.317240     1.309596     1.301953     1.294310     1.286667     1.279024     1.271381     1.263738     1.256095
      1.248452     1.240808     1.233165     1.225522     1.217879     1.210236     1.202593     1.194950     1.187307     1.179664
      1.172021     1.164377     1.156734     1.149091     1.141448     1.133805     1.126162     1.118519     1.110876     1.103233
      1.095590     1.087946     1.080303     1.072660     1.065017     1.057374     1.049731     1.042088     1.034445     1.026802
      1.019158     1.011515     1.003872     0.996229     0.988586     0.980943     0.973300     0.965657     0.958014     0.950371
      0.942727     0.935084     0.927441     0.919798     0.912155     0.904512     0.896869     0.889226     0.881583     0.873940
      0.866296     0.858653     0.851010     0.843367     0.835724     0.828081     0.820438     0.812795     0.805152     0.797508
      0.789865     0.782222     0.774579     0.766936     0.759293     0.751650     0.744007     0.736364     0.728721     0.721077
      0.713434     0.705791     0.698148     0.690505     0.682862     0.675219     0.667576     0.659933     0.652290     0.644646
      0.637003     0.629360     0.621717     0.614074     0.606431     0.598788     0.591145     0.583502     0.575858     0.568215
      0.560572     0.552929     0.545286     0.537643     0.530000     0.522357     0.514714     0.507071     0.499427     0.491784
      0.484141     0.476498     0.468855     0.461212     0.453569     0.445925     0.438282     0.430639     0.422996     0.415353
      0.407710     0.400067     0.392424     0.384780     0.377137     0.369494     0.361851     0.354208     0.346565     0.338922
      0.331278     0.323635     0.315992     0.308349     0.300706     0.293063     0.285420     0.277777     0.270133     0.262490
      0.254847     0.247204     0.239561     0.231918     0.224275     0.216631     0.208988     0.201345
 NY phased data points follow
   1.13356E+00  2.68768E+00  2.04765E+00  5.81273E+00  5.78053E+00  1.97762E+00  4.17741E+00  5.16989E+00  5.74831E+00  6.99171E+00
   5.60773E+00  7.66907E+00  4.29995E+00  1.10581E+01  8.47449E+00  1.64114E+00  3.90838E+00  4.44262E+00  4.25487E+00  4.30142E+00
   5.57768E+00  4.89222E+00  4.43672E+00  9.82120E+00  7.08998E+00  3.82346E+00  4.59435E+00  6.95171E+00  2.60928E+00  3.87432E+00
   3.79368E+00  3.58364E+00  5.22424E+00  1.63218E+00  4.12553E+00  6.22704E+00  5.44689E+00  8.65315E+00  6.93727E+00  2.78829E+00
   7.94208E+00  4.38003E+00  6.25036E+00  4.39838E+00  7.99451E-01  1.10902E+00  6.75201E+00  4.78140E+00  1.61364E+00  2.55026E+00
   4.87317E+00  3.54415E+00  4.56675E+00  2.81013E+00  6.14830E+00  1.80053E+00  3.52950E+00  4.43516E+00  1.40241E+00  6.85165E+00
   3.49832E+00  1.96271E+00  5.10992E+00  2.95766E+00  6.01174E+00  1.18060E+00  5.07380E+00  5.76348E+00  8.15309E+00 -3.81400E-01
   6.98343E+00  2.72484E+00  3.42565E+00  6.05836E+00  1.58145E+00  1.48405E+00  4.69574E+00  4.79853E+00  3.14922E+00  6.83443E+00
   5.98317E-01  2.59401E+00  6.96443E-01  3.32227E+00  3.63738E+00  7.21698E+00  2.78297E+00  5.98067E+00  3.90433E+00  2.42100E+00
   5.24447E+00  5.38482E+00  5.41835E+00  4.53199E+00  3.91508E+00  4.82714E+00  3.44606E+00  1.19255E+00  6.85273E-01  3.59927E+00
   1.63774E+00  4.08953E+00  5.91478E+00  8.24024E+00  7.75941E+00  6.98898E+00  4.38280E+00  7.81183E+00  3.83840E+00  5.62408E+00
   4.44244E+00  4.29511E+00  3.26134E+00  2.78943E+00  5.95630E+00  4.20348E+00  3.24060E+00  2.96419E+00  3.52836E+00  2.12403E+00
   1.08842E+00  2.84903E+00  3.61162E+00  1.51948E+00  3.57755E+00  2.47023E+00  6.03849E+00  5.74236E+00  3.46050E+00  4.41626E+00
   4.80883E+00  5.35740E+00  6.15903E+00  4.78807E+00  3.45334E+00  1.49087E+00 -1.40201E+00 -8.31245E-01  9.03296E-01  2.61945E+00
   4.88365E+00  4.55789E+00  4.06186E+00  3.18398E-01  2.40101E+00  5.27655E+00  3.58769E-01  4.96898E+00  4.99877E+00  6.25812E+00
   3.84757E+00  3.13356E+00  5.04907E+00  2.10574E+00  5.64752E+00  2.34454E+00  2.69669E+00 -4.42155E-01  4.40833E+00  2.59010E+00
   2.87419E+00  4.71675E+00  1.01470E+00  7.26580E-01  1.98937E+00  5.89368E+00  5.88968E+00  3.18865E+00  2.73703E+00  2.32687E+00
   9.38517E-01  2.37306E+00  3.52798E+00  4.72373E+00  2.04803E+00  9.18042E-01  3.87149E+00  2.22648E+00  1.17726E+00  4.09740E+00
   2.87652E+00  4.27762E+00  1.32277E+00  1.28711E+00  3.30138E+00  1.32820E+00  2.40130E+00  1.26578E+00  5.89797E+00 -2.87434E+00
   4.32803E+00  3.75261E+00  6.38097E-01  1.77676E+00  3.59864E+00  4.34985E+00  2.66921E+00 -1.24189E+00  1.52089E+00  3.91906E+00
  -5.23292E-03  1.95854E+00  1.27392E+00 -2.13093E-02  3.20796E+00  4.44163E+00  2.19121E-01  1.94107E+00  5.64187E-01  1.48508E+00
   1.91789E+00  9.25003E-01 -2.20486E+00 -1.90277E+00  2.02804E+00  2.26827E-01  2.65010E+00  2.50923E+00  6.31747E-01  1.81341E+00
  -7.44915E-01  1.32261E-01  4.38998E+00  3.96039E+00 -4.63534E-01  7.76288E-01 -9.70378E-01  2.45258E+00  1.13442E-02  2.11975E+00
   2.34156E+00  2.58681E+00 -4.99029E-01  2.98217E-01  1.19450E+00  3.41675E+00  2.43810E+00  3.95744E+00  2.96811E-01  2.59676E+00
  -1.34956E+00  3.58885E+00  2.67633E+00  1.52414E+00  3.05024E+00  6.08434E-01  3.00984E+00  3.96123E-01  9.56140E-01  1.00091E+00
  -2.06423E+00  2.06484E+00  3.98168E+00  9.98674E-01  2.08512E+00  5.91023E-01 -2.69578E+00 -8.75704E-01 -2.18991E+00  3.28886E+00
   3.55150E+00  3.36011E+00  6.41622E+00  7.89871E+00  5.98726E+00  1.07906E+01  5.98795E+00  4.64414E+00  1.92450E+00  1.13056E+00
   5.15467E-01  2.24030E+00  4.01001E-01  2.83933E+00  3.41411E+00  7.56926E+00  2.98421E+00  6.10827E+00  2.23597E+00  5.16784E+00
   2.82223E+00  4.66899E+00  2.45527E+00  4.35746E+00  2.73187E+00  4.30153E+00  2.22572E+00  3.28566E+00  4.09610E-01  3.77260E+00
   3.27279E+00  6.15504E+00  2.78740E+00  7.04503E+00  1.27808E+00  1.88509E+00  2.23117E+00  1.18105E+00  4.49629E+00  1.63629E+00
   4.37006E+00  1.82449E+00  3.74016E+00  6.27779E+00  2.66721E+00  3.47669E+00 -1.84939E-01  3.63110E+00  1.79536E+00  1.68220E+00
   5.24845E+00 -1.42875E+00  2.18145E+00 -5.99034E-01 -2.50263E+00 -8.99036E-01  1.74971E+00 -8.87803E-01  1.64501E+00  1.85898E+00
   4.91828E-01  1.34240E+00  3.02885E+00  3.86746E-02  1.36101E+00  2.99015E+00  3.51865E+00  3.04473E+00  3.85833E-01  2.93271E+00
   3.95256E+00  5.70636E+00  3.28450E+00  8.83316E+00  3.15340E+00  1.02674E+01  1.10693E+01  1.26793E+01  1.29098E+01  1.37741E+01
   1.32823E+01  1.20769E+01  1.00393E+01  1.14159E+01  1.31828E+01  1.26368E+01  1.04151E+01  1.12559E+01  1.06061E+01  1.31545E+01
   1.13336E+01  1.08140E+01  7.72993E+00  1.08074E+01  7.50646E+00  1.09745E+01  9.20357E+00  8.23374E+00  4.43760E+00  3.47801E+00
   4.99372E+00  2.17226E+00 -1.50108E+00  5.10121E+00  3.49137E+00  4.40704E+00  1.49153E+00  1.73505E+00 -8.55198E-01 -2.12514E+00
   9.26434E-01  4.03397E+00  2.61240E+00 -1.41442E+00  5.23176E+00  1.50414E+00  1.72091E+00  2.08675E+00 -1.51327E+00  1.31652E+00
   4.41827E+00 -1.08199E+00  2.75048E+00  9.98091E-01 -5.85521E-01  1.03114E+00  2.50498E+00  2.16432E+00  1.39397E+00  7.14145E+00
   5.69940E-01  7.60196E-01 -6.26125E-01  5.85817E+00  4.80822E+00 -3.29580E-01  1.06903E+00 -5.44146E-01  1.36244E+00 -1.17971E+00
   6.62199E-01  7.32319E-01  2.51357E+00 -4.84995E-01 -3.25728E+00  1.75994E+00  2.52129E+00  2.30871E+00  4.06740E+00  2.50930E+00
   1.22881E-01  6.23718E-01 -1.76634E-01  2.93187E+00  2.83572E-01  3.24291E+00  3.65271E+00 -4.63288E-01  2.49752E+00  3.09185E+00
  -2.04813E-01  3.49630E+00 -3.99751E-01  2.74951E+00  1.84722E+00  3.90648E+00  4.11789E+00 -6.05823E-01  4.41258E+00  3.25117E+00
   3.91542E+00 -7.96029E-01  4.92505E+00  3.68984E+00  1.45318E+00 -6.19921E-01  2.06909E+00  2.69125E+00  6.63499E-02  3.02944E+00
   1.84695E+00  3.79013E+00  3.66761E+00  2.16700E-01  3.06410E-01  3.02109E+00  3.86024E-01  2.53313E+00  4.33998E+00  8.58007E-01
  -1.54351E-02  3.43161E+00  2.04874E+00 -9.04131E-01  1.39010E+00  2.44903E+00  2.06340E+00  2.59735E-01  1.91726E+00  8.35608E-01
   1.52320E+00 -2.18054E+00  2.72175E+00 -1.77418E-01 -3.47275E+00  1.00980E+00  2.96973E+00 -1.09726E+00  1.21416E+00 -2.92337E+00
  -2.05848E-01  2.64267E+00  3.00048E+00  2.75598E+00 -1.56430E-01 -6.38103E-01 -2.27988E-01  1.80539E+00  2.52459E-01 -9.12643E-01
  -3.15641E+00  3.22164E+00  2.24098E+00  2.12313E+00 -6.92596E-01  1.73970E+00  1.93539E+00  3.35865E+00  1.29927E+00  1.03106E+00
   2.36916E+00  1.74099E+00 -8.82622E-02  3.62723E+00 -9.32188E-01  1.85595E+00 -1.92326E+00  1.85260E+00
 NY points of the fit to the data follow
   4.00457E+00  3.92592E+00  3.83030E+00  3.72220E+00  3.46873E+00  3.28674E+00  3.51103E+00  4.12601E+00  4.86452E+00  5.47109E+00
   5.88219E+00  6.13797E+00  6.23147E+00  6.03594E+00  5.35786E+00  4.42751E+00  3.93730E+00  3.83489E+00  3.78740E+00  3.76527E+00
   3.74296E+00  3.73551E+00  3.77647E+00  3.86573E+00  3.94158E+00  3.93531E+00  3.82371E+00  3.59039E+00  3.33291E+00  3.18194E+00
   3.18826E+00  3.36111E+00  3.67074E+00  3.99679E+00  4.21993E+00  4.30306E+00  4.25594E+00  4.02703E+00  3.66757E+00  3.43012E+00
   3.37547E+00  3.41348E+00  3.48241E+00  3.54405E+00  3.60035E+00  3.68059E+00  3.84199E+00  4.01914E+00  4.12079E+00  4.18053E+00
   4.22987E+00  4.18465E+00  4.00787E+00  3.76962E+00  3.55116E+00  3.40776E+00  3.34620E+00  3.35590E+00  3.41570E+00  3.50057E+00
   3.57183E+00  3.61048E+00  3.62215E+00  3.62230E+00  3.59073E+00  3.51456E+00  3.43083E+00  3.36331E+00  3.32849E+00  3.34235E+00
   3.37108E+00  3.39023E+00  3.41244E+00  3.45750E+00  3.52054E+00  3.57464E+00  3.61218E+00  3.59462E+00  3.53026E+00  3.47185E+00
   3.39908E+00  3.27148E+00  3.18416E+00  3.22660E+00  3.35489E+00  3.48788E+00  3.56272E+00  3.56041E+00  3.52075E+00  3.48576E+00
   3.43204E+00  3.30803E+00  3.15765E+00  3.10632E+00  3.12663E+00  3.14679E+00  3.10800E+00  2.80810E+00  2.15679E+00  1.95313E+00
   2.67338E+00  4.04718E+00  5.44587E+00  6.47785E+00  7.17374E+00  7.65746E+00  7.80035E+00  7.10572E+00  5.34566E+00  3.58460E+00
   3.01737E+00  2.94108E+00  2.92868E+00  2.92361E+00  2.91627E+00  2.92163E+00  2.92701E+00  2.92468E+00  2.91730E+00  2.90302E+00
   2.86311E+00  2.69661E+00  2.22427E+00  1.89966E+00  2.22751E+00  3.15890E+00  4.25462E+00  5.13962E+00  5.77378E+00  6.24166E+00
   6.47450E+00  6.16993E+00  5.03299E+00  3.58017E+00  2.90940E+00  2.79250E+00  2.75953E+00  2.75290E+00  2.76705E+00  2.78867E+00
   2.80735E+00  2.81634E+00  2.82452E+00  2.84545E+00  2.86624E+00  2.87740E+00  2.88544E+00  2.89712E+00  2.91268E+00  2.92067E+00
   2.91671E+00  2.90430E+00  2.89104E+00  2.88759E+00  2.89109E+00  2.89764E+00  2.91573E+00  2.93530E+00  2.92679E+00  2.87959E+00
   2.80163E+00  2.72962E+00  2.69447E+00  2.68846E+00  2.69160E+00  2.69972E+00  2.73030E+00  2.78168E+00  2.80418E+00  2.77210E+00
   2.70264E+00  2.62974E+00  2.59887E+00  2.56669E+00  2.50089E+00  2.43306E+00  2.40226E+00  2.40619E+00  2.40182E+00  2.37371E+00
   2.34607E+00  2.36161E+00  2.42662E+00  2.45908E+00  2.39617E+00  2.31910E+00  2.29534E+00  2.33795E+00  2.39271E+00  2.42497E+00
   2.44838E+00  2.48509E+00  2.53986E+00  2.58075E+00  2.56058E+00  2.48322E+00  2.38258E+00  2.26069E+00  2.16684E+00  2.15327E+00
   2.21585E+00  2.34494E+00  2.55564E+00  2.81291E+00  3.10487E+00  3.40384E+00  3.49752E+00  3.23725E+00  2.75426E+00  2.24644E+00
   1.79031E+00  1.41184E+00  1.23673E+00  1.34697E+00  1.73318E+00  2.34432E+00  2.94848E+00  3.24478E+00  3.32251E+00  3.28390E+00
   3.04379E+00  2.65722E+00  2.31291E+00  2.16849E+00  2.16472E+00  2.23189E+00  2.38168E+00  2.61495E+00  2.85440E+00  2.96586E+00
   2.94399E+00  2.92409E+00  2.90054E+00  2.78283E+00  2.59471E+00  2.41981E+00  2.31989E+00  2.32448E+00  2.44712E+00  2.61862E+00
   2.80991E+00  3.03478E+00  3.21340E+00  3.19190E+00  3.01780E+00  2.77085E+00  2.47795E+00  2.22443E+00  2.14914E+00  2.22644E+00
   2.31060E+00  2.43952E+00  2.60367E+00  2.73491E+00  2.76844E+00  2.44546E+00  1.65771E+00  1.33920E+00  2.05728E+00  3.52215E+00
   5.04123E+00  6.21496E+00  7.09071E+00  7.75226E+00  7.98017E+00  7.18524E+00  5.11734E+00  3.10649E+00  2.45325E+00  2.28695E+00
   2.18913E+00  2.13012E+00  2.09306E+00  2.06472E+00  2.05706E+00  2.06930E+00  2.09125E+00  2.11068E+00  2.12059E+00  2.11187E+00
   2.08806E+00  2.05800E+00  2.02582E+00  1.99987E+00  1.98575E+00  1.98037E+00  1.98270E+00  1.99185E+00  2.00343E+00  2.01718E+00
   2.03070E+00  2.04043E+00  2.04761E+00  2.05535E+00  2.06341E+00  2.07039E+00  2.07713E+00  2.08473E+00  2.09200E+00  2.09887E+00
   2.10601E+00  2.11211E+00  2.11682E+00  2.12011E+00  2.12206E+00  2.12288E+00  2.12287E+00  2.12232E+00  2.12146E+00  2.12062E+00
   2.12045E+00  2.12156E+00  2.12449E+00  2.12998E+00  2.13868E+00  2.15129E+00  2.16869E+00  2.19191E+00  2.22203E+00  2.26018E+00
   2.30739E+00  2.36373E+00  2.43054E+00  2.53068E+00  2.67926E+00  2.86266E+00  3.06122E+00  3.26963E+00  3.49986E+00  3.76405E+00
   4.05056E+00  4.35045E+00  4.69161E+00  5.12810E+00  5.69660E+00  6.35281E+00  7.05005E+00  7.78022E+00  8.53564E+00  9.29509E+00
   1.00133E+01  1.06471E+01  1.12094E+01  1.17129E+01  1.21284E+01  1.24328E+01  1.26106E+01  1.26519E+01  1.25526E+01  1.23144E+01
   1.19445E+01  1.14553E+01  1.08636E+01  1.01893E+01  9.45430E+00  8.68159E+00  7.89355E+00  7.11109E+00  6.35264E+00  5.63356E+00
   4.96578E+00  4.35771E+00  3.81430E+00  3.33740E+00  2.92616E+00  2.57759E+00  2.28720E+00  2.04943E+00  1.85820E+00  1.70726E+00
   1.59056E+00  1.50247E+00  1.43796E+00  1.39264E+00  1.36281E+00  1.34537E+00  1.33783E+00  1.33826E+00  1.34519E+00  1.35751E+00
   1.37440E+00  1.39530E+00  1.41980E+00  1.44766E+00  1.47876E+00  1.51301E+00  1.55034E+00  1.59071E+00  1.63407E+00  1.68036E+00
   1.72948E+00  1.78126E+00  1.83546E+00  1.89176E+00  1.94978E+00  2.00905E+00  2.06900E+00  2.12897E+00  2.18821E+00  2.24588E+00
   2.30114E+00  2.35308E+00  2.40076E+00  2.44326E+00  2.47969E+00  2.50925E+00  2.53123E+00  2.54505E+00  2.55026E+00  2.54656E+00
   2.53384E+00  2.51219E+00  2.48185E+00  2.44327E+00  2.39699E+00  2.34371E+00  2.28427E+00  2.21954E+00  2.15050E+00  2.07810E+00
   2.00327E+00  1.92695E+00  1.85000E+00  1.77323E+00  1.69734E+00  1.62293E+00  1.55051E+00  1.48050E+00  1.41322E+00  1.34890E+00
   1.28768E+00  1.22965E+00  1.17479E+00  1.12308E+00  1.07445E+00  1.02880E+00  9.85969E-01  9.45814E-01  9.08170E-01  8.72877E-01
   8.39779E-01  8.08713E-01  7.79517E-01  7.52036E-01  7.26131E-01  7.01680E-01  6.78564E-01  6.56668E-01  6.35879E-01  6.16099E-01
   5.97248E-01  5.79252E-01  5.62040E-01  5.45542E-01  5.29693E-01  5.14441E-01  4.99741E-01  4.85555E-01  4.71840E-01  4.58552E-01
   4.45655E-01  4.33120E-01  4.20926E-01  4.09052E-01  3.97470E-01  3.86154E-01  3.75084E-01  3.64246E-01  3.53629E-01  3.43218E-01
   3.32994E-01  3.22939E-01  3.13043E-01  3.03301E-01  2.93709E-01  2.84254E-01  2.74922E-01  2.65702E-01  2.56591E-01  2.47587E-01
   2.38687E-01  2.29880E-01  2.21155E-01  2.12506E-01  2.03935E-01  1.95441E-01  1.87021E-01  1.78666E-01  1.70367E-01  1.62122E-01
   1.53934E-01  1.45806E-01  1.37731E-01  1.29701E-01  1.21710E-01  1.13760E-01  1.05856E-01  9.79979E-02
 NY background values follow
     3.548E+00    3.541E+00    3.535E+00    3.528E+00    3.521E+00    3.514E+00    3.507E+00    3.501E+00    3.494E+00    3.487E+00
     3.480E+00    3.474E+00    3.467E+00    3.460E+00    3.453E+00    3.446E+00    3.440E+00    3.433E+00    3.426E+00    3.419E+00
     3.413E+00    3.406E+00    3.399E+00    3.392E+00    3.385E+00    3.379E+00    3.372E+00    3.365E+00    3.358E+00    3.351E+00
     3.345E+00    3.338E+00    3.331E+00    3.324E+00    3.317E+00    3.311E+00    3.304E+00    3.297E+00    3.290E+00    3.283E+00
     3.277E+00    3.270E+00    3.263E+00    3.256E+00    3.249E+00    3.242E+00    3.236E+00    3.229E+00    3.222E+00    3.215E+00
     3.208E+00    3.201E+00    3.195E+00    3.188E+00    3.181E+00    3.174E+00    3.167E+00    3.161E+00    3.154E+00    3.147E+00
     3.140E+00    3.133E+00    3.126E+00    3.119E+00    3.113E+00    3.106E+00    3.099E+00    3.092E+00    3.085E+00    3.078E+00
     3.072E+00    3.065E+00    3.058E+00    3.051E+00    3.044E+00    3.037E+00    3.030E+00    3.024E+00    3.017E+00    3.010E+00
     3.003E+00    2.996E+00    2.989E+00    2.982E+00    2.976E+00    2.969E+00    2.962E+00    2.955E+00    2.948E+00    2.941E+00
     2.934E+00    2.928E+00    2.921E+00    2.914E+00    2.907E+00    2.900E+00    2.893E+00    2.886E+00    2.879E+00    2.873E+00
     2.866E+00    2.859E+00    2.852E+00    2.845E+00    2.838E+00    2.831E+00    2.824E+00    2.817E+00    2.811E+00    2.804E+00
     2.797E+00    2.790E+00    2.783E+00    2.776E+00    2.769E+00    2.762E+00    2.755E+00    2.749E+00    2.742E+00    2.735E+00
     2.728E+00    2.721E+00    2.714E+00    2.707E+00    2.700E+00    2.693E+00    2.686E+00    2.679E+00    2.673E+00    2.666E+00
     2.659E+00    2.652E+00    2.645E+00    2.638E+00    2.631E+00    2.624E+00    2.617E+00    2.610E+00    2.603E+00    2.597E+00
     2.590E+00    2.583E+00    2.576E+00    2.569E+00    2.562E+00    2.555E+00    2.548E+00    2.541E+00    2.534E+00    2.527E+00
     2.520E+00    2.513E+00    2.506E+00    2.500E+00    2.493E+00    2.486E+00    2.479E+00    2.472E+00    2.465E+00    2.458E+00
     2.451E+00    2.444E+00    2.437E+00    2.430E+00    2.423E+00    2.416E+00    2.409E+00    2.402E+00    2.395E+00    2.388E+00
     2.382E+00    2.375E+00    2.368E+00    2.361E+00    2.354E+00    2.347E+00    2.340E+00    2.333E+00    2.326E+00    2.319E+00
     2.312E+00    2.305E+00    2.298E+00    2.291E+00    2.284E+00    2.277E+00    2.270E+00    2.263E+00    2.256E+00    2.249E+00
     2.242E+00    2.235E+00    2.228E+00    2.221E+00    2.214E+00    2.208E+00    2.201E+00    2.194E+00    2.187E+00    2.180E+00
     2.173E+00    2.166E+00    2.159E+00    2.152E+00    2.145E+00    2.138E+00    2.131E+00    2.124E+00    2.117E+00    2.110E+00
     2.103E+00    2.096E+00    2.089E+00    2.082E+00    2.075E+00    2.068E+00    2.061E+00    2.054E+00    2.047E+00    2.040E+00
     2.033E+00    2.026E+00    2.019E+00    2.012E+00    2.005E+00    1.998E+00    1.991E+00    1.984E+00    1.977E+00    1.970E+00
     1.963E+00    1.956E+00    1.949E+00    1.942E+00    1.935E+00    1.928E+00    1.921E+00    1.914E+00    1.907E+00    1.900E+00
     1.893E+00    1.886E+00    1.879E+00    1.872E+00    1.865E+00    1.858E+00    1.851E+00    1.844E+00    1.837E+00    1.830E+00
     1.823E+00    1.816E+00    1.809E+00    1.802E+00    1.795E+00    1.788E+00    1.781E+00    1.774E+00    1.767E+00    1.760E+00
     1.753E+00    1.746E+00    1.739E+00    1.732E+00    1.725E+00    1.718E+00    1.711E+00    1.703E+00    1.696E+00    1.689E+00
     1.682E+00    1.675E+00    1.668E+00    1.661E+00    1.654E+00    1.647E+00    1.640E+00    1.633E+00    1.626E+00    1.619E+00
     1.612E+00    1.605E+00    1.598E+00    1.591E+00    1.584E+00    1.577E+00    1.570E+00    1.563E+00    1.556E+00    1.549E+00
     1.542E+00    1.535E+00    1.528E+00    1.521E+00    1.513E+00    1.506E+00    1.499E+00    1.492E+00    1.485E+00    1.478E+00
     1.471E+00    1.464E+00    1.457E+00    1.450E+00    1.443E+00    1.436E+00    1.429E+00    1.422E+00    1.415E+00    1.408E+00
     1.401E+00    1.394E+00    1.387E+00    1.380E+00    1.372E+00    1.365E+00    1.358E+00    1.351E+00    1.344E+00    1.337E+00
     1.330E+00    1.323E+00    1.316E+00    1.309E+00    1.302E+00    1.295E+00    1.288E+00    1.281E+00    1.274E+00    1.267E+00
     1.259E+00    1.252E+00    1.245E+00    1.238E+00    1.231E+00    1.224E+00    1.217E+00    1.210E+00    1.203E+00    1.196E+00
     1.189E+00    1.182E+00    1.175E+00    1.168E+00    1.160E+00    1.153E+00    1.146E+00    1.139E+00    1.132E+00    1.125E+00
     1.118E+00    1.111E+00    1.104E+00    1.097E+00    1.090E+00    1.083E+00    1.075E+00    1.068E+00    1.061E+00    1.054E+00
     1.047E+00    1.040E+00    1.033E+00    1.026E+00    1.019E+00    1.012E+00    1.005E+00    9.975E-01    9.905E-01    9.834E-01
     9.763E-01    9.692E-01    9.621E-01    9.550E-01    9.479E-01    9.408E-01    9.337E-01    9.266E-01    9.196E-01    9.125E-01
     9.054E-01    8.983E-01    8.912E-01    8.841E-01    8.770E-01    8.699E-01    8.628E-01    8.557E-01    8.486E-01    8.415E-01
     8.344E-01    8.273E-01    8.202E-01    8.131E-01    8.060E-01    7.989E-01    7.918E-01    7.847E-01    7.776E-01    7.705E-01
     7.634E-01    7.563E-01    7.492E-01    7.421E-01    7.350E-01    7.279E-01    7.208E-01    7.137E-01    7.066E-01    6.994E-01
     6.923E-01    6.852E-01    6.781E-01    6.710E-01    6.639E-01    6.568E-01    6.497E-01    6.426E-01    6.355E-01    6.284E-01
     6.212E-01    6.141E-01    6.070E-01    5.999E-01    5.928E-01    5.857E-01    5.786E-01    5.715E-01    5.643E-01    5.572E-01
     5.501E-01    5.430E-01    5.359E-01    5.288E-01    5.216E-01    5.145E-01    5.074E-01    5.003E-01    4.932E-01    4.861E-01
     4.789E-01    4.718E-01    4.647E-01    4.576E-01    4.505E-01    4.433E-01    4.362E-01    4.291E-01    4.220E-01    4.148E-01
     4.077E-01    4.006E-01    3.935E-01    3.864E-01    3.792E-01    3.721E-01    3.650E-01    3.579E-01    3.507E-01    3.436E-01
     3.365E-01    3.294E-01    3.222E-01    3.151E-01    3.080E-01    3.009E-01    2.937E-01    2.866E-01    2.795E-01    2.723E-01
     2.652E-01    2.581E-01    2.510E-01    2.438E-01    2.367E-01    2.296E-01    2.224E-01    2.153E-01    2.082E-01    2.010E-01
     1.939E-01    1.868E-01    1.796E-01    1.725E-01    1.654E-01    1.582E-01    1.511E-01    1.440E-01    1.368E-01    1.297E-01
     1.226E-01    1.154E-01    1.083E-01    1.012E-01    9.404E-02    8.690E-02    7.977E-02    7.263E-02
 Ala      Conc. = 5.96E+00
