 LCModel (Version 6.3-1L) Copyright: S.W. Provencher.          Ref.: Magn. Reson. Med. 30:672-679 (1993).                
 Slice#2 Row#10 Col#10  PD_05_press_2_raw_act
 36 lines in following concentration table = NCONC+1
    Conc.  %SD /Cr+PCr  Metabolite                                         
  297.771  73%   0.500 Ala                                                 
   88.350 138%   0.148 Asp                                                 
    0.000 999%   0.000 Cr                                                  
  595.945  10%   1.000 PCr                                                 
   39.053 196% 6.6E-02 GABA                                                
   36.416 205% 6.1E-02 Glc                                                 
 1.41E+03  31%   2.367 Gln                                                 
 1.28E+03  38%   2.141 Glu                                                 
  129.854  16%   0.218 GPC                                                 
    0.000 999%   0.000 PCh                                                 
   75.014 121%   0.126 GSH                                                 
    0.000 999%   0.000 Ins                                                 
  844.330  35%   1.417 Lac                                                 
 1.18E+03   6%   1.974 NAA                                                 
    0.000 999%   0.000 NAAG                                                
   28.095  70% 4.7E-02 Scyllo                                              
  149.155  78%   0.250 Tau                                                 
  414.740  23%   0.696 -CrCH2                                              
  129.854  16%   0.218 GPC+PCh                                             
 1.18E+03   6%   1.974 NAA+NAAG                                            
  595.945  10%   1.000 Cr+PCr                                              
 2.69E+03  30%   4.508 Glu+Gln                                             
  730.689 104%   1.226 Lip13a                                              
  136.488 279%   0.229 Lip13b                                              
  199.847  65%   0.335 Lip09                                               
  833.534  22%   1.399 MM09                                                
  134.768  56%   0.226 Lip20                                               
 1.50E+03  20%   2.516 MM20                                                
  249.204  38%   0.418 MM12                                                
 1.85E+03  14%   3.096+MM14                                                
  509.480  34%   0.855 MM17                                                
  867.177  52%   1.455 Lip13a+Lip13b                                       
 2.96E+03  12%   4.969 MM14+Lip13a+Lip13b+MM12                             
 1.03E+03  13%   1.734 MM09+Lip09                                          
 1.63E+03  16%   2.742 MM20+Lip20                                          
   6 lines in following misc. output table
  FWHM = 0.076 ppm    S/N =   5                                            
  Data shift = 0.031 ppm                                                   
  Ph: -66 deg     -27.0 deg/ppm                                            
  alphaB,S = 8.5E+01,   4.1E+02                                            
   14 spline knots.   Ns =10(1)                                            
   2 inflections.     1 extrema                                            
  498 points on ppm-axis = NY
      4.000000     3.992357     3.984714     3.977070     3.969427     3.961784     3.954141     3.946497     3.938854     3.931211
      3.923568     3.915925     3.908281     3.900638     3.892995     3.885352     3.877708     3.870065     3.862422     3.854779
      3.847136     3.839492     3.831849     3.824206     3.816563     3.808919     3.801276     3.793633     3.785990     3.778347
      3.770703     3.763060     3.755417     3.747774     3.740130     3.732487     3.724844     3.717201     3.709558     3.701914
      3.694271     3.686628     3.678985     3.671341     3.663698     3.656055     3.648412     3.640769     3.633125     3.625482
      3.617839     3.610196     3.602552     3.594909     3.587266     3.579623     3.571980     3.564336     3.556693     3.549050
      3.541407     3.533763     3.526120     3.518477     3.510834     3.503191     3.495547     3.487904     3.480261     3.472618
      3.464974     3.457331     3.449688     3.442045     3.434402     3.426758     3.419115     3.411472     3.403829     3.396185
      3.388542     3.380899     3.373256     3.365613     3.357969     3.350326     3.342683     3.335040     3.327396     3.319753
      3.312110     3.304467     3.296824     3.289180     3.281537     3.273894     3.266251     3.258607     3.250964     3.243321
      3.235678     3.228034     3.220391     3.212748     3.205105     3.197462     3.189818     3.182175     3.174532     3.166889
      3.159245     3.151602     3.143959     3.136316     3.128673     3.121029     3.113386     3.105743     3.098100     3.090456
      3.082813     3.075170     3.067527     3.059884     3.052240     3.044597     3.036954     3.029311     3.021667     3.014024
      3.006381     2.998738     2.991095     2.983451     2.975808     2.968165     2.960522     2.952878     2.945235     2.937592
      2.929949     2.922306     2.914662     2.907019     2.899376     2.891733     2.884089     2.876446     2.868803     2.861160
      2.853517     2.845873     2.838230     2.830587     2.822944     2.815300     2.807657     2.800014     2.792371     2.784728
      2.777084     2.769441     2.761798     2.754155     2.746511     2.738868     2.731225     2.723582     2.715939     2.708295
      2.700652     2.693009     2.685366     2.677722     2.670079     2.662436     2.654793     2.647150     2.639506     2.631863
      2.624220     2.616577     2.608933     2.601290     2.593647     2.586004     2.578361     2.570717     2.563074     2.555431
      2.547788     2.540144     2.532501     2.524858     2.517215     2.509572     2.501928     2.494285     2.486642     2.478999
      2.471355     2.463712     2.456069     2.448426     2.440783     2.433139     2.425496     2.417853     2.410210     2.402566
      2.394923     2.387280     2.379637     2.371994     2.364350     2.356707     2.349064     2.341421     2.333777     2.326134
      2.318491     2.310848     2.303205     2.295561     2.287918     2.280275     2.272632     2.264988     2.257345     2.249702
      2.242059     2.234416     2.226772     2.219129     2.211486     2.203843     2.196199     2.188556     2.180913     2.173270
      2.165627     2.157983     2.150340     2.142697     2.135054     2.127410     2.119767     2.112124     2.104481     2.096838
      2.089194     2.081551     2.073908     2.066265     2.058621     2.050978     2.043335     2.035692     2.028049     2.020405
      2.012762     2.005119     1.997476     1.989833     1.982190     1.974546     1.966903     1.959260     1.951617     1.943974
      1.936331     1.928688     1.921045     1.913402     1.905759     1.898115     1.890472     1.882829     1.875186     1.867543
      1.859900     1.852257     1.844614     1.836971     1.829327     1.821684     1.814041     1.806398     1.798755     1.791112
      1.783469     1.775826     1.768183     1.760540     1.752896     1.745253     1.737610     1.729967     1.722324     1.714681
      1.707038     1.699395     1.691752     1.684108     1.676465     1.668822     1.661179     1.653536     1.645893     1.638250
      1.630607     1.622964     1.615321     1.607677     1.600034     1.592391     1.584748     1.577105     1.569462     1.561819
      1.554176     1.546533     1.538890     1.531246     1.523603     1.515960     1.508317     1.500674     1.493031     1.485388
      1.477745     1.470102     1.462458     1.454815     1.447172     1.439529     1.431886     1.424243     1.416600     1.408957
      1.401314     1.393671     1.386027     1.378384     1.370741     1.363098     1.355455     1.347812     1.340169     1.332526
      1.324883     1.317240     1.309596     1.301953     1.294310     1.286667     1.279024     1.271381     1.263738     1.256095
      1.248452     1.240808     1.233165     1.225522     1.217879     1.210236     1.202593     1.194950     1.187307     1.179664
      1.172021     1.164377     1.156734     1.149091     1.141448     1.133805     1.126162     1.118519     1.110876     1.103233
      1.095590     1.087946     1.080303     1.072660     1.065017     1.057374     1.049731     1.042088     1.034445     1.026802
      1.019158     1.011515     1.003872     0.996229     0.988586     0.980943     0.973300     0.965657     0.958014     0.950371
      0.942727     0.935084     0.927441     0.919798     0.912155     0.904512     0.896869     0.889226     0.881583     0.873940
      0.866296     0.858653     0.851010     0.843367     0.835724     0.828081     0.820438     0.812795     0.805152     0.797508
      0.789865     0.782222     0.774579     0.766936     0.759293     0.751650     0.744007     0.736364     0.728721     0.721077
      0.713434     0.705791     0.698148     0.690505     0.682862     0.675219     0.667576     0.659933     0.652290     0.644646
      0.637003     0.629360     0.621717     0.614074     0.606431     0.598788     0.591145     0.583502     0.575858     0.568215
      0.560572     0.552929     0.545286     0.537643     0.530000     0.522357     0.514714     0.507071     0.499427     0.491784
      0.484141     0.476498     0.468855     0.461212     0.453569     0.445925     0.438282     0.430639     0.422996     0.415353
      0.407710     0.400067     0.392424     0.384780     0.377137     0.369494     0.361851     0.354208     0.346565     0.338922
      0.331278     0.323635     0.315992     0.308349     0.300706     0.293063     0.285420     0.277777     0.270133     0.262490
      0.254847     0.247204     0.239561     0.231918     0.224275     0.216631     0.208988     0.201345
 NY phased data points follow
  -2.38042E+00  4.71541E+00  1.73665E+00  5.70550E+00 -7.29715E-01 -2.39704E+00  2.25542E+00  1.85069E+00  3.79056E+00  6.87357E-02
   8.71860E-01  3.28442E+00  5.23568E+00  4.12580E+00 -7.69910E-01  4.11060E+00 -6.56929E-02  2.52746E+00 -1.55014E+00  1.79813E+00
  -4.67276E+00 -1.18319E+00  1.55392E+00  6.13305E+00 -2.34654E+00 -4.09917E+00 -6.29445E-02  1.41340E+00  1.21730E+00  2.12010E+00
   3.13321E+00  3.46642E+00  3.18910E+00  2.54591E+00  2.51472E+00 -3.52436E-01  5.19625E-01  2.07792E+00  5.95020E+00  3.65148E+00
   3.94289E+00  1.62796E-02  2.06917E+00  7.69680E+00 -1.05289E+00  2.89457E+00  8.44776E-01  5.97740E+00  1.86890E+00  1.23859E+00
   3.78632E-01 -4.30152E+00  1.14929E+00  2.93141E+00  1.25441E+00 -9.78655E-01 -2.16096E+00  1.99723E+00 -7.20212E-01  3.39113E+00
  -5.49879E-01  4.88800E+00  1.37372E+00 -1.80459E+00 -7.65956E+00 -7.80546E-01 -4.42273E-01  1.71257E+00  2.44479E+00 -2.77502E-02
  -1.49016E+00 -2.96693E+00 -1.24033E+00  3.27790E+00  3.73794E+00  6.57393E+00  3.31595E-01 -4.12614E+00 -9.76277E-01  2.21799E+00
  -2.97378E+00  1.76925E+00 -2.42080E+00  1.48433E+00 -3.02511E-01  3.62365E+00  1.07997E-02 -6.80178E-01  3.91696E+00 -8.54482E-01
   1.47412E+00  3.16889E+00  2.69155E+00  4.85655E+00  8.82451E+00  4.62020E+00  8.75163E+00  3.37059E+00  6.19032E+00  4.36441E+00
   4.17208E+00  9.11967E+00  1.29036E+01  7.62358E+00  1.00225E+01  9.85405E+00  7.17440E+00  2.50071E+00  5.80273E+00  4.31666E+00
   4.38528E+00  1.75463E+00  4.29541E+00  1.89742E+00  3.37527E-01  7.59317E+00  4.22816E+00  1.00318E+00  2.99938E+00  4.32098E+00
   7.94411E+00  4.99010E+00  1.07345E+01  8.37986E+00  9.64590E+00  1.36603E+01  1.61216E+01  1.53482E+01  1.90477E+01  2.02264E+01
   5.39037E+00  1.26243E+01  9.70258E+00  4.55479E+00  1.18312E+00  4.55028E+00  6.68659E-01  3.56469E+00  4.97673E+00 -4.67728E-01
   3.48521E+00  7.54569E+00  1.47022E+00 -7.90680E-01  7.07274E-01  9.80105E-01 -1.40593E+00  4.50868E+00  2.70227E+00 -1.19129E-02
   2.75009E+00  1.40277E+00  5.07171E+00  3.33795E+00 -3.79893E+00  1.80225E+00 -2.05998E+00 -1.65844E+00  3.26893E+00 -1.95721E+00
   8.78389E+00 -1.79037E+00  1.57970E+00 -2.45237E+00  1.21949E+00 -5.18247E+00  4.52408E-01 -1.29590E+00 -2.76524E+00 -1.70607E+00
  -4.25093E-02 -1.45094E+00 -2.81133E+00 -5.94270E+00  4.35091E-03 -5.81728E+00 -4.99727E+00 -7.37455E+00 -1.81866E+00 -1.17689E+01
  -6.83423E+00 -4.82296E-01 -1.20965E-01 -1.05379E+00  2.32304E+00  7.80412E-01  2.36510E+00 -2.13588E+00  8.50425E-01 -1.12609E+00
   7.53989E-01  9.90223E-01 -3.13987E+00 -2.01938E+00 -2.48393E+00 -6.45345E-01 -1.73638E+00 -5.19473E+00  1.48801E+00 -7.81663E-01
  -1.91419E+00 -4.96006E+00  1.30957E-01 -1.27575E+00 -1.82846E+00  2.33960E+00  2.22432E+00  2.70281E+00 -7.16116E-01  3.25252E+00
   2.72138E-01  2.33765E+00  6.17594E+00  1.93769E+00  1.61395E+00  3.58566E+00  9.48069E+00  7.95063E+00  1.11585E+01  3.14013E+00
   6.94070E+00  4.51673E+00  3.90871E+00  8.67410E-01  4.20014E+00  2.78636E+00  2.21290E+00  2.50918E+00  6.13578E+00  9.18478E+00
   2.83709E+00  6.54998E+00  9.25645E+00  6.59822E+00  4.69248E+00  5.74042E+00  6.22331E+00  5.23219E+00  9.31824E+00  3.74764E+00
   8.21564E+00  5.76158E+00  4.11689E+00  4.39913E+00  3.65323E+00 -6.15780E-01  5.48400E-01  7.34571E+00  4.67298E+00  6.60945E+00
   6.12187E+00  1.18899E+01  1.27832E+01  1.34194E+01  1.20823E+01  1.23651E+01  2.14471E+01  1.74441E+01  1.95792E+01  2.88111E+01
   3.85489E+01  3.83670E+01  3.91942E+01  3.26058E+01  2.85251E+01  2.07742E+01  1.98221E+01  1.84663E+01  1.26468E+01  1.00761E+01
   1.57532E+01  1.04038E+01  1.15328E+01  5.10135E+00  6.64956E+00  1.30975E+01  2.54251E+00  9.13098E+00  2.20411E+00  5.75929E+00
   4.29748E+00  1.47376E+00  3.80336E+00  4.51443E+00  5.32719E+00  4.07694E+00  5.65952E+00  8.67076E+00  4.51864E+00  4.27328E+00
   5.47148E+00  3.52678E+00  3.64328E+00  2.54702E-01  2.42389E+00  3.52044E+00  6.47053E+00  3.64855E+00  4.74603E+00  1.39141E+00
   6.94117E+00  5.52367E+00  5.48602E+00  2.80301E+00  4.96821E+00  3.20284E+00  7.11321E+00  1.61445E+00  3.93027E+00  7.59408E+00
   6.14058E+00  3.08463E+00  8.78032E+00  4.30876E+00  1.24503E+01  1.10152E+01  1.35257E+01  9.87836E+00  6.88465E+00  7.13805E+00
   1.18121E+01  1.67401E+01  1.43056E+01  1.10733E+01  1.61885E+01  1.15353E+01  1.47250E+01  2.00148E+01  1.60044E+01  1.77386E+01
   2.07365E+01  1.57042E+01  1.80211E+01  1.60939E+01  1.47702E+01  1.66348E+01  1.82552E+01  1.81050E+01  2.20826E+01  1.86409E+01
   1.58097E+01  1.71730E+01  1.64534E+01  1.87381E+01  1.39538E+01  1.82540E+01  1.27077E+01  1.23439E+01  1.47868E+01  1.03147E+01
   1.71037E+01  7.46666E+00  5.38327E+00  5.49519E+00  8.46456E+00  8.39716E+00  1.23807E+01  4.43109E+00  6.69986E+00  1.12380E+01
   8.18756E+00  9.99726E+00  1.64030E+01  1.25114E+01  9.98989E+00  1.10862E+01  7.95645E+00  7.47796E+00  4.86543E+00  8.92356E+00
   6.54552E+00  5.67233E+00  4.30392E+00  1.30300E+00  3.59760E+00  7.02050E+00  1.66665E+00  3.69508E+00  5.55865E+00  4.84665E+00
   1.67630E+00  7.33277E+00  5.24310E+00  9.37642E+00  4.29670E+00  2.98718E+00  6.29622E+00  4.91534E-01  1.44197E+00  6.32191E+00
   6.54218E+00  7.86021E+00  3.83133E+00  3.66026E+00  5.86277E+00  7.52260E+00  3.17244E+00  4.18354E+00  4.86236E+00  1.31209E+01
  -1.24441E+00  4.92301E+00  7.80131E+00  8.28215E+00  9.16932E+00  5.63586E+00  2.53030E+00  3.33871E+00  1.00385E+01  1.09748E+01
   1.50299E+01  6.67632E+00  1.38729E+01  4.80845E+00  9.37554E+00  4.66074E+00  6.43490E+00  4.43563E+00  7.03685E+00  5.58205E+00
   6.12830E+00  5.31782E+00  2.60735E+00  4.03784E+00  7.62088E+00  6.82692E+00  3.49650E+00  3.33076E+00  4.18742E+00  4.63794E+00
   6.87891E+00  2.66338E+00  7.49327E+00  3.36392E+00  1.41995E+00  3.48648E+00  3.62995E-01  2.15034E+00  4.72827E+00  4.32672E+00
   2.71515E-01  2.10937E+00  1.07303E+00  2.23590E+00  3.45887E+00  7.36608E+00  4.43421E+00  2.21203E+00  7.35463E+00  3.21823E+00
   3.13515E-01  3.43727E+00  9.98210E+00  9.68337E+00 -4.15107E+00  2.28838E+00  9.81797E-01  3.56263E+00  2.31405E+00  2.55827E+00
   3.67085E+00  5.24031E+00  1.06793E-01 -1.00894E+00  3.95526E+00 -2.04281E-01 -3.12663E-01  2.02302E+00  2.26760E+00 -7.92738E-01
   1.93847E-01  2.71934E+00  2.75778E+00  4.24159E+00  5.47701E+00  2.45325E+00  1.13902E+00  5.40483E+00  3.91474E+00  1.10232E+00
   5.66311E-01 -1.89188E+00  2.07806E+00  2.80885E+00  1.68502E+00  1.80818E+00 -7.53083E-01 -2.58841E+00  5.72854E+00  3.43782E+00
   1.38970E+00  1.97133E+00 -1.27027E+00  4.71167E+00  3.12548E+00  2.19719E+00  5.33862E+00 -1.01094E+00
 NY points of the fit to the data follow
   4.29151E-01  6.15854E-01  8.44632E-01  1.16359E+00  1.58673E+00  2.07228E+00  2.56965E+00  3.00739E+00  3.30663E+00  3.42225E+00
   3.35284E+00  3.14766E+00  2.87931E+00  2.60763E+00  2.37420E+00  2.19560E+00  2.03559E+00  1.87466E+00  1.70108E+00  1.55247E+00
   1.50473E+00  1.54211E+00  1.63424E+00  1.76163E+00  1.87035E+00  1.91789E+00  1.89740E+00  1.85901E+00  1.89735E+00  2.10011E+00
   2.47424E+00  2.92938E+00  3.32493E+00  3.53656E+00  3.49881E+00  3.23930E+00  2.86008E+00  2.45781E+00  2.07295E+00  1.74413E+00
   1.47367E+00  1.27259E+00  1.16189E+00  1.16068E+00  1.26856E+00  1.41811E+00  1.55859E+00  1.63971E+00  1.61963E+00  1.49978E+00
   1.32320E+00  1.14306E+00  9.83463E-01  8.44176E-01  7.24782E-01  6.22179E-01  5.30669E-01  4.53817E-01  3.90708E-01  3.36802E-01
   2.90485E-01  2.56433E-01  2.37908E-01  2.31935E-01  2.33436E-01  2.45277E-01  2.71899E-01  3.03377E-01  3.28341E-01  3.43012E-01
   3.49200E-01  3.54421E-01  3.68866E-01  3.95865E-01  4.28201E-01  4.57115E-01  4.90510E-01  5.35917E-01  5.84826E-01  6.36013E-01
   6.97663E-01  7.83921E-01  8.98116E-01  1.03359E+00  1.17488E+00  1.30020E+00  1.38927E+00  1.43534E+00  1.43870E+00  1.40144E+00
   1.32988E+00  1.25567E+00  1.30743E+00  1.60338E+00  2.07423E+00  2.65014E+00  3.31807E+00  4.10177E+00  5.02800E+00  6.07430E+00
   7.16288E+00  8.17219E+00  8.94475E+00  9.34527E+00  9.31029E+00  8.85612E+00  8.06917E+00  7.07640E+00  5.99428E+00  4.90491E+00
   3.86734E+00  2.92595E+00  2.11595E+00  1.50553E+00  1.19759E+00  1.19688E+00  1.52345E+00  2.25464E+00  3.22996E+00  4.31809E+00
   5.49195E+00  6.78038E+00  8.21666E+00  9.80165E+00  1.14611E+01  1.30071E+01  1.41834E+01  1.47716E+01  1.46731E+01  1.39281E+01
   1.26845E+01  1.11349E+01  9.44581E+00  7.72769E+00  6.05833E+00  4.50694E+00  3.15334E+00  2.11720E+00  1.54351E+00  1.34663E+00
   1.26672E+00  1.22286E+00  1.19405E+00  1.17044E+00  1.14639E+00  1.11932E+00  1.08542E+00  1.03844E+00  9.78030E-01  9.07253E-01
   8.28235E-01  7.36427E-01  6.30758E-01  5.21872E-01  4.20248E-01  3.35453E-01  2.63195E-01  1.86409E-01  9.72549E-02 -3.27857E-03
  -1.04947E-01 -1.91602E-01 -2.51731E-01 -2.85201E-01 -3.05020E-01 -3.32509E-01 -3.92208E-01 -4.96534E-01 -6.23383E-01 -7.51458E-01
  -8.75219E-01 -1.00686E+00 -1.15926E+00 -1.32699E+00 -1.48632E+00 -1.60820E+00 -1.67925E+00 -1.70239E+00 -1.69437E+00 -1.65646E+00
  -1.58438E+00 -1.47844E+00 -1.34173E+00 -1.18718E+00 -1.03161E+00 -8.78255E-01 -7.40299E-01 -6.11005E-01 -4.94927E-01 -3.99292E-01
  -3.10443E-01 -2.10813E-01 -9.53885E-02  2.59622E-02  1.85178E-01  4.42939E-01  8.14819E-01  1.27741E+00  1.78548E+00  2.25328E+00
   2.57768E+00  2.79791E+00  2.92207E+00  2.87202E+00  2.57242E+00  2.00915E+00  1.27421E+00  4.63386E-01 -3.28915E-01 -9.22416E-01
  -1.16116E+00 -9.76803E-01 -4.12491E-01  4.27501E-01  1.41737E+00  2.41230E+00  3.25664E+00  3.81958E+00  4.00928E+00  3.81976E+00
   3.32674E+00  2.64428E+00  1.95491E+00  1.53659E+00  1.47652E+00  1.68984E+00  2.07932E+00  2.62431E+00  3.29521E+00  3.97364E+00
   4.56652E+00  5.05585E+00  5.38554E+00  5.50104E+00  5.44189E+00  5.33641E+00  5.32875E+00  5.46289E+00  5.67958E+00  5.88378E+00
   5.97969E+00  5.91843E+00  5.71502E+00  5.43915E+00  5.18458E+00  5.03669E+00  5.01555E+00  5.09726E+00  5.28345E+00  5.67384E+00
   6.56663E+00  8.31873E+00  1.06599E+01  1.32142E+01  1.57712E+01  1.83262E+01  2.09827E+01  2.38100E+01  2.67587E+01  2.95721E+01
   3.18081E+01  3.30096E+01  3.29143E+01  3.15251E+01  2.90800E+01  2.59591E+01  2.25182E+01  1.90008E+01  1.55644E+01  1.23420E+01
   9.45707E+00  7.11730E+00  5.64014E+00  5.03000E+00  4.74951E+00  4.57004E+00  4.43920E+00  4.32405E+00  4.20489E+00  4.08611E+00
   3.96797E+00  3.85153E+00  3.73985E+00  3.63707E+00  3.54678E+00  3.47731E+00  3.43499E+00  3.41882E+00  3.42549E+00  3.45214E+00
   3.49578E+00  3.55390E+00  3.62372E+00  3.70333E+00  3.79367E+00  3.89483E+00  4.00591E+00  4.12605E+00  4.25396E+00  4.38776E+00
   4.52525E+00  4.66486E+00  4.80539E+00  4.94583E+00  5.08588E+00  5.22639E+00  5.36895E+00  5.51661E+00  5.67358E+00  5.84544E+00
   6.03880E+00  6.26141E+00  6.52177E+00  6.82929E+00  7.19443E+00  7.62998E+00  8.15543E+00  8.80112E+00  9.54266E+00  1.03155E+01
   1.10946E+01  1.18766E+01  1.26538E+01  1.34000E+01  1.40692E+01  1.46426E+01  1.51257E+01  1.54816E+01  1.56843E+01  1.57520E+01
   1.57392E+01  1.57170E+01  1.57508E+01  1.58838E+01  1.61248E+01  1.64519E+01  1.68373E+01  1.72975E+01  1.78364E+01  1.82588E+01
   1.84018E+01  1.82448E+01  1.78555E+01  1.72663E+01  1.64497E+01  1.54277E+01  1.43082E+01  1.30831E+01  1.17154E+01  1.02185E+01
   8.73454E+00  7.47363E+00  6.63884E+00  6.35965E+00  6.63991E+00  7.35795E+00  8.31926E+00  9.32859E+00  1.02498E+01  1.10171E+01
   1.15344E+01  1.16443E+01  1.13919E+01  1.08713E+01  1.01518E+01  9.28921E+00  8.36217E+00  7.53722E+00  6.94316E+00  6.49729E+00
   6.13580E+00  5.83165E+00  5.57078E+00  5.34506E+00  5.14941E+00  4.98066E+00  4.83672E+00  4.71640E+00  4.61893E+00  4.54393E+00
   4.49118E+00  4.46069E+00  4.45259E+00  4.46717E+00  4.50475E+00  4.56576E+00  4.65053E+00  4.75944E+00  4.89265E+00  5.05025E+00
   5.23193E+00  5.43708E+00  5.66450E+00  5.91254E+00  6.17877E+00  6.46019E+00  6.75292E+00  7.05243E+00  7.35343E+00  7.65011E+00
   7.93616E+00  8.20512E+00  8.45038E+00  8.66565E+00  8.84507E+00  8.98361E+00  9.07716E+00  9.12286E+00  9.11909E+00  9.06570E+00
   8.96389E+00  8.81627E+00  8.62657E+00  8.39961E+00  8.14089E+00  7.85654E+00  7.55286E+00  7.23622E+00  6.91268E+00  6.58792E+00
   6.26696E+00  5.95417E+00  5.65312E+00  5.36664E+00  5.09673E+00  4.84474E+00  4.61133E+00  4.39668E+00  4.20047E+00  4.02208E+00
   3.86057E+00  3.71489E+00  3.58381E+00  3.46615E+00  3.36066E+00  3.26617E+00  3.18153E+00  3.10571E+00  3.03772E+00  2.97674E+00
   2.92193E+00  2.87265E+00  2.82823E+00  2.78816E+00  2.75194E+00  2.71918E+00  2.68947E+00  2.66253E+00  2.63803E+00  2.61577E+00
   2.59548E+00  2.57703E+00  2.56019E+00  2.54485E+00  2.53085E+00  2.51809E+00  2.50646E+00  2.49588E+00  2.48623E+00  2.47748E+00
   2.46951E+00  2.46231E+00  2.45579E+00  2.44992E+00  2.44464E+00  2.43992E+00  2.43570E+00  2.43198E+00  2.42870E+00  2.42586E+00
   2.42338E+00  2.42130E+00  2.41954E+00  2.41814E+00  2.41703E+00  2.41622E+00  2.41567E+00  2.41539E+00  2.41535E+00  2.41556E+00
   2.41598E+00  2.41662E+00  2.41744E+00  2.41847E+00  2.41967E+00  2.42107E+00  2.42261E+00  2.42433E+00  2.42619E+00  2.42822E+00
   2.43038E+00  2.43271E+00  2.43515E+00  2.43775E+00  2.44047E+00  2.44335E+00  2.44635E+00  2.44951E+00
 NY background values follow
    -8.429E-01   -8.367E-01   -8.305E-01   -8.243E-01   -8.181E-01   -8.118E-01   -8.056E-01   -7.994E-01   -7.932E-01   -7.870E-01
    -7.808E-01   -7.746E-01   -7.684E-01   -7.622E-01   -7.559E-01   -7.497E-01   -7.435E-01   -7.373E-01   -7.311E-01   -7.249E-01
    -7.187E-01   -7.125E-01   -7.063E-01   -7.000E-01   -6.938E-01   -6.876E-01   -6.814E-01   -6.752E-01   -6.690E-01   -6.628E-01
    -6.566E-01   -6.504E-01   -6.441E-01   -6.379E-01   -6.317E-01   -6.255E-01   -6.193E-01   -6.131E-01   -6.069E-01   -6.007E-01
    -5.944E-01   -5.882E-01   -5.820E-01   -5.758E-01   -5.696E-01   -5.634E-01   -5.572E-01   -5.510E-01   -5.448E-01   -5.385E-01
    -5.323E-01   -5.261E-01   -5.199E-01   -5.137E-01   -5.075E-01   -5.013E-01   -4.951E-01   -4.889E-01   -4.826E-01   -4.764E-01
    -4.702E-01   -4.640E-01   -4.578E-01   -4.516E-01   -4.454E-01   -4.392E-01   -4.330E-01   -4.267E-01   -4.205E-01   -4.143E-01
    -4.081E-01   -4.019E-01   -3.957E-01   -3.895E-01   -3.833E-01   -3.771E-01   -3.708E-01   -3.646E-01   -3.584E-01   -3.522E-01
    -3.460E-01   -3.398E-01   -3.336E-01   -3.274E-01   -3.212E-01   -3.150E-01   -3.087E-01   -3.025E-01   -2.963E-01   -2.901E-01
    -2.839E-01   -2.777E-01   -2.715E-01   -2.653E-01   -2.591E-01   -2.528E-01   -2.466E-01   -2.404E-01   -2.342E-01   -2.280E-01
    -2.218E-01   -2.156E-01   -2.094E-01   -2.032E-01   -1.969E-01   -1.907E-01   -1.845E-01   -1.783E-01   -1.721E-01   -1.659E-01
    -1.597E-01   -1.535E-01   -1.473E-01   -1.410E-01   -1.348E-01   -1.286E-01   -1.224E-01   -1.162E-01   -1.100E-01   -1.038E-01
    -9.757E-02   -9.136E-02   -8.515E-02   -7.894E-02   -7.273E-02   -6.652E-02   -6.031E-02   -5.410E-02   -4.789E-02   -4.168E-02
    -3.547E-02   -2.926E-02   -2.304E-02   -1.683E-02   -1.062E-02   -4.414E-03    1.797E-03    8.007E-03    1.422E-02    2.043E-02
     2.664E-02    3.285E-02    3.906E-02    4.527E-02    5.148E-02    5.769E-02    6.390E-02    7.011E-02    7.632E-02    8.253E-02
     8.874E-02    9.495E-02    1.012E-01    1.074E-01    1.136E-01    1.198E-01    1.260E-01    1.322E-01    1.384E-01    1.446E-01
     1.508E-01    1.571E-01    1.633E-01    1.695E-01    1.757E-01    1.819E-01    1.881E-01    1.943E-01    2.005E-01    2.067E-01
     2.129E-01    2.192E-01    2.254E-01    2.316E-01    2.378E-01    2.440E-01    2.502E-01    2.564E-01    2.626E-01    2.688E-01
     2.750E-01    2.813E-01    2.875E-01    2.937E-01    2.999E-01    3.061E-01    3.123E-01    3.185E-01    3.247E-01    3.309E-01
     3.371E-01    3.434E-01    3.496E-01    3.558E-01    3.620E-01    3.682E-01    3.744E-01    3.806E-01    3.868E-01    3.930E-01
     3.992E-01    4.055E-01    4.117E-01    4.179E-01    4.241E-01    4.303E-01    4.365E-01    4.427E-01    4.489E-01    4.551E-01
     4.613E-01    4.676E-01    4.738E-01    4.800E-01    4.862E-01    4.924E-01    4.986E-01    5.048E-01    5.110E-01    5.172E-01
     5.234E-01    5.296E-01    5.359E-01    5.421E-01    5.483E-01    5.545E-01    5.607E-01    5.669E-01    5.731E-01    5.793E-01
     5.855E-01    5.917E-01    5.980E-01    6.042E-01    6.104E-01    6.166E-01    6.228E-01    6.290E-01    6.352E-01    6.414E-01
     6.476E-01    6.538E-01    6.600E-01    6.663E-01    6.725E-01    6.787E-01    6.849E-01    6.911E-01    6.973E-01    7.035E-01
     7.097E-01    7.159E-01    7.221E-01    7.283E-01    7.345E-01    7.408E-01    7.470E-01    7.532E-01    7.594E-01    7.656E-01
     7.718E-01    7.780E-01    7.842E-01    7.904E-01    7.966E-01    8.028E-01    8.091E-01    8.153E-01    8.215E-01    8.277E-01
     8.339E-01    8.401E-01    8.463E-01    8.525E-01    8.587E-01    8.649E-01    8.711E-01    8.773E-01    8.836E-01    8.898E-01
     8.960E-01    9.022E-01    9.084E-01    9.146E-01    9.208E-01    9.270E-01    9.332E-01    9.394E-01    9.456E-01    9.518E-01
     9.581E-01    9.643E-01    9.705E-01    9.767E-01    9.829E-01    9.891E-01    9.953E-01    1.002E+00    1.008E+00    1.014E+00
     1.020E+00    1.026E+00    1.033E+00    1.039E+00    1.045E+00    1.051E+00    1.057E+00    1.064E+00    1.070E+00    1.076E+00
     1.082E+00    1.088E+00    1.095E+00    1.101E+00    1.107E+00    1.113E+00    1.119E+00    1.126E+00    1.132E+00    1.138E+00
     1.144E+00    1.150E+00    1.157E+00    1.163E+00    1.169E+00    1.175E+00    1.182E+00    1.188E+00    1.194E+00    1.200E+00
     1.206E+00    1.213E+00    1.219E+00    1.225E+00    1.231E+00    1.237E+00    1.244E+00    1.250E+00    1.256E+00    1.262E+00
     1.268E+00    1.275E+00    1.281E+00    1.287E+00    1.293E+00    1.299E+00    1.306E+00    1.312E+00    1.318E+00    1.324E+00
     1.331E+00    1.337E+00    1.343E+00    1.349E+00    1.355E+00    1.362E+00    1.368E+00    1.374E+00    1.380E+00    1.386E+00
     1.393E+00    1.399E+00    1.405E+00    1.411E+00    1.417E+00    1.424E+00    1.430E+00    1.436E+00    1.442E+00    1.448E+00
     1.455E+00    1.461E+00    1.467E+00    1.473E+00    1.479E+00    1.486E+00    1.492E+00    1.498E+00    1.504E+00    1.511E+00
     1.517E+00    1.523E+00    1.529E+00    1.535E+00    1.542E+00    1.548E+00    1.554E+00    1.560E+00    1.566E+00    1.573E+00
     1.579E+00    1.585E+00    1.591E+00    1.597E+00    1.604E+00    1.610E+00    1.616E+00    1.622E+00    1.628E+00    1.635E+00
     1.641E+00    1.647E+00    1.653E+00    1.659E+00    1.666E+00    1.672E+00    1.678E+00    1.684E+00    1.690E+00    1.697E+00
     1.703E+00    1.709E+00    1.715E+00    1.722E+00    1.728E+00    1.734E+00    1.740E+00    1.746E+00    1.753E+00    1.759E+00
     1.765E+00    1.771E+00    1.777E+00    1.784E+00    1.790E+00    1.796E+00    1.802E+00    1.808E+00    1.815E+00    1.821E+00
     1.827E+00    1.833E+00    1.839E+00    1.846E+00    1.852E+00    1.858E+00    1.864E+00    1.870E+00    1.877E+00    1.883E+00
     1.889E+00    1.895E+00    1.902E+00    1.908E+00    1.914E+00    1.920E+00    1.926E+00    1.933E+00    1.939E+00    1.945E+00
     1.951E+00    1.957E+00    1.964E+00    1.970E+00    1.976E+00    1.982E+00    1.988E+00    1.995E+00    2.001E+00    2.007E+00
     2.013E+00    2.019E+00    2.026E+00    2.032E+00    2.038E+00    2.044E+00    2.050E+00    2.057E+00    2.063E+00    2.069E+00
     2.075E+00    2.081E+00    2.088E+00    2.094E+00    2.100E+00    2.106E+00    2.113E+00    2.119E+00    2.125E+00    2.131E+00
     2.137E+00    2.144E+00    2.150E+00    2.156E+00    2.162E+00    2.168E+00    2.175E+00    2.181E+00    2.187E+00    2.193E+00
     2.199E+00    2.206E+00    2.212E+00    2.218E+00    2.224E+00    2.230E+00    2.237E+00    2.243E+00
 Ala      Conc. = 2.98E+02
