 LCModel (Version 6.3-1L) Copyright: S.W. Provencher.          Ref.: Magn. Reson. Med. 30:672-679 (1993).                
 Slice#3 Row#4 Col#4  PD_05_press_2_raw_act
 36 lines in following concentration table = NCONC+1
    Conc.  %SD /Cr+PCr  Metabolite                                         
    0.000 999%   0.000 Ala                                                 
  368.737 141%   0.105 Asp                                                 
 1.22E+03  39%   0.349 Cr                                                  
 2.29E+03  22%   0.651 PCr                                                 
   54.341 636% 1.5E-02 GABA                                                
  179.641 196% 5.1E-02 Glc                                                 
 1.65E+03  30%   0.470 Gln                                                 
 3.53E+03  17%   1.004 Glu                                                 
 1.46E+03   4%   0.417 GPC                                                 
    0.000 999%   0.000 PCh                                                 
 1.13E+03  15%   0.322 GSH                                                 
 2.55E+03  24%   0.727 Ins                                                 
   93.525 271% 2.7E-02 Lac                                                 
 4.87E+03   5%   1.387 NAA                                                 
  403.667  61%   0.115 NAAG                                                
  209.497  31% 6.0E-02 Scyllo                                              
  557.581  90%   0.159 Tau                                                 
  119.342 230% 3.4E-02 -CrCH2                                              
 1.46E+03   4%   0.417 GPC+PCh                                             
 5.28E+03   4%   1.502 NAA+NAAG                                            
 3.51E+03   4%   1.000 Cr+PCr                                              
 5.18E+03  15%   1.473 Glu+Gln                                             
    0.000 999%   0.000 Lip13a                                              
    0.000 999%   0.000 Lip13b                                              
    0.000 999%   0.000 Lip09                                               
 3.43E+03  15%   0.976 MM09                                                
    0.000 999%   0.000 Lip20                                               
 8.75E+03  12%   2.491 MM20                                                
  405.907 112%   0.116 MM12                                                
    0.000 999%   0.000 MM14                                                
 3.31E+03  19%   0.941 MM17                                                
    0.000 999%   0.000 Lip13a+Lip13b                                       
  405.907 112%   0.116 MM14+Lip13a+Lip13b+MM12                             
 3.43E+03  15%   0.976 MM09+Lip09                                          
 8.75E+03  12%   2.491 MM20+Lip20                                          
   6 lines in following misc. output table
  FWHM = 0.038 ppm    S/N =  12                                            
  Data shift = 0.031 ppm                                                   
  Ph: -25 deg      -9.7 deg/ppm                                            
  alphaB,S = 8.1E-01,   1.2E+01                                            
   14 spline knots.   Ns = 6(1)                                            
  (10) 8 infls.   ( 9) 3 extrs.                                            
  498 points on ppm-axis = NY
      4.000000     3.992357     3.984714     3.977070     3.969427     3.961784     3.954141     3.946497     3.938854     3.931211
      3.923568     3.915925     3.908281     3.900638     3.892995     3.885352     3.877708     3.870065     3.862422     3.854779
      3.847136     3.839492     3.831849     3.824206     3.816563     3.808919     3.801276     3.793633     3.785990     3.778347
      3.770703     3.763060     3.755417     3.747774     3.740130     3.732487     3.724844     3.717201     3.709558     3.701914
      3.694271     3.686628     3.678985     3.671341     3.663698     3.656055     3.648412     3.640769     3.633125     3.625482
      3.617839     3.610196     3.602552     3.594909     3.587266     3.579623     3.571980     3.564336     3.556693     3.549050
      3.541407     3.533763     3.526120     3.518477     3.510834     3.503191     3.495547     3.487904     3.480261     3.472618
      3.464974     3.457331     3.449688     3.442045     3.434402     3.426758     3.419115     3.411472     3.403829     3.396185
      3.388542     3.380899     3.373256     3.365613     3.357969     3.350326     3.342683     3.335040     3.327396     3.319753
      3.312110     3.304467     3.296824     3.289180     3.281537     3.273894     3.266251     3.258607     3.250964     3.243321
      3.235678     3.228034     3.220391     3.212748     3.205105     3.197462     3.189818     3.182175     3.174532     3.166889
      3.159245     3.151602     3.143959     3.136316     3.128673     3.121029     3.113386     3.105743     3.098100     3.090456
      3.082813     3.075170     3.067527     3.059884     3.052240     3.044597     3.036954     3.029311     3.021667     3.014024
      3.006381     2.998738     2.991095     2.983451     2.975808     2.968165     2.960522     2.952878     2.945235     2.937592
      2.929949     2.922306     2.914662     2.907019     2.899376     2.891733     2.884089     2.876446     2.868803     2.861160
      2.853517     2.845873     2.838230     2.830587     2.822944     2.815300     2.807657     2.800014     2.792371     2.784728
      2.777084     2.769441     2.761798     2.754155     2.746511     2.738868     2.731225     2.723582     2.715939     2.708295
      2.700652     2.693009     2.685366     2.677722     2.670079     2.662436     2.654793     2.647150     2.639506     2.631863
      2.624220     2.616577     2.608933     2.601290     2.593647     2.586004     2.578361     2.570717     2.563074     2.555431
      2.547788     2.540144     2.532501     2.524858     2.517215     2.509572     2.501928     2.494285     2.486642     2.478999
      2.471355     2.463712     2.456069     2.448426     2.440783     2.433139     2.425496     2.417853     2.410210     2.402566
      2.394923     2.387280     2.379637     2.371994     2.364350     2.356707     2.349064     2.341421     2.333777     2.326134
      2.318491     2.310848     2.303205     2.295561     2.287918     2.280275     2.272632     2.264988     2.257345     2.249702
      2.242059     2.234416     2.226772     2.219129     2.211486     2.203843     2.196199     2.188556     2.180913     2.173270
      2.165627     2.157983     2.150340     2.142697     2.135054     2.127410     2.119767     2.112124     2.104481     2.096838
      2.089194     2.081551     2.073908     2.066265     2.058621     2.050978     2.043335     2.035692     2.028049     2.020405
      2.012762     2.005119     1.997476     1.989833     1.982190     1.974546     1.966903     1.959260     1.951617     1.943974
      1.936331     1.928688     1.921045     1.913402     1.905759     1.898115     1.890472     1.882829     1.875186     1.867543
      1.859900     1.852257     1.844614     1.836971     1.829327     1.821684     1.814041     1.806398     1.798755     1.791112
      1.783469     1.775826     1.768183     1.760540     1.752896     1.745253     1.737610     1.729967     1.722324     1.714681
      1.707038     1.699395     1.691752     1.684108     1.676465     1.668822     1.661179     1.653536     1.645893     1.638250
      1.630607     1.622964     1.615321     1.607677     1.600034     1.592391     1.584748     1.577105     1.569462     1.561819
      1.554176     1.546533     1.538890     1.531246     1.523603     1.515960     1.508317     1.500674     1.493031     1.485388
      1.477745     1.470102     1.462458     1.454815     1.447172     1.439529     1.431886     1.424243     1.416600     1.408957
      1.401314     1.393671     1.386027     1.378384     1.370741     1.363098     1.355455     1.347812     1.340169     1.332526
      1.324883     1.317240     1.309596     1.301953     1.294310     1.286667     1.279024     1.271381     1.263738     1.256095
      1.248452     1.240808     1.233165     1.225522     1.217879     1.210236     1.202593     1.194950     1.187307     1.179664
      1.172021     1.164377     1.156734     1.149091     1.141448     1.133805     1.126162     1.118519     1.110876     1.103233
      1.095590     1.087946     1.080303     1.072660     1.065017     1.057374     1.049731     1.042088     1.034445     1.026802
      1.019158     1.011515     1.003872     0.996229     0.988586     0.980943     0.973300     0.965657     0.958014     0.950371
      0.942727     0.935084     0.927441     0.919798     0.912155     0.904512     0.896869     0.889226     0.881583     0.873940
      0.866296     0.858653     0.851010     0.843367     0.835724     0.828081     0.820438     0.812795     0.805152     0.797508
      0.789865     0.782222     0.774579     0.766936     0.759293     0.751650     0.744007     0.736364     0.728721     0.721077
      0.713434     0.705791     0.698148     0.690505     0.682862     0.675219     0.667576     0.659933     0.652290     0.644646
      0.637003     0.629360     0.621717     0.614074     0.606431     0.598788     0.591145     0.583502     0.575858     0.568215
      0.560572     0.552929     0.545286     0.537643     0.530000     0.522357     0.514714     0.507071     0.499427     0.491784
      0.484141     0.476498     0.468855     0.461212     0.453569     0.445925     0.438282     0.430639     0.422996     0.415353
      0.407710     0.400067     0.392424     0.384780     0.377137     0.369494     0.361851     0.354208     0.346565     0.338922
      0.331278     0.323635     0.315992     0.308349     0.300706     0.293063     0.285420     0.277777     0.270133     0.262490
      0.254847     0.247204     0.239561     0.231918     0.224275     0.216631     0.208988     0.201345
 NY phased data points follow
  -1.09735E+02 -1.13170E+02 -9.38105E+01 -1.13611E+02 -1.00084E+02 -1.02057E+02 -7.14487E+01 -7.23657E+01 -3.39929E+01 -3.05568E+01
  -1.15792E+01 -9.30941E+00 -1.38808E+01 -4.22569E+01 -4.23990E+01 -6.06767E+01 -6.12175E+01 -9.08530E+01 -7.64778E+01 -8.54840E+01
  -9.48645E+01 -8.80880E+01 -7.29697E+01 -8.24727E+01 -7.33945E+01 -9.15545E+01 -7.26964E+01 -7.07291E+01 -5.60749E+01 -7.20916E+01
  -5.55805E+01 -6.25091E+01 -4.98822E+01 -5.74357E+01 -4.90692E+01 -6.99447E+01 -5.89945E+01 -6.90756E+01 -6.88056E+01 -8.34564E+01
  -7.13214E+01 -7.12441E+01 -6.58848E+01 -7.38360E+01 -5.75419E+01 -6.25275E+01 -4.33228E+01 -4.66640E+01 -3.93863E+01 -5.86993E+01
  -4.03619E+01 -6.58541E+01 -5.91279E+01 -6.61999E+01 -6.14722E+01 -6.96115E+01 -6.33709E+01 -5.91008E+01 -5.84486E+01 -5.97092E+01
  -5.48595E+01 -5.68136E+01 -6.69394E+01 -6.54674E+01 -6.38288E+01 -7.79668E+01 -5.69934E+01 -6.86008E+01 -7.67075E+01 -6.07921E+01
  -6.35883E+01 -7.03450E+01 -5.74102E+01 -5.82767E+01 -5.54138E+01 -5.38671E+01 -5.80848E+01 -5.87879E+01 -6.05368E+01 -5.03800E+01
  -4.22658E+01 -5.27546E+01 -4.12063E+01 -4.92487E+01 -5.00946E+01 -5.48610E+01 -4.58940E+01 -4.94104E+01 -3.87851E+01 -3.84170E+01
  -4.72345E+01 -4.92412E+01 -4.72196E+01 -4.61208E+01 -3.24646E+01 -4.83483E+01 -2.53046E+01 -3.06441E+01 -1.82564E+01 -4.10198E+00
   1.91781E+01  3.64105E+01  8.21621E+01  1.04240E+02  9.84241E+01  8.75655E+01  6.36940E+01  1.48917E+01  7.13131E+00 -1.41213E+01
  -9.07816E+00 -2.15446E+01 -1.78736E+01 -2.27192E+01 -2.98106E+01 -3.57494E+01 -2.77311E+01 -3.78314E+01 -2.64966E+01 -3.98839E+01
  -3.49779E+01 -3.22772E+01 -3.13953E+01 -1.94662E+01  1.94367E+01  2.75704E+01  7.35664E+01  9.50550E+01  9.75178E+01  7.39491E+01
   6.54050E+01  3.38547E+01  3.41217E+01 -1.71933E+00 -6.73757E-01 -2.01131E+01 -2.31522E+01 -3.55543E+01 -2.00408E+01 -3.00974E+01
  -2.51785E+01 -2.55791E+01 -3.26833E+01 -3.72284E+01 -3.04834E+01 -3.71493E+01 -2.65918E+01 -4.52406E+01 -2.36152E+01 -2.36842E+01
  -2.72497E+01 -4.35576E+01 -2.57706E+01 -4.07460E+01 -4.38232E+01 -3.98939E+01 -3.69795E+01 -3.67688E+01 -4.21219E+01 -3.79609E+01
  -3.05315E+01 -2.94551E+01 -2.61972E+01 -3.11583E+01 -3.68249E+01 -3.44778E+01 -2.00373E+01 -1.83357E+01 -2.50385E+01 -3.48461E+01
  -2.75751E+01 -4.34741E+01 -3.45583E+01 -3.40891E+01 -3.16391E+01 -3.96721E+01 -3.52624E+01 -4.36135E+01 -3.75983E+01 -4.57777E+01
  -2.90655E+01 -4.34051E+01 -5.95012E+01 -5.62220E+01 -4.21987E+01 -3.04751E+01 -3.78589E+01 -3.17316E+01 -2.43487E+01 -1.78234E+01
  -1.21873E+01 -4.84925E+00  1.23904E+01 -3.07707E+00  9.59499E+00 -1.26010E+01 -7.93316E+00 -1.07657E+01 -1.89925E+01 -2.57468E+01
  -1.36023E+01 -1.79416E+00  7.86892E+00 -6.72144E+00  7.00106E+00 -1.33973E+01 -4.96748E+00 -2.19928E+01 -1.81707E+01 -1.61729E+01
  -1.42111E+01 -2.73276E+01 -2.36412E+01 -3.47513E+00  1.10836E+01  1.67916E+01  1.96895E+01  3.02902E+01  1.74153E+01  6.70544E-01
   1.65639E+00 -1.42637E+01 -8.53663E+00 -1.44767E+01 -4.03793E+00  2.91136E+00  1.17303E+01  1.00713E+01  1.94951E+01  4.44925E+00
   1.63984E+01  6.33051E+00  2.72121E+01  1.00123E+01  1.58862E+01  1.89068E+01  1.35496E+01  2.16703E+01  2.46715E+01  1.98723E+01
   1.24183E+01  3.80412E+00  7.84796E+00  1.63706E+01  1.96846E+01  1.71436E+01  1.09197E+01  2.46112E+01  2.32196E+01  1.67676E+01
   3.68746E+01  2.52191E+01  3.60372E+01  2.82249E+01  4.12171E+01  6.33479E+01  8.97279E+01  1.09888E+02  1.37599E+02  1.78828E+02
   2.04228E+02  2.01262E+02  1.75415E+02  1.38440E+02  1.04750E+02  8.16940E+01  5.55300E+01  4.73432E+01  4.37595E+01  2.26589E+01
   2.37553E+01  1.94649E+01  1.81960E+01  2.23009E+01  1.50280E+01  1.44937E+01  8.52646E+00  1.43423E+01  1.72249E+01  2.87723E+00
   8.97012E+00  2.35408E+00  2.12733E+01  3.63923E+00  5.55996E+00  9.17684E+00  1.06324E+01  1.06882E+01  1.59132E+01  1.34255E+01
   1.11151E+01  8.06290E+00  5.26627E+00  1.38126E+01  5.49613E+00  6.93767E+00  1.91123E+01 -1.35452E-01  7.95683E+00  1.47705E+01
   1.24405E+01  1.78891E+01  1.07711E+01  3.13360E+00  2.18549E+01  2.35924E+01  1.43982E+01  1.25310E+01  1.85833E+01  5.28987E+00
   1.84530E+01  1.48583E+01  1.10626E+01  1.10682E+01  1.22767E+01  4.54091E+00  2.62844E+00  5.72062E+00 -7.50670E+00 -1.02203E+01
   4.51540E+00 -7.24562E+00  2.60087E+00 -9.83491E-02  3.09843E+00 -2.24860E+00 -7.76331E+00 -4.28091E+00 -3.04484E+00  1.59894E+00
   6.55430E+00  9.51483E+00 -1.19819E+00  1.29955E+01  1.46004E+00  6.34426E-01 -7.40769E+00 -1.04612E+01 -1.79382E+01 -1.37002E+01
  -1.07294E+01 -1.35286E+01 -1.48154E+01 -1.13379E+01 -1.07406E+01 -1.83699E+01 -1.08890E+01 -1.21567E+01 -1.90248E+01 -2.34507E+01
  -3.32810E+01 -2.34501E+01 -2.03218E+01 -1.58772E+01 -1.18132E+01 -1.31879E+01 -1.88857E+01 -2.97905E+01 -6.45468E+00 -1.18568E+01
  -5.34959E+00 -1.41719E+00 -7.06750E+00 -1.91395E+00 -4.80795E+00 -3.39167E+00 -1.42429E+01  1.48033E+01  2.72118E+00  1.55834E+01
   8.84280E+00  3.30071E-01  6.51923E+00  1.77784E+01  1.57206E+01  3.26747E+00  6.49149E+00  4.74853E+00  1.53984E+01  8.75689E+00
   7.99519E+00  1.16655E+01  1.09696E+01  6.93476E+00  1.41595E+01  1.03104E+01  1.06112E+01  1.20602E+01  9.93544E+00  1.71858E+01
   2.36021E+01  9.77775E+00  1.77398E+01  1.63967E+01  1.66468E+01  2.61938E+01  3.01836E+01  2.37186E+01  1.61894E+01  1.46385E+01
   2.00602E+01  2.28661E+01  2.81744E+01  2.19214E+01  1.82888E+01  2.75414E+01  1.91209E+01  2.72870E+01  2.59501E+01  7.17089E+00
   3.30726E+01  8.07397E+00  2.34733E+01  2.91884E+01  1.94155E+01  2.96558E+01  2.41675E+01  2.42576E+01  1.47199E+01  1.22392E+01
   1.64316E+01  1.55725E+01  2.44039E+01  2.00083E+01  1.80426E+01  1.69017E+01  2.42499E+01  1.81290E+01  2.92233E+01  3.54100E+01
   1.70934E+01  2.20530E+01  1.90333E+01  1.15176E+01  1.97256E+01  2.97453E+01  1.50771E+01  1.47910E+01  8.62816E+00  1.50986E+01
   2.13296E+01  1.21014E+01  6.06646E+00  1.20503E+01  1.99492E+01  1.90302E+01  1.35414E+01  1.49043E+01  3.01012E+01  1.26204E+01
   2.07059E+01  2.64527E+01  3.15691E+01  1.41739E+01  1.67690E+01  1.74507E+01  2.73035E+01  1.49371E+01  1.74468E+01  2.14684E+01
   1.95230E+01  1.24200E+01  3.86202E+00  1.13385E+01  1.52557E+01  1.84843E+01  1.83869E+01  2.35809E+01  3.16238E+01  9.27792E+00
   2.62497E+01  2.06018E+01  1.45098E+01  2.35804E+01  2.77383E+01  1.44959E+01  2.25406E+01  1.56383E+01  2.54508E+01  1.38894E+01
   2.21742E+01  1.97059E+01  2.03857E+01  2.48277E+01  1.15185E+01  2.51424E+01  2.37237E+01  1.87619E+01  2.11045E+01  2.64415E+01
   1.89151E+01  1.47886E+01  2.46013E+01  1.96684E+01  1.64614E+01  2.02815E+01  1.63839E+01  2.28001E+01
 NY points of the fit to the data follow
  -1.03469E+02 -1.03445E+02 -1.02011E+02 -9.99657E+01 -9.57647E+01 -8.79762E+01 -7.54863E+01 -6.25921E+01 -4.42368E+01 -2.62761E+01
  -1.45555E+01 -1.30383E+01 -2.04519E+01 -3.48636E+01 -4.79484E+01 -6.02486E+01 -6.55370E+01 -7.36800E+01 -7.88168E+01 -8.30507E+01
  -8.46496E+01 -8.45933E+01 -8.45796E+01 -8.46687E+01 -8.46636E+01 -8.33886E+01 -7.99648E+01 -7.67246E+01 -6.98513E+01 -6.04092E+01
  -5.41511E+01 -5.04419E+01 -5.00899E+01 -5.34868E+01 -5.83502E+01 -6.47381E+01 -6.83198E+01 -7.33197E+01 -7.67693E+01 -7.60659E+01
  -7.52200E+01 -7.31292E+01 -6.98604E+01 -6.55442E+01 -6.14934E+01 -5.70636E+01 -5.16411E+01 -4.83710E+01 -4.89175E+01 -5.16534E+01
  -5.59239E+01 -6.06209E+01 -6.37643E+01 -6.52234E+01 -6.62523E+01 -6.67840E+01 -6.62207E+01 -6.45299E+01 -6.23601E+01 -6.04422E+01
  -5.92386E+01 -5.90327E+01 -5.99416E+01 -6.13680E+01 -6.26607E+01 -6.29213E+01 -6.24450E+01 -6.16858E+01 -6.02480E+01 -5.91938E+01
  -5.77608E+01 -5.58395E+01 -5.44991E+01 -5.34833E+01 -5.27221E+01 -5.24342E+01 -5.29240E+01 -5.37253E+01 -5.42192E+01 -5.48669E+01
  -5.47530E+01 -5.34340E+01 -5.12926E+01 -4.92423E+01 -4.74565E+01 -4.48826E+01 -4.35013E+01 -4.44213E+01 -4.62915E+01 -4.83041E+01
  -4.98302E+01 -5.00090E+01 -4.95441E+01 -4.86304E+01 -4.85931E+01 -4.73419E+01 -4.48675E+01 -3.92983E+01 -2.79150E+01 -7.50853E+00
   1.64910E+01  4.42592E+01  8.14588E+01  1.04506E+02  1.02566E+02  8.45873E+01  5.62647E+01  2.75431E+01  6.54231E+00 -6.53629E+00
  -1.58973E+01 -3.15992E+01 -3.70465E+01 -3.83759E+01 -3.85654E+01 -3.85573E+01 -3.83520E+01 -3.79667E+01 -3.74985E+01 -3.68336E+01
  -3.55299E+01 -3.21137E+01 -2.40508E+01 -8.16183E+00  1.37882E+01  3.50235E+01  6.76279E+01  9.33764E+01  9.71663E+01  8.46295E+01
   6.34010E+01  3.71775E+01  1.90415E+01  4.32004E+00 -3.26449E+00 -2.07002E+01 -2.97461E+01 -3.24411E+01 -3.21934E+01 -3.05803E+01
  -2.82134E+01 -2.66440E+01 -2.57078E+01 -2.53169E+01 -2.54984E+01 -2.59657E+01 -2.64279E+01 -2.72713E+01 -2.78090E+01 -2.87153E+01
  -2.93489E+01 -2.98162E+01 -3.01141E+01 -3.03529E+01 -3.04333E+01 -3.02587E+01 -3.02723E+01 -3.06070E+01 -3.09610E+01 -3.18220E+01
  -3.28053E+01 -3.29412E+01 -3.23664E+01 -3.10018E+01 -2.95458E+01 -2.91761E+01 -2.96131E+01 -3.05027E+01 -3.12030E+01 -3.14525E+01
  -3.18696E+01 -3.21306E+01 -3.30490E+01 -3.37340E+01 -3.41676E+01 -3.49151E+01 -3.47691E+01 -3.38355E+01 -3.26359E+01 -3.19554E+01
  -3.19232E+01 -3.21461E+01 -3.18711E+01 -3.12812E+01 -2.97599E+01 -2.89091E+01 -2.75025E+01 -2.47655E+01 -2.05011E+01 -1.61114E+01
  -1.24834E+01 -1.06666E+01 -1.08659E+01 -1.25558E+01 -1.46274E+01 -1.61608E+01 -1.78770E+01 -1.84843E+01 -1.71623E+01 -1.40924E+01
  -9.99238E+00 -5.04494E+00 -8.66868E-01  2.07510E+00  2.33259E+00  9.53841E-01 -3.49827E+00 -9.10366E+00 -1.50828E+01 -2.09673E+01
  -2.28653E+01 -2.07295E+01 -1.57803E+01 -7.76380E+00  2.39270E-01  9.04951E+00  1.35477E+01  1.27615E+01  8.06849E+00 -3.45844E-01
  -8.67318E+00 -1.51117E+01 -1.97259E+01 -1.86029E+01 -1.44868E+01 -7.20469E+00  4.51838E-01  6.16151E+00  9.24801E+00  1.05305E+01
   1.08256E+01  1.08577E+01  1.05783E+01  1.14655E+01  1.32185E+01  1.50344E+01  1.76799E+01  1.97232E+01  2.00752E+01  1.94019E+01
   1.80933E+01  1.59565E+01  1.36766E+01  1.33552E+01  1.55683E+01  1.79296E+01  2.09198E+01  2.33962E+01  2.53334E+01  2.58821E+01
   2.71824E+01  2.94642E+01  3.31759E+01  3.73891E+01  4.61341E+01  6.15856E+01  8.59896E+01  1.11079E+02  1.39445E+02  1.79928E+02
   2.04569E+02  1.99810E+02  1.77659E+02  1.42447E+02  1.06463E+02  7.94714E+01  6.29180E+01  5.02122E+01  2.89817E+01  2.07462E+01
   1.73482E+01  1.53598E+01  1.37299E+01  1.30648E+01  1.26657E+01  1.21348E+01  1.14601E+01  1.06462E+01  9.75452E+00  8.87440E+00
   8.11771E+00  7.47132E+00  6.95666E+00  6.60433E+00  6.45129E+00  6.40380E+00  6.44404E+00  6.51883E+00  6.73538E+00  7.06105E+00
   7.48297E+00  8.00351E+00  8.63535E+00  9.31866E+00  1.00355E+01  1.07465E+01  1.14587E+01  1.21283E+01  1.27547E+01  1.33171E+01
   1.37962E+01  1.41724E+01  1.44319E+01  1.45459E+01  1.45009E+01  1.42832E+01  1.39070E+01  1.33734E+01  1.26911E+01  1.18825E+01
   1.09688E+01  9.96760E+00  8.90432E+00  7.80243E+00  6.68463E+00  5.57250E+00  4.48352E+00  3.43357E+00  2.43450E+00  1.49694E+00
   6.26971E-01 -1.70597E-01 -8.95614E-01 -1.54874E+00 -2.13271E+00 -2.64990E+00 -3.10487E+00 -3.50205E+00 -3.84751E+00 -4.14575E+00
  -4.40159E+00 -4.61815E+00 -4.79966E+00 -4.94922E+00 -5.07042E+00 -5.16461E+00 -5.23314E+00 -5.27538E+00 -5.29104E+00 -5.27665E+00
  -5.22393E+00 -5.11195E+00 -4.93568E+00 -4.70330E+00 -4.53481E+00 -4.38108E+00 -4.28556E+00 -4.51013E+00 -4.96338E+00 -5.40426E+00
  -5.73853E+00 -5.76093E+00 -5.59752E+00 -5.16600E+00 -4.50726E+00 -3.85607E+00 -3.22366E+00 -2.74574E+00 -2.48864E+00 -2.30810E+00
  -2.17573E+00 -1.94203E+00 -1.75400E+00 -1.63413E+00 -1.44578E+00 -1.21929E+00 -9.72433E-01 -7.10591E-01 -4.36304E-01 -1.48709E-01
   1.53047E-01  4.71613E-01  8.08815E-01  1.16828E+00  1.55317E+00  1.96845E+00  2.41801E+00  2.90683E+00  3.43858E+00  4.01830E+00
   4.64992E+00  5.33832E+00  6.08635E+00  6.89707E+00  7.77132E+00  8.71016E+00  9.71216E+00  1.07753E+01  1.18939E+01  1.30614E+01
   1.42675E+01  1.55015E+01  1.67490E+01  1.79949E+01  1.92208E+01  2.04081E+01  2.15371E+01  2.25892E+01  2.35455E+01  2.43899E+01
   2.51067E+01  2.56850E+01  2.61162E+01  2.63969E+01  2.65265E+01  2.65091E+01  2.63517E+01  2.60659E+01  2.56653E+01  2.51669E+01
   2.45880E+01  2.39472E+01  2.32623E+01  2.25517E+01  2.18317E+01  2.11179E+01  2.04225E+01  1.97565E+01  1.91279E+01  1.85439E+01
   1.80084E+01  1.75245E+01  1.70923E+01  1.67120E+01  1.63815E+01  1.60994E+01  1.58624E+01  1.56678E+01  1.55115E+01  1.53905E+01
   1.53010E+01  1.52407E+01  1.52058E+01  1.51940E+01  1.52019E+01  1.52277E+01  1.52690E+01  1.53245E+01  1.53919E+01  1.54700E+01
   1.55569E+01  1.56520E+01  1.57540E+01  1.58624E+01  1.59758E+01  1.60938E+01  1.62151E+01  1.63400E+01  1.64674E+01  1.65975E+01
   1.67290E+01  1.68620E+01  1.69956E+01  1.71305E+01  1.72658E+01  1.74019E+01  1.75378E+01  1.76740E+01  1.78099E+01  1.79462E+01
   1.80822E+01  1.82183E+01  1.83536E+01  1.84888E+01  1.86234E+01  1.87581E+01  1.88922E+01  1.90261E+01  1.91590E+01  1.92918E+01
   1.94240E+01  1.95562E+01  1.96877E+01  1.98190E+01  1.99494E+01  2.00799E+01  2.02099E+01  2.03400E+01  2.04694E+01  2.05987E+01
   2.07275E+01  2.08564E+01  2.09851E+01  2.11140E+01  2.12423E+01  2.13708E+01  2.14990E+01  2.16278E+01  2.17564E+01  2.18854E+01
   2.20142E+01  2.21434E+01  2.22727E+01  2.24027E+01  2.25329E+01  2.26637E+01  2.27945E+01  2.29262E+01
 NY background values follow
    -1.129E+02   -1.122E+02   -1.115E+02   -1.109E+02   -1.102E+02   -1.095E+02   -1.088E+02   -1.081E+02   -1.074E+02   -1.067E+02
    -1.060E+02   -1.053E+02   -1.046E+02   -1.040E+02   -1.033E+02   -1.026E+02   -1.019E+02   -1.012E+02   -1.005E+02   -9.985E+01
    -9.916E+01   -9.848E+01   -9.781E+01   -9.713E+01   -9.645E+01   -9.578E+01   -9.510E+01   -9.443E+01   -9.376E+01   -9.309E+01
    -9.242E+01   -9.176E+01   -9.109E+01   -9.043E+01   -8.977E+01   -8.911E+01   -8.845E+01   -8.779E+01   -8.714E+01   -8.648E+01
    -8.583E+01   -8.518E+01   -8.454E+01   -8.389E+01   -8.325E+01   -8.261E+01   -8.197E+01   -8.133E+01   -8.070E+01   -8.007E+01
    -7.944E+01   -7.881E+01   -7.819E+01   -7.756E+01   -7.694E+01   -7.633E+01   -7.571E+01   -7.510E+01   -7.449E+01   -7.389E+01
    -7.329E+01   -7.269E+01   -7.209E+01   -7.150E+01   -7.091E+01   -7.032E+01   -6.974E+01   -6.916E+01   -6.858E+01   -6.801E+01
    -6.744E+01   -6.688E+01   -6.631E+01   -6.576E+01   -6.520E+01   -6.465E+01   -6.411E+01   -6.356E+01   -6.303E+01   -6.249E+01
    -6.196E+01   -6.144E+01   -6.092E+01   -6.040E+01   -5.989E+01   -5.938E+01   -5.888E+01   -5.838E+01   -5.789E+01   -5.740E+01
    -5.692E+01   -5.644E+01   -5.596E+01   -5.549E+01   -5.503E+01   -5.457E+01   -5.411E+01   -5.366E+01   -5.322E+01   -5.278E+01
    -5.234E+01   -5.190E+01   -5.147E+01   -5.105E+01   -5.063E+01   -5.021E+01   -4.979E+01   -4.938E+01   -4.897E+01   -4.857E+01
    -4.817E+01   -4.777E+01   -4.738E+01   -4.699E+01   -4.660E+01   -4.621E+01   -4.583E+01   -4.545E+01   -4.507E+01   -4.470E+01
    -4.433E+01   -4.396E+01   -4.359E+01   -4.322E+01   -4.286E+01   -4.250E+01   -4.214E+01   -4.178E+01   -4.143E+01   -4.107E+01
    -4.072E+01   -4.037E+01   -4.002E+01   -3.967E+01   -3.933E+01   -3.898E+01   -3.864E+01   -3.829E+01   -3.795E+01   -3.761E+01
    -3.727E+01   -3.693E+01   -3.659E+01   -3.625E+01   -3.592E+01   -3.558E+01   -3.524E+01   -3.491E+01   -3.457E+01   -3.424E+01
    -3.391E+01   -3.357E+01   -3.324E+01   -3.291E+01   -3.258E+01   -3.224E+01   -3.191E+01   -3.158E+01   -3.125E+01   -3.092E+01
    -3.059E+01   -3.026E+01   -2.993E+01   -2.959E+01   -2.926E+01   -2.893E+01   -2.860E+01   -2.827E+01   -2.794E+01   -2.760E+01
    -2.727E+01   -2.694E+01   -2.661E+01   -2.627E+01   -2.594E+01   -2.560E+01   -2.527E+01   -2.493E+01   -2.460E+01   -2.426E+01
    -2.392E+01   -2.358E+01   -2.324E+01   -2.290E+01   -2.256E+01   -2.222E+01   -2.188E+01   -2.154E+01   -2.120E+01   -2.085E+01
    -2.051E+01   -2.018E+01   -1.984E+01   -1.950E+01   -1.916E+01   -1.883E+01   -1.849E+01   -1.816E+01   -1.783E+01   -1.750E+01
    -1.718E+01   -1.685E+01   -1.653E+01   -1.621E+01   -1.590E+01   -1.558E+01   -1.527E+01   -1.497E+01   -1.466E+01   -1.437E+01
    -1.407E+01   -1.378E+01   -1.349E+01   -1.321E+01   -1.293E+01   -1.265E+01   -1.238E+01   -1.212E+01   -1.186E+01   -1.160E+01
    -1.135E+01   -1.111E+01   -1.087E+01   -1.064E+01   -1.041E+01   -1.019E+01   -9.977E+00   -9.770E+00   -9.569E+00   -9.374E+00
    -9.186E+00   -9.003E+00   -8.827E+00   -8.658E+00   -8.494E+00   -8.336E+00   -8.184E+00   -8.039E+00   -7.899E+00   -7.764E+00
    -7.636E+00   -7.513E+00   -7.396E+00   -7.284E+00   -7.178E+00   -7.077E+00   -6.982E+00   -6.892E+00   -6.807E+00   -6.727E+00
    -6.653E+00   -6.583E+00   -6.519E+00   -6.460E+00   -6.405E+00   -6.356E+00   -6.311E+00   -6.271E+00   -6.236E+00   -6.205E+00
    -6.179E+00   -6.157E+00   -6.140E+00   -6.127E+00   -6.119E+00   -6.114E+00   -6.114E+00   -6.119E+00   -6.127E+00   -6.139E+00
    -6.155E+00   -6.176E+00   -6.200E+00   -6.228E+00   -6.259E+00   -6.294E+00   -6.332E+00   -6.374E+00   -6.418E+00   -6.465E+00
    -6.516E+00   -6.568E+00   -6.623E+00   -6.681E+00   -6.740E+00   -6.802E+00   -6.866E+00   -6.931E+00   -6.998E+00   -7.067E+00
    -7.136E+00   -7.207E+00   -7.279E+00   -7.352E+00   -7.426E+00   -7.501E+00   -7.575E+00   -7.651E+00   -7.726E+00   -7.801E+00
    -7.877E+00   -7.952E+00   -8.027E+00   -8.101E+00   -8.175E+00   -8.248E+00   -8.320E+00   -8.391E+00   -8.460E+00   -8.529E+00
    -8.596E+00   -8.661E+00   -8.724E+00   -8.786E+00   -8.845E+00   -8.903E+00   -8.958E+00   -9.010E+00   -9.060E+00   -9.107E+00
    -9.152E+00   -9.194E+00   -9.232E+00   -9.268E+00   -9.300E+00   -9.330E+00   -9.356E+00   -9.378E+00   -9.397E+00   -9.413E+00
    -9.424E+00   -9.432E+00   -9.437E+00   -9.437E+00   -9.433E+00   -9.425E+00   -9.412E+00   -9.396E+00   -9.375E+00   -9.349E+00
    -9.319E+00   -9.284E+00   -9.245E+00   -9.200E+00   -9.151E+00   -9.096E+00   -9.036E+00   -8.971E+00   -8.901E+00   -8.825E+00
    -8.744E+00   -8.657E+00   -8.565E+00   -8.466E+00   -8.362E+00   -8.252E+00   -8.136E+00   -8.013E+00   -7.884E+00   -7.749E+00
    -7.608E+00   -7.460E+00   -7.305E+00   -7.144E+00   -6.976E+00   -6.802E+00   -6.622E+00   -6.436E+00   -6.245E+00   -6.048E+00
    -5.845E+00   -5.638E+00   -5.425E+00   -5.208E+00   -4.986E+00   -4.759E+00   -4.528E+00   -4.293E+00   -4.054E+00   -3.811E+00
    -3.565E+00   -3.315E+00   -3.062E+00   -2.806E+00   -2.547E+00   -2.285E+00   -2.021E+00   -1.754E+00   -1.485E+00   -1.214E+00
    -9.407E-01   -6.660E-01   -3.898E-01   -1.123E-01    1.664E-01    4.461E-01    7.266E-01    1.008E+00    1.289E+00    1.571E+00
     1.854E+00    2.136E+00    2.417E+00    2.699E+00    2.980E+00    3.260E+00    3.539E+00    3.817E+00    4.094E+00    4.370E+00
     4.645E+00    4.918E+00    5.190E+00    5.460E+00    5.729E+00    5.997E+00    6.263E+00    6.528E+00    6.791E+00    7.053E+00
     7.313E+00    7.572E+00    7.829E+00    8.084E+00    8.338E+00    8.590E+00    8.840E+00    9.088E+00    9.335E+00    9.580E+00
     9.823E+00    1.006E+01    1.030E+01    1.054E+01    1.078E+01    1.101E+01    1.124E+01    1.147E+01    1.170E+01    1.192E+01
     1.214E+01    1.236E+01    1.258E+01    1.280E+01    1.301E+01    1.322E+01    1.343E+01    1.364E+01    1.384E+01    1.405E+01
     1.425E+01    1.444E+01    1.464E+01    1.483E+01    1.502E+01    1.521E+01    1.539E+01    1.558E+01    1.576E+01    1.593E+01
     1.611E+01    1.629E+01    1.646E+01    1.663E+01    1.680E+01    1.696E+01    1.713E+01    1.729E+01    1.746E+01    1.762E+01
     1.778E+01    1.793E+01    1.809E+01    1.824E+01    1.840E+01    1.855E+01    1.870E+01    1.886E+01    1.901E+01    1.915E+01
     1.930E+01    1.945E+01    1.960E+01    1.974E+01    1.989E+01    2.004E+01    2.018E+01    2.033E+01    2.047E+01    2.061E+01
     2.076E+01    2.090E+01    2.105E+01    2.119E+01    2.134E+01    2.148E+01    2.162E+01    2.177E+01
 Asp      Conc. = 3.69E+02
