 LCModel (Version 6.3-1L) Copyright: S.W. Provencher.          Ref.: Magn. Reson. Med. 30:672-679 (1993).                
 Slice#3 Row#3 Col#2  PD_05_press_2_raw_act
 36 lines in following concentration table = NCONC+1
    Conc.  %SD /Cr+PCr  Metabolite                                         
    0.000 999%   0.000 Ala                                                 
   38.465 120%   0.204 Asp                                                 
  188.924  35%   1.000 Cr                                                  
    0.000 999%   0.000 PCr                                                 
   16.005 172% 8.5E-02 GABA                                                
   22.772 122%   0.121 Glc                                                 
  234.999  90%   1.244 Gln                                                 
  366.929  65%   1.942 Glu                                                 
    0.000 999%   0.000 GPC                                                 
   54.494  44%   0.288 PCh                                                 
  191.371  43%   1.013 GSH                                                 
  715.402  41%   3.787 Ins                                                 
    0.000 999%   0.000 Lac                                                 
  318.387  26%   1.685 NAA                                                 
    0.000 999%   0.000 NAAG                                                
   10.448  86% 5.5E-02 Scyllo                                              
   51.486  89%   0.273 Tau                                                 
  177.354  51%   0.939 -CrCH2                                              
   54.494  44%   0.288 GPC+PCh                                             
  318.387  26%   1.685 NAA+NAAG                                            
  188.924  35%   1.000 Cr+PCr                                              
  601.928  53%   3.186 Glu+Gln                                             
    0.000 999%   0.000 Lip13a                                              
   22.573 606%   0.119 Lip13b                                              
   11.271 557% 6.0E-02 Lip09                                               
 1.07E+03  24%   5.669 MM09                                                
    0.000 999%   0.000 Lip20                                               
  169.505 278%   0.897 MM20                                                
  256.218  82%   1.356 MM12                                                
 1.07E+03  42%   5.657 MM14                                                
 1.42E+03  26%   7.537 MM17                                                
   22.573 606%   0.119 Lip13a+Lip13b                                       
 1.35E+03  40%   7.133 MM14+Lip13a+Lip13b+MM12                             
 1.08E+03  24%   5.729 MM09+Lip09                                          
  169.505 278%   0.897 MM20+Lip20                                          
   6 lines in following misc. output table
  FWHM = 0.031 ppm    S/N =   1                                            
  Data shift = 0.038 ppm                                                   
  Ph: -41 deg     -19.9 deg/ppm                                            
  alphaB,S = 8.4E-01,   6.3E+00                                            
   14 spline knots.   Ns = 5(1)                                            
   2 inflections.     1 extrema                                            
  498 points on ppm-axis = NY
      4.000000     3.992357     3.984714     3.977070     3.969427     3.961784     3.954141     3.946497     3.938854     3.931211
      3.923568     3.915925     3.908281     3.900638     3.892995     3.885352     3.877708     3.870065     3.862422     3.854779
      3.847136     3.839492     3.831849     3.824206     3.816563     3.808919     3.801276     3.793633     3.785990     3.778347
      3.770703     3.763060     3.755417     3.747774     3.740130     3.732487     3.724844     3.717201     3.709558     3.701914
      3.694271     3.686628     3.678985     3.671341     3.663698     3.656055     3.648412     3.640769     3.633125     3.625482
      3.617839     3.610196     3.602552     3.594909     3.587266     3.579623     3.571980     3.564336     3.556693     3.549050
      3.541407     3.533763     3.526120     3.518477     3.510834     3.503191     3.495547     3.487904     3.480261     3.472618
      3.464974     3.457331     3.449688     3.442045     3.434402     3.426758     3.419115     3.411472     3.403829     3.396185
      3.388542     3.380899     3.373256     3.365613     3.357969     3.350326     3.342683     3.335040     3.327396     3.319753
      3.312110     3.304467     3.296824     3.289180     3.281537     3.273894     3.266251     3.258607     3.250964     3.243321
      3.235678     3.228034     3.220391     3.212748     3.205105     3.197462     3.189818     3.182175     3.174532     3.166889
      3.159245     3.151602     3.143959     3.136316     3.128673     3.121029     3.113386     3.105743     3.098100     3.090456
      3.082813     3.075170     3.067527     3.059884     3.052240     3.044597     3.036954     3.029311     3.021667     3.014024
      3.006381     2.998738     2.991095     2.983451     2.975808     2.968165     2.960522     2.952878     2.945235     2.937592
      2.929949     2.922306     2.914662     2.907019     2.899376     2.891733     2.884089     2.876446     2.868803     2.861160
      2.853517     2.845873     2.838230     2.830587     2.822944     2.815300     2.807657     2.800014     2.792371     2.784728
      2.777084     2.769441     2.761798     2.754155     2.746511     2.738868     2.731225     2.723582     2.715939     2.708295
      2.700652     2.693009     2.685366     2.677722     2.670079     2.662436     2.654793     2.647150     2.639506     2.631863
      2.624220     2.616577     2.608933     2.601290     2.593647     2.586004     2.578361     2.570717     2.563074     2.555431
      2.547788     2.540144     2.532501     2.524858     2.517215     2.509572     2.501928     2.494285     2.486642     2.478999
      2.471355     2.463712     2.456069     2.448426     2.440783     2.433139     2.425496     2.417853     2.410210     2.402566
      2.394923     2.387280     2.379637     2.371994     2.364350     2.356707     2.349064     2.341421     2.333777     2.326134
      2.318491     2.310848     2.303205     2.295561     2.287918     2.280275     2.272632     2.264988     2.257345     2.249702
      2.242059     2.234416     2.226772     2.219129     2.211486     2.203843     2.196199     2.188556     2.180913     2.173270
      2.165627     2.157983     2.150340     2.142697     2.135054     2.127410     2.119767     2.112124     2.104481     2.096838
      2.089194     2.081551     2.073908     2.066265     2.058621     2.050978     2.043335     2.035692     2.028049     2.020405
      2.012762     2.005119     1.997476     1.989833     1.982190     1.974546     1.966903     1.959260     1.951617     1.943974
      1.936331     1.928688     1.921045     1.913402     1.905759     1.898115     1.890472     1.882829     1.875186     1.867543
      1.859900     1.852257     1.844614     1.836971     1.829327     1.821684     1.814041     1.806398     1.798755     1.791112
      1.783469     1.775826     1.768183     1.760540     1.752896     1.745253     1.737610     1.729967     1.722324     1.714681
      1.707038     1.699395     1.691752     1.684108     1.676465     1.668822     1.661179     1.653536     1.645893     1.638250
      1.630607     1.622964     1.615321     1.607677     1.600034     1.592391     1.584748     1.577105     1.569462     1.561819
      1.554176     1.546533     1.538890     1.531246     1.523603     1.515960     1.508317     1.500674     1.493031     1.485388
      1.477745     1.470102     1.462458     1.454815     1.447172     1.439529     1.431886     1.424243     1.416600     1.408957
      1.401314     1.393671     1.386027     1.378384     1.370741     1.363098     1.355455     1.347812     1.340169     1.332526
      1.324883     1.317240     1.309596     1.301953     1.294310     1.286667     1.279024     1.271381     1.263738     1.256095
      1.248452     1.240808     1.233165     1.225522     1.217879     1.210236     1.202593     1.194950     1.187307     1.179664
      1.172021     1.164377     1.156734     1.149091     1.141448     1.133805     1.126162     1.118519     1.110876     1.103233
      1.095590     1.087946     1.080303     1.072660     1.065017     1.057374     1.049731     1.042088     1.034445     1.026802
      1.019158     1.011515     1.003872     0.996229     0.988586     0.980943     0.973300     0.965657     0.958014     0.950371
      0.942727     0.935084     0.927441     0.919798     0.912155     0.904512     0.896869     0.889226     0.881583     0.873940
      0.866296     0.858653     0.851010     0.843367     0.835724     0.828081     0.820438     0.812795     0.805152     0.797508
      0.789865     0.782222     0.774579     0.766936     0.759293     0.751650     0.744007     0.736364     0.728721     0.721077
      0.713434     0.705791     0.698148     0.690505     0.682862     0.675219     0.667576     0.659933     0.652290     0.644646
      0.637003     0.629360     0.621717     0.614074     0.606431     0.598788     0.591145     0.583502     0.575858     0.568215
      0.560572     0.552929     0.545286     0.537643     0.530000     0.522357     0.514714     0.507071     0.499427     0.491784
      0.484141     0.476498     0.468855     0.461212     0.453569     0.445925     0.438282     0.430639     0.422996     0.415353
      0.407710     0.400067     0.392424     0.384780     0.377137     0.369494     0.361851     0.354208     0.346565     0.338922
      0.331278     0.323635     0.315992     0.308349     0.300706     0.293063     0.285420     0.277777     0.270133     0.262490
      0.254847     0.247204     0.239561     0.231918     0.224275     0.216631     0.208988     0.201345
 NY phased data points follow
  -3.81579E+01 -4.25036E+01 -4.60356E+01 -4.26339E+01 -4.56633E+01 -4.43873E+01 -4.17956E+01 -3.96369E+01 -4.34043E+01 -2.95363E+01
  -2.86658E+01 -3.04645E+01 -3.75966E+01 -3.40775E+01 -3.05430E+01 -3.46193E+01 -2.80033E+01 -2.91476E+01 -2.75652E+01 -1.77624E+01
  -2.95939E+01 -3.00838E+01 -2.39121E+01 -2.64557E+01 -3.38849E+01 -2.66166E+01 -2.05913E+01 -1.96068E+01 -1.94736E+01 -2.26128E+01
  -1.19639E+01 -2.16030E+01 -1.12426E+01 -1.94604E+01 -2.53816E+01 -8.69662E+00 -1.66858E+01 -1.60554E+01 -1.37325E+01 -2.48605E+01
  -2.24567E+01 -2.07988E+01 -1.61760E+01 -9.92470E+00 -2.29295E+01 -1.66183E+01 -8.97304E+00 -8.90904E+00 -1.53915E+01 -2.29378E+00
  -1.47541E+01 -3.82790E+00 -1.85477E+01 -1.90255E+01 -1.70876E+00 -6.39684E+00 -1.05893E+01 -4.22799E+00 -8.77676E+00 -1.19404E+01
  -9.46594E+00 -1.17611E+01 -3.22087E+00 -7.23042E+00 -2.12743E+00 -1.55301E+00 -1.26929E+00 -4.30302E+00 -9.15721E+00  5.51948E+00
  -4.55127E+00 -3.38256E+00 -3.46968E+00 -1.83452E+00  4.69131E+00  1.16716E+00 -4.08550E+00 -2.67001E+00 -5.51496E+00 -2.75341E+00
   7.25737E+00  3.35998E+00  5.97079E+00  7.32663E+00  1.10196E+01 -1.37917E+00 -1.52006E-01  4.52095E+00 -2.18213E+00  1.30206E+00
   4.94739E+00 -5.34585E-01  8.20321E+00  6.12781E+00  1.34933E+01  1.74052E+01  9.42003E+00  3.10773E+00  3.35190E+00  7.71278E+00
   9.45651E+00  7.33468E+00  6.84679E+00  7.34632E+00  1.78408E+01  1.69936E+01  1.20233E+01  1.10725E+01 -2.79657E+00  6.09787E+00
   5.23034E+00  3.70387E+00  1.36212E+01  2.21448E+00  1.25914E+01  7.41012E+00  2.37963E+01  1.25117E+01  1.09093E+01  1.77270E+01
   1.93307E+01  1.72670E+01  9.03974E+00  7.82112E+00  1.18700E+01  1.58124E+01  2.71999E+01  1.95834E+01  2.55838E+01  2.04255E+01
   2.33794E+01  1.33215E+01  3.40529E+01  1.40780E+01  1.52172E+01  1.24762E+01  2.21653E+00  1.50056E+01  1.34906E+01  1.31424E+01
   9.87957E+00  2.18015E+01  1.40785E+01  1.76432E+01  1.55785E+01  1.43287E+01  2.33410E+01  1.43678E+01  1.76345E+01  1.68617E+01
   1.58463E+01  1.33300E+01  1.78299E+01  9.90432E+00  2.39217E+01  1.06944E+01  1.12245E+01  1.41140E+01  1.21606E+01  1.30225E+01
   4.98166E+00  1.26502E+01  2.17575E+01  2.18971E+01  6.69730E+00  1.27542E+01  1.68227E+01  9.31142E+00  2.73334E+01  1.86888E+01
   2.29429E+01  1.88383E+01  1.51488E+01  1.73873E+01  2.61962E+01  2.21499E+01  2.10486E+01  1.20339E+01  2.40621E+01  1.83732E+01
   1.44542E+01  1.41553E+01  1.28382E+01  1.50540E+01  1.33879E+01  1.93400E+01  1.44053E+01  2.16580E+01  1.17188E+01  1.22231E+01
   2.34970E+01  2.57285E+01  1.96925E+01  1.90075E+01  2.88195E+01  1.65201E+01  2.95521E+01  2.34943E+01  1.87700E+01  1.90462E+01
   1.99669E+01  2.24316E+01  2.51004E+01  2.79954E+01  1.30843E+01  2.92436E+01  2.69604E+01  2.02900E+01  2.26108E+01  2.11311E+01
   1.93193E+01  2.29066E+01  2.48502E+01  2.31463E+01  2.37814E+01  4.02405E+01  2.66759E+01  2.78929E+01  3.24748E+01  2.84215E+01
   2.67868E+01  2.26662E+01  3.19689E+01  2.21788E+01  1.63128E+01  3.12818E+01  1.92442E+01  3.11477E+01  3.31104E+01  2.76182E+01
   3.24922E+01  3.62985E+01  3.15483E+01  2.01169E+01  3.05354E+01  2.70572E+01  2.51004E+01  2.66380E+01  2.49550E+01  3.22167E+01
   3.25277E+01  2.29272E+01  2.09024E+01  2.96609E+01  2.24523E+01  2.26722E+01  2.63504E+01  2.24144E+01  2.73887E+01  2.40278E+01
   2.37711E+01  2.44473E+01  3.13925E+01  3.15565E+01  2.93884E+01  2.38632E+01  1.44309E+01  2.64865E+01  2.56083E+01  3.65585E+01
   4.79552E+01  4.19298E+01  3.72502E+01  3.59517E+01  3.27282E+01  3.26554E+01  3.29065E+01  2.81152E+01  3.59227E+01  3.52761E+01
   3.12248E+01  2.52658E+01  2.33922E+01  2.27306E+01  3.63632E+01  2.49312E+01  2.55638E+01  2.53495E+01  2.56626E+01  2.46433E+01
   2.55844E+01  2.67693E+01  1.46841E+01  2.43185E+01  2.32025E+01  2.61853E+01  2.15045E+01  2.58382E+01  1.55298E+01  2.00913E+01
   3.83481E+01  3.41948E+01  2.00367E+01  2.42924E+01  2.08235E+01  1.84503E+01  2.90157E+01  2.56106E+01  2.18991E+01  2.29314E+01
   2.69351E+01  3.26045E+01  2.27121E+01  2.61839E+01  2.70096E+01  3.17994E+01  2.57577E+01  2.90173E+01  2.66047E+01  3.85655E+01
   4.17688E+01  3.37146E+01  3.55121E+01  3.90886E+01  3.37479E+01  3.43483E+01  3.22946E+01  2.83394E+01  2.23606E+01  3.63644E+01
   3.35391E+01  3.23881E+01  3.16410E+01  4.03794E+01  3.71424E+01  3.95428E+01  3.94741E+01  4.48374E+01  4.08576E+01  4.40604E+01
   4.43911E+01  4.53605E+01  3.42611E+01  4.79364E+01  3.80247E+01  4.79385E+01  3.01628E+01  3.61822E+01  3.62217E+01  3.58154E+01
   2.58355E+01  4.23452E+01  3.33947E+01  3.58885E+01  3.27409E+01  2.50485E+01  2.40043E+01  3.01952E+01  2.84949E+01  3.07987E+01
   3.72322E+01  2.73143E+01  3.36924E+01  2.06900E+01  3.25426E+01  3.38435E+01  3.12697E+01  2.68332E+01  3.19224E+01  3.80584E+01
   2.85891E+01  3.08509E+01  3.32048E+01  2.39642E+01  3.69062E+01  3.32274E+01  2.46011E+01  2.82295E+01  3.18208E+01  2.77447E+01
   2.95230E+01  2.61879E+01  2.89919E+01  2.43018E+01  2.65604E+01  2.74727E+01  2.11538E+01  2.66707E+01  2.37945E+01  2.54062E+01
   1.78037E+01  2.62056E+01  3.49104E+01  2.78965E+01  3.12014E+01  3.18368E+01  2.65838E+01  2.29954E+01  3.35139E+01  2.24177E+01
   3.42786E+01  2.55251E+01  2.51154E+01  3.89373E+01  2.83063E+01  3.24093E+01  3.68037E+01  2.52075E+01  2.92445E+01  3.03326E+01
   3.15816E+01  3.12394E+01  3.88479E+01  3.33783E+01  3.76657E+01  3.80134E+01  2.66054E+01  2.55070E+01  3.50535E+01  2.97524E+01
   2.58419E+01  2.88307E+01  2.64631E+01  3.25170E+01  3.61638E+01  3.69945E+01  3.50277E+01  3.49599E+01  3.13257E+01  2.65133E+01
   3.18797E+01  3.93706E+01  3.27043E+01  2.97451E+01  2.61841E+01  2.30154E+01  3.24238E+01  3.47190E+01  2.61278E+01  3.37694E+01
   2.08012E+01  3.87714E+01  2.75084E+01  3.16670E+01  3.10396E+01  3.38938E+01  2.82740E+01  2.18964E+01  2.52204E+01  1.49176E+01
   2.46805E+01  3.05198E+01  2.00383E+01  2.39417E+01  2.03858E+01  2.29650E+01  2.85670E+01  2.33392E+01  2.13727E+01  2.10287E+01
   2.61458E+01  3.49017E+01  2.28563E+01  2.73016E+01  2.95982E+01  3.18564E+01  2.15722E+01  1.56485E+01  2.07881E+01  2.75073E+01
   1.87798E+01  2.36311E+01  1.72882E+01  2.29972E+01  2.30328E+01  1.74267E+01  2.48617E+01  3.14927E+01  2.79775E+01  2.11195E+01
   2.55384E+01  2.13286E+01  2.59949E+01  2.09935E+01  1.27985E+01  2.00889E+01  1.64829E+01  1.99628E+01  1.74369E+01  2.08180E+01
   1.54365E+01  2.25336E+01  2.18374E+01  1.86164E+01  2.63634E+01  2.34803E+01  2.20720E+01  1.68222E+01  1.31405E+01  1.48987E+01
   1.05320E+01  1.29761E+01  1.62105E+01  1.78576E+01  2.06271E+01  2.35546E+01  2.01492E+01  1.64374E+01
 NY points of the fit to the data follow
  -3.53373E+01 -3.51308E+01 -3.48188E+01 -3.44496E+01 -3.43050E+01 -3.52382E+01 -3.70590E+01 -3.80345E+01 -3.65367E+01 -3.31815E+01
  -2.99838E+01 -2.82728E+01 -2.77174E+01 -2.78498E+01 -2.84548E+01 -2.88774E+01 -2.87414E+01 -2.83774E+01 -2.80225E+01 -2.74858E+01
  -2.69214E+01 -2.64362E+01 -2.60641E+01 -2.57973E+01 -2.57568E+01 -2.58771E+01 -2.49756E+01 -2.25198E+01 -1.93338E+01 -1.66753E+01
  -1.52928E+01 -1.49245E+01 -1.53250E+01 -1.65225E+01 -1.77006E+01 -1.82032E+01 -1.85390E+01 -1.87320E+01 -1.87059E+01 -1.85241E+01
  -1.82591E+01 -1.80782E+01 -1.78918E+01 -1.72538E+01 -1.53527E+01 -1.20620E+01 -8.61973E+00 -6.78022E+00 -7.14475E+00 -8.83400E+00
  -1.07327E+01 -1.22941E+01 -1.31049E+01 -1.30174E+01 -1.25452E+01 -1.20287E+01 -1.12439E+01 -1.00167E+01 -8.45228E+00 -7.03637E+00
  -6.24216E+00 -6.13004E+00 -6.53758E+00 -7.17739E+00 -7.57391E+00 -7.51067E+00 -7.04744E+00 -6.39053E+00 -5.65874E+00 -4.80398E+00
  -3.91473E+00 -3.15773E+00 -2.60959E+00 -2.23459E+00 -1.94073E+00 -1.77831E+00 -1.74469E+00 -1.65565E+00 -1.50195E+00 -1.28977E+00
  -9.67931E-01 -5.68096E-01 -4.72945E-02  5.32608E-01  8.58544E-01  6.14916E-01 -1.10583E-01 -8.41904E-01 -1.15295E+00 -9.87846E-01
  -4.41324E-01  3.59617E-01  1.16931E+00  1.90707E+00  2.49046E+00  2.84755E+00  2.89067E+00  2.63466E+00  2.20934E+00  2.12170E+00
   3.58166E+00  6.50654E+00  9.57478E+00  1.12813E+01  1.13151E+01  1.04859E+01  9.46440E+00  8.34995E+00  7.71457E+00  7.69952E+00
   7.68944E+00  7.74317E+00  7.86200E+00  8.00838E+00  8.15520E+00  8.29635E+00  8.39809E+00  8.43387E+00  8.41469E+00  8.36974E+00
   8.31229E+00  8.23356E+00  8.15910E+00  9.12545E+00  1.20730E+01  1.60333E+01  1.91607E+01  2.01782E+01  1.94720E+01  1.83408E+01
   1.73599E+01  1.66642E+01  1.64937E+01  1.61335E+01  1.51564E+01  1.41425E+01  1.34665E+01  1.32861E+01  1.37716E+01  1.46828E+01
   1.55380E+01  1.61339E+01  1.64450E+01  1.65349E+01  1.65552E+01  1.65644E+01  1.66051E+01  1.67135E+01  1.68019E+01  1.68735E+01
   1.69356E+01  1.69913E+01  1.70424E+01  1.71287E+01  1.72894E+01  1.75072E+01  1.77379E+01  1.78952E+01  1.79198E+01  1.78524E+01
   1.78005E+01  1.79146E+01  1.82021E+01  1.85257E+01  1.87901E+01  1.89532E+01  1.90315E+01  1.90957E+01  1.91678E+01  1.92637E+01
   1.94152E+01  1.95696E+01  1.96555E+01  1.96112E+01  1.95108E+01  1.95012E+01  1.96593E+01  1.98848E+01  2.00104E+01  2.00280E+01
   2.00601E+01  2.01340E+01  2.01954E+01  2.01658E+01  1.99975E+01  1.98483E+01  1.99130E+01  2.03491E+01  2.11678E+01  2.21498E+01
   2.29479E+01  2.33440E+01  2.33069E+01  2.29305E+01  2.22388E+01  2.13747E+01  2.07002E+01  2.05362E+01  2.09477E+01  2.17427E+01
   2.27347E+01  2.37912E+01  2.47428E+01  2.54543E+01  2.58532E+01  2.58817E+01  2.53170E+01  2.40811E+01  2.26108E+01  2.14728E+01
   2.10394E+01  2.12770E+01  2.20665E+01  2.36494E+01  2.56514E+01  2.71466E+01  2.77770E+01  2.77082E+01  2.70454E+01  2.57314E+01
   2.39283E+01  2.24597E+01  2.19194E+01  2.22580E+01  2.31775E+01  2.42540E+01  2.53072E+01  2.60622E+01  2.61663E+01  2.57662E+01
   2.52637E+01  2.49581E+01  2.48847E+01  2.49139E+01  2.51998E+01  2.58614E+01  2.66071E+01  2.70231E+01  2.71266E+01  2.69384E+01
   2.63324E+01  2.53081E+01  2.44389E+01  2.41595E+01  2.43071E+01  2.46042E+01  2.49323E+01  2.51834E+01  2.51264E+01  2.48310E+01
   2.45250E+01  2.43186E+01  2.41541E+01  2.39476E+01  2.35055E+01  2.24590E+01  2.15390E+01  2.35492E+01  2.89129E+01  3.52591E+01
   3.93938E+01  4.01636E+01  3.89406E+01  3.68911E+01  3.41914E+01  3.22486E+01  3.15275E+01  3.07937E+01  3.01327E+01  2.96213E+01
   2.92099E+01  2.88845E+01  2.86928E+01  2.86063E+01  2.85549E+01  2.84971E+01  2.84203E+01  2.82995E+01  2.81323E+01  2.79453E+01
   2.77541E+01  2.75704E+01  2.74034E+01  2.72521E+01  2.71168E+01  2.69904E+01  2.68612E+01  2.67329E+01  2.66096E+01  2.64924E+01
   2.63848E+01  2.62929E+01  2.62227E+01  2.61785E+01  2.61664E+01  2.61952E+01  2.62705E+01  2.63974E+01  2.65813E+01  2.68259E+01
   2.71340E+01  2.75071E+01  2.79436E+01  2.84390E+01  2.89861E+01  2.95764E+01  3.01992E+01  3.08423E+01  3.14924E+01  3.21356E+01
   3.27580E+01  3.33470E+01  3.38914E+01  3.43823E+01  3.48133E+01  3.51808E+01  3.54841E+01  3.57254E+01  3.59089E+01  3.60411E+01
   3.61294E+01  3.61822E+01  3.62080E+01  3.62150E+01  3.62101E+01  3.61993E+01  3.61867E+01  3.61750E+01  3.61653E+01  3.61574E+01
   3.61496E+01  3.61393E+01  3.61233E+01  3.60983E+01  3.60606E+01  3.60073E+01  3.59355E+01  3.58431E+01  3.57286E+01  3.55918E+01
   3.54327E+01  3.52524E+01  3.50527E+01  3.48359E+01  3.46050E+01  3.43638E+01  3.41163E+01  3.38672E+01  3.36209E+01  3.33822E+01
   3.31550E+01  3.29426E+01  3.27466E+01  3.25673E+01  3.24030E+01  3.22510E+01  3.21073E+01  3.19681E+01  3.18295E+01  3.16888E+01
   3.15443E+01  3.13957E+01  3.12435E+01  3.10888E+01  3.09328E+01  3.07764E+01  3.06199E+01  3.04634E+01  3.03063E+01  3.01479E+01
   2.99871E+01  2.98232E+01  2.96555E+01  2.94837E+01  2.93078E+01  2.91283E+01  2.89460E+01  2.87621E+01  2.85785E+01  2.83973E+01
   2.82211E+01  2.80531E+01  2.78966E+01  2.77557E+01  2.76346E+01  2.75379E+01  2.74704E+01  2.74366E+01  2.74410E+01  2.74877E+01
   2.75801E+01  2.77206E+01  2.79104E+01  2.81494E+01  2.84357E+01  2.87660E+01  2.91349E+01  2.95357E+01  2.99600E+01  3.03983E+01
   3.08400E+01  3.12747E+01  3.16912E+01  3.20795E+01  3.24302E+01  3.27352E+01  3.29882E+01  3.31848E+01  3.33223E+01  3.34001E+01
   3.34191E+01  3.33824E+01  3.32939E+01  3.31587E+01  3.29826E+01  3.27718E+01  3.25324E+01  3.22706E+01  3.19921E+01  3.17020E+01
   3.14048E+01  3.11044E+01  3.08038E+01  3.05058E+01  3.02121E+01  2.99242E+01  2.96430E+01  2.93689E+01  2.91023E+01  2.88433E+01
   2.85915E+01  2.83467E+01  2.81086E+01  2.78767E+01  2.76506E+01  2.74298E+01  2.72140E+01  2.70026E+01  2.67953E+01  2.65917E+01
   2.63915E+01  2.61944E+01  2.60000E+01  2.58081E+01  2.56185E+01  2.54309E+01  2.52450E+01  2.50609E+01  2.48782E+01  2.46968E+01
   2.45166E+01  2.43374E+01  2.41591E+01  2.39816E+01  2.38048E+01  2.36286E+01  2.34529E+01  2.32777E+01  2.31028E+01  2.29282E+01
   2.27538E+01  2.25795E+01  2.24054E+01  2.22313E+01  2.20573E+01  2.18832E+01  2.17089E+01  2.15345E+01  2.13600E+01  2.11853E+01
   2.10103E+01  2.08350E+01  2.06593E+01  2.04834E+01  2.03071E+01  2.01304E+01  1.99532E+01  1.97756E+01  1.95975E+01  1.94189E+01
   1.92398E+01  1.90602E+01  1.88799E+01  1.86990E+01  1.85175E+01  1.83354E+01  1.81526E+01  1.79691E+01  1.77849E+01  1.75999E+01
   1.74142E+01  1.72277E+01  1.70403E+01  1.68521E+01  1.66630E+01  1.64729E+01  1.62819E+01  1.60900E+01
 NY background values follow
    -3.624E+01   -3.576E+01   -3.529E+01   -3.482E+01   -3.435E+01   -3.388E+01   -3.341E+01   -3.294E+01   -3.247E+01   -3.200E+01
    -3.153E+01   -3.107E+01   -3.060E+01   -3.013E+01   -2.967E+01   -2.921E+01   -2.874E+01   -2.828E+01   -2.782E+01   -2.736E+01
    -2.690E+01   -2.644E+01   -2.598E+01   -2.553E+01   -2.507E+01   -2.462E+01   -2.416E+01   -2.371E+01   -2.326E+01   -2.281E+01
    -2.236E+01   -2.192E+01   -2.147E+01   -2.102E+01   -2.058E+01   -2.014E+01   -1.970E+01   -1.926E+01   -1.882E+01   -1.839E+01
    -1.795E+01   -1.752E+01   -1.709E+01   -1.666E+01   -1.623E+01   -1.580E+01   -1.538E+01   -1.495E+01   -1.453E+01   -1.411E+01
    -1.369E+01   -1.328E+01   -1.286E+01   -1.245E+01   -1.204E+01   -1.163E+01   -1.122E+01   -1.082E+01   -1.041E+01   -1.001E+01
    -9.613E+00   -9.216E+00   -8.821E+00   -8.428E+00   -8.037E+00   -7.648E+00   -7.261E+00   -6.877E+00   -6.494E+00   -6.114E+00
    -5.736E+00   -5.361E+00   -4.987E+00   -4.616E+00   -4.248E+00   -3.881E+00   -3.517E+00   -3.156E+00   -2.797E+00   -2.440E+00
    -2.086E+00   -1.734E+00   -1.385E+00   -1.038E+00   -6.940E-01   -3.524E-01   -1.335E-02    3.231E-01    6.569E-01    9.880E-01
     1.316E+00    1.642E+00    1.965E+00    2.286E+00    2.604E+00    2.919E+00    3.231E+00    3.541E+00    3.848E+00    4.153E+00
     4.455E+00    4.755E+00    5.052E+00    5.347E+00    5.639E+00    5.928E+00    6.215E+00    6.500E+00    6.782E+00    7.062E+00
     7.339E+00    7.614E+00    7.887E+00    8.157E+00    8.425E+00    8.690E+00    8.953E+00    9.214E+00    9.473E+00    9.729E+00
     9.983E+00    1.023E+01    1.048E+01    1.073E+01    1.098E+01    1.122E+01    1.146E+01    1.170E+01    1.193E+01    1.217E+01
     1.240E+01    1.263E+01    1.286E+01    1.308E+01    1.331E+01    1.353E+01    1.375E+01    1.397E+01    1.418E+01    1.439E+01
     1.461E+01    1.482E+01    1.502E+01    1.523E+01    1.543E+01    1.563E+01    1.583E+01    1.603E+01    1.623E+01    1.642E+01
     1.662E+01    1.681E+01    1.700E+01    1.718E+01    1.737E+01    1.755E+01    1.774E+01    1.792E+01    1.810E+01    1.827E+01
     1.845E+01    1.862E+01    1.880E+01    1.897E+01    1.914E+01    1.930E+01    1.947E+01    1.964E+01    1.980E+01    1.996E+01
     2.012E+01    2.028E+01    2.044E+01    2.059E+01    2.075E+01    2.090E+01    2.106E+01    2.121E+01    2.136E+01    2.150E+01
     2.165E+01    2.180E+01    2.194E+01    2.208E+01    2.223E+01    2.237E+01    2.251E+01    2.264E+01    2.278E+01    2.292E+01
     2.305E+01    2.318E+01    2.331E+01    2.345E+01    2.357E+01    2.370E+01    2.383E+01    2.395E+01    2.408E+01    2.420E+01
     2.432E+01    2.444E+01    2.456E+01    2.468E+01    2.479E+01    2.490E+01    2.502E+01    2.513E+01    2.524E+01    2.535E+01
     2.546E+01    2.556E+01    2.567E+01    2.577E+01    2.587E+01    2.597E+01    2.607E+01    2.617E+01    2.627E+01    2.636E+01
     2.646E+01    2.655E+01    2.664E+01    2.673E+01    2.682E+01    2.690E+01    2.699E+01    2.707E+01    2.716E+01    2.724E+01
     2.732E+01    2.740E+01    2.747E+01    2.755E+01    2.762E+01    2.770E+01    2.777E+01    2.784E+01    2.791E+01    2.798E+01
     2.804E+01    2.811E+01    2.817E+01    2.824E+01    2.830E+01    2.836E+01    2.842E+01    2.848E+01    2.853E+01    2.859E+01
     2.864E+01    2.870E+01    2.875E+01    2.880E+01    2.885E+01    2.890E+01    2.895E+01    2.899E+01    2.904E+01    2.909E+01
     2.913E+01    2.917E+01    2.921E+01    2.925E+01    2.929E+01    2.933E+01    2.937E+01    2.940E+01    2.944E+01    2.947E+01
     2.951E+01    2.954E+01    2.957E+01    2.960E+01    2.963E+01    2.966E+01    2.969E+01    2.971E+01    2.974E+01    2.976E+01
     2.979E+01    2.981E+01    2.983E+01    2.985E+01    2.987E+01    2.989E+01    2.991E+01    2.993E+01    2.994E+01    2.996E+01
     2.997E+01    2.999E+01    3.000E+01    3.001E+01    3.002E+01    3.003E+01    3.004E+01    3.005E+01    3.005E+01    3.006E+01
     3.007E+01    3.007E+01    3.007E+01    3.008E+01    3.008E+01    3.008E+01    3.008E+01    3.008E+01    3.008E+01    3.008E+01
     3.007E+01    3.007E+01    3.006E+01    3.006E+01    3.005E+01    3.004E+01    3.004E+01    3.003E+01    3.002E+01    3.001E+01
     2.999E+01    2.998E+01    2.997E+01    2.996E+01    2.994E+01    2.992E+01    2.991E+01    2.989E+01    2.987E+01    2.985E+01
     2.983E+01    2.981E+01    2.979E+01    2.977E+01    2.975E+01    2.972E+01    2.970E+01    2.967E+01    2.964E+01    2.962E+01
     2.959E+01    2.956E+01    2.953E+01    2.950E+01    2.947E+01    2.944E+01    2.940E+01    2.937E+01    2.933E+01    2.930E+01
     2.926E+01    2.923E+01    2.919E+01    2.915E+01    2.911E+01    2.907E+01    2.903E+01    2.898E+01    2.894E+01    2.890E+01
     2.885E+01    2.881E+01    2.876E+01    2.872E+01    2.867E+01    2.862E+01    2.857E+01    2.852E+01    2.847E+01    2.842E+01
     2.836E+01    2.831E+01    2.825E+01    2.820E+01    2.814E+01    2.809E+01    2.803E+01    2.797E+01    2.791E+01    2.785E+01
     2.779E+01    2.773E+01    2.766E+01    2.760E+01    2.753E+01    2.747E+01    2.740E+01    2.733E+01    2.727E+01    2.720E+01
     2.713E+01    2.706E+01    2.698E+01    2.691E+01    2.684E+01    2.676E+01    2.669E+01    2.661E+01    2.654E+01    2.646E+01
     2.638E+01    2.630E+01    2.622E+01    2.614E+01    2.605E+01    2.597E+01    2.589E+01    2.580E+01    2.572E+01    2.563E+01
     2.554E+01    2.545E+01    2.536E+01    2.527E+01    2.518E+01    2.509E+01    2.499E+01    2.490E+01    2.480E+01    2.471E+01
     2.461E+01    2.451E+01    2.441E+01    2.431E+01    2.421E+01    2.411E+01    2.401E+01    2.391E+01    2.380E+01    2.370E+01
     2.359E+01    2.348E+01    2.337E+01    2.327E+01    2.315E+01    2.304E+01    2.293E+01    2.282E+01    2.271E+01    2.259E+01
     2.247E+01    2.236E+01    2.224E+01    2.212E+01    2.200E+01    2.188E+01    2.176E+01    2.164E+01    2.151E+01    2.139E+01
     2.126E+01    2.114E+01    2.101E+01    2.088E+01    2.075E+01    2.062E+01    2.049E+01    2.036E+01    2.023E+01    2.009E+01
     1.996E+01    1.982E+01    1.969E+01    1.955E+01    1.941E+01    1.927E+01    1.913E+01    1.899E+01    1.885E+01    1.870E+01
     1.856E+01    1.841E+01    1.827E+01    1.812E+01    1.797E+01    1.782E+01    1.767E+01    1.752E+01    1.737E+01    1.722E+01
     1.706E+01    1.691E+01    1.675E+01    1.659E+01    1.644E+01    1.628E+01    1.612E+01    1.596E+01    1.580E+01    1.563E+01
     1.547E+01    1.531E+01    1.514E+01    1.497E+01    1.481E+01    1.464E+01    1.447E+01    1.430E+01
 Asp      Conc. = 3.85E+01
