 LCModel (Version 6.3-1L) Copyright: S.W. Provencher.          Ref.: Magn. Reson. Med. 30:672-679 (1993).                
 Slice#2 Row#2 Col#6  PD_05_press_2_raw_act
 36 lines in following concentration table = NCONC+1
    Conc.  %SD /Cr+PCr  Metabolite                                         
    0.000 999%   0.000 Ala                                                 
  197.771  63%   0.146 Asp                                                 
    0.000 999%   0.000 Cr                                                  
 1.35E+03  20%   1.000 PCr                                                 
  119.167  63% 8.8E-02 GABA                                                
  121.974  62% 9.0E-02 Glc                                                 
    0.000 999%   0.000 Gln                                                 
    0.000 999%   0.000 Glu                                                 
  451.781  23%   0.334 GPC                                                 
    0.000 999%   0.000 PCh                                                 
 1.67E+03  24%   1.232 GSH                                                 
 2.57E+03  37%   1.902 Ins                                                 
    0.000 999%   0.000 Lac                                                 
    0.000 999%   0.000 NAA                                                 
 1.33E+03  30%   0.981 NAAG                                                
   43.895  56% 3.2E-02 Scyllo                                              
  215.199  57%   0.159 Tau                                                 
  166.734 104%   0.123 -CrCH2                                              
  451.781  23%   0.334 GPC+PCh                                             
 1.33E+03  30%   0.981 NAA+NAAG                                            
 1.35E+03  20%   1.000 Cr+PCr                                              
    0.000 999%   0.000 Glu+Gln                                             
    0.000 999%   0.000 Lip13a                                              
  570.653  60%   0.422 Lip13b                                              
  165.376  69%   0.122 Lip09                                               
 1.98E+03  22%   1.464 MM09                                                
   85.277  82% 6.3E-02 Lip20                                               
  915.212 121%   0.676 MM20                                                
  132.042 291% 9.8E-02 MM12                                                
    0.000 999%   0.000 MM14                                                
    0.000 999%   0.000 MM17                                                
  570.653  60%   0.422 Lip13a+Lip13b                                       
  702.695  62%   0.519 MM14+Lip13a+Lip13b+MM12                             
 2.15E+03  20%   1.587 MM09+Lip09                                          
 1.00E+03 110%   0.739 MM20+Lip20                                          
   6 lines in following misc. output table
  FWHM = 0.138 ppm    S/N =   1                                            
  Data shift = 0.008 ppm                                                   
  Ph:  20 deg      22.1 deg/ppm                                            
  alphaB,S = 8.5E+01,   1.0E+02                                            
   14 spline knots.   Ns = 8(2)                                            
   2 inflections.     1 extrema                                            
  498 points on ppm-axis = NY
      4.000000     3.992357     3.984714     3.977070     3.969427     3.961784     3.954141     3.946497     3.938854     3.931211
      3.923568     3.915925     3.908281     3.900638     3.892995     3.885352     3.877708     3.870065     3.862422     3.854779
      3.847136     3.839492     3.831849     3.824206     3.816563     3.808919     3.801276     3.793633     3.785990     3.778347
      3.770703     3.763060     3.755417     3.747774     3.740130     3.732487     3.724844     3.717201     3.709558     3.701914
      3.694271     3.686628     3.678985     3.671341     3.663698     3.656055     3.648412     3.640769     3.633125     3.625482
      3.617839     3.610196     3.602552     3.594909     3.587266     3.579623     3.571980     3.564336     3.556693     3.549050
      3.541407     3.533763     3.526120     3.518477     3.510834     3.503191     3.495547     3.487904     3.480261     3.472618
      3.464974     3.457331     3.449688     3.442045     3.434402     3.426758     3.419115     3.411472     3.403829     3.396185
      3.388542     3.380899     3.373256     3.365613     3.357969     3.350326     3.342683     3.335040     3.327396     3.319753
      3.312110     3.304467     3.296824     3.289180     3.281537     3.273894     3.266251     3.258607     3.250964     3.243321
      3.235678     3.228034     3.220391     3.212748     3.205105     3.197462     3.189818     3.182175     3.174532     3.166889
      3.159245     3.151602     3.143959     3.136316     3.128673     3.121029     3.113386     3.105743     3.098100     3.090456
      3.082813     3.075170     3.067527     3.059884     3.052240     3.044597     3.036954     3.029311     3.021667     3.014024
      3.006381     2.998738     2.991095     2.983451     2.975808     2.968165     2.960522     2.952878     2.945235     2.937592
      2.929949     2.922306     2.914662     2.907019     2.899376     2.891733     2.884089     2.876446     2.868803     2.861160
      2.853517     2.845873     2.838230     2.830587     2.822944     2.815300     2.807657     2.800014     2.792371     2.784728
      2.777084     2.769441     2.761798     2.754155     2.746511     2.738868     2.731225     2.723582     2.715939     2.708295
      2.700652     2.693009     2.685366     2.677722     2.670079     2.662436     2.654793     2.647150     2.639506     2.631863
      2.624220     2.616577     2.608933     2.601290     2.593647     2.586004     2.578361     2.570717     2.563074     2.555431
      2.547788     2.540144     2.532501     2.524858     2.517215     2.509572     2.501928     2.494285     2.486642     2.478999
      2.471355     2.463712     2.456069     2.448426     2.440783     2.433139     2.425496     2.417853     2.410210     2.402566
      2.394923     2.387280     2.379637     2.371994     2.364350     2.356707     2.349064     2.341421     2.333777     2.326134
      2.318491     2.310848     2.303205     2.295561     2.287918     2.280275     2.272632     2.264988     2.257345     2.249702
      2.242059     2.234416     2.226772     2.219129     2.211486     2.203843     2.196199     2.188556     2.180913     2.173270
      2.165627     2.157983     2.150340     2.142697     2.135054     2.127410     2.119767     2.112124     2.104481     2.096838
      2.089194     2.081551     2.073908     2.066265     2.058621     2.050978     2.043335     2.035692     2.028049     2.020405
      2.012762     2.005119     1.997476     1.989833     1.982190     1.974546     1.966903     1.959260     1.951617     1.943974
      1.936331     1.928688     1.921045     1.913402     1.905759     1.898115     1.890472     1.882829     1.875186     1.867543
      1.859900     1.852257     1.844614     1.836971     1.829327     1.821684     1.814041     1.806398     1.798755     1.791112
      1.783469     1.775826     1.768183     1.760540     1.752896     1.745253     1.737610     1.729967     1.722324     1.714681
      1.707038     1.699395     1.691752     1.684108     1.676465     1.668822     1.661179     1.653536     1.645893     1.638250
      1.630607     1.622964     1.615321     1.607677     1.600034     1.592391     1.584748     1.577105     1.569462     1.561819
      1.554176     1.546533     1.538890     1.531246     1.523603     1.515960     1.508317     1.500674     1.493031     1.485388
      1.477745     1.470102     1.462458     1.454815     1.447172     1.439529     1.431886     1.424243     1.416600     1.408957
      1.401314     1.393671     1.386027     1.378384     1.370741     1.363098     1.355455     1.347812     1.340169     1.332526
      1.324883     1.317240     1.309596     1.301953     1.294310     1.286667     1.279024     1.271381     1.263738     1.256095
      1.248452     1.240808     1.233165     1.225522     1.217879     1.210236     1.202593     1.194950     1.187307     1.179664
      1.172021     1.164377     1.156734     1.149091     1.141448     1.133805     1.126162     1.118519     1.110876     1.103233
      1.095590     1.087946     1.080303     1.072660     1.065017     1.057374     1.049731     1.042088     1.034445     1.026802
      1.019158     1.011515     1.003872     0.996229     0.988586     0.980943     0.973300     0.965657     0.958014     0.950371
      0.942727     0.935084     0.927441     0.919798     0.912155     0.904512     0.896869     0.889226     0.881583     0.873940
      0.866296     0.858653     0.851010     0.843367     0.835724     0.828081     0.820438     0.812795     0.805152     0.797508
      0.789865     0.782222     0.774579     0.766936     0.759293     0.751650     0.744007     0.736364     0.728721     0.721077
      0.713434     0.705791     0.698148     0.690505     0.682862     0.675219     0.667576     0.659933     0.652290     0.644646
      0.637003     0.629360     0.621717     0.614074     0.606431     0.598788     0.591145     0.583502     0.575858     0.568215
      0.560572     0.552929     0.545286     0.537643     0.530000     0.522357     0.514714     0.507071     0.499427     0.491784
      0.484141     0.476498     0.468855     0.461212     0.453569     0.445925     0.438282     0.430639     0.422996     0.415353
      0.407710     0.400067     0.392424     0.384780     0.377137     0.369494     0.361851     0.354208     0.346565     0.338922
      0.331278     0.323635     0.315992     0.308349     0.300706     0.293063     0.285420     0.277777     0.270133     0.262490
      0.254847     0.247204     0.239561     0.231918     0.224275     0.216631     0.208988     0.201345
 NY phased data points follow
   3.20492E+01  4.47277E+01  1.67799E+01 -9.53399E+00  1.10054E+01  1.31172E+01  2.51253E+01  1.67619E+01 -6.01519E+00 -2.52067E+00
   2.82696E+01  1.49104E+01  2.22213E+01  2.58620E+01  5.27676E+00  7.45934E+00  1.19446E+01  2.48154E+01  9.97361E+00  1.54080E+01
   1.11980E+01 -2.64571E+00  2.37718E+01  1.12811E+01  7.86562E+00  1.88935E+01  2.71469E+01 -6.01024E+00  2.62787E+01  3.47965E+01
  -3.56126E-01  8.55566E+00  1.86196E+01  2.04385E+01  2.60555E+01  2.20236E+01  2.98684E+01 -2.98371E+00  3.55743E+01  5.15793E+01
   1.51555E+01  4.91052E+00  9.61525E+00  1.55810E+00  5.33836E+00  6.73020E+00 -2.57387E+01 -1.70819E+00  1.20768E+01  1.46223E+01
   8.54191E-01  1.39466E+01  1.80363E+01  1.92651E+01  2.68573E+01  1.23993E+01  8.55589E+00  9.18240E+00  6.63633E+00  1.06538E+01
   1.91162E+01  6.58054E+00  9.82686E+00  2.26729E+01  1.15785E+01  1.92533E+01 -1.24579E+00  1.44556E+01 -3.00882E+00  1.35347E+01
   7.44414E+00 -5.59712E+00 -8.90238E+00  1.65293E+01  1.69734E+00  1.81456E+01  1.99532E+01  2.91104E+01 -2.04790E+00  2.14679E+01
  -1.19328E+01  1.57795E+01 -7.45090E+00  2.04019E-01 -2.12241E+00 -4.57417E+00 -5.25547E+00 -1.58976E+00  1.21725E+01  9.98886E+00
   1.40092E+01  3.86071E+01  8.40294E+00  1.08552E+01  1.00624E+01  2.23285E+01  6.40312E+00  2.42038E+01  9.32133E+00  1.46742E+01
   1.27300E+01  2.48026E+01  1.09317E+01  1.48541E+01  2.55765E+01  8.08279E+00  2.63523E+01  3.41026E+01 -8.99727E-01  1.61829E+01
   2.09456E+01  2.75183E+01 -6.33134E+00  5.94867E+00 -7.82663E+00 -2.17831E+00  2.16907E+01  1.05072E+01  2.56407E+01  1.78882E+01
   1.95472E+00 -1.79626E+00  1.18555E+01  1.95596E+01  3.20320E+01  2.63896E+01  4.46834E+01  2.44418E+01  1.29380E+00  1.40257E+01
   3.46606E+01  1.68634E+01  4.68675E+01  3.56846E+01  3.47106E+00  1.78509E+01 -1.52733E+00  2.62138E+01  1.17767E+01 -1.28172E+00
   3.75186E+01  2.61504E+01 -5.05644E+00  3.29865E+00  2.29634E+01  9.13809E-01  1.00107E+01  1.15405E+01  6.26229E+00 -2.27683E+00
   6.75802E-01  1.69744E+01 -2.03318E+00 -6.74344E+00 -2.40311E+01  1.73397E+01  9.20201E+00  5.08536E+00 -1.27351E+01 -1.14034E+01
  -4.23758E+00  4.43120E+00 -1.81497E+01  1.41416E+01  2.37974E+01 -6.85597E+00  1.01794E+01  1.04455E+01  1.32502E+00  7.70266E+00
   6.10051E+00 -4.05181E-01 -1.76966E+00  6.50140E-01 -1.03252E+01  1.83043E-01  4.25746E+00 -8.83319E+00 -1.09762E+01  1.78953E+01
  -4.78864E+00 -1.09054E+01  1.34935E+01 -3.90644E+00  2.26526E+00 -1.46920E+01  2.01035E+01 -1.75982E+00  2.33882E+01 -9.70939E+00
   9.33973E+00 -3.24399E+00  1.54933E+01  1.17131E+00  1.29691E+01  6.58414E+00 -1.58076E+00  1.80725E+01  1.67630E+01  2.89172E+01
   1.70717E+01  1.29468E+01 -2.08730E+00 -5.10725E+00 -7.45585E+00  1.27768E+01 -7.47453E+00  3.43275E+00 -3.11297E+00  1.72902E+01
   2.01214E+00  7.64409E+00  8.27001E+00  1.53511E+01  1.71243E+01  9.28210E+00 -9.20646E+00 -5.39521E+00  6.53955E+00  1.40859E+01
   1.75784E+01  8.05614E+00  2.34712E+01  2.31921E+01  1.98422E+01 -7.11046E+00  5.83812E+00  1.47582E+00 -2.19338E+00  8.96444E+00
  -1.34438E+01  9.25288E+00  1.98596E+00  3.01986E+00 -3.76637E+00  2.80634E+00 -6.56440E+00 -1.89484E+01 -1.13961E+01  2.73857E+01
   5.20026E+00  1.13925E+01  6.16139E+00  1.99262E+01  7.34358E+00  4.57076E+00  1.81304E+01  3.22862E+01  9.04721E+00  1.67570E+01
   6.47272E+00  1.05354E+01  1.59449E+01  2.38607E+01  1.16279E+01  2.68116E+01  1.88390E+01  1.19851E+01  4.32904E+01  4.53596E+01
   2.10662E+01  1.39000E+01  2.28525E+01  3.29038E+01  1.65209E+01  3.01473E+01  1.44576E+00 -1.37629E+00 -3.12963E+00  1.38400E+00
   4.58522E+00  1.07010E+00  5.83853E+00 -9.32099E+00 -1.45797E+01 -5.41606E+00 -3.42150E+01 -6.99943E+00 -8.65866E+00 -3.85562E+00
  -3.41361E+01 -2.39580E+01  1.18637E+01  8.13297E+00  1.52526E+01  6.03237E+00 -1.53069E+01 -9.18937E+00  9.08124E+00  2.61201E+00
  -1.36246E+01  4.05695E+00  7.37829E+00  6.40753E-01 -1.80069E+01  5.38331E+00 -3.40947E+00 -8.42305E+00 -8.74236E+00 -1.67373E+01
  -5.60064E+00 -2.05875E+00  5.08859E-01 -6.04911E+00  4.55663E+00  8.21593E+00  1.14537E+01  1.26047E+01  1.10368E+01  7.31635E+00
   1.65454E+00 -1.04780E+01  6.28570E+00 -2.41181E+01 -4.42602E+00  2.58996E+00  1.60662E+01  1.50350E+01  1.13121E+01  9.22546E+00
   2.39656E+01  1.83256E+01  2.31465E+00  3.04450E+00 -9.75788E+00  1.27019E+01 -3.63372E+00  2.11973E+01  2.44771E+00  7.79210E+00
   1.46330E+01  1.10142E+01  8.81399E+00 -7.55817E+00 -1.35846E+01  5.07610E+00  7.56945E-01 -9.02305E+00 -7.31675E+00  3.51729E+00
   6.60998E+00  1.47152E+00 -1.88284E+01 -1.30874E+01 -1.44295E+01 -6.59055E+00  1.35693E+00 -1.25152E+01  2.30191E+00  1.97133E+01
   1.22083E+01  2.20277E+01  1.03952E+01  3.40499E+01  1.42883E+01  1.65243E+01  3.48914E+00 -1.20002E+00  9.24853E+00  6.59540E-01
  -6.23439E+00 -5.89952E+00  3.55204E+00 -4.16428E+00 -1.37578E+01  1.17126E-01 -1.79350E-01  1.85852E+01  7.61207E+00 -4.44849E+00
  -7.97120E+00  2.14427E+01  4.00422E+00 -2.00972E-01 -4.84589E+00 -1.13650E+01 -2.60871E+00  5.81436E+00 -5.03789E+00 -1.48358E+01
  -3.89875E+00 -1.30972E+01  3.07898E-01 -1.86870E+01 -2.58112E+00  6.70812E-01  1.15693E+01  6.00629E+00  9.06303E+00  2.21286E+01
   1.82444E+01 -7.17468E-01  1.75530E+01  1.73211E+01  3.31273E+01  3.59852E+01  1.88308E+01  3.01858E+01  4.49765E+01  2.12310E+01
   4.75358E+01 -7.28861E+00  3.57781E+01  1.53609E+01  2.68292E+01  1.64459E+01 -2.81135E+00  1.22570E+01 -3.31126E+00  2.85567E+00
   6.22806E+00  1.97481E+01  3.35180E+01  1.35227E+01  1.54253E+01  2.99627E+01  1.76786E+01  1.70213E+01  1.88945E+01  5.02046E+00
   9.52778E+00  8.60615E+00  1.64096E+01  9.15264E+00  3.61362E+01  2.04910E+01  2.34141E+01  1.00938E+01  3.05910E+01 -3.35745E-01
   2.28021E+01  1.46229E+01 -1.55839E+00  4.23256E-01 -2.23528E+00  2.66353E+00  1.50408E+01  2.90039E+01  7.63314E+00 -7.73600E+00
   1.62720E+01 -8.13100E-01  2.68033E+00 -4.92682E+00 -9.82916E+00 -1.93065E+00  1.21634E-01 -7.73636E+00 -8.09531E+00  1.20393E+01
   1.26241E+01  1.86007E+01 -9.23355E+00  1.65978E+01  9.77458E+00  1.12966E+01 -5.58844E+00  6.52983E+00  7.88223E+00 -1.21730E+01
   3.02444E+00  9.26774E+00 -2.54833E+01 -7.78321E+00  1.08484E+01  7.62504E+00  1.11633E+00 -1.41831E+01  1.50500E+01 -7.53591E+00
   9.26288E+00 -1.67616E+00 -9.33954E-01 -8.52074E+00  4.21849E+00  1.07613E-01 -2.45298E+00  7.44613E+00  1.46723E+01  4.55329E+00
   1.17275E+01 -2.82543E+00 -3.82019E-01  8.69715E+00  2.25072E+01  2.59433E+00  1.28560E+01 -9.82036E+00  6.80570E+00  3.21771E+00
   1.20884E+01  3.71157E+00  7.06316E-01  2.14540E+01 -1.63927E+01  1.09234E+01 -1.59374E+01  1.19813E+01
 NY points of the fit to the data follow
   1.49196E+01  1.62254E+01  1.49857E+01  1.62227E+01  1.47803E+01  1.61942E+01  1.46334E+01  1.63259E+01  1.45447E+01  1.64351E+01
   1.44843E+01  1.65259E+01  1.42636E+01  1.65253E+01  1.45884E+01  1.64577E+01  1.49645E+01  1.60101E+01  1.53080E+01  1.53394E+01
   1.57368E+01  1.49498E+01  1.63834E+01  1.50173E+01  1.70991E+01  1.54872E+01  1.83353E+01  1.65580E+01  1.97629E+01  1.76410E+01
   2.09979E+01  1.87471E+01  2.23597E+01  1.98851E+01  2.32767E+01  2.03962E+01  2.28475E+01  1.96275E+01  2.06686E+01  1.75430E+01
   1.72679E+01  1.48290E+01  1.39630E+01  1.26270E+01  1.19535E+01  1.14963E+01  1.11247E+01  1.11911E+01  1.12264E+01  1.13771E+01
   1.15235E+01  1.14906E+01  1.14835E+01  1.10960E+01  1.07924E+01  1.01389E+01  9.66364E+00  8.91061E+00  8.43850E+00  7.84406E+00
   7.61548E+00  7.32900E+00  7.38116E+00  7.29784E+00  7.51135E+00  7.49616E+00  7.73284E+00  7.59553E+00  7.73020E+00  7.44357E+00
   7.50859E+00  7.14519E+00  7.17179E+00  6.79773E+00  6.85811E+00  6.43621E+00  6.51360E+00  5.99171E+00  6.06513E+00  5.42154E+00
   5.48592E+00  4.74995E+00  4.78805E+00  4.01794E+00  4.04516E+00  3.36930E+00  3.84767E+00  3.96306E+00  4.56053E+00  5.51484E+00
   5.95478E+00  7.73541E+00  7.76107E+00  1.02782E+01  9.66066E+00  1.26799E+01  1.13824E+01  1.47217E+01  1.30395E+01  1.68151E+01
   1.46449E+01  1.86804E+01  1.58733E+01  1.99223E+01  1.65989E+01  2.05712E+01  1.66738E+01  2.02006E+01  1.58090E+01  1.85115E+01
   1.45308E+01  1.64816E+01  1.31487E+01  1.44437E+01  1.22191E+01  1.34718E+01  1.23492E+01  1.41360E+01  1.35089E+01  1.56532E+01
   1.51060E+01  1.75838E+01  1.68971E+01  1.96145E+01  1.85746E+01  2.13846E+01  1.99310E+01  2.26958E+01  2.09837E+01  2.36680E+01
   2.15175E+01  2.36797E+01  2.08084E+01  2.19624E+01  1.84343E+01  1.84485E+01  1.48048E+01  1.38660E+01  1.09150E+01  9.49563E+00
   7.66236E+00  6.26474E+00  5.41782E+00  4.34723E+00  4.38923E+00  3.79612E+00  4.17157E+00  3.77044E+00  4.09191E+00  3.60532E+00
   3.67103E+00  3.10418E+00  2.89743E+00  2.30322E+00  1.90827E+00  1.41482E+00  9.76170E-01  6.63036E-01  3.05407E-01  1.47886E-01
  -9.75318E-02 -1.53527E-01 -3.36853E-01 -3.29167E-01 -5.16447E-01 -4.90755E-01 -7.45761E-01 -7.31488E-01 -9.91574E-01 -1.02726E+00
  -1.21663E+00 -1.31700E+00 -1.40794E+00 -1.52891E+00 -1.40880E+00 -1.45718E+00 -1.08299E+00 -1.10523E+00 -5.99644E-01 -6.60858E-01
  -1.25356E-01 -3.72624E-01  8.35208E-02 -2.29073E-01  1.76668E-01 -9.42384E-02  3.37833E-01  2.09669E-01  7.03418E-01  7.67688E-01
   1.26281E+00  1.50347E+00  1.88234E+00  2.18423E+00  2.32533E+00  2.66183E+00  2.52735E+00  2.83058E+00  2.42069E+00  2.63222E+00
   2.04189E+00  2.29427E+00  1.76814E+00  2.19844E+00  1.92343E+00  2.50361E+00  2.48961E+00  3.05831E+00  3.20611E+00  3.58276E+00
   3.75004E+00  3.87325E+00  3.98772E+00  3.96841E+00  4.03083E+00  3.84626E+00  3.83924E+00  3.66429E+00  3.66868E+00  3.59491E+00
   3.67653E+00  3.79517E+00  3.96027E+00  4.15343E+00  4.32226E+00  4.49563E+00  4.56869E+00  4.56150E+00  4.48526E+00  4.35387E+00
   4.22902E+00  4.08208E+00  4.00355E+00  3.92942E+00  3.97206E+00  3.97430E+00  4.14411E+00  4.23181E+00  4.53983E+00  4.94964E+00
   6.05443E+00  6.59576E+00  8.33131E+00  8.68949E+00  1.09092E+01  1.09265E+01  1.35165E+01  1.32342E+01  1.60259E+01  1.55161E+01
   1.83540E+01  1.77409E+01  2.07739E+01  1.98727E+01  2.28290E+01  2.14487E+01  2.40249E+01  2.21684E+01  2.43974E+01  2.21208E+01
   2.37495E+01  2.10384E+01  2.16631E+01  1.86573E+01  1.81100E+01  1.51017E+01  1.35963E+01  1.10580E+01  9.36419E+00  7.58948E+00
   6.30527E+00  5.22256E+00  4.40140E+00  3.86569E+00  3.60129E+00  3.31245E+00  3.26072E+00  3.03361E+00  3.02931E+00  2.81488E+00
   2.83899E+00  2.62702E+00  2.66815E+00  2.45866E+00  2.51644E+00  2.32683E+00  2.40301E+00  2.24194E+00  2.33700E+00  2.20223E+00
   2.30780E+00  2.18941E+00  2.28905E+00  2.18428E+00  2.26840E+00  2.17472E+00  2.24222E+00  2.16726E+00  2.22108E+00  2.16497E+00
   2.20271E+00  2.16152E+00  2.18103E+00  2.14856E+00  2.15514E+00  2.13243E+00  2.13417E+00  2.12510E+00  2.12574E+00  2.12911E+00
   2.13259E+00  2.14351E+00  2.14724E+00  2.15889E+00  2.16092E+00  2.17088E+00  2.17087E+00  2.17749E+00  2.17668E+00  2.18230E+00
   2.18187E+00  2.18810E+00  2.18871E+00  2.19587E+00  2.19782E+00  2.20609E+00  2.20958E+00  2.21919E+00  2.22427E+00  2.23535E+00
   2.24209E+00  2.25484E+00  2.26341E+00  2.27816E+00  2.28909E+00  2.30689E+00  2.32216E+00  2.34670E+00  2.37291E+00  2.41557E+00
   2.47155E+00  2.56193E+00  2.69155E+00  2.89051E+00  3.17210E+00  3.57174E+00  4.10155E+00  4.78583E+00  5.61302E+00  6.57108E+00
   7.60276E+00  8.64803E+00  9.60946E+00  1.04052E+01  1.09428E+01  1.11750E+01  1.10696E+01  1.06552E+01  9.97565E+00  9.12162E+00
   8.17433E+00  7.23171E+00  6.35535E+00  5.60436E+00  4.99294E+00  4.53430E+00  4.20578E+00  3.99624E+00  3.87133E+00  3.81853E+00
   3.80887E+00  3.83859E+00  3.88827E+00  3.96274E+00  4.04955E+00  4.15875E+00  4.28159E+00  4.43069E+00  4.59913E+00  4.80082E+00
   5.02987E+00  5.30095E+00  5.60872E+00  5.96812E+00  6.37375E+00  6.84004E+00  7.36054E+00  7.94797E+00  8.59344E+00  9.30640E+00
   1.00739E+01  1.09005E+01  1.17680E+01  1.26750E+01  1.35973E+01  1.45278E+01  1.54372E+01  1.63143E+01  1.71271E+01  1.78634E+01
   1.84923E+01  1.90048E+01  1.93752E+01  1.96017E+01  1.96673E+01  1.95797E+01  1.93323E+01  1.89431E+01  1.84147E+01  1.77736E+01
   1.70290E+01  1.62122E+01  1.53349E+01  1.44291E+01  1.35050E+01  1.25916E+01  1.16950E+01  1.08386E+01  1.00229E+01  9.26553E+00
   8.56126E+00  7.92245E+00  7.33935E+00  6.82050E+00  6.35316E+00  5.94366E+00  5.57777E+00  5.26092E+00  4.97855E+00  4.73615E+00
   4.51954E+00  4.33478E+00  4.16838E+00  4.02715E+00  3.89839E+00  3.78963E+00  3.68887E+00  3.60425E+00  3.52435E+00  3.45777E+00
   3.39352E+00  3.34057E+00  3.28823E+00  3.24572E+00  3.20257E+00  3.16818E+00  3.13222E+00  3.10424E+00  3.07402E+00  3.05118E+00
   3.02558E+00  3.00690E+00  2.98507E+00  2.96983E+00  2.95112E+00  2.93872E+00  2.92261E+00  2.91259E+00  2.89868E+00  2.89068E+00
   2.87863E+00  2.87235E+00  2.86189E+00  2.85708E+00  2.84799E+00  2.84446E+00  2.83656E+00  2.83413E+00  2.82727E+00  2.82580E+00
   2.81984E+00  2.81923E+00  2.81407E+00  2.81420E+00  2.80975E+00  2.81055E+00  2.80673E+00  2.80812E+00  2.80487E+00  2.80680E+00
   2.80406E+00  2.80646E+00  2.80419E+00  2.80704E+00  2.80519E+00  2.80845E+00  2.80699E+00  2.81063E+00  2.80954E+00  2.81353E+00
   2.81281E+00  2.81715E+00  2.81677E+00  2.82147E+00  2.82145E+00  2.82652E+00  2.82691E+00  2.83241E+00
 NY background values follow
    -3.694E-01   -3.634E-01   -3.575E-01   -3.515E-01   -3.455E-01   -3.395E-01   -3.335E-01   -3.275E-01   -3.215E-01   -3.156E-01
    -3.096E-01   -3.036E-01   -2.976E-01   -2.916E-01   -2.856E-01   -2.796E-01   -2.737E-01   -2.677E-01   -2.617E-01   -2.557E-01
    -2.497E-01   -2.437E-01   -2.378E-01   -2.318E-01   -2.258E-01   -2.198E-01   -2.138E-01   -2.078E-01   -2.018E-01   -1.959E-01
    -1.899E-01   -1.839E-01   -1.779E-01   -1.719E-01   -1.659E-01   -1.599E-01   -1.540E-01   -1.480E-01   -1.420E-01   -1.360E-01
    -1.300E-01   -1.240E-01   -1.181E-01   -1.121E-01   -1.061E-01   -1.001E-01   -9.412E-02   -8.813E-02   -8.215E-02   -7.616E-02
    -7.018E-02   -6.419E-02   -5.821E-02   -5.222E-02   -4.624E-02   -4.025E-02   -3.427E-02   -2.828E-02   -2.230E-02   -1.631E-02
    -1.033E-02   -4.343E-03    1.642E-03    7.627E-03    1.361E-02    1.960E-02    2.558E-02    3.157E-02    3.755E-02    4.354E-02
     4.952E-02    5.551E-02    6.149E-02    6.748E-02    7.346E-02    7.945E-02    8.543E-02    9.142E-02    9.740E-02    1.034E-01
     1.094E-01    1.154E-01    1.213E-01    1.273E-01    1.333E-01    1.393E-01    1.453E-01    1.513E-01    1.572E-01    1.632E-01
     1.692E-01    1.752E-01    1.812E-01    1.872E-01    1.932E-01    1.991E-01    2.051E-01    2.111E-01    2.171E-01    2.231E-01
     2.291E-01    2.350E-01    2.410E-01    2.470E-01    2.530E-01    2.590E-01    2.650E-01    2.710E-01    2.769E-01    2.829E-01
     2.889E-01    2.949E-01    3.009E-01    3.069E-01    3.129E-01    3.188E-01    3.248E-01    3.308E-01    3.368E-01    3.428E-01
     3.488E-01    3.547E-01    3.607E-01    3.667E-01    3.727E-01    3.787E-01    3.847E-01    3.906E-01    3.966E-01    4.026E-01
     4.086E-01    4.146E-01    4.206E-01    4.266E-01    4.325E-01    4.385E-01    4.445E-01    4.505E-01    4.565E-01    4.625E-01
     4.684E-01    4.744E-01    4.804E-01    4.864E-01    4.924E-01    4.984E-01    5.044E-01    5.103E-01    5.163E-01    5.223E-01
     5.283E-01    5.343E-01    5.403E-01    5.462E-01    5.522E-01    5.582E-01    5.642E-01    5.702E-01    5.762E-01    5.822E-01
     5.881E-01    5.941E-01    6.001E-01    6.061E-01    6.121E-01    6.181E-01    6.240E-01    6.300E-01    6.360E-01    6.420E-01
     6.480E-01    6.540E-01    6.599E-01    6.659E-01    6.719E-01    6.779E-01    6.839E-01    6.899E-01    6.959E-01    7.018E-01
     7.078E-01    7.138E-01    7.198E-01    7.258E-01    7.318E-01    7.377E-01    7.437E-01    7.497E-01    7.557E-01    7.617E-01
     7.677E-01    7.736E-01    7.796E-01    7.856E-01    7.916E-01    7.976E-01    8.036E-01    8.096E-01    8.155E-01    8.215E-01
     8.275E-01    8.335E-01    8.395E-01    8.455E-01    8.514E-01    8.574E-01    8.634E-01    8.694E-01    8.754E-01    8.814E-01
     8.873E-01    8.933E-01    8.993E-01    9.053E-01    9.113E-01    9.173E-01    9.233E-01    9.292E-01    9.352E-01    9.412E-01
     9.472E-01    9.532E-01    9.592E-01    9.651E-01    9.711E-01    9.771E-01    9.831E-01    9.891E-01    9.951E-01    1.001E+00
     1.007E+00    1.013E+00    1.019E+00    1.025E+00    1.031E+00    1.037E+00    1.043E+00    1.049E+00    1.055E+00    1.061E+00
     1.067E+00    1.073E+00    1.079E+00    1.085E+00    1.091E+00    1.097E+00    1.103E+00    1.109E+00    1.115E+00    1.121E+00
     1.127E+00    1.133E+00    1.139E+00    1.145E+00    1.151E+00    1.157E+00    1.163E+00    1.169E+00    1.175E+00    1.181E+00
     1.187E+00    1.193E+00    1.199E+00    1.205E+00    1.210E+00    1.216E+00    1.222E+00    1.228E+00    1.234E+00    1.240E+00
     1.246E+00    1.252E+00    1.258E+00    1.264E+00    1.270E+00    1.276E+00    1.282E+00    1.288E+00    1.294E+00    1.300E+00
     1.306E+00    1.312E+00    1.318E+00    1.324E+00    1.330E+00    1.336E+00    1.342E+00    1.348E+00    1.354E+00    1.360E+00
     1.366E+00    1.372E+00    1.378E+00    1.384E+00    1.390E+00    1.396E+00    1.402E+00    1.408E+00    1.414E+00    1.420E+00
     1.426E+00    1.432E+00    1.438E+00    1.444E+00    1.450E+00    1.456E+00    1.462E+00    1.468E+00    1.474E+00    1.480E+00
     1.486E+00    1.492E+00    1.498E+00    1.504E+00    1.510E+00    1.516E+00    1.522E+00    1.528E+00    1.534E+00    1.540E+00
     1.546E+00    1.552E+00    1.558E+00    1.564E+00    1.570E+00    1.576E+00    1.582E+00    1.588E+00    1.594E+00    1.600E+00
     1.606E+00    1.611E+00    1.617E+00    1.623E+00    1.629E+00    1.635E+00    1.641E+00    1.647E+00    1.653E+00    1.659E+00
     1.665E+00    1.671E+00    1.677E+00    1.683E+00    1.689E+00    1.695E+00    1.701E+00    1.707E+00    1.713E+00    1.719E+00
     1.725E+00    1.731E+00    1.737E+00    1.743E+00    1.749E+00    1.755E+00    1.761E+00    1.767E+00    1.773E+00    1.779E+00
     1.785E+00    1.791E+00    1.797E+00    1.803E+00    1.809E+00    1.815E+00    1.821E+00    1.827E+00    1.833E+00    1.839E+00
     1.845E+00    1.851E+00    1.857E+00    1.863E+00    1.869E+00    1.875E+00    1.881E+00    1.887E+00    1.893E+00    1.899E+00
     1.905E+00    1.911E+00    1.917E+00    1.923E+00    1.929E+00    1.935E+00    1.941E+00    1.947E+00    1.953E+00    1.959E+00
     1.965E+00    1.971E+00    1.977E+00    1.983E+00    1.989E+00    1.995E+00    2.001E+00    2.007E+00    2.013E+00    2.019E+00
     2.025E+00    2.031E+00    2.037E+00    2.043E+00    2.048E+00    2.054E+00    2.060E+00    2.066E+00    2.072E+00    2.078E+00
     2.084E+00    2.090E+00    2.096E+00    2.102E+00    2.108E+00    2.114E+00    2.120E+00    2.126E+00    2.132E+00    2.138E+00
     2.144E+00    2.150E+00    2.156E+00    2.162E+00    2.168E+00    2.174E+00    2.180E+00    2.186E+00    2.192E+00    2.198E+00
     2.204E+00    2.210E+00    2.216E+00    2.222E+00    2.228E+00    2.234E+00    2.240E+00    2.246E+00    2.252E+00    2.258E+00
     2.264E+00    2.270E+00    2.276E+00    2.282E+00    2.288E+00    2.294E+00    2.300E+00    2.306E+00    2.312E+00    2.318E+00
     2.324E+00    2.330E+00    2.336E+00    2.342E+00    2.348E+00    2.354E+00    2.360E+00    2.366E+00    2.372E+00    2.378E+00
     2.384E+00    2.390E+00    2.396E+00    2.402E+00    2.408E+00    2.414E+00    2.420E+00    2.426E+00    2.432E+00    2.438E+00
     2.444E+00    2.450E+00    2.456E+00    2.462E+00    2.468E+00    2.474E+00    2.480E+00    2.486E+00    2.492E+00    2.497E+00
     2.503E+00    2.509E+00    2.515E+00    2.521E+00    2.527E+00    2.533E+00    2.539E+00    2.545E+00    2.551E+00    2.557E+00
     2.563E+00    2.569E+00    2.575E+00    2.581E+00    2.587E+00    2.593E+00    2.599E+00    2.605E+00
 Asp      Conc. = 1.98E+02
