 LCModel (Version 6.3-1L) Copyright: S.W. Provencher.          Ref.: Magn. Reson. Med. 30:672-679 (1993).                
 Slice#3 Row#12 Col#4  PD_05_press_2_raw_act
 36 lines in following concentration table = NCONC+1
    Conc.  %SD /Cr+PCr  Metabolite                                         
   95.972  79%   0.800 Ala                                                 
   16.797  67%   0.140 Asp                                                 
  119.895  25%   1.000 Cr                                                  
    0.000 999%   0.000 PCr                                                 
    9.963  68% 8.3E-02 GABA                                                
    9.458  72% 7.9E-02 Glc                                                 
  101.490 154%   0.846 Gln                                                 
  109.790 155%   0.916 Glu                                                 
   39.668  30%   0.331 GPC                                                 
    0.000 999%   0.000 PCh                                                 
   62.105  77%   0.518 GSH                                                 
  470.099  30%   3.921 Ins                                                 
   66.392 127%   0.554 Lac                                                 
    0.000 999%   0.000 NAA                                                 
   84.914  43%   0.708 NAAG                                                
    3.596  63% 3.0E-02 Scyllo                                              
   14.917  75%   0.124 Tau                                                 
    4.468 293% 3.7E-02 -CrCH2                                              
   39.668  30%   0.331 GPC+PCh                                             
   84.914  43%   0.708 NAA+NAAG                                            
  119.895  25%   1.000 Cr+PCr                                              
  211.281 117%   1.762 Glu+Gln                                             
    0.000 999%   0.000 Lip13a                                              
    0.000 999%   0.000 Lip13b                                              
    0.000 999%   0.000 Lip09                                               
  137.865  51%   1.150 MM09                                                
    0.000 999%   0.000 Lip20                                               
   63.962 195%   0.533 MM20                                                
   46.461  74%   0.388 MM12                                                
  643.603  12%   5.368+MM14                                                
    0.000 999%   0.000 MM17                                                
    0.000 999%   0.000 Lip13a+Lip13b                                       
  690.065  13%   5.756 MM14+Lip13a+Lip13b+MM12                             
  137.865  51%   1.150 MM09+Lip09                                          
   63.962 195%   0.533 MM20+Lip20                                          
   6 lines in following misc. output table
  FWHM = 0.069 ppm    S/N =   1                                            
  Data shift = 0.038 ppm                                                   
  Ph:  17 deg      61.0 deg/ppm                                            
  alphaB,S = 8.5E+01,   1.1E+02                                            
   14 spline knots.   Ns = 6(1)                                            
  ( 4) 2 infls.   ( 1) 1 extrs.                                            
  498 points on ppm-axis = NY
      4.000000     3.992357     3.984714     3.977070     3.969427     3.961784     3.954141     3.946497     3.938854     3.931211
      3.923568     3.915925     3.908281     3.900638     3.892995     3.885352     3.877708     3.870065     3.862422     3.854779
      3.847136     3.839492     3.831849     3.824206     3.816563     3.808919     3.801276     3.793633     3.785990     3.778347
      3.770703     3.763060     3.755417     3.747774     3.740130     3.732487     3.724844     3.717201     3.709558     3.701914
      3.694271     3.686628     3.678985     3.671341     3.663698     3.656055     3.648412     3.640769     3.633125     3.625482
      3.617839     3.610196     3.602552     3.594909     3.587266     3.579623     3.571980     3.564336     3.556693     3.549050
      3.541407     3.533763     3.526120     3.518477     3.510834     3.503191     3.495547     3.487904     3.480261     3.472618
      3.464974     3.457331     3.449688     3.442045     3.434402     3.426758     3.419115     3.411472     3.403829     3.396185
      3.388542     3.380899     3.373256     3.365613     3.357969     3.350326     3.342683     3.335040     3.327396     3.319753
      3.312110     3.304467     3.296824     3.289180     3.281537     3.273894     3.266251     3.258607     3.250964     3.243321
      3.235678     3.228034     3.220391     3.212748     3.205105     3.197462     3.189818     3.182175     3.174532     3.166889
      3.159245     3.151602     3.143959     3.136316     3.128673     3.121029     3.113386     3.105743     3.098100     3.090456
      3.082813     3.075170     3.067527     3.059884     3.052240     3.044597     3.036954     3.029311     3.021667     3.014024
      3.006381     2.998738     2.991095     2.983451     2.975808     2.968165     2.960522     2.952878     2.945235     2.937592
      2.929949     2.922306     2.914662     2.907019     2.899376     2.891733     2.884089     2.876446     2.868803     2.861160
      2.853517     2.845873     2.838230     2.830587     2.822944     2.815300     2.807657     2.800014     2.792371     2.784728
      2.777084     2.769441     2.761798     2.754155     2.746511     2.738868     2.731225     2.723582     2.715939     2.708295
      2.700652     2.693009     2.685366     2.677722     2.670079     2.662436     2.654793     2.647150     2.639506     2.631863
      2.624220     2.616577     2.608933     2.601290     2.593647     2.586004     2.578361     2.570717     2.563074     2.555431
      2.547788     2.540144     2.532501     2.524858     2.517215     2.509572     2.501928     2.494285     2.486642     2.478999
      2.471355     2.463712     2.456069     2.448426     2.440783     2.433139     2.425496     2.417853     2.410210     2.402566
      2.394923     2.387280     2.379637     2.371994     2.364350     2.356707     2.349064     2.341421     2.333777     2.326134
      2.318491     2.310848     2.303205     2.295561     2.287918     2.280275     2.272632     2.264988     2.257345     2.249702
      2.242059     2.234416     2.226772     2.219129     2.211486     2.203843     2.196199     2.188556     2.180913     2.173270
      2.165627     2.157983     2.150340     2.142697     2.135054     2.127410     2.119767     2.112124     2.104481     2.096838
      2.089194     2.081551     2.073908     2.066265     2.058621     2.050978     2.043335     2.035692     2.028049     2.020405
      2.012762     2.005119     1.997476     1.989833     1.982190     1.974546     1.966903     1.959260     1.951617     1.943974
      1.936331     1.928688     1.921045     1.913402     1.905759     1.898115     1.890472     1.882829     1.875186     1.867543
      1.859900     1.852257     1.844614     1.836971     1.829327     1.821684     1.814041     1.806398     1.798755     1.791112
      1.783469     1.775826     1.768183     1.760540     1.752896     1.745253     1.737610     1.729967     1.722324     1.714681
      1.707038     1.699395     1.691752     1.684108     1.676465     1.668822     1.661179     1.653536     1.645893     1.638250
      1.630607     1.622964     1.615321     1.607677     1.600034     1.592391     1.584748     1.577105     1.569462     1.561819
      1.554176     1.546533     1.538890     1.531246     1.523603     1.515960     1.508317     1.500674     1.493031     1.485388
      1.477745     1.470102     1.462458     1.454815     1.447172     1.439529     1.431886     1.424243     1.416600     1.408957
      1.401314     1.393671     1.386027     1.378384     1.370741     1.363098     1.355455     1.347812     1.340169     1.332526
      1.324883     1.317240     1.309596     1.301953     1.294310     1.286667     1.279024     1.271381     1.263738     1.256095
      1.248452     1.240808     1.233165     1.225522     1.217879     1.210236     1.202593     1.194950     1.187307     1.179664
      1.172021     1.164377     1.156734     1.149091     1.141448     1.133805     1.126162     1.118519     1.110876     1.103233
      1.095590     1.087946     1.080303     1.072660     1.065017     1.057374     1.049731     1.042088     1.034445     1.026802
      1.019158     1.011515     1.003872     0.996229     0.988586     0.980943     0.973300     0.965657     0.958014     0.950371
      0.942727     0.935084     0.927441     0.919798     0.912155     0.904512     0.896869     0.889226     0.881583     0.873940
      0.866296     0.858653     0.851010     0.843367     0.835724     0.828081     0.820438     0.812795     0.805152     0.797508
      0.789865     0.782222     0.774579     0.766936     0.759293     0.751650     0.744007     0.736364     0.728721     0.721077
      0.713434     0.705791     0.698148     0.690505     0.682862     0.675219     0.667576     0.659933     0.652290     0.644646
      0.637003     0.629360     0.621717     0.614074     0.606431     0.598788     0.591145     0.583502     0.575858     0.568215
      0.560572     0.552929     0.545286     0.537643     0.530000     0.522357     0.514714     0.507071     0.499427     0.491784
      0.484141     0.476498     0.468855     0.461212     0.453569     0.445925     0.438282     0.430639     0.422996     0.415353
      0.407710     0.400067     0.392424     0.384780     0.377137     0.369494     0.361851     0.354208     0.346565     0.338922
      0.331278     0.323635     0.315992     0.308349     0.300706     0.293063     0.285420     0.277777     0.270133     0.262490
      0.254847     0.247204     0.239561     0.231918     0.224275     0.216631     0.208988     0.201345
 NY phased data points follow
   2.21696E+00  5.36584E+00  7.79471E+00  4.24939E+00  4.57506E+00  2.53195E+00  2.10376E+00  5.25321E+00  5.66587E+00  2.89296E+00
   4.79403E+00  4.12168E+00  6.31975E+00  4.71403E+00  6.32690E+00  5.02068E+00  2.24649E+00  5.07173E+00  5.31848E+00  4.45511E+00
   2.99981E+00  3.03056E+00  5.25649E+00  3.06956E+00  1.55941E+00  8.15025E-01  9.63799E-01  3.11892E+00 -3.16362E-01  2.17872E+00
   5.28032E+00  3.91652E+00  2.52820E+00  4.76423E+00  1.02565E+00  2.02633E+00  3.45297E+00  1.53220E+00  2.94616E+00  1.05178E+00
   2.91958E+00  1.68696E+00  1.13465E+00  3.46051E+00 -3.52711E-01  5.11847E+00  5.44270E+00  5.32723E+00  4.70520E+00  2.16283E+00
   2.47581E+00  2.87042E+00  2.25114E+00  1.85014E+00  4.50850E-01 -1.08719E+00  5.80432E+00  2.30259E+00  2.82893E+00  2.92530E+00
   1.14406E+00 -2.08862E+00  1.93291E+00  5.04797E-01  1.11267E+00  3.07632E+00 -2.01451E+00  4.03818E+00  2.16303E+00  8.18353E-01
  -2.21740E+00 -6.50429E-01 -5.79511E-01 -2.17218E-01 -1.77042E+00  9.52044E-01  1.68092E+00  6.05195E-01  2.12672E+00  2.03026E+00
  -5.74832E-01  2.36672E+00 -2.48344E+00  2.32226E+00  2.98383E+00  1.55579E+00 -1.36101E+00  1.05280E+00  8.16798E-01  3.21731E+00
   1.11252E+00  3.41578E+00 -5.84542E-01  2.10758E+00  1.13148E-01 -1.36983E+00 -4.50438E-01  2.67509E+00 -4.01366E-01  1.46701E+00
   1.76034E+00  4.26179E+00 -1.22907E+00  4.11355E+00  4.21076E+00  1.30199E+00  1.19135E+00  3.09589E+00  1.75290E+00  5.60769E+00
  -1.66638E-01 -3.24580E+00  1.35106E+00 -2.08839E+00 -9.66199E-01  2.37162E+00  7.08945E-01  1.46243E+00 -2.07375E+00 -2.96821E+00
  -3.20009E+00 -3.53958E+00  4.00450E-01 -1.55649E+00  9.75777E-01  1.58681E+00  3.07589E+00  1.28233E+00  4.95296E+00  1.29682E+00
   4.33907E+00  1.81939E+00 -5.20209E-02  2.23979E+00  2.18959E+00  5.52871E-01 -2.25883E+00  1.12223E+00 -3.30217E-01 -1.27613E+00
  -1.50523E+00 -1.85446E+00  3.64268E-01 -5.22355E+00 -7.11209E-01 -6.63763E-01 -1.20293E+00  5.65824E-01 -2.59459E+00  1.99169E+00
  -1.93252E+00 -1.24924E+00 -3.73684E-01 -1.07562E+00  9.86438E-01  2.14977E+00  5.89605E-02 -4.49857E+00  1.28396E+00 -6.68586E-01
  -2.56003E+00  4.13999E-02 -1.16317E+00 -2.77138E+00 -2.02294E+00 -2.52783E+00  1.18366E-01 -3.46352E+00  1.51167E+00 -8.55428E-01
  -7.26439E-01 -2.34059E+00  2.44466E+00 -3.14128E-01 -1.48287E+00 -2.33911E+00  1.32824E+00 -9.32920E-01 -1.91081E+00  1.28504E+00
   8.61358E-02  1.86926E+00 -3.75720E+00  2.60067E+00 -7.68144E-01 -2.95071E-01 -1.30347E+00  7.35292E-01  1.72441E+00  8.70830E-01
   6.44884E-01  1.92761E+00 -9.61434E-01  2.13349E+00 -2.58402E+00 -3.46189E+00  2.24258E+00 -1.29691E+00  2.56840E-01 -2.75778E+00
   1.99132E+00 -4.96976E+00  1.32145E+00  2.39908E+00 -3.39769E-01 -1.92800E+00 -3.67937E+00 -4.54510E+00 -2.78306E+00 -1.21097E+00
  -2.00463E+00  2.25632E+00  1.93717E+00  1.64779E+00  1.29674E-01 -1.01778E+00 -1.45982E-01 -2.25698E+00 -1.50610E+00  1.40325E+00
  -1.84053E+00  4.83864E-01  6.24008E-01  3.95933E-01 -2.22147E+00  9.50036E-01  4.53066E+00  2.95313E+00  6.02699E-02  2.13214E-01
  -1.78688E+00 -1.26768E+00  9.38646E-01  3.60633E+00  5.30675E-01 -1.39917E+00  1.18101E+00  2.85728E+00  2.57043E+00 -1.35301E+00
   1.42836E-01  8.03353E-01  1.75680E+00 -2.86810E+00 -1.29932E-01  3.59274E+00  2.25800E+00  3.34437E+00  3.67201E+00 -1.85098E+00
  -6.62840E-01 -9.57513E+00 -3.06298E+00  1.43000E+00 -1.33122E+00  2.52979E+00  1.91600E+00  6.93201E+00  5.91577E+00  8.43197E-01
   4.93814E+00 -3.50694E+00 -1.18567E+00 -1.11930E+00 -4.89445E+00 -3.30531E+00 -2.25989E+00 -1.77820E+00 -4.40914E+00 -2.71753E+00
  -1.57653E+00 -2.48061E+00 -3.03067E+00 -2.66982E+00  6.68024E-01 -3.14672E+00 -2.08404E+00 -4.81256E-01  9.81287E-01 -4.60506E-01
  -5.13430E+00 -2.39092E+00 -3.10066E+00 -1.44746E+00 -2.23587E+00 -2.50820E-01 -5.12844E-01 -3.90383E+00  8.76166E-01 -7.84240E-01
  -2.29986E+00  1.92287E+00 -2.89971E+00 -7.13218E-01 -2.47499E+00 -3.50468E+00 -1.48027E-01 -2.46795E+00 -8.99112E-01 -3.35560E+00
  -4.03383E+00 -2.53581E+00 -3.26596E+00 -2.93072E+00 -2.00405E+00 -5.28758E+00 -8.05782E+00 -5.49927E+00 -2.75327E+00 -7.99186E-01
  -4.59763E+00 -1.53838E+00  3.07946E-01  1.87199E+00 -2.07316E-01  1.26162E+00  6.56448E+00  3.93122E+00  4.23599E+00  3.45807E+00
   8.49600E+00  6.63822E+00  7.93363E+00  6.65293E+00  8.14404E+00  7.73243E+00  6.97439E+00  4.48123E+00  4.81718E+00  2.49798E-01
   6.00181E+00  5.27292E+00  3.12110E+00  6.01171E+00  5.26066E+00  4.47622E+00  3.15379E+00  1.57975E+00  4.02479E+00 -8.91059E-01
   1.72616E-01  2.63439E-02  3.10056E-01  1.54751E+00 -4.39169E-01  1.63123E+00  7.07137E-01 -3.34967E+00 -2.52168E-01 -6.07239E-04
  -1.45826E+00 -3.73603E+00 -2.86535E+00 -2.42720E+00  1.68695E+00 -4.05560E+00 -2.31910E+00 -1.42441E+00 -9.10889E-01 -2.13776E+00
  -5.00871E-01  8.22895E-01  2.03929E+00 -8.06390E-01  3.08092E+00  1.59776E+00 -3.18610E+00  7.58632E-01  9.46119E-02  2.82995E+00
  -1.32101E+00  1.50117E+00  9.33282E-01 -1.27725E+00  6.34338E-01  3.37274E-01 -9.08182E-01 -2.06498E+00 -5.84113E-01 -1.55283E+00
  -3.08911E+00  1.30570E+00  6.58537E-01 -7.49519E-01 -1.28621E+00  4.57452E-01 -7.80267E-01  2.58911E+00  1.53962E+00  1.68853E+00
   5.35360E-01 -1.77276E+00  6.29945E-01  1.97098E+00 -2.40524E+00 -1.52693E+00 -7.20864E-01  2.27800E+00 -4.68151E-01  3.44333E+00
  -2.94953E+00 -1.87584E+00 -7.84003E-01  3.97426E-01 -1.09157E+00 -9.86852E-01 -4.72032E+00 -2.20281E+00 -5.52166E+00 -4.52443E-01
  -9.58316E-01 -3.78248E+00  1.63881E+00 -5.85756E-01  2.16214E+00  7.02855E-01 -3.81573E+00 -8.45981E-01  2.91728E-01  7.16380E-01
  -1.08027E+00 -2.64875E+00  1.23856E+00  1.13460E+00 -1.28107E+00  1.74319E+00 -2.60781E+00 -2.32133E+00 -9.34258E-01  1.79187E-01
  -1.45415E+00 -3.21927E-01 -1.65507E+00  2.06497E-01 -4.08952E+00 -6.69020E-01 -5.93030E-01 -1.04573E-01 -4.74523E+00 -4.45019E+00
  -1.08646E+00 -1.13446E-02 -1.40150E+00 -3.80853E+00 -1.66030E+00 -2.15225E+00 -3.83520E+00 -1.16655E+00 -3.81858E+00 -4.67782E-01
  -4.29819E+00 -1.14066E+00  2.02992E+00  1.98149E+00  2.97039E+00  8.41436E-01 -1.20613E+00  1.16592E+00  4.74250E-01 -1.78731E+00
  -7.96674E-01  1.41079E-01 -5.03153E+00 -1.21730E+00 -4.04476E-01 -2.79871E+00 -1.26952E+00  3.91899E-01  3.15236E+00 -5.60848E+00
  -1.65547E+00 -2.76554E+00 -1.54111E+00 -4.22914E+00 -1.31295E+00 -4.73868E-01  9.82465E-01 -1.69943E+00  2.35009E-01 -2.49656E+00
   9.60030E-01 -1.85693E+00 -1.42257E-01 -1.60489E+00 -4.77147E+00 -3.95343E-01  1.59019E+00 -1.49446E+00  1.86574E+00  3.02732E-01
  -3.38066E-01 -2.88623E+00  1.82203E-01 -2.90582E-01 -3.43451E+00 -1.96136E+00 -1.36497E+00 -6.91737E-01
 NY points of the fit to the data follow
   1.91532E+00  1.67653E+00  1.50577E+00  1.39768E+00  1.37190E+00  1.45484E+00  1.71317E+00  2.12063E+00  2.59661E+00  3.05079E+00
   3.40794E+00  3.61967E+00  3.66111E+00  3.53557E+00  3.27017E+00  2.90449E+00  2.48361E+00  2.06049E+00  1.70528E+00  1.51286E+00
   1.48948E+00  1.49679E+00  1.46676E+00  1.40578E+00  1.38317E+00  1.43878E+00  1.57414E+00  1.78835E+00  2.05697E+00  2.33611E+00
   2.57975E+00  2.75851E+00  2.86172E+00  2.87521E+00  2.76339E+00  2.51526E+00  2.16848E+00  1.80519E+00  1.50953E+00  1.28259E+00
   1.14894E+00  1.20990E+00  1.53961E+00  2.09475E+00  2.74563E+00  3.35514E+00  3.80630E+00  4.01023E+00  3.93419E+00  3.60534E+00
   3.09777E+00  2.49278E+00  1.85982E+00  1.29759E+00  9.40033E-01  8.95751E-01  1.14137E+00  1.50687E+00  1.83564E+00  2.05233E+00
   2.13179E+00  2.08366E+00  1.93991E+00  1.74705E+00  1.54704E+00  1.36961E+00  1.25805E+00  1.25500E+00  1.35845E+00  1.52553E+00
   1.70790E+00  1.85147E+00  1.92842E+00  1.93172E+00  1.87102E+00  1.77014E+00  1.64840E+00  1.52207E+00  1.39964E+00  1.29640E+00
   1.22813E+00  1.15629E+00  1.03812E+00  8.55240E-01  6.19713E-01  3.60092E-01  1.13488E-01 -8.31625E-02 -2.00358E-01 -2.24563E-01
  -1.51569E-01  2.94838E-03  2.01499E-01  4.03961E-01  5.68868E-01  6.58006E-01  7.02433E-01  8.62187E-01  1.22306E+00  1.72933E+00
   2.28376E+00  2.78191E+00  3.14498E+00  3.32312E+00  3.30114E+00  3.08114E+00  2.68460E+00  2.15957E+00  1.56940E+00  9.97389E-01
   5.58745E-01  3.62563E-01  3.13857E-01  2.94796E-01  2.81290E-01  2.64742E-01  2.45854E-01  2.25908E-01  2.10170E-01  2.09067E-01
   2.47932E-01  4.32212E-01  8.83012E-01  1.54665E+00  2.29856E+00  3.00435E+00  3.55345E+00  3.88264E+00  3.96914E+00  3.81044E+00
   3.42663E+00  2.85670E+00  2.15716E+00  1.41376E+00  7.49138E-01  3.16330E-01  1.42555E-01  7.55224E-02  5.93953E-02  7.94178E-02
   1.27021E-01  1.94910E-01  2.66343E-01  3.13983E-01  3.25728E-01  3.02947E-01  2.52423E-01  1.89285E-01  1.25506E-01  6.40756E-02
   1.03446E-02 -3.77308E-02 -7.71943E-02 -1.03607E-01 -1.18240E-01 -1.25895E-01 -1.30291E-01 -1.33409E-01 -1.38370E-01 -1.47398E-01
  -1.61333E-01 -1.79675E-01 -2.02982E-01 -2.30286E-01 -2.57483E-01 -2.80371E-01 -2.92849E-01 -2.92069E-01 -2.82010E-01 -2.67782E-01
  -2.55715E-01 -2.49086E-01 -2.49192E-01 -2.55745E-01 -2.67230E-01 -2.82110E-01 -3.02144E-01 -3.30698E-01 -3.62369E-01 -3.87362E-01
  -3.99362E-01 -3.98449E-01 -3.87486E-01 -3.69921E-01 -3.42281E-01 -2.94278E-01 -2.21084E-01 -1.30924E-01 -4.56935E-02  1.35480E-02
   2.74630E-02 -1.75261E-02 -1.19226E-01 -2.59480E-01 -4.06163E-01 -5.23475E-01 -5.82534E-01 -5.67947E-01 -4.79579E-01 -3.26578E-01
  -1.33847E-01  5.36235E-02  1.92716E-01  2.47580E-01  1.78682E-01 -1.13573E-02 -2.70568E-01 -5.26587E-01 -7.20162E-01 -8.11328E-01
  -7.73126E-01 -6.23885E-01 -4.05292E-01 -1.59283E-01  6.50515E-02  2.16545E-01  2.54672E-01  1.59240E-01 -4.28114E-02 -2.72602E-01
  -4.64654E-01 -5.87182E-01 -6.24491E-01 -5.71919E-01 -4.44040E-01 -2.98375E-01 -1.77494E-01 -9.72177E-02 -6.12124E-02 -7.02074E-02
  -1.23512E-01 -1.86759E-01 -2.14979E-01 -1.99629E-01 -1.55277E-01 -9.20963E-02 -3.27230E-02 -9.51507E-03 -3.79571E-02 -1.20215E-01
  -2.35258E-01 -3.49858E-01 -4.41048E-01 -5.03498E-01 -5.40226E-01 -5.38788E-01 -4.95886E-01 -4.24343E-01 -3.29486E-01 -1.85911E-01
   8.72616E-02  5.05580E-01  1.01140E+00  1.51867E+00  1.94303E+00  2.22439E+00  2.33386E+00  2.26379E+00  2.03430E+00  1.68250E+00
   1.25052E+00  7.86362E-01  3.44921E-01  5.00311E-03 -1.60217E-01 -2.25842E-01 -2.79591E-01 -3.32307E-01 -3.76297E-01 -4.05807E-01
  -4.20326E-01 -4.23329E-01 -4.20103E-01 -4.18606E-01 -4.21531E-01 -4.29885E-01 -4.45657E-01 -4.68167E-01 -4.94510E-01 -5.21282E-01
  -5.44420E-01 -5.61014E-01 -5.70353E-01 -5.74237E-01 -5.76325E-01 -5.81013E-01 -5.88297E-01 -5.96410E-01 -6.04529E-01 -6.12125E-01
  -6.18173E-01 -6.21621E-01 -6.22637E-01 -6.23407E-01 -6.24583E-01 -6.26503E-01 -6.29075E-01 -6.31353E-01 -6.32210E-01 -6.29983E-01
  -6.21528E-01 -6.05075E-01 -5.79812E-01 -5.44631E-01 -4.98197E-01 -4.39075E-01 -3.65898E-01 -2.77276E-01 -1.70661E-01 -4.33561E-02
   1.06736E-01  2.81381E-01  4.81727E-01  7.08286E-01  9.60884E-01  1.23863E+00  1.54002E+00  1.86323E+00  2.20698E+00  2.57288E+00
   2.97305E+00  3.42213E+00  3.86473E+00  4.22428E+00  4.44792E+00  4.50925E+00  4.40600E+00  4.14973E+00  3.76571E+00  3.34424E+00
   2.98366E+00  2.73430E+00  2.61229E+00  2.61028E+00  2.70653E+00  2.84721E+00  2.92367E+00  2.89302E+00  2.76242E+00  2.54370E+00
   2.25672E+00  1.94044E+00  1.63222E+00  1.36611E+00  1.12093E+00  8.45433E-01  5.20614E-01  1.46861E-01 -2.63483E-01 -6.55878E-01
  -9.63547E-01 -1.15325E+00 -1.21707E+00 -1.16379E+00 -1.01069E+00 -7.85782E-01 -5.57483E-01 -3.90412E-01 -2.92189E-01 -2.61307E-01
  -2.94496E-01 -3.82967E-01 -5.01513E-01 -5.97143E-01 -6.53029E-01 -6.89645E-01 -7.16821E-01 -7.38643E-01 -7.57168E-01 -7.73516E-01
  -7.88306E-01 -8.01860E-01 -8.14318E-01 -8.25681E-01 -8.35860E-01 -8.44689E-01 -8.51960E-01 -8.57430E-01 -8.60838E-01 -8.61904E-01
  -8.60341E-01 -8.55858E-01 -8.48178E-01 -8.37045E-01 -8.22236E-01 -8.03572E-01 -7.80940E-01 -7.54304E-01 -7.23733E-01 -6.89416E-01
  -6.51679E-01 -6.10995E-01 -5.67996E-01 -5.23469E-01 -4.78350E-01 -4.33704E-01 -3.90693E-01 -3.50538E-01 -3.14470E-01 -2.83680E-01
  -2.59264E-01 -2.42164E-01 -2.33123E-01 -2.32647E-01 -2.40975E-01 -2.58067E-01 -2.83611E-01 -3.17035E-01 -3.57543E-01 -4.04158E-01
  -4.55774E-01 -5.11208E-01 -5.69258E-01 -6.28752E-01 -6.88597E-01 -7.47811E-01 -8.05550E-01 -8.61123E-01 -9.13998E-01 -9.63796E-01
  -1.01028E+00 -1.05335E+00 -1.09301E+00 -1.12934E+00 -1.16250E+00 -1.19269E+00 -1.22015E+00 -1.24511E+00 -1.26784E+00 -1.28856E+00
  -1.30751E+00 -1.32491E+00 -1.34094E+00 -1.35579E+00 -1.36959E+00 -1.38250E+00 -1.39461E+00 -1.40605E+00 -1.41689E+00 -1.42720E+00
  -1.43706E+00 -1.44651E+00 -1.45561E+00 -1.46439E+00 -1.47290E+00 -1.48115E+00 -1.48918E+00 -1.49701E+00 -1.50466E+00 -1.51214E+00
  -1.51948E+00 -1.52669E+00 -1.53377E+00 -1.54073E+00 -1.54760E+00 -1.55437E+00 -1.56106E+00 -1.56766E+00 -1.57420E+00 -1.58066E+00
  -1.58706E+00 -1.59340E+00 -1.59969E+00 -1.60592E+00 -1.61211E+00 -1.61826E+00 -1.62436E+00 -1.63042E+00 -1.63645E+00 -1.64244E+00
  -1.64840E+00 -1.65434E+00 -1.66024E+00 -1.66611E+00 -1.67196E+00 -1.67779E+00 -1.68359E+00 -1.68937E+00 -1.69513E+00 -1.70086E+00
  -1.70658E+00 -1.71228E+00 -1.71797E+00 -1.72363E+00 -1.72929E+00 -1.73492E+00 -1.74054E+00 -1.74614E+00 -1.75173E+00 -1.75731E+00
  -1.76287E+00 -1.76842E+00 -1.77395E+00 -1.77947E+00 -1.78497E+00 -1.79046E+00 -1.79593E+00 -1.80139E+00
 NY background values follow
     7.662E-01    7.610E-01    7.558E-01    7.506E-01    7.454E-01    7.402E-01    7.350E-01    7.298E-01    7.246E-01    7.193E-01
     7.141E-01    7.089E-01    7.037E-01    6.985E-01    6.933E-01    6.881E-01    6.829E-01    6.777E-01    6.725E-01    6.672E-01
     6.620E-01    6.568E-01    6.516E-01    6.464E-01    6.412E-01    6.360E-01    6.308E-01    6.256E-01    6.203E-01    6.151E-01
     6.099E-01    6.047E-01    5.995E-01    5.943E-01    5.891E-01    5.839E-01    5.787E-01    5.735E-01    5.682E-01    5.630E-01
     5.578E-01    5.526E-01    5.474E-01    5.422E-01    5.370E-01    5.318E-01    5.266E-01    5.214E-01    5.161E-01    5.109E-01
     5.057E-01    5.005E-01    4.953E-01    4.901E-01    4.849E-01    4.797E-01    4.745E-01    4.693E-01    4.640E-01    4.588E-01
     4.536E-01    4.484E-01    4.432E-01    4.380E-01    4.328E-01    4.276E-01    4.224E-01    4.172E-01    4.119E-01    4.067E-01
     4.015E-01    3.963E-01    3.911E-01    3.859E-01    3.807E-01    3.755E-01    3.703E-01    3.651E-01    3.598E-01    3.546E-01
     3.494E-01    3.442E-01    3.390E-01    3.338E-01    3.286E-01    3.234E-01    3.182E-01    3.129E-01    3.077E-01    3.025E-01
     2.973E-01    2.921E-01    2.869E-01    2.817E-01    2.765E-01    2.713E-01    2.661E-01    2.608E-01    2.556E-01    2.504E-01
     2.452E-01    2.400E-01    2.348E-01    2.296E-01    2.244E-01    2.192E-01    2.140E-01    2.087E-01    2.035E-01    1.983E-01
     1.931E-01    1.879E-01    1.827E-01    1.775E-01    1.723E-01    1.671E-01    1.619E-01    1.566E-01    1.514E-01    1.462E-01
     1.410E-01    1.358E-01    1.306E-01    1.254E-01    1.202E-01    1.150E-01    1.098E-01    1.046E-01    9.934E-02    9.413E-02
     8.892E-02    8.371E-02    7.850E-02    7.329E-02    6.808E-02    6.287E-02    5.766E-02    5.245E-02    4.724E-02    4.203E-02
     3.682E-02    3.161E-02    2.640E-02    2.119E-02    1.598E-02    1.078E-02    5.566E-03    3.558E-04   -4.854E-03   -1.006E-02
    -1.527E-02   -2.048E-02   -2.569E-02   -3.090E-02   -3.611E-02   -4.132E-02   -4.653E-02   -5.174E-02   -5.695E-02   -6.216E-02
    -6.737E-02   -7.258E-02   -7.779E-02   -8.300E-02   -8.821E-02   -9.342E-02   -9.863E-02   -1.038E-01   -1.090E-01   -1.143E-01
    -1.195E-01   -1.247E-01   -1.299E-01   -1.351E-01   -1.403E-01   -1.455E-01   -1.507E-01   -1.559E-01   -1.611E-01   -1.663E-01
    -1.716E-01   -1.768E-01   -1.820E-01   -1.872E-01   -1.924E-01   -1.976E-01   -2.028E-01   -2.080E-01   -2.132E-01   -2.184E-01
    -2.237E-01   -2.289E-01   -2.341E-01   -2.393E-01   -2.445E-01   -2.497E-01   -2.549E-01   -2.601E-01   -2.653E-01   -2.705E-01
    -2.757E-01   -2.810E-01   -2.862E-01   -2.914E-01   -2.966E-01   -3.018E-01   -3.070E-01   -3.122E-01   -3.174E-01   -3.226E-01
    -3.278E-01   -3.330E-01   -3.383E-01   -3.435E-01   -3.487E-01   -3.539E-01   -3.591E-01   -3.643E-01   -3.695E-01   -3.747E-01
    -3.799E-01   -3.851E-01   -3.903E-01   -3.956E-01   -4.008E-01   -4.060E-01   -4.112E-01   -4.164E-01   -4.216E-01   -4.268E-01
    -4.320E-01   -4.372E-01   -4.424E-01   -4.476E-01   -4.529E-01   -4.581E-01   -4.633E-01   -4.685E-01   -4.737E-01   -4.789E-01
    -4.841E-01   -4.893E-01   -4.945E-01   -4.997E-01   -5.049E-01   -5.102E-01   -5.154E-01   -5.206E-01   -5.258E-01   -5.310E-01
    -5.362E-01   -5.414E-01   -5.466E-01   -5.518E-01   -5.570E-01   -5.622E-01   -5.675E-01   -5.727E-01   -5.779E-01   -5.831E-01
    -5.883E-01   -5.935E-01   -5.987E-01   -6.039E-01   -6.091E-01   -6.143E-01   -6.195E-01   -6.248E-01   -6.300E-01   -6.352E-01
    -6.404E-01   -6.456E-01   -6.508E-01   -6.560E-01   -6.612E-01   -6.664E-01   -6.716E-01   -6.768E-01   -6.820E-01   -6.873E-01
    -6.925E-01   -6.977E-01   -7.029E-01   -7.081E-01   -7.133E-01   -7.185E-01   -7.237E-01   -7.289E-01   -7.341E-01   -7.393E-01
    -7.445E-01   -7.498E-01   -7.550E-01   -7.602E-01   -7.654E-01   -7.706E-01   -7.758E-01   -7.810E-01   -7.862E-01   -7.914E-01
    -7.966E-01   -8.018E-01   -8.070E-01   -8.123E-01   -8.175E-01   -8.227E-01   -8.279E-01   -8.331E-01   -8.383E-01   -8.435E-01
    -8.487E-01   -8.539E-01   -8.591E-01   -8.643E-01   -8.696E-01   -8.748E-01   -8.800E-01   -8.852E-01   -8.904E-01   -8.956E-01
    -9.008E-01   -9.060E-01   -9.112E-01   -9.164E-01   -9.216E-01   -9.268E-01   -9.320E-01   -9.373E-01   -9.425E-01   -9.477E-01
    -9.529E-01   -9.581E-01   -9.633E-01   -9.685E-01   -9.737E-01   -9.789E-01   -9.841E-01   -9.893E-01   -9.945E-01   -9.998E-01
    -1.005E+00   -1.010E+00   -1.015E+00   -1.021E+00   -1.026E+00   -1.031E+00   -1.036E+00   -1.041E+00   -1.047E+00   -1.052E+00
    -1.057E+00   -1.062E+00   -1.067E+00   -1.073E+00   -1.078E+00   -1.083E+00   -1.088E+00   -1.094E+00   -1.099E+00   -1.104E+00
    -1.109E+00   -1.114E+00   -1.120E+00   -1.125E+00   -1.130E+00   -1.135E+00   -1.140E+00   -1.146E+00   -1.151E+00   -1.156E+00
    -1.161E+00   -1.166E+00   -1.172E+00   -1.177E+00   -1.182E+00   -1.187E+00   -1.192E+00   -1.198E+00   -1.203E+00   -1.208E+00
    -1.213E+00   -1.218E+00   -1.224E+00   -1.229E+00   -1.234E+00   -1.239E+00   -1.245E+00   -1.250E+00   -1.255E+00   -1.260E+00
    -1.265E+00   -1.271E+00   -1.276E+00   -1.281E+00   -1.286E+00   -1.291E+00   -1.297E+00   -1.302E+00   -1.307E+00   -1.312E+00
    -1.317E+00   -1.323E+00   -1.328E+00   -1.333E+00   -1.338E+00   -1.343E+00   -1.349E+00   -1.354E+00   -1.359E+00   -1.364E+00
    -1.370E+00   -1.375E+00   -1.380E+00   -1.385E+00   -1.390E+00   -1.396E+00   -1.401E+00   -1.406E+00   -1.411E+00   -1.416E+00
    -1.422E+00   -1.427E+00   -1.432E+00   -1.437E+00   -1.442E+00   -1.448E+00   -1.453E+00   -1.458E+00   -1.463E+00   -1.468E+00
    -1.474E+00   -1.479E+00   -1.484E+00   -1.489E+00   -1.495E+00   -1.500E+00   -1.505E+00   -1.510E+00   -1.515E+00   -1.521E+00
    -1.526E+00   -1.531E+00   -1.536E+00   -1.541E+00   -1.547E+00   -1.552E+00   -1.557E+00   -1.562E+00   -1.567E+00   -1.573E+00
    -1.578E+00   -1.583E+00   -1.588E+00   -1.593E+00   -1.599E+00   -1.604E+00   -1.609E+00   -1.614E+00   -1.619E+00   -1.625E+00
    -1.630E+00   -1.635E+00   -1.640E+00   -1.646E+00   -1.651E+00   -1.656E+00   -1.661E+00   -1.666E+00   -1.672E+00   -1.677E+00
    -1.682E+00   -1.687E+00   -1.692E+00   -1.698E+00   -1.703E+00   -1.708E+00   -1.713E+00   -1.718E+00   -1.724E+00   -1.729E+00
    -1.734E+00   -1.739E+00   -1.744E+00   -1.750E+00   -1.755E+00   -1.760E+00   -1.765E+00   -1.771E+00   -1.776E+00   -1.781E+00
    -1.786E+00   -1.791E+00   -1.797E+00   -1.802E+00   -1.807E+00   -1.812E+00   -1.817E+00   -1.823E+00
 Ala      Conc. = 9.60E+01
