 LCModel (Version 6.3-1L) Copyright: S.W. Provencher.          Ref.: Magn. Reson. Med. 30:672-679 (1993).                
 Slice#3 Row#9 Col#6  PD_05_press_2_raw_act
 36 lines in following concentration table = NCONC+1
    Conc.  %SD /Cr+PCr  Metabolite                                         
    0.000 999%   0.000 Ala                                                 
    0.000 999%   0.000 Asp                                                 
 4.13E+03  15%   0.973 Cr                                                  
  114.722 540% 2.7E-02 PCr                                                 
  480.495  88%   0.113 GABA                                                
    0.000 999%   0.000 Glc                                                 
 3.51E+03  22%   0.828 Gln                                                 
 6.00E+03  15%   1.413 Glu                                                 
 1.21E+03   4%   0.285 GPC                                                 
    0.000 999%   0.000 PCh                                                 
 2.51E+03   7%   0.592 GSH                                                 
 6.32E+03  10%   1.488 Ins                                                 
  762.714  51%   0.180 Lac                                                 
 5.60E+03   3%   1.318 NAA                                                 
    0.000 999%   0.000 NAAG                                                
  306.545  19% 7.2E-02 Scyllo                                              
    0.000 999%   0.000 Tau                                                 
    0.000 999%   0.000 -CrCH2                                              
 1.21E+03   4%   0.285 GPC+PCh                                             
 5.60E+03   3%   1.318 NAA+NAAG                                            
 4.25E+03   3%   1.000 Cr+PCr                                              
 9.52E+03  15%   2.241 Glu+Gln                                             
 2.75E+03  38%   0.647 Lip13a                                              
    0.000 999%   0.000 Lip13b                                              
  393.369 111% 9.3E-02 Lip09                                               
 2.17E+03  24%   0.511 MM09                                                
  449.773  66%   0.106 Lip20                                               
 4.56E+03  16%   1.074 MM20                                                
  798.561  44%   0.188 MM12                                                
 3.29E+03  22%   0.774 MM14                                                
 1.76E+03  24%   0.415 MM17                                                
 2.75E+03  38%   0.647 Lip13a+Lip13b                                       
 6.83E+03  11%   1.609 MM14+Lip13a+Lip13b+MM12                             
 2.56E+03  13%   0.603 MM09+Lip09                                          
 5.01E+03  14%   1.179 MM20+Lip20                                          
   6 lines in following misc. output table
  FWHM = 0.061 ppm    S/N =  12                                            
  Data shift =-0.015 ppm                                                   
  Ph:   7 deg       5.4 deg/ppm                                            
  alphaB,S = 2.5E+00,   1.1E+02                                            
   14 spline knots.   Ns = 9(1)                                            
  (17) 5 infls.   (17) 1 extrs.                                            
  498 points on ppm-axis = NY
      4.000000     3.992357     3.984714     3.977070     3.969427     3.961784     3.954141     3.946497     3.938854     3.931211
      3.923568     3.915925     3.908281     3.900638     3.892995     3.885352     3.877708     3.870065     3.862422     3.854779
      3.847136     3.839492     3.831849     3.824206     3.816563     3.808919     3.801276     3.793633     3.785990     3.778347
      3.770703     3.763060     3.755417     3.747774     3.740130     3.732487     3.724844     3.717201     3.709558     3.701914
      3.694271     3.686628     3.678985     3.671341     3.663698     3.656055     3.648412     3.640769     3.633125     3.625482
      3.617839     3.610196     3.602552     3.594909     3.587266     3.579623     3.571980     3.564336     3.556693     3.549050
      3.541407     3.533763     3.526120     3.518477     3.510834     3.503191     3.495547     3.487904     3.480261     3.472618
      3.464974     3.457331     3.449688     3.442045     3.434402     3.426758     3.419115     3.411472     3.403829     3.396185
      3.388542     3.380899     3.373256     3.365613     3.357969     3.350326     3.342683     3.335040     3.327396     3.319753
      3.312110     3.304467     3.296824     3.289180     3.281537     3.273894     3.266251     3.258607     3.250964     3.243321
      3.235678     3.228034     3.220391     3.212748     3.205105     3.197462     3.189818     3.182175     3.174532     3.166889
      3.159245     3.151602     3.143959     3.136316     3.128673     3.121029     3.113386     3.105743     3.098100     3.090456
      3.082813     3.075170     3.067527     3.059884     3.052240     3.044597     3.036954     3.029311     3.021667     3.014024
      3.006381     2.998738     2.991095     2.983451     2.975808     2.968165     2.960522     2.952878     2.945235     2.937592
      2.929949     2.922306     2.914662     2.907019     2.899376     2.891733     2.884089     2.876446     2.868803     2.861160
      2.853517     2.845873     2.838230     2.830587     2.822944     2.815300     2.807657     2.800014     2.792371     2.784728
      2.777084     2.769441     2.761798     2.754155     2.746511     2.738868     2.731225     2.723582     2.715939     2.708295
      2.700652     2.693009     2.685366     2.677722     2.670079     2.662436     2.654793     2.647150     2.639506     2.631863
      2.624220     2.616577     2.608933     2.601290     2.593647     2.586004     2.578361     2.570717     2.563074     2.555431
      2.547788     2.540144     2.532501     2.524858     2.517215     2.509572     2.501928     2.494285     2.486642     2.478999
      2.471355     2.463712     2.456069     2.448426     2.440783     2.433139     2.425496     2.417853     2.410210     2.402566
      2.394923     2.387280     2.379637     2.371994     2.364350     2.356707     2.349064     2.341421     2.333777     2.326134
      2.318491     2.310848     2.303205     2.295561     2.287918     2.280275     2.272632     2.264988     2.257345     2.249702
      2.242059     2.234416     2.226772     2.219129     2.211486     2.203843     2.196199     2.188556     2.180913     2.173270
      2.165627     2.157983     2.150340     2.142697     2.135054     2.127410     2.119767     2.112124     2.104481     2.096838
      2.089194     2.081551     2.073908     2.066265     2.058621     2.050978     2.043335     2.035692     2.028049     2.020405
      2.012762     2.005119     1.997476     1.989833     1.982190     1.974546     1.966903     1.959260     1.951617     1.943974
      1.936331     1.928688     1.921045     1.913402     1.905759     1.898115     1.890472     1.882829     1.875186     1.867543
      1.859900     1.852257     1.844614     1.836971     1.829327     1.821684     1.814041     1.806398     1.798755     1.791112
      1.783469     1.775826     1.768183     1.760540     1.752896     1.745253     1.737610     1.729967     1.722324     1.714681
      1.707038     1.699395     1.691752     1.684108     1.676465     1.668822     1.661179     1.653536     1.645893     1.638250
      1.630607     1.622964     1.615321     1.607677     1.600034     1.592391     1.584748     1.577105     1.569462     1.561819
      1.554176     1.546533     1.538890     1.531246     1.523603     1.515960     1.508317     1.500674     1.493031     1.485388
      1.477745     1.470102     1.462458     1.454815     1.447172     1.439529     1.431886     1.424243     1.416600     1.408957
      1.401314     1.393671     1.386027     1.378384     1.370741     1.363098     1.355455     1.347812     1.340169     1.332526
      1.324883     1.317240     1.309596     1.301953     1.294310     1.286667     1.279024     1.271381     1.263738     1.256095
      1.248452     1.240808     1.233165     1.225522     1.217879     1.210236     1.202593     1.194950     1.187307     1.179664
      1.172021     1.164377     1.156734     1.149091     1.141448     1.133805     1.126162     1.118519     1.110876     1.103233
      1.095590     1.087946     1.080303     1.072660     1.065017     1.057374     1.049731     1.042088     1.034445     1.026802
      1.019158     1.011515     1.003872     0.996229     0.988586     0.980943     0.973300     0.965657     0.958014     0.950371
      0.942727     0.935084     0.927441     0.919798     0.912155     0.904512     0.896869     0.889226     0.881583     0.873940
      0.866296     0.858653     0.851010     0.843367     0.835724     0.828081     0.820438     0.812795     0.805152     0.797508
      0.789865     0.782222     0.774579     0.766936     0.759293     0.751650     0.744007     0.736364     0.728721     0.721077
      0.713434     0.705791     0.698148     0.690505     0.682862     0.675219     0.667576     0.659933     0.652290     0.644646
      0.637003     0.629360     0.621717     0.614074     0.606431     0.598788     0.591145     0.583502     0.575858     0.568215
      0.560572     0.552929     0.545286     0.537643     0.530000     0.522357     0.514714     0.507071     0.499427     0.491784
      0.484141     0.476498     0.468855     0.461212     0.453569     0.445925     0.438282     0.430639     0.422996     0.415353
      0.407710     0.400067     0.392424     0.384780     0.377137     0.369494     0.361851     0.354208     0.346565     0.338922
      0.331278     0.323635     0.315992     0.308349     0.300706     0.293063     0.285420     0.277777     0.270133     0.262490
      0.254847     0.247204     0.239561     0.231918     0.224275     0.216631     0.208988     0.201345
 NY phased data points follow
  -2.31099E+00 -3.59219E-01  1.35892E+01  8.17874E+00  1.23345E+01  2.49331E+01  4.06802E+01  4.98643E+01  6.40121E+01  7.05784E+01
   7.23515E+01  7.01802E+01  7.68024E+01  7.32058E+01  6.75263E+01  4.32193E+01  4.62565E+01  3.93939E+01  2.94538E+01  2.44571E+01
   2.62258E+01  2.60193E+01  2.91318E+01  3.39347E+01  3.44219E+01  2.99976E+01  3.97329E+01  3.31194E+01  4.62727E+01  4.59247E+01
   4.61287E+01  4.08590E+01  4.12906E+01  4.29087E+01  4.46584E+01  3.09745E+01  2.41001E+01  2.03344E+01  2.91080E+01  2.46828E+01
   3.27977E+01  1.63113E+01  3.75162E+01  2.70673E+01  2.79227E+01  3.27661E+01  4.44203E+01  3.21603E+01  3.70781E+01  3.47699E+01
   3.67258E+01  2.08909E+01  2.85819E+01  1.48034E+01  1.94129E+01  1.39206E+01  2.58062E+01  1.09628E+01  2.22829E+01  4.61793E+00
   1.50763E+01  4.87719E+00  1.39117E+01 -2.29025E+00 -6.77375E+00  2.23300E+00 -7.90983E+00 -5.57472E+00  5.64867E+00 -1.29838E+01
  -4.04388E+00 -5.05831E+00 -1.36201E-01  4.29894E+00  6.93761E+00  2.39006E+00  4.89144E+00 -5.44154E+00 -5.47821E+00  2.83022E+00
   1.95982E+00 -2.32050E+00  5.02954E+00 -5.53864E+00 -4.02486E+00 -4.51353E+00  7.28643E+00 -6.19452E-01 -1.85943E+00 -4.56324E-01
   6.81392E-01  6.59549E+00  1.63448E+00 -5.61678E+00  3.60681E+00  1.89217E+00  8.00170E+00  2.26037E+01  2.79820E+01  3.55281E+01
   4.96921E+01  5.24925E+01  6.52253E+01  7.35278E+01  6.45827E+01  6.40142E+01  5.45054E+01  3.74564E+01  3.92462E+01  3.42393E+01
   1.92686E+01  9.80618E+00  1.65414E+01  5.57437E+00  2.68884E+00  1.13775E+00  1.40241E+00  1.16182E+00  1.14261E+01  1.02482E+01
   1.93678E+01  2.27488E+01  3.24305E+01  4.94007E+01  6.31542E+01  7.72691E+01  1.00757E+02  1.10721E+02  1.00604E+02  9.07344E+01
   8.04109E+01  7.18037E+01  6.00049E+01  3.88533E+01  3.27245E+01  1.45279E+01  1.89467E+01  1.12930E+01  6.20978E-01  2.86253E+00
   1.98272E+00 -3.81218E+00  3.35279E-02  2.09639E+00 -5.01594E+00 -8.69258E+00  6.17992E+00  3.44166E+00 -4.42503E+00 -6.73304E+00
  -5.15078E+00  2.80874E+00  3.60183E+00 -5.33056E-01 -4.39422E+00 -6.40065E+00 -9.97172E+00 -1.95874E+01 -6.98808E+00 -1.18193E+01
  -1.14909E+01 -1.20080E+01 -6.00808E+00 -1.34931E+01 -6.63583E+00 -6.39518E+00 -3.07864E-01 -1.89936E+00 -1.36735E+01 -1.11091E+01
  -1.49012E+01 -2.00121E+01 -2.02590E+01 -3.05522E+01 -3.43571E+01 -3.55365E+01 -2.92602E+01 -2.63419E+01 -3.05531E+01 -3.41715E+01
  -3.15572E+01 -3.42183E+01 -3.53281E+01 -3.31722E+01 -2.93077E+01 -2.66842E+01 -2.83173E+01 -2.70684E+01 -1.82888E+01 -1.62807E+01
  -1.00172E+01  3.30593E+00 -7.77779E+00 -2.10867E+00 -6.51473E+00  8.95863E-01 -3.64811E-01 -2.73826E+00 -1.13523E+01 -1.80371E+01
  -1.08094E+01 -9.27964E+00 -5.88472E+00 -1.43275E+01 -9.42175E+00 -7.65403E+00 -8.25264E+00 -1.19718E+01 -7.74905E+00 -1.97261E+01
  -1.12263E+01 -2.20276E+01 -7.02276E+00  3.09066E-01  2.19942E+00  1.45685E+01  1.11079E+01  6.40309E+00  2.19408E+00  2.62985E+00
  -1.90975E+00 -1.64846E+01 -8.37482E+00 -1.01673E+01 -1.54071E+01 -8.27646E+00 -2.37269E+00 -3.89533E+00  1.43284E+00 -2.83078E-01
   6.70157E+00 -1.62252E+00  4.52194E+00  7.50424E+00  1.45694E+01  4.09421E+00  3.81083E+00 -4.63546E-01  2.13322E+00  2.33771E+00
  -2.82673E+00 -3.59415E+00  4.06502E+00 -7.34408E+00  5.17008E+00  5.68357E+00  7.35875E+00  4.23766E+00  2.27653E+01  8.31982E+00
   1.30502E+01  2.32685E+01  2.86331E+01  4.36692E+01  5.19545E+01  6.45644E+01  9.09801E+01  1.06112E+02  1.21900E+02  1.32123E+02
   1.51659E+02  1.58167E+02  1.46172E+02  1.19352E+02  8.37098E+01  7.34271E+01  6.60072E+01  4.71068E+01  3.50857E+01  1.76888E+01
   1.62551E+01  2.06352E+01  2.03572E+01  1.32115E+01  8.85369E+00  3.32405E+00  4.78359E+00  6.57308E+00  1.09143E+00  1.09787E+00
   6.28888E-01 -9.76778E-01 -4.60242E-01 -4.01997E+00 -5.30543E+00  1.73667E+00 -3.76593E+00 -1.24756E+00  6.57681E-01  3.12622E-01
  -3.62345E+00 -1.30894E+00  3.89906E+00  2.00342E+00 -2.09754E+00 -1.11519E+00  1.79102E+00 -5.87605E-01  2.49788E-01  5.17439E+00
   4.15731E-01  1.17395E+01  3.69870E-01 -6.91642E-01  1.16860E+01  7.56305E+00  1.13141E+01 -1.05983E+00  5.57047E+00  1.23027E+01
   1.18854E+01  1.44000E+01  9.55267E+00  5.74936E+00  1.37830E+01  1.90836E+01  8.51542E+00  8.25655E+00  2.63989E+00  5.52668E+00
   6.80690E+00  1.11750E+01  1.18880E+01  5.37207E+00  4.76166E+00  8.31756E-01  1.47370E+01  9.95480E+00  6.50331E+00  1.14872E+01
   1.35995E+01  1.08906E+01  2.12127E+01  1.40893E+01  2.20725E+01  1.60423E+01  2.49967E+01  1.64608E+01  1.91136E+01  1.23227E+01
   3.08141E+01  1.33982E+01  1.67966E+01  2.00721E+01  1.54939E+01  2.51159E+01  2.43885E+01  2.60025E+01  1.13274E+01  1.38039E+01
   1.10816E+01  1.45000E+01  8.40679E+00  1.35964E+01  9.62227E+00  1.78876E+01  9.39513E+00  1.66023E+01  6.67132E+00  2.09976E+01
   1.55114E+01  1.08948E+01  1.81290E+01  7.17797E+00  1.75320E+01  1.27843E+01  1.69901E+01  6.38993E+00  1.41298E+01  6.03599E+00
   1.14524E+01  1.62558E+01  1.11708E+01 -3.24388E-01  1.36161E+01  1.32660E+01  9.57484E+00  5.30279E+00  1.22372E+01  6.36253E+00
   1.00618E+01  7.08276E+00  4.60699E+00  9.60757E+00  4.43933E+00  4.45899E+00  5.66389E+00  6.66068E+00  4.72792E+00  7.83769E+00
   1.22577E+01  8.94221E+00  9.18819E+00  6.38664E+00  1.30123E+01  4.84671E+00  1.07038E+01  7.17769E+00  8.25741E+00  7.10431E+00
   1.05795E+01  8.28586E+00  1.64256E+01  1.03798E+01  2.10297E+01  1.18800E+01  1.39213E+01  1.24456E+01  9.03471E+00  1.64153E+01
   4.01901E+00  8.28114E+00  9.51686E+00  5.04749E+00  7.68638E+00  6.42192E+00  4.50658E+00  5.11452E+00  6.99820E+00  1.04962E+01
   4.00111E+00  1.35718E+01  4.32347E+00 -2.57644E+00  2.17440E+00  2.85845E+00  1.29444E+00  6.04465E+00  7.88442E+00  1.17535E+01
   2.82989E+00  4.10406E+00 -5.11409E+00  3.26052E+00 -1.63943E+00 -4.79283E+00  3.80714E+00  9.18348E+00 -8.87087E+00 -4.73119E-01
   3.30093E+00  4.50125E+00 -6.54781E+00  4.30929E+00  6.91717E+00  1.19853E+01  4.05318E-01 -2.43836E+00  1.84880E+00  2.69827E+00
   4.99636E+00 -2.82386E+00 -2.78101E+00 -1.19909E+01  8.18291E+00 -3.74943E+00  2.01228E+00 -1.48828E+00  9.32637E+00 -1.20312E+00
   3.47268E+00  2.46045E+00  4.37666E+00 -2.25217E+00  1.45432E+00 -5.02775E+00 -4.83159E+00  1.40346E+00 -2.65788E+00 -5.10422E+00
   1.68805E+00  1.38223E+00 -1.58025E+00 -1.40090E+00 -9.16659E-02 -5.26299E-01 -3.24493E+00 -6.34101E+00 -1.89896E+00 -6.73737E+00
  -3.88784E+00 -4.18605E+00 -4.00829E+00 -9.88867E+00 -4.44266E+00 -4.32772E+00  3.02955E+00 -6.53105E+00 -5.83507E+00  4.33600E+00
   2.18725E+00 -1.98831E+00 -3.31538E+00 -4.26028E+00 -8.18434E+00 -3.26213E+00  2.02748E-01 -1.74547E+00
 NY points of the fit to the data follow
   9.51460E+00  8.67163E+00  1.03582E+01  1.57197E+01  2.16518E+01  2.74447E+01  3.44407E+01  4.31778E+01  5.25009E+01  6.13524E+01
   6.91970E+01  7.45118E+01  7.52942E+01  7.07997E+01  6.21445E+01  5.24376E+01  4.45092E+01  3.79044E+01  3.16015E+01  2.59332E+01
   2.22324E+01  2.00662E+01  1.85185E+01  1.98150E+01  2.29779E+01  2.75354E+01  3.29608E+01  3.85721E+01  4.45160E+01  4.97750E+01
   5.26257E+01  5.23042E+01  4.88480E+01  4.33465E+01  3.73076E+01  3.10225E+01  2.47073E+01  1.99090E+01  1.80744E+01  1.74752E+01
   1.73580E+01  1.93463E+01  2.26140E+01  2.63778E+01  2.99966E+01  3.32482E+01  3.57435E+01  3.61322E+01  3.36721E+01  2.87038E+01
   2.27568E+01  1.78314E+01  1.47394E+01  1.25748E+01  1.10757E+01  1.04174E+01  9.88522E+00  9.27421E+00  9.46446E+00  1.02661E+01
   1.05890E+01  9.74688E+00  8.26888E+00  6.78078E+00  5.63950E+00  5.01069E+00  5.03081E+00  5.66406E+00  6.35604E+00  6.80711E+00
   7.17994E+00  7.39256E+00  7.42628E+00  7.11133E+00  6.42213E+00  5.59914E+00  4.80486E+00  4.07186E+00  3.75316E+00  3.24000E+00
   2.52442E+00  1.72109E+00  1.15189E+00  8.04417E-01  4.91122E-01  2.04668E-01 -1.54702E-01 -7.12376E-01 -1.68573E+00 -2.88315E+00
  -3.85190E+00 -4.18988E+00 -4.05571E+00 -3.40145E+00  2.94869E-01  7.18204E+00  1.32517E+01  1.86772E+01  2.58760E+01  3.52711E+01
   4.56465E+01  5.60671E+01  6.57786E+01  7.25076E+01  7.35015E+01  6.76380E+01  5.65761E+01  4.46515E+01  3.49876E+01  2.70474E+01
   1.95685E+01  1.31098E+01  7.57478E+00  1.36002E+00 -3.76567E+00 -5.47232E+00 -5.70796E+00 -4.56919E+00  1.05623E+00  1.06805E+01
   1.98115E+01  2.89856E+01  4.01706E+01  5.38588E+01  6.86217E+01  8.29935E+01  9.56479E+01  1.03935E+02  1.04692E+02  9.68704E+01
   8.29315E+01  6.78247E+01  5.52255E+01  4.40053E+01  3.26643E+01  2.25075E+01  1.39724E+01  5.81904E+00  6.80572E-01  3.09968E-01
   1.34761E+00  2.29880E+00  2.51174E+00  1.90812E+00  1.13086E+00  4.89032E-01 -2.29980E-01 -9.72063E-01 -1.84908E+00 -2.99097E+00
  -4.15404E+00 -5.38965E+00 -6.60757E+00 -7.54693E+00 -8.19261E+00 -8.59171E+00 -8.79561E+00 -9.14540E+00 -9.71222E+00 -1.03701E+01
  -1.09642E+01 -1.14140E+01 -1.16672E+01 -1.16839E+01 -1.16477E+01 -1.19830E+01 -1.28943E+01 -1.42239E+01 -1.55411E+01 -1.64683E+01
  -1.71500E+01 -1.78471E+01 -1.88900E+01 -1.99683E+01 -2.09063E+01 -2.17548E+01 -2.23430E+01 -2.26704E+01 -2.29343E+01 -2.30830E+01
  -2.31185E+01 -2.29341E+01 -2.22711E+01 -2.10740E+01 -1.95967E+01 -1.79891E+01 -1.60351E+01 -1.38591E+01 -1.17614E+01 -9.93999E+00
  -8.49782E+00 -7.93013E+00 -8.52326E+00 -9.83699E+00 -1.10673E+01 -1.15974E+01 -1.10815E+01 -9.39155E+00 -6.88414E+00 -3.94324E+00
  -1.02580E+00  6.46484E-01  1.33509E+00  1.29351E+00 -1.63465E-01 -3.07056E+00 -6.56894E+00 -9.57604E+00 -1.16406E+01 -1.33140E+01
  -1.33721E+01 -1.11839E+01 -7.11446E+00 -2.68715E+00  5.37400E-01  2.72303E+00  4.14393E+00  3.45974E+00 -1.64944E-02 -4.98011E+00
  -9.47307E+00 -1.32372E+01 -1.59473E+01 -1.66347E+01 -1.47834E+01 -1.10847E+01 -7.47915E+00 -5.02826E+00 -2.55018E+00 -3.29702E-01
   1.20724E+00  2.36488E+00  4.05172E+00  6.20627E+00  7.31103E+00  7.25954E+00  7.19883E+00  7.12618E+00  6.36110E+00  4.77620E+00
   2.77812E+00  1.04257E+00 -3.14235E-01 -1.31273E+00 -1.23892E+00  3.84990E-01  2.70173E+00  4.32645E+00  5.51545E+00  6.89719E+00
   9.38171E+00  1.82792E+01  3.21242E+01  4.49785E+01  5.73647E+01  7.16866E+01  8.85747E+01  1.05865E+02  1.22674E+02  1.38237E+02
   1.48504E+02  1.48808E+02  1.37619E+02  1.18073E+02  9.74930E+01  8.07485E+01  6.62954E+01  5.25195E+01  4.09826E+01  3.09107E+01
   1.92178E+01  1.05767E+01  7.57312E+00  6.31593E+00  5.56755E+00  5.03614E+00  4.64319E+00  4.06947E+00  3.34110E+00  2.60326E+00
   1.88311E+00  1.20152E+00  6.33337E-01  1.68279E-01 -2.22511E-01 -5.15746E-01 -7.06326E-01 -8.05087E-01 -8.14859E-01 -7.61667E-01
  -6.45245E-01 -4.43656E-01 -1.92029E-01  1.02842E-01  4.61747E-01  8.81732E-01  1.35887E+00  1.90011E+00  2.49994E+00  3.14030E+00
   3.80420E+00  4.48194E+00  5.15551E+00  5.80400E+00  6.41410E+00  6.96642E+00  7.44624E+00  7.84435E+00  8.15618E+00  8.38060E+00
   8.51983E+00  8.58070E+00  8.57415E+00  8.51351E+00  8.41498E+00  8.29841E+00  8.18309E+00  8.08793E+00  8.03039E+00  8.02597E+00
   8.08757E+00  8.22487E+00  8.44396E+00  8.74713E+00  9.13293E+00  9.59633E+00  1.01293E+01  1.07214E+01  1.13604E+01  1.20329E+01
   1.27253E+01  1.34246E+01  1.41193E+01  1.48013E+01  1.54669E+01  1.61208E+01  1.67838E+01  1.75215E+01  1.84923E+01  1.94782E+01
   2.00384E+01  2.03673E+01  2.06270E+01  2.07372E+01  2.04620E+01  1.97026E+01  1.87998E+01  1.77442E+01  1.61495E+01  1.41835E+01
   1.24429E+01  1.15204E+01  1.14871E+01  1.20405E+01  1.30412E+01  1.43883E+01  1.56419E+01  1.62907E+01  1.64262E+01  1.63883E+01
   1.61643E+01  1.57847E+01  1.52139E+01  1.45732E+01  1.38960E+01  1.29427E+01  1.18921E+01  1.10490E+01  1.03233E+01  9.65927E+00
   9.03803E+00  8.45319E+00  7.90371E+00  7.39120E+00  6.91850E+00  6.48908E+00  6.10666E+00  5.77508E+00  5.49812E+00  5.27927E+00
   5.12167E+00  5.02807E+00  5.00082E+00  5.04179E+00  5.15229E+00  5.33281E+00  5.58296E+00  5.90132E+00  6.28534E+00  6.73116E+00
   7.23341E+00  7.78506E+00  8.37743E+00  9.00020E+00  9.64159E+00  1.02884E+01  1.09265E+01  1.15407E+01  1.21160E+01  1.26374E+01
   1.30909E+01  1.34639E+01  1.37456E+01  1.39276E+01  1.40041E+01  1.39726E+01  1.38332E+01  1.35892E+01  1.32466E+01  1.28137E+01
   1.23010E+01  1.17206E+01  1.10852E+01  1.04083E+01  9.70301E+00  8.98212E+00  8.25741E+00  7.53945E+00  6.83739E+00  6.15877E+00
   5.50956E+00  4.89424E+00  4.31587E+00  3.77626E+00  3.27604E+00  2.81491E+00  2.39186E+00  2.00531E+00  1.65333E+00  1.33370E+00
   1.04405E+00  7.81929E-01  5.44963E-01  3.30880E-01  1.37540E-01 -3.70787E-02 -1.94869E-01 -3.37548E-01 -4.66637E-01 -5.83488E-01
  -6.89323E-01 -7.85261E-01 -8.72308E-01 -9.51341E-01 -1.02311E+00 -1.08829E+00 -1.14749E+00 -1.20128E+00 -1.25016E+00 -1.29455E+00
  -1.33482E+00 -1.37129E+00 -1.40428E+00 -1.43409E+00 -1.46099E+00 -1.48516E+00 -1.50679E+00 -1.52606E+00 -1.54316E+00 -1.55827E+00
  -1.57152E+00 -1.58302E+00 -1.59287E+00 -1.60116E+00 -1.60804E+00 -1.61360E+00 -1.61792E+00 -1.62104E+00 -1.62305E+00 -1.62401E+00
  -1.62401E+00 -1.62312E+00 -1.62134E+00 -1.61872E+00 -1.61531E+00 -1.61117E+00 -1.60637E+00 -1.60092E+00 -1.59485E+00 -1.58819E+00
  -1.58098E+00 -1.57327E+00 -1.56510E+00 -1.55649E+00 -1.54743E+00 -1.53797E+00 -1.52815E+00 -1.51801E+00 -1.50757E+00 -1.49683E+00
  -1.48581E+00 -1.47455E+00 -1.46309E+00 -1.45147E+00 -1.43969E+00 -1.42777E+00 -1.41573E+00 -1.40363E+00
 NY background values follow
    -8.014E+00   -8.039E+00   -8.065E+00   -8.090E+00   -8.115E+00   -8.140E+00   -8.166E+00   -8.191E+00   -8.216E+00   -8.242E+00
    -8.267E+00   -8.292E+00   -8.318E+00   -8.343E+00   -8.368E+00   -8.394E+00   -8.419E+00   -8.444E+00   -8.470E+00   -8.495E+00
    -8.521E+00   -8.546E+00   -8.571E+00   -8.597E+00   -8.622E+00   -8.647E+00   -8.673E+00   -8.698E+00   -8.723E+00   -8.749E+00
    -8.774E+00   -8.799E+00   -8.825E+00   -8.850E+00   -8.875E+00   -8.900E+00   -8.926E+00   -8.951E+00   -8.976E+00   -9.001E+00
    -9.026E+00   -9.052E+00   -9.077E+00   -9.102E+00   -9.127E+00   -9.152E+00   -9.177E+00   -9.202E+00   -9.227E+00   -9.252E+00
    -9.277E+00   -9.301E+00   -9.326E+00   -9.351E+00   -9.376E+00   -9.400E+00   -9.425E+00   -9.450E+00   -9.474E+00   -9.498E+00
    -9.523E+00   -9.547E+00   -9.571E+00   -9.595E+00   -9.619E+00   -9.643E+00   -9.667E+00   -9.691E+00   -9.715E+00   -9.738E+00
    -9.762E+00   -9.785E+00   -9.808E+00   -9.832E+00   -9.855E+00   -9.878E+00   -9.900E+00   -9.923E+00   -9.946E+00   -9.968E+00
    -9.991E+00   -1.001E+01   -1.003E+01   -1.006E+01   -1.008E+01   -1.010E+01   -1.012E+01   -1.014E+01   -1.016E+01   -1.019E+01
    -1.021E+01   -1.023E+01   -1.025E+01   -1.027E+01   -1.029E+01   -1.031E+01   -1.033E+01   -1.035E+01   -1.037E+01   -1.039E+01
    -1.041E+01   -1.042E+01   -1.044E+01   -1.046E+01   -1.048E+01   -1.050E+01   -1.052E+01   -1.053E+01   -1.055E+01   -1.057E+01
    -1.059E+01   -1.060E+01   -1.062E+01   -1.064E+01   -1.066E+01   -1.067E+01   -1.069E+01   -1.070E+01   -1.072E+01   -1.074E+01
    -1.075E+01   -1.077E+01   -1.078E+01   -1.080E+01   -1.081E+01   -1.082E+01   -1.084E+01   -1.085E+01   -1.087E+01   -1.088E+01
    -1.089E+01   -1.091E+01   -1.092E+01   -1.093E+01   -1.095E+01   -1.096E+01   -1.097E+01   -1.098E+01   -1.099E+01   -1.101E+01
    -1.102E+01   -1.103E+01   -1.104E+01   -1.105E+01   -1.106E+01   -1.107E+01   -1.108E+01   -1.109E+01   -1.110E+01   -1.111E+01
    -1.112E+01   -1.112E+01   -1.113E+01   -1.114E+01   -1.115E+01   -1.116E+01   -1.116E+01   -1.117E+01   -1.118E+01   -1.118E+01
    -1.119E+01   -1.120E+01   -1.120E+01   -1.121E+01   -1.121E+01   -1.122E+01   -1.122E+01   -1.123E+01   -1.123E+01   -1.123E+01
    -1.124E+01   -1.124E+01   -1.124E+01   -1.124E+01   -1.125E+01   -1.125E+01   -1.125E+01   -1.125E+01   -1.125E+01   -1.125E+01
    -1.125E+01   -1.125E+01   -1.125E+01   -1.125E+01   -1.125E+01   -1.125E+01   -1.125E+01   -1.124E+01   -1.124E+01   -1.124E+01
    -1.124E+01   -1.123E+01   -1.123E+01   -1.122E+01   -1.122E+01   -1.122E+01   -1.121E+01   -1.121E+01   -1.120E+01   -1.119E+01
    -1.119E+01   -1.118E+01   -1.117E+01   -1.117E+01   -1.116E+01   -1.115E+01   -1.115E+01   -1.114E+01   -1.113E+01   -1.112E+01
    -1.111E+01   -1.110E+01   -1.109E+01   -1.108E+01   -1.107E+01   -1.106E+01   -1.105E+01   -1.104E+01   -1.103E+01   -1.102E+01
    -1.101E+01   -1.100E+01   -1.098E+01   -1.097E+01   -1.096E+01   -1.095E+01   -1.093E+01   -1.092E+01   -1.091E+01   -1.089E+01
    -1.088E+01   -1.086E+01   -1.085E+01   -1.084E+01   -1.082E+01   -1.081E+01   -1.079E+01   -1.078E+01   -1.076E+01   -1.074E+01
    -1.073E+01   -1.071E+01   -1.069E+01   -1.068E+01   -1.066E+01   -1.064E+01   -1.063E+01   -1.061E+01   -1.059E+01   -1.057E+01
    -1.055E+01   -1.054E+01   -1.052E+01   -1.050E+01   -1.048E+01   -1.046E+01   -1.044E+01   -1.042E+01   -1.040E+01   -1.038E+01
    -1.036E+01   -1.034E+01   -1.032E+01   -1.030E+01   -1.028E+01   -1.026E+01   -1.023E+01   -1.021E+01   -1.019E+01   -1.017E+01
    -1.015E+01   -1.012E+01   -1.010E+01   -1.008E+01   -1.006E+01   -1.003E+01   -1.001E+01   -9.986E+00   -9.962E+00   -9.938E+00
    -9.914E+00   -9.890E+00   -9.866E+00   -9.841E+00   -9.817E+00   -9.792E+00   -9.767E+00   -9.742E+00   -9.717E+00   -9.691E+00
    -9.666E+00   -9.640E+00   -9.614E+00   -9.588E+00   -9.562E+00   -9.536E+00   -9.510E+00   -9.483E+00   -9.456E+00   -9.430E+00
    -9.403E+00   -9.375E+00   -9.348E+00   -9.321E+00   -9.293E+00   -9.266E+00   -9.238E+00   -9.210E+00   -9.182E+00   -9.154E+00
    -9.126E+00   -9.097E+00   -9.069E+00   -9.040E+00   -9.011E+00   -8.982E+00   -8.953E+00   -8.924E+00   -8.895E+00   -8.866E+00
    -8.836E+00   -8.807E+00   -8.777E+00   -8.748E+00   -8.718E+00   -8.688E+00   -8.658E+00   -8.628E+00   -8.598E+00   -8.567E+00
    -8.537E+00   -8.506E+00   -8.476E+00   -8.445E+00   -8.414E+00   -8.383E+00   -8.353E+00   -8.322E+00   -8.290E+00   -8.259E+00
    -8.228E+00   -8.197E+00   -8.165E+00   -8.134E+00   -8.102E+00   -8.071E+00   -8.039E+00   -8.007E+00   -7.975E+00   -7.944E+00
    -7.912E+00   -7.880E+00   -7.848E+00   -7.816E+00   -7.783E+00   -7.751E+00   -7.719E+00   -7.686E+00   -7.654E+00   -7.622E+00
    -7.589E+00   -7.557E+00   -7.524E+00   -7.491E+00   -7.459E+00   -7.426E+00   -7.393E+00   -7.361E+00   -7.328E+00   -7.295E+00
    -7.262E+00   -7.229E+00   -7.196E+00   -7.163E+00   -7.130E+00   -7.097E+00   -7.064E+00   -7.031E+00   -6.997E+00   -6.964E+00
    -6.931E+00   -6.898E+00   -6.864E+00   -6.831E+00   -6.798E+00   -6.764E+00   -6.731E+00   -6.697E+00   -6.664E+00   -6.630E+00
    -6.597E+00   -6.563E+00   -6.530E+00   -6.496E+00   -6.463E+00   -6.429E+00   -6.395E+00   -6.362E+00   -6.328E+00   -6.294E+00
    -6.261E+00   -6.227E+00   -6.193E+00   -6.160E+00   -6.126E+00   -6.092E+00   -6.058E+00   -6.025E+00   -5.991E+00   -5.957E+00
    -5.923E+00   -5.889E+00   -5.856E+00   -5.822E+00   -5.788E+00   -5.754E+00   -5.720E+00   -5.686E+00   -5.653E+00   -5.619E+00
    -5.585E+00   -5.551E+00   -5.517E+00   -5.484E+00   -5.450E+00   -5.416E+00   -5.382E+00   -5.349E+00   -5.315E+00   -5.281E+00
    -5.248E+00   -5.214E+00   -5.180E+00   -5.147E+00   -5.113E+00   -5.079E+00   -5.046E+00   -5.012E+00   -4.979E+00   -4.945E+00
    -4.912E+00   -4.878E+00   -4.845E+00   -4.811E+00   -4.778E+00   -4.745E+00   -4.711E+00   -4.678E+00   -4.645E+00   -4.612E+00
    -4.579E+00   -4.545E+00   -4.512E+00   -4.479E+00   -4.446E+00   -4.413E+00   -4.380E+00   -4.347E+00   -4.315E+00   -4.282E+00
    -4.249E+00   -4.216E+00   -4.184E+00   -4.151E+00   -4.118E+00   -4.086E+00   -4.053E+00   -4.020E+00   -3.988E+00   -3.955E+00
    -3.923E+00   -3.890E+00   -3.858E+00   -3.825E+00   -3.793E+00   -3.760E+00   -3.728E+00   -3.696E+00   -3.663E+00   -3.631E+00
    -3.599E+00   -3.566E+00   -3.534E+00   -3.502E+00   -3.469E+00   -3.437E+00   -3.405E+00   -3.372E+00   -3.340E+00   -3.308E+00
    -3.275E+00   -3.243E+00   -3.211E+00   -3.179E+00   -3.146E+00   -3.114E+00   -3.082E+00   -3.049E+00
 Cr       Conc. = 4.13E+03
