 LCModel (Version 6.3-1L) Copyright: S.W. Provencher.          Ref.: Magn. Reson. Med. 30:672-679 (1993).                
 Slice#3 Row#4 Col#6  PD_05_press_2_raw_act
 36 lines in following concentration table = NCONC+1
    Conc.  %SD /Cr+PCr  Metabolite                                         
    0.000 999%   0.000 Ala                                                 
  202.015 197%   0.101 Asp                                                 
    0.000 999%   0.000 Cr                                                  
 2.00E+03   8%   1.000 PCr                                                 
  169.378 145% 8.5E-02 GABA                                                
  168.830 146% 8.5E-02 Glc                                                 
 1.26E+03  52%   0.631 Gln                                                 
  788.571  91%   0.395 Glu                                                 
    0.000 999%   0.000 GPC                                                 
  972.724   7%   0.487 PCh                                                 
  537.193  40%   0.269 GSH                                                 
 2.19E+03  33%   1.098 Ins                                                 
    0.000 999%   0.000 Lac                                                 
 2.90E+03   9%   1.450 NAA                                                 
   88.599 327% 4.4E-02 NAAG                                                
  212.010  30%   0.106 Scyllo                                              
  850.846  45%   0.426 Tau                                                 
  711.138  39%   0.356 -CrCH2                                              
  972.724   7%   0.487 GPC+PCh                                             
 2.99E+03   8%   1.495 NAA+NAAG                                            
 2.00E+03   8%   1.000 Cr+PCr                                              
 2.05E+03  48%   1.025 Glu+Gln                                             
  593.460 541%   0.297 Lip13a                                              
 1.93E+03 123%   0.967 Lip13b                                              
  268.645 219%   0.134 Lip09                                               
 2.14E+03  31%   1.072 MM09                                                
  512.306  80%   0.256 Lip20                                               
 4.24E+03  24%   2.125 MM20                                                
  631.112  63%   0.316 MM12                                                
 2.76E+03  33%   1.384 MM14                                                
  547.422 100%   0.274 MM17                                                
 2.53E+03  53%   1.265 Lip13a+Lip13b                                       
 5.92E+03  17%   2.964 MM14+Lip13a+Lip13b+MM12                             
 2.41E+03  20%   1.207 MM09+Lip09                                          
 4.76E+03  21%   2.381 MM20+Lip20                                          
   6 lines in following misc. output table
  FWHM = 0.054 ppm    S/N =   5                                            
  Data shift = 0.023 ppm                                                   
  Ph: -56 deg     -14.0 deg/ppm                                            
  alphaB,S = 2.6E+00,   8.4E+01                                            
   14 spline knots.   Ns = 6(1)                                            
  (12) 2 infls.   (11) 1 extrs.                                            
  498 points on ppm-axis = NY
      4.000000     3.992357     3.984714     3.977070     3.969427     3.961784     3.954141     3.946497     3.938854     3.931211
      3.923568     3.915925     3.908281     3.900638     3.892995     3.885352     3.877708     3.870065     3.862422     3.854779
      3.847136     3.839492     3.831849     3.824206     3.816563     3.808919     3.801276     3.793633     3.785990     3.778347
      3.770703     3.763060     3.755417     3.747774     3.740130     3.732487     3.724844     3.717201     3.709558     3.701914
      3.694271     3.686628     3.678985     3.671341     3.663698     3.656055     3.648412     3.640769     3.633125     3.625482
      3.617839     3.610196     3.602552     3.594909     3.587266     3.579623     3.571980     3.564336     3.556693     3.549050
      3.541407     3.533763     3.526120     3.518477     3.510834     3.503191     3.495547     3.487904     3.480261     3.472618
      3.464974     3.457331     3.449688     3.442045     3.434402     3.426758     3.419115     3.411472     3.403829     3.396185
      3.388542     3.380899     3.373256     3.365613     3.357969     3.350326     3.342683     3.335040     3.327396     3.319753
      3.312110     3.304467     3.296824     3.289180     3.281537     3.273894     3.266251     3.258607     3.250964     3.243321
      3.235678     3.228034     3.220391     3.212748     3.205105     3.197462     3.189818     3.182175     3.174532     3.166889
      3.159245     3.151602     3.143959     3.136316     3.128673     3.121029     3.113386     3.105743     3.098100     3.090456
      3.082813     3.075170     3.067527     3.059884     3.052240     3.044597     3.036954     3.029311     3.021667     3.014024
      3.006381     2.998738     2.991095     2.983451     2.975808     2.968165     2.960522     2.952878     2.945235     2.937592
      2.929949     2.922306     2.914662     2.907019     2.899376     2.891733     2.884089     2.876446     2.868803     2.861160
      2.853517     2.845873     2.838230     2.830587     2.822944     2.815300     2.807657     2.800014     2.792371     2.784728
      2.777084     2.769441     2.761798     2.754155     2.746511     2.738868     2.731225     2.723582     2.715939     2.708295
      2.700652     2.693009     2.685366     2.677722     2.670079     2.662436     2.654793     2.647150     2.639506     2.631863
      2.624220     2.616577     2.608933     2.601290     2.593647     2.586004     2.578361     2.570717     2.563074     2.555431
      2.547788     2.540144     2.532501     2.524858     2.517215     2.509572     2.501928     2.494285     2.486642     2.478999
      2.471355     2.463712     2.456069     2.448426     2.440783     2.433139     2.425496     2.417853     2.410210     2.402566
      2.394923     2.387280     2.379637     2.371994     2.364350     2.356707     2.349064     2.341421     2.333777     2.326134
      2.318491     2.310848     2.303205     2.295561     2.287918     2.280275     2.272632     2.264988     2.257345     2.249702
      2.242059     2.234416     2.226772     2.219129     2.211486     2.203843     2.196199     2.188556     2.180913     2.173270
      2.165627     2.157983     2.150340     2.142697     2.135054     2.127410     2.119767     2.112124     2.104481     2.096838
      2.089194     2.081551     2.073908     2.066265     2.058621     2.050978     2.043335     2.035692     2.028049     2.020405
      2.012762     2.005119     1.997476     1.989833     1.982190     1.974546     1.966903     1.959260     1.951617     1.943974
      1.936331     1.928688     1.921045     1.913402     1.905759     1.898115     1.890472     1.882829     1.875186     1.867543
      1.859900     1.852257     1.844614     1.836971     1.829327     1.821684     1.814041     1.806398     1.798755     1.791112
      1.783469     1.775826     1.768183     1.760540     1.752896     1.745253     1.737610     1.729967     1.722324     1.714681
      1.707038     1.699395     1.691752     1.684108     1.676465     1.668822     1.661179     1.653536     1.645893     1.638250
      1.630607     1.622964     1.615321     1.607677     1.600034     1.592391     1.584748     1.577105     1.569462     1.561819
      1.554176     1.546533     1.538890     1.531246     1.523603     1.515960     1.508317     1.500674     1.493031     1.485388
      1.477745     1.470102     1.462458     1.454815     1.447172     1.439529     1.431886     1.424243     1.416600     1.408957
      1.401314     1.393671     1.386027     1.378384     1.370741     1.363098     1.355455     1.347812     1.340169     1.332526
      1.324883     1.317240     1.309596     1.301953     1.294310     1.286667     1.279024     1.271381     1.263738     1.256095
      1.248452     1.240808     1.233165     1.225522     1.217879     1.210236     1.202593     1.194950     1.187307     1.179664
      1.172021     1.164377     1.156734     1.149091     1.141448     1.133805     1.126162     1.118519     1.110876     1.103233
      1.095590     1.087946     1.080303     1.072660     1.065017     1.057374     1.049731     1.042088     1.034445     1.026802
      1.019158     1.011515     1.003872     0.996229     0.988586     0.980943     0.973300     0.965657     0.958014     0.950371
      0.942727     0.935084     0.927441     0.919798     0.912155     0.904512     0.896869     0.889226     0.881583     0.873940
      0.866296     0.858653     0.851010     0.843367     0.835724     0.828081     0.820438     0.812795     0.805152     0.797508
      0.789865     0.782222     0.774579     0.766936     0.759293     0.751650     0.744007     0.736364     0.728721     0.721077
      0.713434     0.705791     0.698148     0.690505     0.682862     0.675219     0.667576     0.659933     0.652290     0.644646
      0.637003     0.629360     0.621717     0.614074     0.606431     0.598788     0.591145     0.583502     0.575858     0.568215
      0.560572     0.552929     0.545286     0.537643     0.530000     0.522357     0.514714     0.507071     0.499427     0.491784
      0.484141     0.476498     0.468855     0.461212     0.453569     0.445925     0.438282     0.430639     0.422996     0.415353
      0.407710     0.400067     0.392424     0.384780     0.377137     0.369494     0.361851     0.354208     0.346565     0.338922
      0.331278     0.323635     0.315992     0.308349     0.300706     0.293063     0.285420     0.277777     0.270133     0.262490
      0.254847     0.247204     0.239561     0.231918     0.224275     0.216631     0.208988     0.201345
 NY phased data points follow
  -1.04043E+02 -8.77333E+01 -1.00162E+02 -8.83561E+01 -8.79584E+01 -5.92031E+01 -7.81005E+01 -4.58392E+01 -2.98269E+01 -1.82675E+01
  -2.49214E+01 -3.80722E+01 -4.57105E+01 -4.48321E+01 -5.78464E+01 -6.38998E+01 -7.59463E+01 -6.67120E+01 -7.23728E+01 -5.69887E+01
  -9.07757E+01 -7.53757E+01 -6.97765E+01 -5.70312E+01 -5.77937E+01 -4.54754E+01 -6.79179E+01 -5.20604E+01 -6.22466E+01 -3.48252E+01
  -4.00504E+01 -3.31511E+01 -4.61855E+01 -4.44219E+01 -6.45152E+01 -5.43233E+01 -5.94818E+01 -3.81135E+01 -5.58648E+01 -3.63959E+01
  -5.73269E+01 -5.16327E+01 -3.93478E+01 -1.96480E+01 -4.51496E+01 -3.37229E+01 -3.80407E+01 -8.71771E+00 -3.90523E+01 -3.78364E+01
  -4.92042E+01 -4.44536E+01 -4.14246E+01 -3.03204E+01 -5.23180E+01 -5.09816E+01 -3.21136E+01 -3.31867E+01 -3.36310E+01 -2.92188E+01
  -4.03292E+01 -4.67422E+01 -4.30454E+01 -5.19259E+01 -5.15351E+01 -4.11210E+01 -4.82666E+01 -5.34685E+01 -4.04352E+01 -5.50651E+01
  -5.04129E+01 -3.54748E+01 -5.49309E+01 -3.36497E+01 -4.04205E+01 -1.22235E+01 -3.00360E+01 -3.09375E+01 -4.21655E+01 -2.21619E+01
  -3.34412E+01 -4.83582E+01 -1.15877E+01 -2.39925E+01 -3.98174E+01 -1.33430E+01 -2.95988E+01 -2.42230E+01 -3.62637E+01 -2.22653E+01
  -1.33199E+01 -1.50555E+01 -3.04395E+01 -1.08669E+01 -2.26861E+01 -2.95145E+01 -2.14059E+01 -8.20193E-01 -3.04772E+00  1.14439E+01
   2.88420E+01  4.18632E+01  5.04704E+01  6.31393E+01  6.11114E+01  5.25110E+01  1.01329E+01  1.65500E+01 -9.91095E+00 -5.80534E+00
  -9.01375E+00 -2.17763E+01 -1.62123E+01 -1.73414E+01 -9.95120E+00 -2.45831E+01 -1.80383E+01 -2.02302E+01 -3.73666E+01 -1.21478E+01
  -2.54129E+01 -3.04234E+01 -2.75579E+01  6.64779E+00  2.96483E+01  2.74369E+01  2.45287E+01  5.14856E+01  3.57436E+01  4.11350E+01
   2.36259E+01  1.45050E+01 -6.39521E+00 -3.60288E+00 -1.13896E+01 -1.65629E+01 -3.69563E+01 -2.86682E+01 -1.21755E+01 -2.85818E+01
  -3.39938E+01 -1.49151E+01 -1.76546E+01 -1.07812E+01 -2.61405E+01 -8.28422E+00 -2.81609E+01 -2.19638E+01 -1.07064E+01 -7.23598E+00
  -2.47949E+01 -7.73947E+00 -2.94067E+01 -8.41965E-01 -2.52780E+01 -2.26350E+01 -2.29463E+01 -8.96148E+00 -3.24585E+01 -5.96860E-01
  -3.07459E+01 -3.32740E+01 -3.32707E+01 -6.63601E+00 -1.53850E+01 -2.00617E+01 -1.14847E+01 -1.50216E+01 -1.52730E+01 -2.35793E+00
  -1.99947E+01 -3.23980E+01 -1.03055E+01 -2.62676E+01 -1.72369E+01 -5.17264E+01 -1.36518E+01 -3.49546E+01 -3.01175E+01 -2.28646E+01
  -2.04133E+01 -1.86935E+01 -2.72525E+01 -1.13524E+01 -4.88676E+01 -2.92699E+01 -1.56405E+01 -3.32943E+01 -1.75684E+01 -8.50857E+00
  -1.03310E+01 -4.72799E+00 -2.81180E+00 -1.88926E+01 -1.04550E+01 -1.29826E+00 -1.00463E+01 -1.60097E+01 -1.20841E+01 -9.89677E+00
  -1.77024E+01 -1.17963E+01  6.39250E+00 -8.08692E+00  2.41696E+00  3.01690E+00 -1.54577E+00 -1.24095E-01 -1.40364E+01 -2.58422E+01
  -1.60927E+01  4.55999E-01 -2.27368E+01  9.70947E-02  1.06437E+01  1.27763E+01  3.59113E+00  8.88385E+00  1.81567E+01  8.74458E+00
  -1.06510E+01 -1.24708E+01 -9.42363E-01  9.72147E+00  7.05237E+00  1.49460E+01  4.46132E+00  1.04892E+01 -7.46256E+00  2.86540E+00
   1.92523E+00  4.06945E+00  6.04540E+00  1.48668E+01  8.61636E-01  1.57403E+01  1.20331E+01  4.63732E+00  5.01190E+00  1.38254E+01
  -7.47606E+00  5.80932E+00  2.29261E+00  2.49005E+00 -2.18873E+00  1.64174E+01  1.60413E+01 -4.76293E+00  4.35045E+00  6.97630E+00
   4.11354E+01  3.41815E+01  1.44053E+01  3.33420E+01  3.81091E+01  3.14011E+01  4.14770E+01  7.29903E+01  1.09127E+02  1.21203E+02
   1.07279E+02  1.12804E+02  1.02960E+02  7.32216E+01  5.62278E+01  2.88059E+01  2.75568E+01  3.72748E+01  2.78463E+01  1.02449E+01
   2.50877E+01  2.02687E+01  2.31977E+01  9.36294E+00  3.89618E+00  3.37041E+01  5.05551E+00  1.91282E+01  1.26949E+00  1.46190E+01
  -7.78417E+00  3.79605E+01  1.61240E+01 -5.07941E+00  1.92938E+01  1.98488E+01 -2.27035E+01  1.14373E+01 -8.21694E+00  1.26331E+01
   8.58068E+00 -4.74388E+00 -2.25369E+00  3.09968E+01  1.76794E+01  1.30487E+01  1.32300E+01  1.36552E+01  1.20074E+01 -1.09745E+00
   2.84034E+01  1.97029E+01  7.04114E-01  9.47463E+00  3.80054E+00  9.01477E+00  1.06465E+01  2.37497E+01  2.38906E+01 -3.29935E+00
   2.08895E+01  1.53124E+01  1.37349E+01  9.73813E+00 -5.88865E+00  2.56776E+01  1.20360E+01  1.74111E+01  2.11836E+01  1.13816E+01
   9.22946E+00  2.16596E+01  4.40060E+00  1.43052E+01  2.62236E+01  1.36036E+01  1.79843E+01  1.85193E+01  2.82239E+01  2.99088E+01
   3.07582E+01  1.92643E+01  1.44034E+01  4.19901E+01  2.21291E+01  2.22511E+01  4.39513E+01  3.65356E+01  2.74259E+01  2.35007E+01
   3.24597E+01  2.10670E+01  2.86077E+01  3.35683E+01  3.30336E+01  2.04772E+01  2.40534E+01  3.51936E+01  5.19880E+01  4.31630E+01
   3.89119E+01  4.37066E+01  1.49139E+01  5.05108E+01  3.73059E+01  5.08584E+01  5.89085E+01  3.08876E+01  4.00024E+01  3.32965E+01
   3.74775E+01  3.05107E+01  3.16816E+01  1.15596E+01  4.48295E+01  3.66312E+01  4.22962E+01  1.92212E+01  1.75914E+01  4.90924E+01
   2.76920E+01  2.45175E+01  1.48221E+01  3.66008E+01  1.48807E+01  7.40476E+00  7.64732E+00  2.76961E+01  1.59658E+01  1.77527E+01
   1.91531E+01  1.06048E+01  2.60925E+01  2.40367E+01  3.46805E+01  1.54006E+01  1.52123E+01  1.07218E+00  2.64227E+01  2.99885E+01
   2.30607E+01  2.08043E+01  3.16454E+00  2.44144E+01  4.13377E+01  2.86580E+01  3.75117E+01  1.97998E+01  3.83887E+01  6.34730E+00
   2.28055E+01  2.58789E+01  3.50792E+01  1.93589E+01  2.49451E+01  2.82340E+01  4.08279E+01  5.15484E+01  5.05356E+01  3.54574E+01
   3.55951E+01  2.58295E+01  3.70768E+01  5.26099E+01  3.61359E+01  4.27425E+01  2.39224E+01  4.69398E+01  2.66708E+01  4.20291E+01
   2.78914E+01  4.63334E+01  3.37570E+01  2.54340E+01  1.50125E+01  3.96713E+01  1.82487E+01  2.35567E+01  3.23848E+01  2.57495E+01
   1.81699E+01  2.52557E+01  2.96748E+01  2.67490E+01  1.25275E+01  2.97354E+01  2.70802E+01  4.19787E+01  1.74701E+01  3.15118E+01
   2.43981E+01  2.10911E+01  3.95527E+01  1.12934E+01  3.54134E+01  1.06473E+01  3.11763E+01  3.62875E+01  2.34009E+01  1.07554E+01
   1.97718E+01  3.34382E+01  2.55071E+01  1.81463E+01  2.40260E+01  3.84005E+01  1.83880E+01  1.44088E+01  3.01687E+01  3.85567E+01
   2.16537E+01  2.31710E+01  2.81553E+01  1.68309E+01  2.95199E+01  1.17079E+01  2.88151E+01  2.99021E+01  1.69575E+01  2.85144E+01
   1.78691E+01  3.25954E+01  3.71513E+01  2.79819E+01  2.72186E+01  2.37574E+01  1.82856E+01  2.62629E+01  2.04707E+01  2.49175E+01
   2.31515E+01  3.24479E+01  2.17417E+01  2.76346E+01  3.88371E+01  2.57012E+01  9.78632E+00  8.59043E+00  2.56465E+01  1.71411E+01
   3.44956E+01  4.08366E+01  2.06628E+01  2.55690E+01  1.62961E+01  2.09207E+01  1.59683E+01  1.56363E+01
 NY points of the fit to the data follow
  -6.60030E+01 -6.65204E+01 -6.72082E+01 -6.75385E+01 -6.54865E+01 -6.08565E+01 -5.41589E+01 -4.65111E+01 -3.95840E+01 -3.49296E+01
  -3.35186E+01 -3.55884E+01 -4.04452E+01 -4.64314E+01 -5.18313E+01 -5.57016E+01 -5.84954E+01 -6.03400E+01 -6.05552E+01 -6.00633E+01
  -5.94128E+01 -5.88852E+01 -5.86526E+01 -5.86482E+01 -5.82029E+01 -5.67888E+01 -5.41457E+01 -5.03716E+01 -4.60825E+01 -4.21537E+01
  -3.94725E+01 -3.86265E+01 -3.97346E+01 -4.23374E+01 -4.55795E+01 -4.86482E+01 -5.11112E+01 -5.28593E+01 -5.37119E+01 -5.39222E+01
  -5.35493E+01 -5.21324E+01 -4.94326E+01 -4.57363E+01 -4.17609E+01 -3.83816E+01 -3.64007E+01 -3.63144E+01 -3.80649E+01 -4.10765E+01
  -4.44208E+01 -4.72093E+01 -4.88698E+01 -4.93146E+01 -4.87296E+01 -4.71999E+01 -4.50372E+01 -4.28215E+01 -4.10430E+01 -4.00147E+01
  -3.97794E+01 -4.01517E+01 -4.08844E+01 -4.15589E+01 -4.18802E+01 -4.17662E+01 -4.12225E+01 -4.03429E+01 -3.93538E+01 -3.83072E+01
  -3.71143E+01 -3.58763E+01 -3.47407E+01 -3.39274E+01 -3.36591E+01 -3.40046E+01 -3.48630E+01 -3.59199E+01 -3.69089E+01 -3.74558E+01
  -3.69785E+01 -3.52476E+01 -3.28318E+01 -3.03499E+01 -2.83496E+01 -2.73445E+01 -2.74350E+01 -2.84269E+01 -3.00359E+01 -3.18504E+01
  -3.33516E+01 -3.43501E+01 -3.49069E+01 -3.50502E+01 -3.46554E+01 -3.35144E+01 -3.09597E+01 -2.37852E+01 -1.00611E+01  8.65786E+00
   2.93717E+01  4.78648E+01  6.00500E+01  6.33163E+01  5.71941E+01  4.33934E+01  2.57612E+01  8.77214E+00 -4.79942E+00 -1.46995E+01
  -2.18660E+01 -2.58092E+01 -2.71519E+01 -2.76802E+01 -2.79288E+01 -2.80680E+01 -2.80974E+01 -2.80386E+01 -2.78658E+01 -2.74652E+01
  -2.64465E+01 -2.28325E+01 -1.41151E+01 -9.79835E-01  1.45890E+01  2.96255E+01  4.08349E+01  4.58551E+01  4.38552E+01  3.55795E+01
   2.33747E+01  1.04547E+01 -7.20605E-01 -9.37909E+00 -1.60932E+01 -2.06239E+01 -2.23703E+01 -2.27427E+01 -2.23179E+01 -2.14045E+01
  -2.03504E+01 -1.94333E+01 -1.87979E+01 -1.85261E+01 -1.85655E+01 -1.87868E+01 -1.90960E+01 -1.94141E+01 -1.96899E+01 -1.99278E+01
  -2.00872E+01 -2.01752E+01 -2.01828E+01 -2.01012E+01 -1.99600E+01 -1.99105E+01 -2.00638E+01 -2.04032E+01 -2.08264E+01 -2.11107E+01
  -2.11166E+01 -2.08296E+01 -2.03132E+01 -1.97297E+01 -1.92718E+01 -1.90865E+01 -1.92063E+01 -1.95262E+01 -1.98842E+01 -2.02364E+01
  -2.06338E+01 -2.11313E+01 -2.16251E+01 -2.19465E+01 -2.20294E+01 -2.19300E+01 -2.16982E+01 -2.13599E+01 -2.09542E+01 -2.05526E+01
  -2.02453E+01 -2.01039E+01 -2.00325E+01 -1.98032E+01 -1.92881E+01 -1.83830E+01 -1.69480E+01 -1.50584E+01 -1.29830E+01 -1.11149E+01
  -9.82415E+00 -9.29569E+00 -9.58847E+00 -1.04972E+01 -1.16436E+01 -1.26329E+01 -1.30392E+01 -1.25552E+01 -1.11045E+01 -8.81974E+00
  -6.05630E+00 -3.39479E+00 -1.45138E+00 -7.17899E-01 -1.62778E+00 -4.03335E+00 -7.34163E+00 -1.08315E+01 -1.36813E+01 -1.51735E+01
  -1.48812E+01 -1.29119E+01 -9.78650E+00 -6.27420E+00 -3.16102E+00 -1.00859E+00 -4.84591E-02 -2.32991E-01 -1.32696E+00 -2.64186E+00
  -3.48741E+00 -3.59833E+00 -2.93644E+00 -1.63294E+00  6.24383E-02  1.66510E+00  2.73381E+00  3.17721E+00  3.17743E+00  2.98366E+00
   2.69194E+00  2.52587E+00  2.82275E+00  3.69159E+00  5.03241E+00  6.71881E+00  8.50945E+00  9.99337E+00  1.09212E+01  1.11276E+01
   1.06454E+01  9.80085E+00  9.05003E+00  8.69916E+00  8.81162E+00  9.49061E+00  1.07075E+01  1.22089E+01  1.37816E+01  1.54195E+01
   1.71911E+01  1.89675E+01  2.07560E+01  2.29928E+01  2.84639E+01  4.04460E+01  5.80214E+01  7.84965E+01  9.78355E+01  1.11605E+02
   1.16568E+02  1.11590E+02  9.78740E+01  7.89722E+01  5.96751E+01  4.35509E+01  3.15416E+01  2.25949E+01  1.68050E+01  1.44099E+01
   1.32463E+01  1.25324E+01  1.20919E+01  1.18055E+01  1.15674E+01  1.13106E+01  1.09972E+01  1.06198E+01  1.01952E+01  9.76562E+00
   9.37467E+00  9.05729E+00  8.83505E+00  8.70642E+00  8.66112E+00  8.68122E+00  8.74497E+00  8.83677E+00  8.94794E+00  9.07127E+00
   9.20796E+00  9.35998E+00  9.52658E+00  9.70695E+00  9.90407E+00  1.01168E+01  1.03424E+01  1.05792E+01  1.08258E+01  1.10766E+01
   1.13278E+01  1.15761E+01  1.18169E+01  1.20464E+01  1.22634E+01  1.24675E+01  1.26603E+01  1.28436E+01  1.30214E+01  1.31982E+01
   1.33791E+01  1.35698E+01  1.37764E+01  1.40047E+01  1.42613E+01  1.45514E+01  1.48804E+01  1.52525E+01  1.56710E+01  1.61377E+01
   1.66536E+01  1.72177E+01  1.78280E+01  1.84805E+01  1.91700E+01  1.98895E+01  2.06313E+01  2.13858E+01  2.21434E+01  2.28933E+01
   2.36252E+01  2.43287E+01  2.49948E+01  2.56150E+01  2.61837E+01  2.66970E+01  2.71547E+01  2.75601E+01  2.79214E+01  2.82516E+01
   2.85698E+01  2.89006E+01  2.92747E+01  2.97265E+01  3.02930E+01  3.10084E+01  3.18998E+01  3.29799E+01  3.42413E+01  3.56500E+01
   3.71442E+01  3.86346E+01  4.00125E+01  4.11605E+01  4.19680E+01  4.23462E+01  4.22425E+01  4.16474E+01  4.05973E+01  3.91673E+01
   3.74606E+01  3.55929E+01  3.36780E+01  3.18140E+01  3.00768E+01  2.85151E+01  2.71532E+01  2.59937E+01  2.50249E+01  2.42254E+01
   2.35710E+01  2.30369E+01  2.26015E+01  2.22465E+01  2.19583E+01  2.17264E+01  2.15440E+01  2.14064E+01  2.13115E+01  2.12578E+01
   2.12456E+01  2.12755E+01  2.13493E+01  2.14688E+01  2.16369E+01  2.18562E+01  2.21301E+01  2.24619E+01  2.28552E+01  2.33131E+01
   2.38387E+01  2.44338E+01  2.50996E+01  2.58355E+01  2.66394E+01  2.75065E+01  2.84299E+01  2.93994E+01  3.04025E+01  3.14235E+01
   3.24444E+01  3.34448E+01  3.44031E+01  3.52969E+01  3.61042E+01  3.68040E+01  3.73780E+01  3.78108E+01  3.80914E+01  3.82131E+01
   3.81747E+01  3.79797E+01  3.76367E+01  3.71586E+01  3.65621E+01  3.58664E+01  3.50929E+01  3.42632E+01  3.33993E+01  3.25215E+01
   3.16486E+01  3.07968E+01  2.99799E+01  2.92082E+01  2.84900E+01  2.78298E+01  2.72308E+01  2.66930E+01  2.62157E+01  2.57961E+01
   2.54308E+01  2.51156E+01  2.48464E+01  2.46183E+01  2.44272E+01  2.42686E+01  2.41387E+01  2.40338E+01  2.39508E+01  2.38868E+01
   2.38394E+01  2.38061E+01  2.37855E+01  2.37756E+01  2.37752E+01  2.37831E+01  2.37983E+01  2.38197E+01  2.38469E+01  2.38790E+01
   2.39156E+01  2.39561E+01  2.40003E+01  2.40475E+01  2.40977E+01  2.41504E+01  2.42056E+01  2.42628E+01  2.43221E+01  2.43830E+01
   2.44457E+01  2.45098E+01  2.45754E+01  2.46421E+01  2.47101E+01  2.47791E+01  2.48492E+01  2.49202E+01  2.49921E+01  2.50647E+01
   2.51382E+01  2.52122E+01  2.52871E+01  2.53624E+01  2.54385E+01  2.55149E+01  2.55920E+01  2.56695E+01  2.57476E+01  2.58260E+01
   2.59049E+01  2.59841E+01  2.60637E+01  2.61437E+01  2.62241E+01  2.63047E+01  2.63857E+01  2.64669E+01  2.65486E+01  2.66304E+01
   2.67126E+01  2.67950E+01  2.68777E+01  2.69606E+01  2.70439E+01  2.71273E+01  2.72112E+01  2.72951E+01
 NY background values follow
    -7.013E+01   -6.979E+01   -6.945E+01   -6.910E+01   -6.876E+01   -6.842E+01   -6.807E+01   -6.773E+01   -6.738E+01   -6.704E+01
    -6.670E+01   -6.635E+01   -6.601E+01   -6.567E+01   -6.532E+01   -6.498E+01   -6.464E+01   -6.429E+01   -6.395E+01   -6.361E+01
    -6.327E+01   -6.292E+01   -6.258E+01   -6.224E+01   -6.190E+01   -6.155E+01   -6.121E+01   -6.087E+01   -6.053E+01   -6.019E+01
    -5.985E+01   -5.951E+01   -5.917E+01   -5.883E+01   -5.849E+01   -5.815E+01   -5.781E+01   -5.747E+01   -5.713E+01   -5.680E+01
    -5.646E+01   -5.612E+01   -5.578E+01   -5.545E+01   -5.511E+01   -5.478E+01   -5.444E+01   -5.411E+01   -5.377E+01   -5.344E+01
    -5.310E+01   -5.277E+01   -5.244E+01   -5.210E+01   -5.177E+01   -5.144E+01   -5.111E+01   -5.078E+01   -5.045E+01   -5.012E+01
    -4.979E+01   -4.947E+01   -4.914E+01   -4.881E+01   -4.848E+01   -4.816E+01   -4.783E+01   -4.751E+01   -4.718E+01   -4.686E+01
    -4.654E+01   -4.622E+01   -4.590E+01   -4.557E+01   -4.525E+01   -4.494E+01   -4.462E+01   -4.430E+01   -4.398E+01   -4.367E+01
    -4.335E+01   -4.303E+01   -4.272E+01   -4.241E+01   -4.209E+01   -4.178E+01   -4.147E+01   -4.116E+01   -4.085E+01   -4.054E+01
    -4.024E+01   -3.993E+01   -3.962E+01   -3.932E+01   -3.901E+01   -3.871E+01   -3.841E+01   -3.810E+01   -3.780E+01   -3.750E+01
    -3.720E+01   -3.691E+01   -3.661E+01   -3.631E+01   -3.602E+01   -3.572E+01   -3.543E+01   -3.513E+01   -3.484E+01   -3.455E+01
    -3.426E+01   -3.397E+01   -3.368E+01   -3.339E+01   -3.311E+01   -3.282E+01   -3.254E+01   -3.225E+01   -3.197E+01   -3.169E+01
    -3.140E+01   -3.112E+01   -3.084E+01   -3.056E+01   -3.029E+01   -3.001E+01   -2.973E+01   -2.946E+01   -2.918E+01   -2.891E+01
    -2.863E+01   -2.836E+01   -2.809E+01   -2.782E+01   -2.755E+01   -2.728E+01   -2.702E+01   -2.675E+01   -2.648E+01   -2.622E+01
    -2.596E+01   -2.569E+01   -2.543E+01   -2.517E+01   -2.491E+01   -2.465E+01   -2.439E+01   -2.413E+01   -2.388E+01   -2.362E+01
    -2.337E+01   -2.311E+01   -2.286E+01   -2.261E+01   -2.236E+01   -2.210E+01   -2.185E+01   -2.161E+01   -2.136E+01   -2.111E+01
    -2.086E+01   -2.062E+01   -2.037E+01   -2.013E+01   -1.989E+01   -1.965E+01   -1.940E+01   -1.916E+01   -1.892E+01   -1.869E+01
    -1.845E+01   -1.821E+01   -1.797E+01   -1.774E+01   -1.750E+01   -1.727E+01   -1.704E+01   -1.681E+01   -1.657E+01   -1.634E+01
    -1.611E+01   -1.589E+01   -1.566E+01   -1.543E+01   -1.520E+01   -1.498E+01   -1.475E+01   -1.453E+01   -1.431E+01   -1.408E+01
    -1.386E+01   -1.364E+01   -1.342E+01   -1.320E+01   -1.298E+01   -1.277E+01   -1.255E+01   -1.233E+01   -1.212E+01   -1.191E+01
    -1.169E+01   -1.148E+01   -1.127E+01   -1.106E+01   -1.085E+01   -1.064E+01   -1.043E+01   -1.022E+01   -1.001E+01   -9.808E+00
    -9.603E+00   -9.398E+00   -9.195E+00   -8.992E+00   -8.790E+00   -8.589E+00   -8.389E+00   -8.189E+00   -7.990E+00   -7.792E+00
    -7.595E+00   -7.399E+00   -7.204E+00   -7.009E+00   -6.815E+00   -6.623E+00   -6.430E+00   -6.239E+00   -6.049E+00   -5.859E+00
    -5.670E+00   -5.482E+00   -5.295E+00   -5.108E+00   -4.923E+00   -4.738E+00   -4.554E+00   -4.371E+00   -4.188E+00   -4.006E+00
    -3.825E+00   -3.645E+00   -3.466E+00   -3.287E+00   -3.109E+00   -2.932E+00   -2.756E+00   -2.581E+00   -2.406E+00   -2.232E+00
    -2.058E+00   -1.886E+00   -1.714E+00   -1.543E+00   -1.373E+00   -1.203E+00   -1.034E+00   -8.660E-01   -6.986E-01   -5.319E-01
    -3.659E-01   -2.006E-01   -3.607E-02    1.278E-01    2.909E-01    4.534E-01    6.152E-01    7.762E-01    9.366E-01    1.096E+00
     1.255E+00    1.414E+00    1.571E+00    1.728E+00    1.885E+00    2.040E+00    2.195E+00    2.349E+00    2.503E+00    2.656E+00
     2.808E+00    2.960E+00    3.111E+00    3.262E+00    3.411E+00    3.561E+00    3.709E+00    3.857E+00    4.004E+00    4.151E+00
     4.297E+00    4.443E+00    4.587E+00    4.732E+00    4.875E+00    5.018E+00    5.161E+00    5.303E+00    5.444E+00    5.585E+00
     5.725E+00    5.865E+00    6.004E+00    6.142E+00    6.280E+00    6.418E+00    6.554E+00    6.691E+00    6.826E+00    6.962E+00
     7.096E+00    7.230E+00    7.364E+00    7.497E+00    7.630E+00    7.762E+00    7.893E+00    8.024E+00    8.155E+00    8.285E+00
     8.414E+00    8.543E+00    8.672E+00    8.800E+00    8.927E+00    9.054E+00    9.181E+00    9.307E+00    9.433E+00    9.558E+00
     9.683E+00    9.807E+00    9.931E+00    1.005E+01    1.018E+01    1.030E+01    1.042E+01    1.054E+01    1.067E+01    1.079E+01
     1.091E+01    1.103E+01    1.115E+01    1.127E+01    1.138E+01    1.150E+01    1.162E+01    1.174E+01    1.186E+01    1.197E+01
     1.209E+01    1.220E+01    1.232E+01    1.244E+01    1.255E+01    1.267E+01    1.278E+01    1.289E+01    1.301E+01    1.312E+01
     1.323E+01    1.335E+01    1.346E+01    1.357E+01    1.368E+01    1.379E+01    1.390E+01    1.401E+01    1.412E+01    1.423E+01
     1.434E+01    1.445E+01    1.456E+01    1.467E+01    1.478E+01    1.489E+01    1.500E+01    1.510E+01    1.521E+01    1.532E+01
     1.543E+01    1.553E+01    1.564E+01    1.575E+01    1.585E+01    1.596E+01    1.606E+01    1.617E+01    1.627E+01    1.638E+01
     1.648E+01    1.659E+01    1.669E+01    1.679E+01    1.690E+01    1.700E+01    1.710E+01    1.721E+01    1.731E+01    1.741E+01
     1.751E+01    1.762E+01    1.772E+01    1.782E+01    1.792E+01    1.802E+01    1.812E+01    1.822E+01    1.833E+01    1.843E+01
     1.853E+01    1.863E+01    1.873E+01    1.883E+01    1.893E+01    1.903E+01    1.913E+01    1.923E+01    1.932E+01    1.942E+01
     1.952E+01    1.962E+01    1.972E+01    1.982E+01    1.992E+01    2.001E+01    2.011E+01    2.021E+01    2.031E+01    2.041E+01
     2.050E+01    2.060E+01    2.070E+01    2.079E+01    2.089E+01    2.099E+01    2.108E+01    2.118E+01    2.128E+01    2.137E+01
     2.147E+01    2.156E+01    2.166E+01    2.175E+01    2.185E+01    2.194E+01    2.204E+01    2.213E+01    2.223E+01    2.232E+01
     2.242E+01    2.251E+01    2.261E+01    2.270E+01    2.279E+01    2.289E+01    2.298E+01    2.308E+01    2.317E+01    2.326E+01
     2.336E+01    2.345E+01    2.354E+01    2.363E+01    2.373E+01    2.382E+01    2.391E+01    2.401E+01    2.410E+01    2.419E+01
     2.428E+01    2.438E+01    2.447E+01    2.456E+01    2.465E+01    2.474E+01    2.484E+01    2.493E+01    2.502E+01    2.511E+01
     2.520E+01    2.529E+01    2.539E+01    2.548E+01    2.557E+01    2.566E+01    2.575E+01    2.584E+01    2.594E+01    2.603E+01
     2.612E+01    2.621E+01    2.630E+01    2.639E+01    2.649E+01    2.658E+01    2.667E+01    2.676E+01
 Asp      Conc. = 2.02E+02
