 LCModel (Version 6.3-1L) Copyright: S.W. Provencher.          Ref.: Magn. Reson. Med. 30:672-679 (1993).                
 Slice#2 Row#8 Col#8  PD_05_press_2_raw_act
 36 lines in following concentration table = NCONC+1
    Conc.  %SD /Cr+PCr  Metabolite                                         
  193.767 101% 5.9E-02 Ala                                                 
    0.000 999%   0.000 Asp                                                 
 1.20E+03  34%   0.364 Cr                                                  
 2.10E+03  20%   0.636 PCr                                                 
   98.872 316% 3.0E-02 GABA                                                
    0.000 999%   0.000 Glc                                                 
 1.89E+03  21%   0.571 Gln                                                 
 4.03E+03  12%   1.220 Glu                                                 
 1.03E+03   4%   0.312 GPC                                                 
    0.000 999%   0.000 PCh                                                 
  717.415  18%   0.217 GSH                                                 
 2.16E+03  20%   0.653 Ins                                                 
   77.943 272% 2.4E-02 Lac                                                 
 5.21E+03   4%   1.577 NAA                                                 
  664.717  31%   0.201 NAAG                                                
  269.217  19% 8.1E-02 Scyllo                                              
   58.479 667% 1.8E-02 Tau                                                 
  558.618  37%   0.169 -CrCH2                                              
 1.03E+03   4%   0.312 GPC+PCh                                             
 5.87E+03   3%   1.778 NAA+NAAG                                            
 3.30E+03   3%   1.000 Cr+PCr                                              
 5.92E+03  11%   1.792 Glu+Gln                                             
 2.48E+03  31%   0.751 Lip13a                                              
    0.000 999%   0.000 Lip13b                                              
    0.000 999%   0.000 Lip09                                               
 3.25E+03  11%   0.984 MM09                                                
  289.542 109% 8.8E-02 Lip20                                               
 7.59E+03   9%   2.298 MM20                                                
 1.27E+03  25%   0.383 MM12                                                
 2.87E+03  24%   0.869 MM14                                                
 3.35E+03  15%   1.015 MM17                                                
 2.48E+03  31%   0.751 Lip13a+Lip13b                                       
 6.62E+03  10%   2.003 MM14+Lip13a+Lip13b+MM12                             
 3.25E+03  11%   0.984 MM09+Lip09                                          
 7.88E+03   9%   2.386 MM20+Lip20                                          
   6 lines in following misc. output table
  FWHM = 0.046 ppm    S/N =  16                                            
  Data shift = 0.008 ppm                                                   
  Ph: -31 deg      -7.8 deg/ppm                                            
  alphaB,S = 8.5E+01,   1.3E+02                                            
   14 spline knots.   Ns = 6(1)                                            
   2 inflections.     1 extrema                                            
  498 points on ppm-axis = NY
      4.000000     3.992357     3.984714     3.977070     3.969427     3.961784     3.954141     3.946497     3.938854     3.931211
      3.923568     3.915925     3.908281     3.900638     3.892995     3.885352     3.877708     3.870065     3.862422     3.854779
      3.847136     3.839492     3.831849     3.824206     3.816563     3.808919     3.801276     3.793633     3.785990     3.778347
      3.770703     3.763060     3.755417     3.747774     3.740130     3.732487     3.724844     3.717201     3.709558     3.701914
      3.694271     3.686628     3.678985     3.671341     3.663698     3.656055     3.648412     3.640769     3.633125     3.625482
      3.617839     3.610196     3.602552     3.594909     3.587266     3.579623     3.571980     3.564336     3.556693     3.549050
      3.541407     3.533763     3.526120     3.518477     3.510834     3.503191     3.495547     3.487904     3.480261     3.472618
      3.464974     3.457331     3.449688     3.442045     3.434402     3.426758     3.419115     3.411472     3.403829     3.396185
      3.388542     3.380899     3.373256     3.365613     3.357969     3.350326     3.342683     3.335040     3.327396     3.319753
      3.312110     3.304467     3.296824     3.289180     3.281537     3.273894     3.266251     3.258607     3.250964     3.243321
      3.235678     3.228034     3.220391     3.212748     3.205105     3.197462     3.189818     3.182175     3.174532     3.166889
      3.159245     3.151602     3.143959     3.136316     3.128673     3.121029     3.113386     3.105743     3.098100     3.090456
      3.082813     3.075170     3.067527     3.059884     3.052240     3.044597     3.036954     3.029311     3.021667     3.014024
      3.006381     2.998738     2.991095     2.983451     2.975808     2.968165     2.960522     2.952878     2.945235     2.937592
      2.929949     2.922306     2.914662     2.907019     2.899376     2.891733     2.884089     2.876446     2.868803     2.861160
      2.853517     2.845873     2.838230     2.830587     2.822944     2.815300     2.807657     2.800014     2.792371     2.784728
      2.777084     2.769441     2.761798     2.754155     2.746511     2.738868     2.731225     2.723582     2.715939     2.708295
      2.700652     2.693009     2.685366     2.677722     2.670079     2.662436     2.654793     2.647150     2.639506     2.631863
      2.624220     2.616577     2.608933     2.601290     2.593647     2.586004     2.578361     2.570717     2.563074     2.555431
      2.547788     2.540144     2.532501     2.524858     2.517215     2.509572     2.501928     2.494285     2.486642     2.478999
      2.471355     2.463712     2.456069     2.448426     2.440783     2.433139     2.425496     2.417853     2.410210     2.402566
      2.394923     2.387280     2.379637     2.371994     2.364350     2.356707     2.349064     2.341421     2.333777     2.326134
      2.318491     2.310848     2.303205     2.295561     2.287918     2.280275     2.272632     2.264988     2.257345     2.249702
      2.242059     2.234416     2.226772     2.219129     2.211486     2.203843     2.196199     2.188556     2.180913     2.173270
      2.165627     2.157983     2.150340     2.142697     2.135054     2.127410     2.119767     2.112124     2.104481     2.096838
      2.089194     2.081551     2.073908     2.066265     2.058621     2.050978     2.043335     2.035692     2.028049     2.020405
      2.012762     2.005119     1.997476     1.989833     1.982190     1.974546     1.966903     1.959260     1.951617     1.943974
      1.936331     1.928688     1.921045     1.913402     1.905759     1.898115     1.890472     1.882829     1.875186     1.867543
      1.859900     1.852257     1.844614     1.836971     1.829327     1.821684     1.814041     1.806398     1.798755     1.791112
      1.783469     1.775826     1.768183     1.760540     1.752896     1.745253     1.737610     1.729967     1.722324     1.714681
      1.707038     1.699395     1.691752     1.684108     1.676465     1.668822     1.661179     1.653536     1.645893     1.638250
      1.630607     1.622964     1.615321     1.607677     1.600034     1.592391     1.584748     1.577105     1.569462     1.561819
      1.554176     1.546533     1.538890     1.531246     1.523603     1.515960     1.508317     1.500674     1.493031     1.485388
      1.477745     1.470102     1.462458     1.454815     1.447172     1.439529     1.431886     1.424243     1.416600     1.408957
      1.401314     1.393671     1.386027     1.378384     1.370741     1.363098     1.355455     1.347812     1.340169     1.332526
      1.324883     1.317240     1.309596     1.301953     1.294310     1.286667     1.279024     1.271381     1.263738     1.256095
      1.248452     1.240808     1.233165     1.225522     1.217879     1.210236     1.202593     1.194950     1.187307     1.179664
      1.172021     1.164377     1.156734     1.149091     1.141448     1.133805     1.126162     1.118519     1.110876     1.103233
      1.095590     1.087946     1.080303     1.072660     1.065017     1.057374     1.049731     1.042088     1.034445     1.026802
      1.019158     1.011515     1.003872     0.996229     0.988586     0.980943     0.973300     0.965657     0.958014     0.950371
      0.942727     0.935084     0.927441     0.919798     0.912155     0.904512     0.896869     0.889226     0.881583     0.873940
      0.866296     0.858653     0.851010     0.843367     0.835724     0.828081     0.820438     0.812795     0.805152     0.797508
      0.789865     0.782222     0.774579     0.766936     0.759293     0.751650     0.744007     0.736364     0.728721     0.721077
      0.713434     0.705791     0.698148     0.690505     0.682862     0.675219     0.667576     0.659933     0.652290     0.644646
      0.637003     0.629360     0.621717     0.614074     0.606431     0.598788     0.591145     0.583502     0.575858     0.568215
      0.560572     0.552929     0.545286     0.537643     0.530000     0.522357     0.514714     0.507071     0.499427     0.491784
      0.484141     0.476498     0.468855     0.461212     0.453569     0.445925     0.438282     0.430639     0.422996     0.415353
      0.407710     0.400067     0.392424     0.384780     0.377137     0.369494     0.361851     0.354208     0.346565     0.338922
      0.331278     0.323635     0.315992     0.308349     0.300706     0.293063     0.285420     0.277777     0.270133     0.262490
      0.254847     0.247204     0.239561     0.231918     0.224275     0.216631     0.208988     0.201345
 NY phased data points follow
  -1.91837E+01 -1.73453E+01 -1.58931E+01 -1.07372E+01 -6.00712E+00  8.45116E-01  1.87157E+01  4.14731E+01  4.10544E+01  4.75626E+01
   6.22915E+01  5.85051E+01  5.52579E+01  4.10755E+01  1.45156E+01  1.55391E+01  3.10870E+00  2.42406E+00  1.07340E+01 -5.50418E+00
   3.49405E-01 -3.57439E-01  5.13978E+00 -5.94938E+00 -2.24761E+00  2.93806E+00  8.36410E+00  1.24102E+00 -1.81917E+00  9.28672E+00
   2.32475E+01  1.51608E+01  1.37134E+01  4.00666E+00  1.21924E+01  3.07452E+00 -6.18761E+00  4.22900E-01  2.22324E-01  4.76570E+00
   2.94810E+00 -2.86832E+00  6.52551E+00  3.26181E+00  2.12493E+01  2.63875E+01  2.56686E+01  2.15416E+01  9.86228E+00  1.24977E+01
   1.37051E+01  5.76648E+00  6.28509E+00  4.84984E+00  4.51969E+00  8.94924E+00  1.05322E+01  1.44209E+01  6.64134E+00  9.34218E-01
  -4.29073E+00 -1.09117E+00 -5.23755E+00 -1.40918E+01 -1.18645E+01 -1.11559E+01 -1.37850E+01 -2.14587E+01 -9.14716E+00 -1.40908E+01
  -9.32625E+00 -5.31056E+00 -8.97715E+00 -6.59376E+00 -3.98210E+00 -8.99378E+00 -1.35086E+01 -8.32139E+00  1.89962E-01 -1.14778E+01
  -1.01122E+01 -4.08661E+00 -3.22908E+00 -3.57645E+00  2.94877E+00  6.87348E+00  5.91986E+00  5.05836E+00  6.94020E+00  2.00463E+00
   3.29941E+00  1.04186E+01 -1.25478E+00  8.46770E+00 -5.71603E+00  5.24094E+00  6.01448E+00  1.37200E+01  1.63151E+01  2.90839E+01
   5.26838E+01  7.12713E+01  8.82825E+01  9.46336E+01  8.68217E+01  6.24262E+01  6.16525E+01  4.25858E+01  3.85951E+01  2.71756E+01
   1.19762E+01  6.80309E+00  1.25675E+01  9.33006E+00  4.34264E+00  1.21770E+01  1.45690E+01  1.37818E+01  1.08884E+01  1.39941E-01
   1.54704E+01  1.90712E+01  2.05993E+01  4.73894E+01  5.81169E+01  9.41014E+01  1.12712E+02  1.17466E+02  1.17023E+02  9.57831E+01
   6.82496E+01  5.90199E+01  4.21044E+01  2.51929E+01  8.41968E+00  6.86863E+00  1.06046E+01  3.28522E+00 -2.07785E+00  7.98020E+00
   3.99754E+00  6.79315E-01  2.78990E+00 -4.26910E+00 -4.31765E+00  2.80896E+00  1.51283E+01  1.43366E+00  3.78514E+00  2.64628E+00
   6.60744E+00  4.26706E+00 -8.62623E+00 -3.86165E+00 -3.17332E+00  3.26064E+00 -1.50417E+00 -5.57770E+00  2.08760E+00  3.44881E+00
  -6.86736E+00 -9.91595E+00 -1.52144E+01 -6.26682E+00  2.54926E+00 -5.52923E+00 -6.46709E+00  3.31281E+00 -1.41633E+01 -6.98722E+00
  -1.45219E+01 -1.63056E+01 -2.24901E+01 -1.74888E+01 -2.06693E+01 -2.21291E+01 -1.82130E+01 -2.34429E+01 -2.02164E+01 -2.09255E+01
  -2.44959E+01 -2.16494E+01 -1.55948E+01 -2.56725E+01 -1.32993E+01 -2.20846E+01 -9.84054E+00 -8.86867E+00 -3.24729E+00  3.63959E+00
   1.68854E+01  9.34374E+00  6.47043E+00  1.55599E+01  1.32879E+01  3.62708E+00  5.40050E+00  2.99809E+00 -5.84321E+00 -6.33650E+00
   5.39965E+00  6.05999E+00  2.55744E-01  1.27334E+01  1.00164E+01  4.28778E+00 -6.48760E-01 -1.43018E+01 -1.96482E+01 -2.47350E+01
  -1.40001E+01 -8.79639E+00  4.32985E+00  1.68948E+01  2.34511E+01  2.22840E+01  3.37862E+01  2.36872E+01  1.53735E+01  1.32715E+01
  -3.58203E+00 -9.61817E+00 -1.47692E+01 -1.44167E+00 -2.76835E-01  5.68645E+00  1.44408E+01  1.11734E+01  1.58111E+01  2.38212E+01
   1.35169E+01  2.35124E+01  2.16119E+01  2.18365E+01  1.76972E+01  2.49791E+01  2.94679E+01  2.49159E+01  2.54844E+01  1.60251E+01
   1.50390E+01  6.46323E+00  1.22189E+01  1.38709E+01  2.80066E+01  1.96877E+01  3.53409E+01  2.37838E+01  4.48828E+01  4.27150E+01
   4.56507E+01  3.78750E+01  5.38165E+01  5.44465E+01  6.98598E+01  7.56532E+01  1.01842E+02  1.31456E+02  1.63352E+02  2.18017E+02
   2.27492E+02  2.31853E+02  1.93515E+02  1.47055E+02  1.13456E+02  9.03245E+01  6.77394E+01  5.47168E+01  4.40355E+01  2.73111E+01
   2.49853E+01  2.85371E+01  2.79991E+01  2.14023E+01  2.44438E+01  2.45109E+01  1.49145E+01  1.81451E+01  1.49763E+01  2.23041E+01
   2.61388E+01  2.64139E+01  2.54627E+01  1.28779E+01  1.19272E+01  8.31653E+00  1.60060E+01  2.45837E+01  1.89689E+01  2.56462E+01
   2.85817E+01  2.14403E+01  1.52830E+01  1.61586E+01  1.74174E+01  2.76494E+01  2.12553E+01  2.55139E+01  2.12784E+01  2.01604E+01
   2.41751E+01  2.09895E+01  2.63929E+01  2.75049E+01  2.65273E+01  2.30674E+01  2.23853E+01  2.96509E+01  2.52254E+01  4.13904E+01
   3.43710E+01  2.76351E+01  3.28188E+01  3.71427E+01  3.41711E+01  2.78193E+01  3.38818E+01  2.16801E+01  2.93761E+01  2.81526E+01
   3.30182E+01  3.08320E+01  2.30759E+01  2.79785E+01  2.45540E+01  2.70199E+01  2.21532E+01  2.67228E+01  2.59495E+01  7.33722E+00
   2.91750E+01  2.51973E+01  2.84352E+01  1.82956E+01  2.43264E+01  3.08977E+01  3.18535E+01  2.93371E+01  2.96522E+01  2.09362E+01
   2.04511E+01  2.42761E+01  3.39308E+01  2.90744E+01  2.81583E+01  3.29331E+01  3.80439E+01  3.52897E+01  3.40235E+01  2.97675E+01
   2.64667E+01  2.89659E+01  3.11777E+01  2.75468E+01  2.65167E+01  2.32887E+01  3.33395E+01  2.01120E+01  3.13116E+01  2.57178E+01
   2.19660E+01  2.99796E+01  3.38522E+01  2.59803E+01  3.08987E+01  3.51673E+01  3.68730E+01  2.06426E+01  4.18190E+01  2.85874E+01
   4.06421E+01  3.43660E+01  3.14920E+01  2.63922E+01  3.04709E+01  2.62408E+01  1.60555E+01  1.94598E+01  2.83441E+01  2.18823E+01
   2.32508E+01  1.35988E+01  1.58413E+01  2.07490E+01  1.35662E+01  2.31487E+01  1.87744E+01  1.36133E+01  3.02877E+01  2.44242E+01
   2.42151E+01  3.11450E+01  2.58777E+01  2.13983E+01  2.95635E+01  1.79691E+01  2.55970E+01  2.63116E+01  3.17298E+01  2.58570E+01
   3.30941E+01  1.97568E+01  3.63154E+01  2.46465E+01  2.70194E+01  2.59150E+01  3.67100E+01  2.92610E+01  3.92392E+01  2.87286E+01
   3.21837E+01  2.92858E+01  3.77770E+01  4.22464E+01  3.04045E+01  2.58111E+01  2.90391E+01  3.22542E+01  2.23284E+01  1.71211E+01
   2.32297E+01  2.41481E+01  2.67404E+01  2.34897E+01  3.35233E+01  1.61373E+01  1.70171E+01  1.73446E+01  2.51169E+01  2.42477E+01
   2.00316E+01  2.12476E+01  1.84740E+01  1.74725E+01  1.67546E+01  1.54798E+01  1.58765E+01  1.32190E+01  2.29702E+01  1.69733E+01
   2.53009E+01  1.60567E+01  2.13071E+01  1.77072E+01  1.52152E+01  2.09691E+01  1.52822E+01  1.44762E+01  1.30096E+01  1.77688E+01
   1.70657E+01  2.11247E+01  2.16029E+01  1.97085E+01  1.37105E+01  1.79815E+01  2.26891E+01  1.05166E+01  1.72125E+01  1.68960E+01
   8.04470E+00  2.26654E+01  2.42773E+01  8.30294E+00  1.59923E+01  1.58756E+01  1.90125E+01  2.45976E+01  1.06335E+01  1.89366E+01
   2.04033E+01  1.04170E+01  1.93467E+01  1.36931E+01  1.55786E+01  7.60594E+00  2.00020E+01  1.00273E+01  1.77666E+01  2.04112E+01
   2.12935E+01  6.34952E+00  1.42902E+01  1.96677E+01  1.41939E+01  9.69577E+00  2.37367E+01  1.39046E+01  1.72846E+01  2.22693E+01
   1.55309E+01  1.71203E+01  1.92564E+01  6.21895E+00  1.75906E+01  1.81053E+01  8.86633E+00  1.72498E+01
 NY points of the fit to the data follow
  -8.19497E+00 -8.33275E+00 -7.94070E+00 -6.11334E+00 -1.45577E+00  6.48281E+00  1.77499E+01  3.13599E+01  4.50482E+01  5.53529E+01
   5.92082E+01  5.57529E+01  4.70406E+01  3.65550E+01  2.69253E+01  1.89044E+01  1.20857E+01  6.68771E+00  3.36243E+00  1.68285E+00
   9.68011E-01  4.37507E-01 -4.98457E-01 -1.83439E+00 -2.76241E+00 -2.80010E+00 -1.46582E+00  1.72885E+00  6.67146E+00  1.22791E+01
   1.68546E+01  1.91082E+01  1.86773E+01  1.58432E+01  1.14012E+01  6.29122E+00  1.16289E+00 -2.76736E+00 -4.42339E+00 -4.29263E+00
  -2.85024E+00 -2.01707E-01  3.34868E+00  7.36320E+00  1.13523E+01  1.47253E+01  1.64447E+01  1.56184E+01  1.25477E+01  8.38667E+00
   4.42664E+00  1.37105E+00 -8.62177E-01 -2.48226E+00 -3.25309E+00 -2.83788E+00 -1.62034E+00 -2.84943E-01  7.30701E-01  1.08831E+00
   5.38574E-01 -8.00989E-01 -2.49755E+00 -3.98271E+00 -4.91964E+00 -5.23359E+00 -4.99264E+00 -4.33482E+00 -3.48730E+00 -2.60761E+00
  -1.89325E+00 -1.52757E+00 -1.57355E+00 -1.96411E+00 -2.51060E+00 -3.03279E+00 -3.48460E+00 -3.87128E+00 -4.20923E+00 -4.37358E+00
  -4.16472E+00 -3.11815E+00 -1.34743E+00  9.64372E-01  3.61442E+00  5.98094E+00  7.15158E+00  6.62623E+00  4.66525E+00  2.21364E+00
   2.66512E-01 -9.55278E-01 -1.82102E+00 -2.68885E+00 -3.47658E+00 -3.62428E+00 -2.57992E+00  2.40647E+00  1.33472E+01  2.97619E+01
   5.06468E+01  7.27789E+01  9.00599E+01  9.65634E+01  9.04446E+01  7.51080E+01  5.70615E+01  4.11354E+01  2.82020E+01  1.71225E+01
   7.79137E+00  2.23235E+00  2.94020E-01 -4.01674E-01 -7.10554E-01 -8.46506E-01 -8.73200E-01 -8.05149E-01 -5.72290E-01  5.95549E-02
   2.09075E+00  9.11871E+00  2.30149E+01  4.28518E+01  6.75063E+01  9.31994E+01  1.12730E+02  1.19425E+02  1.11567E+02  9.35837E+01
   7.31703E+01  5.53985E+01  4.04681E+01  2.67189E+01  1.43604E+01  6.65438E+00  3.69051E+00  2.83298E+00  3.12353E+00  3.94497E+00
   4.77240E+00  5.31365E+00  5.43926E+00  5.11911E+00  4.52886E+00  3.83528E+00  3.09836E+00  2.38357E+00  1.67952E+00  1.00914E+00
   4.14673E-01 -1.19231E-01 -5.42485E-01 -7.73362E-01 -7.94542E-01 -8.05683E-01 -1.05431E+00 -1.65357E+00 -2.66836E+00 -3.83445E+00
  -4.71842E+00 -4.99365E+00 -4.52966E+00 -3.67880E+00 -3.16950E+00 -3.52556E+00 -4.65468E+00 -6.01484E+00 -7.09947E+00 -7.91810E+00
  -8.79079E+00 -9.94075E+00 -1.12261E+01 -1.23728E+01 -1.32029E+01 -1.36201E+01 -1.34506E+01 -1.27525E+01 -1.19923E+01 -1.16570E+01
  -1.17478E+01 -1.19061E+01 -1.17890E+01 -1.12535E+01 -1.05646E+01 -9.69704E+00 -7.93575E+00 -4.99195E+00 -1.31971E+00  2.02810E+00
   4.02271E+00  4.49027E+00  3.73277E+00  2.35890E+00  1.06992E+00  2.83828E-01  2.42270E-01  1.22523E+00  3.39302E+00  6.51720E+00
   1.00467E+01  1.32561E+01  1.53537E+01  1.55297E+01  1.31874E+01  8.56140E+00  2.26317E+00 -4.42509E+00 -9.66497E+00 -1.19072E+01
  -1.04916E+01 -5.74732E+00  1.36806E+00  9.79757E+00  1.80849E+01  2.40896E+01  2.54000E+01  2.09870E+01  1.23100E+01  2.52490E+00
  -6.05226E+00 -1.19277E+01 -1.37719E+01 -1.09683E+01 -4.27070E+00  3.90933E+00  1.07814E+01  1.54294E+01  1.80717E+01  1.90510E+01
   1.87075E+01  1.77242E+01  1.71520E+01  1.77775E+01  1.96184E+01  2.22435E+01  2.48789E+01  2.65917E+01  2.66790E+01  2.50107E+01
   2.23337E+01  1.98992E+01  1.87864E+01  1.94285E+01  2.16535E+01  2.47192E+01  2.76438E+01  2.99860E+01  3.19103E+01  3.39028E+01
   3.67880E+01  4.08169E+01  4.60511E+01  5.25982E+01  6.28580E+01  8.15053E+01  1.06969E+02  1.38784E+02  1.75413E+02  2.08938E+02
   2.26699E+02  2.20777E+02  1.93379E+02  1.56394E+02  1.22360E+02  9.51178E+01  7.21045E+01  5.12300E+01  3.55563E+01  2.88806E+01
   2.59793E+01  2.42506E+01  2.32721E+01  2.27497E+01  2.22774E+01  2.16775E+01  2.08944E+01  1.99884E+01  1.90607E+01  1.81883E+01
   1.73986E+01  1.67382E+01  1.62718E+01  1.59939E+01  1.58313E+01  1.57318E+01  1.57010E+01  1.57616E+01  1.59258E+01  1.61936E+01
   1.65853E+01  1.71082E+01  1.77348E+01  1.84301E+01  1.91823E+01  1.99879E+01  2.08420E+01  2.17383E+01  2.26695E+01  2.36288E+01
   2.46072E+01  2.55780E+01  2.65056E+01  2.73583E+01  2.81120E+01  2.87488E+01  2.92543E+01  2.96179E+01  2.98400E+01  2.99244E+01
   2.98772E+01  2.97112E+01  2.94438E+01  2.90944E+01  2.86848E+01  2.82386E+01  2.77808E+01  2.73376E+01  2.69363E+01  2.66080E+01
   2.63995E+01  2.63780E+01  2.64928E+01  2.66422E+01  2.67364E+01  2.66329E+01  2.61891E+01  2.53910E+01  2.43922E+01  2.35243E+01
   2.30870E+01  2.31398E+01  2.36462E+01  2.45588E+01  2.57721E+01  2.70755E+01  2.81306E+01  2.87530E+01  2.90424E+01  2.91797E+01
   2.92776E+01  2.93634E+01  2.94164E+01  2.94823E+01  2.96028E+01  2.96863E+01  2.96457E+01  2.94467E+01  2.91349E+01  2.88470E+01
   2.87162E+01  2.87851E+01  2.90403E+01  2.94437E+01  2.99312E+01  3.04153E+01  3.07762E+01  3.09320E+01  3.09191E+01  3.08013E+01
   3.06089E+01  3.03369E+01  2.99802E+01  2.95793E+01  2.91582E+01  2.87037E+01  2.82120E+01  2.76864E+01  2.71330E+01  2.65595E+01
   2.59742E+01  2.53859E+01  2.48040E+01  2.42381E+01  2.36970E+01  2.31893E+01  2.27226E+01  2.23038E+01  2.19395E+01  2.16355E+01
   2.13967E+01  2.12273E+01  2.11306E+01  2.11094E+01  2.11663E+01  2.13033E+01  2.15214E+01  2.18209E+01  2.22012E+01  2.26611E+01
   2.31982E+01  2.38088E+01  2.44873E+01  2.52264E+01  2.60169E+01  2.68481E+01  2.77071E+01  2.85793E+01  2.94481E+01  3.02958E+01
   3.11041E+01  3.18549E+01  3.25301E+01  3.31129E+01  3.35879E+01  3.39428E+01  3.41679E+01  3.42573E+01  3.42088E+01  3.40234E+01
   3.37062E+01  3.32655E+01  3.27131E+01  3.20629E+01  3.13304E+01  3.05324E+01  2.96857E+01  2.88075E+01  2.79139E+01  2.70198E+01
   2.61381E+01  2.52801E+01  2.44547E+01  2.36694E+01  2.29294E+01  2.22382E+01  2.15973E+01  2.10071E+01  2.04669E+01  1.99752E+01
   1.95297E+01  1.91278E+01  1.87661E+01  1.84416E+01  1.81511E+01  1.78919E+01  1.76607E+01  1.74549E+01  1.72717E+01  1.71088E+01
   1.69643E+01  1.68363E+01  1.67231E+01  1.66231E+01  1.65346E+01  1.64569E+01  1.63888E+01  1.63295E+01  1.62779E+01  1.62334E+01
   1.61951E+01  1.61628E+01  1.61359E+01  1.61140E+01  1.60965E+01  1.60830E+01  1.60732E+01  1.60670E+01  1.60641E+01  1.60643E+01
   1.60670E+01  1.60722E+01  1.60798E+01  1.60898E+01  1.61019E+01  1.61159E+01  1.61315E+01  1.61488E+01  1.61677E+01  1.61882E+01
   1.62101E+01  1.62333E+01  1.62576E+01  1.62831E+01  1.63098E+01  1.63376E+01  1.63664E+01  1.63960E+01  1.64264E+01  1.64578E+01
   1.64900E+01  1.65230E+01  1.65567E+01  1.65909E+01  1.66258E+01  1.66614E+01  1.66977E+01  1.67345E+01  1.67718E+01  1.68095E+01
   1.68477E+01  1.68866E+01  1.69259E+01  1.69657E+01  1.70057E+01  1.70462E+01  1.70871E+01  1.71285E+01
 NY background values follow
    -1.264E+01   -1.258E+01   -1.253E+01   -1.247E+01   -1.241E+01   -1.235E+01   -1.230E+01   -1.224E+01   -1.218E+01   -1.212E+01
    -1.207E+01   -1.201E+01   -1.195E+01   -1.189E+01   -1.184E+01   -1.178E+01   -1.172E+01   -1.166E+01   -1.161E+01   -1.155E+01
    -1.149E+01   -1.143E+01   -1.138E+01   -1.132E+01   -1.126E+01   -1.120E+01   -1.115E+01   -1.109E+01   -1.103E+01   -1.097E+01
    -1.092E+01   -1.086E+01   -1.080E+01   -1.074E+01   -1.069E+01   -1.063E+01   -1.057E+01   -1.051E+01   -1.045E+01   -1.040E+01
    -1.034E+01   -1.028E+01   -1.022E+01   -1.017E+01   -1.011E+01   -1.005E+01   -9.995E+00   -9.937E+00   -9.880E+00   -9.822E+00
    -9.765E+00   -9.707E+00   -9.650E+00   -9.592E+00   -9.535E+00   -9.477E+00   -9.419E+00   -9.362E+00   -9.304E+00   -9.247E+00
    -9.189E+00   -9.132E+00   -9.074E+00   -9.017E+00   -8.959E+00   -8.902E+00   -8.844E+00   -8.787E+00   -8.729E+00   -8.672E+00
    -8.614E+00   -8.557E+00   -8.499E+00   -8.442E+00   -8.384E+00   -8.327E+00   -8.269E+00   -8.212E+00   -8.154E+00   -8.096E+00
    -8.039E+00   -7.981E+00   -7.924E+00   -7.866E+00   -7.809E+00   -7.751E+00   -7.694E+00   -7.636E+00   -7.579E+00   -7.521E+00
    -7.464E+00   -7.406E+00   -7.349E+00   -7.291E+00   -7.234E+00   -7.176E+00   -7.119E+00   -7.061E+00   -7.004E+00   -6.946E+00
    -6.889E+00   -6.831E+00   -6.774E+00   -6.716E+00   -6.658E+00   -6.601E+00   -6.543E+00   -6.486E+00   -6.428E+00   -6.371E+00
    -6.313E+00   -6.256E+00   -6.198E+00   -6.141E+00   -6.083E+00   -6.026E+00   -5.968E+00   -5.911E+00   -5.853E+00   -5.796E+00
    -5.738E+00   -5.681E+00   -5.623E+00   -5.566E+00   -5.508E+00   -5.451E+00   -5.393E+00   -5.336E+00   -5.278E+00   -5.221E+00
    -5.163E+00   -5.106E+00   -5.048E+00   -4.991E+00   -4.933E+00   -4.876E+00   -4.818E+00   -4.761E+00   -4.703E+00   -4.645E+00
    -4.588E+00   -4.530E+00   -4.473E+00   -4.415E+00   -4.358E+00   -4.300E+00   -4.243E+00   -4.185E+00   -4.128E+00   -4.070E+00
    -4.013E+00   -3.955E+00   -3.898E+00   -3.840E+00   -3.783E+00   -3.725E+00   -3.668E+00   -3.610E+00   -3.553E+00   -3.495E+00
    -3.438E+00   -3.380E+00   -3.323E+00   -3.265E+00   -3.208E+00   -3.150E+00   -3.093E+00   -3.035E+00   -2.978E+00   -2.920E+00
    -2.863E+00   -2.805E+00   -2.748E+00   -2.690E+00   -2.632E+00   -2.575E+00   -2.517E+00   -2.460E+00   -2.402E+00   -2.345E+00
    -2.287E+00   -2.230E+00   -2.172E+00   -2.115E+00   -2.057E+00   -2.000E+00   -1.942E+00   -1.885E+00   -1.827E+00   -1.770E+00
    -1.712E+00   -1.655E+00   -1.597E+00   -1.540E+00   -1.482E+00   -1.424E+00   -1.367E+00   -1.309E+00   -1.252E+00   -1.194E+00
    -1.137E+00   -1.079E+00   -1.022E+00   -9.642E-01   -9.067E-01   -8.491E-01   -7.916E-01   -7.341E-01   -6.765E-01   -6.190E-01
    -5.615E-01   -5.039E-01   -4.464E-01   -3.889E-01   -3.313E-01   -2.738E-01   -2.163E-01   -1.587E-01   -1.012E-01   -4.366E-02
     1.388E-02    7.142E-02    1.290E-01    1.865E-01    2.440E-01    3.016E-01    3.591E-01    4.166E-01    4.742E-01    5.317E-01
     5.893E-01    6.468E-01    7.043E-01    7.619E-01    8.194E-01    8.769E-01    9.345E-01    9.920E-01    1.050E+00    1.107E+00
     1.165E+00    1.222E+00    1.280E+00    1.337E+00    1.395E+00    1.452E+00    1.510E+00    1.567E+00    1.625E+00    1.682E+00
     1.740E+00    1.798E+00    1.855E+00    1.913E+00    1.970E+00    2.028E+00    2.085E+00    2.143E+00    2.200E+00    2.258E+00
     2.315E+00    2.373E+00    2.431E+00    2.488E+00    2.546E+00    2.603E+00    2.661E+00    2.718E+00    2.776E+00    2.833E+00
     2.891E+00    2.948E+00    3.006E+00    3.063E+00    3.121E+00    3.178E+00    3.236E+00    3.294E+00    3.351E+00    3.409E+00
     3.466E+00    3.524E+00    3.581E+00    3.639E+00    3.696E+00    3.754E+00    3.811E+00    3.869E+00    3.926E+00    3.984E+00
     4.042E+00    4.099E+00    4.157E+00    4.214E+00    4.272E+00    4.329E+00    4.387E+00    4.444E+00    4.502E+00    4.559E+00
     4.617E+00    4.674E+00    4.732E+00    4.789E+00    4.847E+00    4.905E+00    4.962E+00    5.020E+00    5.077E+00    5.135E+00
     5.192E+00    5.250E+00    5.307E+00    5.365E+00    5.422E+00    5.480E+00    5.537E+00    5.595E+00    5.652E+00    5.710E+00
     5.767E+00    5.825E+00    5.883E+00    5.940E+00    5.998E+00    6.055E+00    6.113E+00    6.170E+00    6.228E+00    6.285E+00
     6.343E+00    6.400E+00    6.458E+00    6.515E+00    6.573E+00    6.630E+00    6.688E+00    6.745E+00    6.803E+00    6.860E+00
     6.918E+00    6.975E+00    7.033E+00    7.091E+00    7.148E+00    7.206E+00    7.263E+00    7.321E+00    7.378E+00    7.436E+00
     7.493E+00    7.551E+00    7.608E+00    7.666E+00    7.723E+00    7.781E+00    7.838E+00    7.896E+00    7.953E+00    8.011E+00
     8.068E+00    8.126E+00    8.183E+00    8.241E+00    8.298E+00    8.356E+00    8.414E+00    8.471E+00    8.529E+00    8.586E+00
     8.644E+00    8.701E+00    8.759E+00    8.816E+00    8.874E+00    8.931E+00    8.989E+00    9.046E+00    9.104E+00    9.161E+00
     9.219E+00    9.276E+00    9.334E+00    9.391E+00    9.449E+00    9.506E+00    9.564E+00    9.621E+00    9.679E+00    9.736E+00
     9.794E+00    9.851E+00    9.909E+00    9.966E+00    1.002E+01    1.008E+01    1.014E+01    1.020E+01    1.025E+01    1.031E+01
     1.037E+01    1.043E+01    1.048E+01    1.054E+01    1.060E+01    1.066E+01    1.071E+01    1.077E+01    1.083E+01    1.089E+01
     1.094E+01    1.100E+01    1.106E+01    1.112E+01    1.117E+01    1.123E+01    1.129E+01    1.135E+01    1.140E+01    1.146E+01
     1.152E+01    1.158E+01    1.163E+01    1.169E+01    1.175E+01    1.181E+01    1.186E+01    1.192E+01    1.198E+01    1.204E+01
     1.209E+01    1.215E+01    1.221E+01    1.227E+01    1.232E+01    1.238E+01    1.244E+01    1.250E+01    1.255E+01    1.261E+01
     1.267E+01    1.273E+01    1.278E+01    1.284E+01    1.290E+01    1.296E+01    1.301E+01    1.307E+01    1.313E+01    1.319E+01
     1.324E+01    1.330E+01    1.336E+01    1.342E+01    1.348E+01    1.353E+01    1.359E+01    1.365E+01    1.371E+01    1.376E+01
     1.382E+01    1.388E+01    1.394E+01    1.399E+01    1.405E+01    1.411E+01    1.417E+01    1.422E+01    1.428E+01    1.434E+01
     1.440E+01    1.445E+01    1.451E+01    1.457E+01    1.463E+01    1.468E+01    1.474E+01    1.480E+01    1.486E+01    1.491E+01
     1.497E+01    1.503E+01    1.509E+01    1.514E+01    1.520E+01    1.526E+01    1.532E+01    1.537E+01    1.543E+01    1.549E+01
     1.555E+01    1.560E+01    1.566E+01    1.572E+01    1.578E+01    1.583E+01    1.589E+01    1.595E+01
 Ala      Conc. = 1.94E+02
