 LCModel (Version 6.3-1L) Copyright: S.W. Provencher.          Ref.: Magn. Reson. Med. 30:672-679 (1993).                
 Slice#2 Row#4 Col#1  PD_05_press_2_raw_act
 36 lines in following concentration table = NCONC+1
    Conc.  %SD /Cr+PCr  Metabolite                                         
    0.000 999%   0.000 Ala                                                 
   54.061 120%   0.134 Asp                                                 
    0.000 999%   0.000 Cr                                                  
  403.065  17%   1.000 PCr                                                 
   25.673 152% 6.4E-02 GABA                                                
   23.966 164% 5.9E-02 Glc                                                 
  320.645  75%   0.796 Gln                                                 
  569.502  49%   1.413 Glu                                                 
   97.964  25%   0.243 GPC                                                 
    0.000 999%   0.000 PCh                                                 
    0.000 999%   0.000 GSH                                                 
  204.527 140%   0.507 Ins                                                 
    0.000 999%   0.000 Lac                                                 
  375.675  19%   0.932 NAA                                                 
    0.000 999%   0.000 NAAG                                                
    6.088 206% 1.5E-02 Scyllo                                              
   28.809 225% 7.1E-02 Tau                                                 
    0.000 999%   0.000 -CrCH2                                              
   97.964  25%   0.243 GPC+PCh                                             
  375.675  19%   0.932 NAA+NAAG                                            
  403.065  17%   1.000 Cr+PCr                                              
  890.147  42%   2.208 Glu+Gln                                             
    0.000 999%   0.000 Lip13a                                              
    0.000 999%   0.000 Lip13b                                              
 3.61E-03 999% 9.0E-06 Lip09                                               
 1.00E+03  22%   2.492 MM09                                                
    0.000 999%   0.000 Lip20                                               
    0.000 999%   0.000 MM20                                                
   65.753 275%   0.163 MM12                                                
    0.000 999%   0.000 MM14                                                
 2.31E+03  12%   5.731+MM17                                                
    0.000 999%   0.000 Lip13a+Lip13b                                       
   65.753 275%   0.163 MM14+Lip13a+Lip13b+MM12                             
 1.00E+03  22%   2.492 MM09+Lip09                                          
    0.000 999%   0.000 MM20+Lip20                                          
   6 lines in following misc. output table
  FWHM = 0.054 ppm    S/N =   2                                            
  Data shift = 0.031 ppm                                                   
  Ph: 109 deg       6.2 deg/ppm                                            
  alphaB,S = 5.8E-01,   2.3E+01                                            
   14 spline knots.   Ns = 6(1)                                            
  ( 8) 2 infls.   ( 7) 1 extrs.                                            
  498 points on ppm-axis = NY
      4.000000     3.992357     3.984714     3.977070     3.969427     3.961784     3.954141     3.946497     3.938854     3.931211
      3.923568     3.915925     3.908281     3.900638     3.892995     3.885352     3.877708     3.870065     3.862422     3.854779
      3.847136     3.839492     3.831849     3.824206     3.816563     3.808919     3.801276     3.793633     3.785990     3.778347
      3.770703     3.763060     3.755417     3.747774     3.740130     3.732487     3.724844     3.717201     3.709558     3.701914
      3.694271     3.686628     3.678985     3.671341     3.663698     3.656055     3.648412     3.640769     3.633125     3.625482
      3.617839     3.610196     3.602552     3.594909     3.587266     3.579623     3.571980     3.564336     3.556693     3.549050
      3.541407     3.533763     3.526120     3.518477     3.510834     3.503191     3.495547     3.487904     3.480261     3.472618
      3.464974     3.457331     3.449688     3.442045     3.434402     3.426758     3.419115     3.411472     3.403829     3.396185
      3.388542     3.380899     3.373256     3.365613     3.357969     3.350326     3.342683     3.335040     3.327396     3.319753
      3.312110     3.304467     3.296824     3.289180     3.281537     3.273894     3.266251     3.258607     3.250964     3.243321
      3.235678     3.228034     3.220391     3.212748     3.205105     3.197462     3.189818     3.182175     3.174532     3.166889
      3.159245     3.151602     3.143959     3.136316     3.128673     3.121029     3.113386     3.105743     3.098100     3.090456
      3.082813     3.075170     3.067527     3.059884     3.052240     3.044597     3.036954     3.029311     3.021667     3.014024
      3.006381     2.998738     2.991095     2.983451     2.975808     2.968165     2.960522     2.952878     2.945235     2.937592
      2.929949     2.922306     2.914662     2.907019     2.899376     2.891733     2.884089     2.876446     2.868803     2.861160
      2.853517     2.845873     2.838230     2.830587     2.822944     2.815300     2.807657     2.800014     2.792371     2.784728
      2.777084     2.769441     2.761798     2.754155     2.746511     2.738868     2.731225     2.723582     2.715939     2.708295
      2.700652     2.693009     2.685366     2.677722     2.670079     2.662436     2.654793     2.647150     2.639506     2.631863
      2.624220     2.616577     2.608933     2.601290     2.593647     2.586004     2.578361     2.570717     2.563074     2.555431
      2.547788     2.540144     2.532501     2.524858     2.517215     2.509572     2.501928     2.494285     2.486642     2.478999
      2.471355     2.463712     2.456069     2.448426     2.440783     2.433139     2.425496     2.417853     2.410210     2.402566
      2.394923     2.387280     2.379637     2.371994     2.364350     2.356707     2.349064     2.341421     2.333777     2.326134
      2.318491     2.310848     2.303205     2.295561     2.287918     2.280275     2.272632     2.264988     2.257345     2.249702
      2.242059     2.234416     2.226772     2.219129     2.211486     2.203843     2.196199     2.188556     2.180913     2.173270
      2.165627     2.157983     2.150340     2.142697     2.135054     2.127410     2.119767     2.112124     2.104481     2.096838
      2.089194     2.081551     2.073908     2.066265     2.058621     2.050978     2.043335     2.035692     2.028049     2.020405
      2.012762     2.005119     1.997476     1.989833     1.982190     1.974546     1.966903     1.959260     1.951617     1.943974
      1.936331     1.928688     1.921045     1.913402     1.905759     1.898115     1.890472     1.882829     1.875186     1.867543
      1.859900     1.852257     1.844614     1.836971     1.829327     1.821684     1.814041     1.806398     1.798755     1.791112
      1.783469     1.775826     1.768183     1.760540     1.752896     1.745253     1.737610     1.729967     1.722324     1.714681
      1.707038     1.699395     1.691752     1.684108     1.676465     1.668822     1.661179     1.653536     1.645893     1.638250
      1.630607     1.622964     1.615321     1.607677     1.600034     1.592391     1.584748     1.577105     1.569462     1.561819
      1.554176     1.546533     1.538890     1.531246     1.523603     1.515960     1.508317     1.500674     1.493031     1.485388
      1.477745     1.470102     1.462458     1.454815     1.447172     1.439529     1.431886     1.424243     1.416600     1.408957
      1.401314     1.393671     1.386027     1.378384     1.370741     1.363098     1.355455     1.347812     1.340169     1.332526
      1.324883     1.317240     1.309596     1.301953     1.294310     1.286667     1.279024     1.271381     1.263738     1.256095
      1.248452     1.240808     1.233165     1.225522     1.217879     1.210236     1.202593     1.194950     1.187307     1.179664
      1.172021     1.164377     1.156734     1.149091     1.141448     1.133805     1.126162     1.118519     1.110876     1.103233
      1.095590     1.087946     1.080303     1.072660     1.065017     1.057374     1.049731     1.042088     1.034445     1.026802
      1.019158     1.011515     1.003872     0.996229     0.988586     0.980943     0.973300     0.965657     0.958014     0.950371
      0.942727     0.935084     0.927441     0.919798     0.912155     0.904512     0.896869     0.889226     0.881583     0.873940
      0.866296     0.858653     0.851010     0.843367     0.835724     0.828081     0.820438     0.812795     0.805152     0.797508
      0.789865     0.782222     0.774579     0.766936     0.759293     0.751650     0.744007     0.736364     0.728721     0.721077
      0.713434     0.705791     0.698148     0.690505     0.682862     0.675219     0.667576     0.659933     0.652290     0.644646
      0.637003     0.629360     0.621717     0.614074     0.606431     0.598788     0.591145     0.583502     0.575858     0.568215
      0.560572     0.552929     0.545286     0.537643     0.530000     0.522357     0.514714     0.507071     0.499427     0.491784
      0.484141     0.476498     0.468855     0.461212     0.453569     0.445925     0.438282     0.430639     0.422996     0.415353
      0.407710     0.400067     0.392424     0.384780     0.377137     0.369494     0.361851     0.354208     0.346565     0.338922
      0.331278     0.323635     0.315992     0.308349     0.300706     0.293063     0.285420     0.277777     0.270133     0.262490
      0.254847     0.247204     0.239561     0.231918     0.224275     0.216631     0.208988     0.201345
 NY phased data points follow
   2.47941E+02  2.49993E+02  2.41977E+02  2.48734E+02  2.50659E+02  2.38226E+02  2.39396E+02  2.37902E+02  2.34445E+02  2.27903E+02
   2.43450E+02  2.31030E+02  2.23495E+02  2.25720E+02  2.14656E+02  2.22083E+02  2.15366E+02  2.08590E+02  2.15569E+02  2.13867E+02
   2.15573E+02  2.06601E+02  2.01591E+02  1.99536E+02  1.97252E+02  2.00371E+02  1.98270E+02  1.85563E+02  1.98916E+02  1.91757E+02
   1.90093E+02  1.87891E+02  1.89766E+02  1.87725E+02  1.86600E+02  1.85792E+02  1.81898E+02  1.80155E+02  1.80072E+02  1.87718E+02
   1.71511E+02  1.78901E+02  1.80921E+02  1.75589E+02  1.69040E+02  1.74076E+02  1.76586E+02  1.74741E+02  1.72669E+02  1.68920E+02
   1.71529E+02  1.64143E+02  1.60809E+02  1.62163E+02  1.62679E+02  1.59777E+02  1.60364E+02  1.53646E+02  1.61693E+02  1.58985E+02
   1.58575E+02  1.46460E+02  1.50729E+02  1.49381E+02  1.53758E+02  1.52591E+02  1.44826E+02  1.52159E+02  1.43687E+02  1.40978E+02
   1.39924E+02  1.42745E+02  1.40927E+02  1.44634E+02  1.41486E+02  1.37931E+02  1.36362E+02  1.35059E+02  1.39728E+02  1.25519E+02
   1.33677E+02  1.33431E+02  1.36050E+02  1.33106E+02  1.22726E+02  1.31851E+02  1.34695E+02  1.22230E+02  1.31200E+02  1.25979E+02
   1.24248E+02  1.20442E+02  1.17682E+02  1.21111E+02  1.18768E+02  1.28572E+02  1.27993E+02  1.11248E+02  1.20827E+02  1.18409E+02
   1.21574E+02  1.21157E+02  1.31833E+02  1.32788E+02  1.22257E+02  1.24521E+02  1.30573E+02  1.15235E+02  1.16628E+02  1.17956E+02
   1.17616E+02  1.17518E+02  1.13284E+02  1.13857E+02  1.09073E+02  1.09564E+02  1.11152E+02  1.07516E+02  1.10474E+02  1.04342E+02
   1.13355E+02  1.06475E+02  1.04632E+02  1.06279E+02  9.84911E+01  1.09374E+02  1.12706E+02  1.18549E+02  1.14048E+02  1.18341E+02
   1.21862E+02  1.23853E+02  1.06863E+02  1.06684E+02  1.07703E+02  1.04736E+02  1.03960E+02  1.00220E+02  1.01105E+02  1.00318E+02
   9.69802E+01  1.10865E+02  9.93138E+01  1.00277E+02  9.98861E+01  9.97022E+01  9.78157E+01  9.86134E+01  1.00332E+02  9.73559E+01
   9.64085E+01  9.93691E+01  8.81827E+01  1.03684E+02  8.62935E+01  9.85404E+01  9.30038E+01  9.63274E+01  9.79494E+01  8.85266E+01
   9.54128E+01  9.39975E+01  9.01874E+01  8.67600E+01  8.87322E+01  8.51111E+01  8.93008E+01  8.91796E+01  8.70164E+01  9.49295E+01
   8.86105E+01  9.00030E+01  9.17872E+01  8.73498E+01  8.28910E+01  9.06307E+01  8.80945E+01  8.52880E+01  7.99748E+01  8.81709E+01
   8.11526E+01  8.55200E+01  8.88927E+01  8.89835E+01  8.20044E+01  8.38440E+01  7.92903E+01  8.11461E+01  8.51543E+01  8.29793E+01
   7.79122E+01  8.26172E+01  8.11249E+01  9.12349E+01  8.08487E+01  7.84729E+01  8.37317E+01  8.52960E+01  8.09291E+01  7.64279E+01
   8.49441E+01  7.90774E+01  8.76000E+01  8.49482E+01  8.33789E+01  8.37394E+01  7.62692E+01  7.99668E+01  7.83846E+01  8.11646E+01
   7.24042E+01  7.51223E+01  8.48855E+01  7.46539E+01  8.03046E+01  7.93783E+01  8.16965E+01  7.85964E+01  8.42102E+01  8.39844E+01
   7.78736E+01  6.85703E+01  7.79080E+01  7.14002E+01  6.49002E+01  6.70417E+01  7.95260E+01  7.82858E+01  7.62645E+01  8.37068E+01
   7.87020E+01  6.64682E+01  7.11801E+01  6.89349E+01  6.34194E+01  6.50340E+01  6.53536E+01  6.33664E+01  5.91049E+01  6.80457E+01
   5.90208E+01  6.31254E+01  6.33962E+01  6.53457E+01  5.70615E+01  6.30149E+01  5.54339E+01  6.59595E+01  5.88233E+01  6.38372E+01
   6.49650E+01  6.31417E+01  6.13034E+01  6.97393E+01  5.53725E+01  6.77798E+01  5.61405E+01  6.02775E+01  7.14817E+01  7.70100E+01
   7.09259E+01  7.46330E+01  7.59000E+01  7.73506E+01  7.33193E+01  6.96418E+01  6.50241E+01  6.53017E+01  6.84949E+01  6.29504E+01
   6.33219E+01  6.06300E+01  6.20219E+01  6.20917E+01  6.17884E+01  5.68442E+01  6.31802E+01  6.31673E+01  5.86970E+01  5.54109E+01
   7.31387E+01  4.78129E+01  5.38486E+01  5.70350E+01  6.46541E+01  5.48359E+01  6.23073E+01  5.72882E+01  6.04268E+01  5.42491E+01
   5.15793E+01  6.23145E+01  6.32086E+01  6.10453E+01  6.10924E+01  5.53302E+01  6.49612E+01  5.95826E+01  6.27874E+01  5.85268E+01
   6.09681E+01  6.21758E+01  6.89914E+01  6.45989E+01  6.50069E+01  5.68952E+01  6.33142E+01  6.25405E+01  7.24596E+01  6.28870E+01
   6.81108E+01  6.05158E+01  5.77741E+01  6.31482E+01  6.66563E+01  6.75378E+01  6.99234E+01  6.40915E+01  6.30256E+01  6.31320E+01
   5.72249E+01  5.82706E+01  5.74261E+01  4.29566E+01  5.16065E+01  4.51164E+01  4.47965E+01  4.09888E+01  4.57739E+01  4.57085E+01
   3.87435E+01  4.00483E+01  4.24788E+01  4.29429E+01  4.13966E+01  4.71109E+01  4.10007E+01  4.78107E+01  3.80254E+01  3.73151E+01
   3.94341E+01  3.71530E+01  3.80721E+01  3.31434E+01  3.30994E+01  3.08195E+01  3.30996E+01  3.56336E+01  3.34841E+01  3.58596E+01
   3.14896E+01  2.60547E+01  3.90790E+01  3.03417E+01  2.67779E+01  3.11964E+01  3.89789E+01  4.27431E+01  3.12061E+01  4.17582E+01
   3.38711E+01  3.83301E+01  3.77115E+01  3.47277E+01  3.23702E+01  3.68263E+01  3.51219E+01  3.59739E+01  2.80012E+01  2.92969E+01
   2.98123E+01  3.17774E+01  3.92301E+01  2.95069E+01  3.21883E+01  3.69481E+01  3.53662E+01  3.90173E+01  3.23253E+01  3.01780E+01
   4.29405E+01  4.15782E+01  4.03123E+01  3.92939E+01  4.49809E+01  4.32695E+01  4.40267E+01  4.10911E+01  3.23130E+01  4.03698E+01
   4.38794E+01  4.47013E+01  4.52364E+01  3.97249E+01  3.98597E+01  4.26731E+01  4.18804E+01  4.27180E+01  4.20526E+01  4.27191E+01
   4.68815E+01  4.91160E+01  4.65313E+01  4.75568E+01  3.82435E+01  4.28248E+01  4.32132E+01  3.10334E+01  3.74349E+01  4.32204E+01
   4.43090E+01  4.18247E+01  4.45744E+01  3.84443E+01  3.12013E+01  4.35207E+01  4.57430E+01  3.75754E+01  4.19707E+01  3.10876E+01
   3.86084E+01  3.41905E+01  4.82671E+01  4.19341E+01  4.27399E+01  3.22928E+01  3.39217E+01  4.18905E+01  4.04544E+01  3.89445E+01
   3.66250E+01  3.77255E+01  3.42110E+01  2.90717E+01  3.45767E+01  3.93596E+01  3.93097E+01  3.32280E+01  3.66366E+01  3.11437E+01
   3.50692E+01  3.33568E+01  3.76487E+01  3.46409E+01  3.58306E+01  3.04620E+01  3.46893E+01  3.88970E+01  3.46616E+01  3.77259E+01
   3.55097E+01  3.35632E+01  3.83780E+01  3.85250E+01  3.44048E+01  3.28220E+01  3.68316E+01  3.47009E+01  3.61394E+01  3.31408E+01
   2.58172E+01  3.67679E+01  2.73763E+01  3.50038E+01  3.42534E+01  3.00371E+01  3.25302E+01  3.83369E+01  3.69201E+01  2.91964E+01
   3.80865E+01  3.12628E+01  2.99950E+01  3.03607E+01  3.73497E+01  3.17453E+01  3.59130E+01  3.71320E+01  3.33487E+01  2.79278E+01
   3.57695E+01  3.08524E+01  2.63582E+01  2.83256E+01  3.71049E+01  3.45426E+01  2.86449E+01  3.24270E+01  3.76930E+01  3.27576E+01
   2.21940E+01  3.15757E+01  3.11268E+01  3.21332E+01  3.45477E+01  2.48707E+01  2.97623E+01  3.27686E+01
 NY points of the fit to the data follow
   2.38679E+02  2.37040E+02  2.35480E+02  2.34008E+02  2.32605E+02  2.31434E+02  2.31099E+02  2.31820E+02  2.32899E+02  2.33459E+02
   2.33146E+02  2.31987E+02  2.29915E+02  2.26722E+02  2.22807E+02  2.19098E+02  2.15988E+02  2.13550E+02  2.11742E+02  2.10141E+02
   2.08613E+02  2.07158E+02  2.05794E+02  2.04479E+02  2.03063E+02  2.01403E+02  1.99492E+02  1.97456E+02  1.95531E+02  1.93994E+02
   1.92984E+02  1.92407E+02  1.92000E+02  1.91428E+02  1.90417E+02  1.88830E+02  1.86722E+02  1.84444E+02  1.82315E+02  1.80522E+02
   1.79185E+02  1.78191E+02  1.77334E+02  1.76443E+02  1.75495E+02  1.74561E+02  1.73608E+02  1.72569E+02  1.71438E+02  1.70178E+02
   1.68746E+02  1.67144E+02  1.65437E+02  1.63751E+02  1.62195E+02  1.60804E+02  1.59583E+02  1.58504E+02  1.57521E+02  1.56563E+02
   1.55574E+02  1.54527E+02  1.53412E+02  1.52227E+02  1.50989E+02  1.49749E+02  1.48552E+02  1.47432E+02  1.46405E+02  1.45462E+02
   1.44576E+02  1.43698E+02  1.42807E+02  1.41910E+02  1.41003E+02  1.40071E+02  1.39095E+02  1.38092E+02  1.37086E+02  1.36085E+02
   1.35109E+02  1.34170E+02  1.33283E+02  1.32464E+02  1.31681E+02  1.30861E+02  1.29967E+02  1.29027E+02  1.28086E+02  1.27168E+02
   1.26285E+02  1.25471E+02  1.24754E+02  1.24116E+02  1.23525E+02  1.22936E+02  1.22328E+02  1.21688E+02  1.21083E+02  1.21137E+02
   1.22430E+02  1.24519E+02  1.26367E+02  1.27375E+02  1.27505E+02  1.26752E+02  1.24797E+02  1.21718E+02  1.18512E+02  1.15931E+02
   1.14081E+02  1.13040E+02  1.12355E+02  1.11755E+02  1.11193E+02  1.10652E+02  1.10126E+02  1.09607E+02  1.09099E+02  1.08609E+02
   1.08147E+02  1.07719E+02  1.07292E+02  1.07283E+02  1.08697E+02  1.11716E+02  1.15149E+02  1.17726E+02  1.19027E+02  1.19102E+02
   1.17724E+02  1.14553E+02  1.10370E+02  1.06616E+02  1.03829E+02  1.02136E+02  1.01329E+02  1.00788E+02  1.00334E+02  9.99134E+01
   9.95012E+01  9.90970E+01  9.87103E+01  9.83420E+01  9.79870E+01  9.76356E+01  9.72852E+01  9.69358E+01  9.65809E+01  9.62155E+01
   9.58388E+01  9.54630E+01  9.51025E+01  9.47573E+01  9.44249E+01  9.41004E+01  9.37764E+01  9.34306E+01  9.30337E+01  9.25915E+01
   9.21449E+01  9.17452E+01  9.14176E+01  9.11447E+01  9.09037E+01  9.06849E+01  9.04596E+01  9.01924E+01  8.98629E+01  8.94704E+01
   8.90616E+01  8.86741E+01  8.82972E+01  8.79075E+01  8.74999E+01  8.71190E+01  8.68029E+01  8.65272E+01  8.62417E+01  8.59425E+01
   8.56697E+01  8.54278E+01  8.51780E+01  8.48930E+01  8.45721E+01  8.42645E+01  8.40242E+01  8.38325E+01  8.36543E+01  8.34618E+01
   8.32521E+01  8.30252E+01  8.27395E+01  8.23758E+01  8.19636E+01  8.15297E+01  8.11008E+01  8.07347E+01  8.04977E+01  8.04296E+01
   8.05118E+01  8.06907E+01  8.09301E+01  8.11502E+01  8.11681E+01  8.08424E+01  8.00193E+01  7.86533E+01  7.69985E+01  7.54565E+01
   7.43183E+01  7.37313E+01  7.38818E+01  7.49178E+01  7.65225E+01  7.79373E+01  7.87049E+01  7.87644E+01  7.79783E+01  7.62713E+01
   7.39140E+01  7.16568E+01  7.01365E+01  6.94576E+01  6.95492E+01  7.02168E+01  7.12746E+01  7.23682E+01  7.30575E+01  7.31927E+01
   7.28881E+01  7.23265E+01  7.16402E+01  7.08904E+01  7.01712E+01  6.96572E+01  6.93847E+01  6.92874E+01  6.93168E+01  6.93677E+01
   6.92813E+01  6.89687E+01  6.84680E+01  6.78326E+01  6.70949E+01  6.63903E+01  6.58685E+01  6.55531E+01  6.53057E+01  6.50957E+01
   6.49764E+01  6.49131E+01  6.48933E+01  6.49072E+01  6.49107E+01  6.47656E+01  6.47456E+01  6.58468E+01  6.84950E+01  7.17494E+01
   7.44066E+01  7.60331E+01  7.66378E+01  7.59465E+01  7.34843E+01  6.98137E+01  6.63087E+01  6.35866E+01  6.18066E+01  6.09170E+01
   6.03450E+01  5.99044E+01  5.95720E+01  5.93175E+01  5.91090E+01  5.89362E+01  5.87683E+01  5.85604E+01  5.82871E+01  5.79634E+01
   5.76145E+01  5.72664E+01  5.69427E+01  5.66556E+01  5.64126E+01  5.62141E+01  5.60538E+01  5.59311E+01  5.58490E+01  5.58104E+01
   5.58239E+01  5.59006E+01  5.60514E+01  5.62853E+01  5.66096E+01  5.70298E+01  5.75471E+01  5.81585E+01  5.88572E+01  5.96304E+01
   6.04599E+01  6.13230E+01  6.21919E+01  6.30352E+01  6.38192E+01  6.45095E+01  6.50729E+01  6.54787E+01  6.57013E+01  6.57219E+01
   6.55287E+01  6.51186E+01  6.44969E+01  6.36766E+01  6.26785E+01  6.15288E+01  6.02583E+01  5.89002E+01  5.74885E+01  5.60559E+01
   5.46325E+01  5.32445E+01  5.19135E+01  5.06561E+01  4.94838E+01  4.84032E+01  4.74167E+01  4.65229E+01  4.57178E+01  4.49951E+01
   4.43474E+01  4.37664E+01  4.32439E+01  4.27717E+01  4.23424E+01  4.19493E+01  4.15867E+01  4.12494E+01  4.09334E+01  4.06354E+01
   4.03527E+01  4.00832E+01  3.98255E+01  3.95782E+01  3.93405E+01  3.91117E+01  3.88916E+01  3.86797E+01  3.84759E+01  3.82799E+01
   3.80919E+01  3.79116E+01  3.77391E+01  3.75744E+01  3.74174E+01  3.72680E+01  3.71262E+01  3.69920E+01  3.68655E+01  3.67465E+01
   3.66351E+01  3.65313E+01  3.64353E+01  3.63470E+01  3.62664E+01  3.61934E+01  3.61280E+01  3.60704E+01  3.60211E+01  3.59804E+01
   3.59489E+01  3.59273E+01  3.59165E+01  3.59177E+01  3.59322E+01  3.59614E+01  3.60069E+01  3.60707E+01  3.61547E+01  3.62612E+01
   3.63924E+01  3.65505E+01  3.67378E+01  3.69560E+01  3.72069E+01  3.74914E+01  3.78097E+01  3.81610E+01  3.85436E+01  3.89541E+01
   3.93880E+01  3.98392E+01  4.03002E+01  4.07621E+01  4.12151E+01  4.16486E+01  4.20517E+01  4.24136E+01  4.27243E+01  4.29748E+01
   4.31580E+01  4.32686E+01  4.33038E+01  4.32632E+01  4.31490E+01  4.29654E+01  4.27189E+01  4.24178E+01  4.20715E+01  4.16901E+01
   4.12840E+01  4.08636E+01  4.04381E+01  4.00162E+01  3.96050E+01  3.92104E+01  3.88369E+01  3.84875E+01  3.81641E+01  3.78674E+01
   3.75973E+01  3.73527E+01  3.71322E+01  3.69340E+01  3.67561E+01  3.65963E+01  3.64525E+01  3.63227E+01  3.62049E+01  3.60974E+01
   3.59986E+01  3.59073E+01  3.58222E+01  3.57421E+01  3.56664E+01  3.55941E+01  3.55246E+01  3.54575E+01  3.53922E+01  3.53283E+01
   3.52655E+01  3.52035E+01  3.51421E+01  3.50811E+01  3.50203E+01  3.49595E+01  3.48986E+01  3.48375E+01  3.47761E+01  3.47142E+01
   3.46520E+01  3.45891E+01  3.45257E+01  3.44616E+01  3.43969E+01  3.43315E+01  3.42654E+01  3.41986E+01  3.41312E+01  3.40630E+01
   3.39942E+01  3.39246E+01  3.38544E+01  3.37835E+01  3.37119E+01  3.36398E+01  3.35670E+01  3.34935E+01  3.34195E+01  3.33449E+01
   3.32698E+01  3.31942E+01  3.31180E+01  3.30413E+01  3.29642E+01  3.28867E+01  3.28087E+01  3.27304E+01  3.26516E+01  3.25726E+01
   3.24932E+01  3.24136E+01  3.23336E+01  3.22535E+01  3.21731E+01  3.20926E+01  3.20119E+01  3.19311E+01  3.18502E+01  3.17693E+01
   3.16883E+01  3.16073E+01  3.15263E+01  3.14454E+01  3.13645E+01  3.12838E+01  3.12032E+01  3.11227E+01
 NY background values follow
     2.377E+02    2.362E+02    2.347E+02    2.331E+02    2.316E+02    2.301E+02    2.285E+02    2.270E+02    2.255E+02    2.240E+02
     2.224E+02    2.209E+02    2.194E+02    2.179E+02    2.164E+02    2.149E+02    2.134E+02    2.119E+02    2.104E+02    2.089E+02
     2.074E+02    2.059E+02    2.045E+02    2.030E+02    2.015E+02    2.001E+02    1.986E+02    1.972E+02    1.957E+02    1.943E+02
     1.929E+02    1.915E+02    1.900E+02    1.886E+02    1.873E+02    1.859E+02    1.845E+02    1.831E+02    1.818E+02    1.804E+02
     1.791E+02    1.777E+02    1.764E+02    1.751E+02    1.738E+02    1.725E+02    1.712E+02    1.700E+02    1.687E+02    1.675E+02
     1.663E+02    1.650E+02    1.638E+02    1.626E+02    1.614E+02    1.603E+02    1.591E+02    1.579E+02    1.568E+02    1.557E+02
     1.545E+02    1.534E+02    1.523E+02    1.512E+02    1.502E+02    1.491E+02    1.481E+02    1.470E+02    1.460E+02    1.450E+02
     1.440E+02    1.430E+02    1.420E+02    1.410E+02    1.401E+02    1.391E+02    1.382E+02    1.372E+02    1.363E+02    1.354E+02
     1.345E+02    1.337E+02    1.328E+02    1.319E+02    1.311E+02    1.303E+02    1.295E+02    1.286E+02    1.279E+02    1.271E+02
     1.263E+02    1.255E+02    1.248E+02    1.241E+02    1.233E+02    1.226E+02    1.219E+02    1.212E+02    1.205E+02    1.199E+02
     1.192E+02    1.186E+02    1.179E+02    1.173E+02    1.167E+02    1.161E+02    1.155E+02    1.149E+02    1.143E+02    1.137E+02
     1.132E+02    1.126E+02    1.121E+02    1.115E+02    1.110E+02    1.105E+02    1.100E+02    1.094E+02    1.089E+02    1.085E+02
     1.080E+02    1.075E+02    1.070E+02    1.066E+02    1.061E+02    1.056E+02    1.052E+02    1.048E+02    1.043E+02    1.039E+02
     1.035E+02    1.030E+02    1.026E+02    1.022E+02    1.018E+02    1.014E+02    1.010E+02    1.006E+02    1.002E+02    9.987E+01
     9.949E+01    9.911E+01    9.874E+01    9.837E+01    9.801E+01    9.765E+01    9.729E+01    9.694E+01    9.659E+01    9.624E+01
     9.589E+01    9.555E+01    9.521E+01    9.488E+01    9.454E+01    9.421E+01    9.388E+01    9.355E+01    9.323E+01    9.290E+01
     9.258E+01    9.226E+01    9.194E+01    9.163E+01    9.131E+01    9.100E+01    9.069E+01    9.037E+01    9.006E+01    8.976E+01
     8.945E+01    8.914E+01    8.883E+01    8.853E+01    8.822E+01    8.792E+01    8.761E+01    8.731E+01    8.700E+01    8.670E+01
     8.639E+01    8.608E+01    8.578E+01    8.547E+01    8.517E+01    8.486E+01    8.455E+01    8.425E+01    8.394E+01    8.363E+01
     8.332E+01    8.302E+01    8.271E+01    8.240E+01    8.209E+01    8.179E+01    8.148E+01    8.117E+01    8.086E+01    8.056E+01
     8.025E+01    7.994E+01    7.964E+01    7.933E+01    7.902E+01    7.872E+01    7.841E+01    7.811E+01    7.780E+01    7.750E+01
     7.719E+01    7.689E+01    7.659E+01    7.628E+01    7.598E+01    7.568E+01    7.538E+01    7.508E+01    7.478E+01    7.448E+01
     7.418E+01    7.388E+01    7.358E+01    7.329E+01    7.299E+01    7.270E+01    7.240E+01    7.211E+01    7.182E+01    7.152E+01
     7.123E+01    7.094E+01    7.065E+01    7.036E+01    7.008E+01    6.979E+01    6.950E+01    6.921E+01    6.893E+01    6.864E+01
     6.836E+01    6.807E+01    6.779E+01    6.750E+01    6.722E+01    6.693E+01    6.665E+01    6.637E+01    6.608E+01    6.580E+01
     6.552E+01    6.523E+01    6.495E+01    6.467E+01    6.438E+01    6.410E+01    6.381E+01    6.353E+01    6.325E+01    6.296E+01
     6.268E+01    6.239E+01    6.211E+01    6.182E+01    6.154E+01    6.125E+01    6.096E+01    6.068E+01    6.039E+01    6.010E+01
     5.981E+01    5.952E+01    5.923E+01    5.894E+01    5.865E+01    5.835E+01    5.806E+01    5.777E+01    5.747E+01    5.718E+01
     5.688E+01    5.659E+01    5.629E+01    5.600E+01    5.570E+01    5.540E+01    5.510E+01    5.481E+01    5.451E+01    5.421E+01
     5.391E+01    5.361E+01    5.331E+01    5.302E+01    5.272E+01    5.242E+01    5.212E+01    5.182E+01    5.152E+01    5.122E+01
     5.092E+01    5.062E+01    5.032E+01    5.003E+01    4.973E+01    4.943E+01    4.913E+01    4.883E+01    4.854E+01    4.824E+01
     4.794E+01    4.764E+01    4.735E+01    4.705E+01    4.676E+01    4.646E+01    4.617E+01    4.587E+01    4.558E+01    4.529E+01
     4.499E+01    4.470E+01    4.441E+01    4.413E+01    4.384E+01    4.355E+01    4.327E+01    4.299E+01    4.271E+01    4.243E+01
     4.216E+01    4.189E+01    4.162E+01    4.135E+01    4.109E+01    4.083E+01    4.058E+01    4.032E+01    4.007E+01    3.983E+01
     3.959E+01    3.935E+01    3.912E+01    3.889E+01    3.867E+01    3.845E+01    3.823E+01    3.802E+01    3.782E+01    3.762E+01
     3.743E+01    3.724E+01    3.706E+01    3.689E+01    3.672E+01    3.655E+01    3.640E+01    3.625E+01    3.611E+01    3.597E+01
     3.584E+01    3.572E+01    3.561E+01    3.550E+01    3.540E+01    3.531E+01    3.522E+01    3.514E+01    3.507E+01    3.500E+01
     3.494E+01    3.488E+01    3.483E+01    3.479E+01    3.475E+01    3.471E+01    3.468E+01    3.466E+01    3.464E+01    3.462E+01
     3.461E+01    3.460E+01    3.459E+01    3.459E+01    3.459E+01    3.459E+01    3.460E+01    3.461E+01    3.462E+01    3.463E+01
     3.464E+01    3.466E+01    3.468E+01    3.470E+01    3.472E+01    3.474E+01    3.476E+01    3.478E+01    3.481E+01    3.483E+01
     3.485E+01    3.487E+01    3.489E+01    3.492E+01    3.494E+01    3.495E+01    3.497E+01    3.499E+01    3.500E+01    3.501E+01
     3.503E+01    3.503E+01    3.504E+01    3.505E+01    3.505E+01    3.505E+01    3.506E+01    3.506E+01    3.505E+01    3.505E+01
     3.504E+01    3.504E+01    3.503E+01    3.502E+01    3.501E+01    3.499E+01    3.498E+01    3.496E+01    3.495E+01    3.493E+01
     3.491E+01    3.488E+01    3.486E+01    3.483E+01    3.481E+01    3.478E+01    3.475E+01    3.472E+01    3.469E+01    3.465E+01
     3.462E+01    3.458E+01    3.454E+01    3.451E+01    3.446E+01    3.442E+01    3.438E+01    3.433E+01    3.429E+01    3.424E+01
     3.419E+01    3.414E+01    3.409E+01    3.404E+01    3.398E+01    3.393E+01    3.387E+01    3.381E+01    3.376E+01    3.370E+01
     3.363E+01    3.357E+01    3.351E+01    3.345E+01    3.338E+01    3.331E+01    3.325E+01    3.318E+01    3.311E+01    3.304E+01
     3.297E+01    3.290E+01    3.283E+01    3.276E+01    3.269E+01    3.261E+01    3.254E+01    3.247E+01    3.239E+01    3.232E+01
     3.224E+01    3.216E+01    3.209E+01    3.201E+01    3.193E+01    3.186E+01    3.178E+01    3.170E+01    3.162E+01    3.154E+01
     3.147E+01    3.139E+01    3.131E+01    3.123E+01    3.115E+01    3.108E+01    3.100E+01    3.092E+01
 Asp      Conc. = 5.41E+01
