 LCModel (Version 6.3-1L) Copyright: S.W. Provencher.          Ref.: Magn. Reson. Med. 30:672-679 (1993).                
 Slice#1 Row#9 Col#4  PD_05_press_2_raw_act
 36 lines in following concentration table = NCONC+1
    Conc.  %SD /Cr+PCr  Metabolite                                         
  484.418  46%   0.195 Ala                                                 
    0.000 999%   0.000 Asp                                                 
  375.238 115%   0.151 Cr                                                  
 2.11E+03  22%   0.849 PCr                                                 
    0.000 999%   0.000 GABA                                                
    0.000 999%   0.000 Glc                                                 
 1.32E+03  34%   0.530 Gln                                                 
 3.49E+03  14%   1.404 Glu                                                 
  684.513   6%   0.275 GPC                                                 
    0.000 999%   0.000 PCh                                                 
  762.463  19%   0.306 GSH                                                 
 1.03E+03  47%   0.416 Ins                                                 
  183.199 127% 7.4E-02 Lac                                                 
 5.37E+03   5%   2.157 NAA                                                 
  365.303  77%   0.147 NAAG                                                
  130.188  39% 5.2E-02 Scyllo                                              
    0.000 999%   0.000 Tau                                                 
  610.411  35%   0.245 -CrCH2                                              
  684.513   6%   0.275 GPC+PCh                                             
 5.73E+03   3%   2.304 NAA+NAAG                                            
 2.49E+03   5%   1.000 Cr+PCr                                              
 4.81E+03  15%   1.934 Glu+Gln                                             
 1.05E+03  72%   0.422 Lip13a                                              
    0.000 999%   0.000 Lip13b                                              
  122.409 196% 4.9E-02 Lip09                                               
 2.84E+03  15%   1.141 MM09                                                
  177.774  81% 7.1E-02 Lip20                                               
 5.83E+03  12%   2.343 MM20                                                
  876.841  28%   0.352 MM12                                                
 5.22E+03  14%   2.098+MM14                                                
 3.37E+03  15%   1.356+MM17                                                
 1.05E+03  72%   0.422 Lip13a+Lip13b                                       
 7.15E+03  12%   2.873 MM14+Lip13a+Lip13b+MM12                             
 2.96E+03  14%   1.190 MM09+Lip09                                          
 6.01E+03  12%   2.415 MM20+Lip20                                          
   6 lines in following misc. output table
  FWHM = 0.046 ppm    S/N =  15                                            
  Data shift = 0.023 ppm                                                   
  Ph: -22 deg      -6.9 deg/ppm                                            
  alphaB,S = 5.3E-01,   1.5E+02                                            
   14 spline knots.   Ns = 7(1)                                            
  (10) 4 infls.   ( 9) 1 extrs.                                            
  498 points on ppm-axis = NY
      4.000000     3.992357     3.984714     3.977070     3.969427     3.961784     3.954141     3.946497     3.938854     3.931211
      3.923568     3.915925     3.908281     3.900638     3.892995     3.885352     3.877708     3.870065     3.862422     3.854779
      3.847136     3.839492     3.831849     3.824206     3.816563     3.808919     3.801276     3.793633     3.785990     3.778347
      3.770703     3.763060     3.755417     3.747774     3.740130     3.732487     3.724844     3.717201     3.709558     3.701914
      3.694271     3.686628     3.678985     3.671341     3.663698     3.656055     3.648412     3.640769     3.633125     3.625482
      3.617839     3.610196     3.602552     3.594909     3.587266     3.579623     3.571980     3.564336     3.556693     3.549050
      3.541407     3.533763     3.526120     3.518477     3.510834     3.503191     3.495547     3.487904     3.480261     3.472618
      3.464974     3.457331     3.449688     3.442045     3.434402     3.426758     3.419115     3.411472     3.403829     3.396185
      3.388542     3.380899     3.373256     3.365613     3.357969     3.350326     3.342683     3.335040     3.327396     3.319753
      3.312110     3.304467     3.296824     3.289180     3.281537     3.273894     3.266251     3.258607     3.250964     3.243321
      3.235678     3.228034     3.220391     3.212748     3.205105     3.197462     3.189818     3.182175     3.174532     3.166889
      3.159245     3.151602     3.143959     3.136316     3.128673     3.121029     3.113386     3.105743     3.098100     3.090456
      3.082813     3.075170     3.067527     3.059884     3.052240     3.044597     3.036954     3.029311     3.021667     3.014024
      3.006381     2.998738     2.991095     2.983451     2.975808     2.968165     2.960522     2.952878     2.945235     2.937592
      2.929949     2.922306     2.914662     2.907019     2.899376     2.891733     2.884089     2.876446     2.868803     2.861160
      2.853517     2.845873     2.838230     2.830587     2.822944     2.815300     2.807657     2.800014     2.792371     2.784728
      2.777084     2.769441     2.761798     2.754155     2.746511     2.738868     2.731225     2.723582     2.715939     2.708295
      2.700652     2.693009     2.685366     2.677722     2.670079     2.662436     2.654793     2.647150     2.639506     2.631863
      2.624220     2.616577     2.608933     2.601290     2.593647     2.586004     2.578361     2.570717     2.563074     2.555431
      2.547788     2.540144     2.532501     2.524858     2.517215     2.509572     2.501928     2.494285     2.486642     2.478999
      2.471355     2.463712     2.456069     2.448426     2.440783     2.433139     2.425496     2.417853     2.410210     2.402566
      2.394923     2.387280     2.379637     2.371994     2.364350     2.356707     2.349064     2.341421     2.333777     2.326134
      2.318491     2.310848     2.303205     2.295561     2.287918     2.280275     2.272632     2.264988     2.257345     2.249702
      2.242059     2.234416     2.226772     2.219129     2.211486     2.203843     2.196199     2.188556     2.180913     2.173270
      2.165627     2.157983     2.150340     2.142697     2.135054     2.127410     2.119767     2.112124     2.104481     2.096838
      2.089194     2.081551     2.073908     2.066265     2.058621     2.050978     2.043335     2.035692     2.028049     2.020405
      2.012762     2.005119     1.997476     1.989833     1.982190     1.974546     1.966903     1.959260     1.951617     1.943974
      1.936331     1.928688     1.921045     1.913402     1.905759     1.898115     1.890472     1.882829     1.875186     1.867543
      1.859900     1.852257     1.844614     1.836971     1.829327     1.821684     1.814041     1.806398     1.798755     1.791112
      1.783469     1.775826     1.768183     1.760540     1.752896     1.745253     1.737610     1.729967     1.722324     1.714681
      1.707038     1.699395     1.691752     1.684108     1.676465     1.668822     1.661179     1.653536     1.645893     1.638250
      1.630607     1.622964     1.615321     1.607677     1.600034     1.592391     1.584748     1.577105     1.569462     1.561819
      1.554176     1.546533     1.538890     1.531246     1.523603     1.515960     1.508317     1.500674     1.493031     1.485388
      1.477745     1.470102     1.462458     1.454815     1.447172     1.439529     1.431886     1.424243     1.416600     1.408957
      1.401314     1.393671     1.386027     1.378384     1.370741     1.363098     1.355455     1.347812     1.340169     1.332526
      1.324883     1.317240     1.309596     1.301953     1.294310     1.286667     1.279024     1.271381     1.263738     1.256095
      1.248452     1.240808     1.233165     1.225522     1.217879     1.210236     1.202593     1.194950     1.187307     1.179664
      1.172021     1.164377     1.156734     1.149091     1.141448     1.133805     1.126162     1.118519     1.110876     1.103233
      1.095590     1.087946     1.080303     1.072660     1.065017     1.057374     1.049731     1.042088     1.034445     1.026802
      1.019158     1.011515     1.003872     0.996229     0.988586     0.980943     0.973300     0.965657     0.958014     0.950371
      0.942727     0.935084     0.927441     0.919798     0.912155     0.904512     0.896869     0.889226     0.881583     0.873940
      0.866296     0.858653     0.851010     0.843367     0.835724     0.828081     0.820438     0.812795     0.805152     0.797508
      0.789865     0.782222     0.774579     0.766936     0.759293     0.751650     0.744007     0.736364     0.728721     0.721077
      0.713434     0.705791     0.698148     0.690505     0.682862     0.675219     0.667576     0.659933     0.652290     0.644646
      0.637003     0.629360     0.621717     0.614074     0.606431     0.598788     0.591145     0.583502     0.575858     0.568215
      0.560572     0.552929     0.545286     0.537643     0.530000     0.522357     0.514714     0.507071     0.499427     0.491784
      0.484141     0.476498     0.468855     0.461212     0.453569     0.445925     0.438282     0.430639     0.422996     0.415353
      0.407710     0.400067     0.392424     0.384780     0.377137     0.369494     0.361851     0.354208     0.346565     0.338922
      0.331278     0.323635     0.315992     0.308349     0.300706     0.293063     0.285420     0.277777     0.270133     0.262490
      0.254847     0.247204     0.239561     0.231918     0.224275     0.216631     0.208988     0.201345
 NY phased data points follow
   3.07813E+01  2.82109E+01  3.26420E+01  3.60321E+01  4.05921E+01  4.65481E+01  5.26917E+01  5.57673E+01  5.73908E+01  6.38686E+01
   6.05268E+01  7.10451E+01  5.95192E+01  5.07836E+01  4.53203E+01  3.61763E+01  3.56940E+01  3.58851E+01  3.19884E+01  2.32908E+01
   2.90519E+01  3.32401E+01  2.72211E+01  2.97832E+01  2.92860E+01  2.75141E+01  2.62801E+01  2.72092E+01  4.27229E+01  4.24449E+01
   3.62129E+01  4.55807E+01  3.04876E+01  3.64805E+01  3.06224E+01  2.83945E+01  2.94824E+01  2.46821E+01  2.59987E+01  3.16480E+01
   3.00071E+01  2.24468E+01  3.11656E+01  2.02620E+01  3.53259E+01  3.89033E+01  3.60795E+01  3.68560E+01  3.25883E+01  2.98291E+01
   3.60431E+01  2.64799E+01  2.21349E+01  2.55650E+01  2.75336E+01  1.91482E+01  2.53151E+01  2.57738E+01  2.63245E+01  2.58213E+01
   1.92212E+01  9.95824E+00  1.27708E+01  1.59228E+01  7.64870E+00  5.23669E+00  1.20436E+01  1.36511E+01  1.28680E+01  1.18700E+01
   6.45564E+00  8.76640E+00  1.34907E+01  1.28582E+01  8.22666E+00  2.08280E+01  1.29769E+01  9.26460E+00  9.44481E+00  1.63880E+01
   1.04616E+00  1.62572E+01  1.54182E+01  1.87821E+01  1.53967E+01  1.83123E+01  1.67224E+01  1.37866E+01  1.86930E+01  1.71370E+01
   1.62725E+01  1.34917E+01  1.67845E+01  1.88445E+01  2.24873E+01  2.20515E+01  2.57876E+01  2.20920E+01  2.72953E+01  3.78674E+01
   4.71439E+01  6.67141E+01  7.00610E+01  7.49339E+01  7.08025E+01  5.38580E+01  5.20781E+01  3.76641E+01  3.36575E+01  2.81118E+01
   1.88083E+01  1.95117E+01  1.44334E+01  1.37676E+01  1.55275E+01  2.16652E+01  1.61470E+01  2.35801E+01  1.85475E+01  2.12552E+01
   1.39412E+01  2.56759E+01  3.98578E+01  4.47692E+01  5.48355E+01  8.19623E+01  9.00965E+01  9.64183E+01  9.41373E+01  7.38255E+01
   6.23855E+01  4.11607E+01  4.12842E+01  3.23663E+01  2.15304E+01  2.52357E+01  1.63337E+01  1.62714E+01  1.72823E+01  1.71185E+01
   1.74305E+01  1.10196E+01  1.07131E+01  1.85140E+01  6.05829E+00  8.14848E+00  9.73199E+00  6.43704E+00  1.46535E+01  1.27474E+01
   1.03754E+01  3.72132E+00  5.52697E+00  1.01823E+01  9.27912E+00  1.07824E+01  8.68254E+00  6.44295E+00  3.26790E+00  3.01289E-01
   7.68392E+00  1.28034E+01  3.60328E+00  1.21659E+01  2.74788E+00 -3.66787E+00  2.91690E+00 -1.05094E+01 -7.77278E+00 -4.14485E+00
  -4.04665E+00 -1.57027E+01 -6.10304E+00 -1.71564E+01 -2.16554E+01 -2.29790E+01 -3.09633E+01 -2.54430E+01 -2.06565E+01 -2.43705E+01
  -1.93999E+01 -1.56055E+01 -9.73335E+00 -3.22026E+00 -2.44412E+00 -8.07386E+00 -4.19739E+00 -5.54831E+00 -2.72287E+00 -4.01065E-01
  -5.46670E+00 -7.99760E+00  1.34362E-01 -1.52077E+00  1.21927E+00 -4.80347E+00 -1.34362E+01 -1.52785E+01 -1.61684E+01 -7.02409E+00
  -1.39446E+01 -4.98725E+00  4.01827E+00  6.86882E+00  1.53866E+01  9.87621E+00  4.11410E+00  4.40870E+00 -1.00453E+00 -2.86328E+00
  -1.44938E+00  8.89942E+00  7.42015E+00  2.38300E+01  2.62230E+01  3.22840E+01  3.34051E+01  2.40611E+01  1.56405E+01  3.63327E-01
   9.60143E-01 -8.24173E+00 -5.83625E+00  5.46941E+00  4.83174E+00  1.02029E+01  1.05786E+01  1.64264E+01  2.12648E+01  1.90174E+01
   1.57618E+01  1.35217E+01  2.40679E+01  1.90957E+01  2.12509E+01  1.56773E+01  1.91169E+01  1.99302E+01  1.23740E+01  1.59203E+01
   6.16797E+00  1.24935E+01  1.12502E+01  1.05573E+01  1.25550E+01  1.77110E+01  2.74070E+01  2.77541E+01  2.95836E+01  2.49277E+01
   2.92556E+01  4.00162E+01  4.59115E+01  4.91245E+01  6.97663E+01  8.70286E+01  1.00986E+02  1.26000E+02  1.76541E+02  2.07644E+02
   2.26439E+02  1.98076E+02  1.55279E+02  1.23604E+02  8.44589E+01  6.91880E+01  5.27778E+01  3.52953E+01  3.21168E+01  2.73213E+01
   1.65156E+01  1.77473E+01  2.12132E+01  1.07194E+01  7.78295E+00  1.05356E+01  6.80705E+00  8.69187E+00  2.03917E+00  1.05145E+01
   2.21021E+00  1.14823E+01  1.44681E+01  9.24368E+00  4.39940E+00  1.09108E+01  5.13935E+00  1.09512E+01  3.15576E+00  1.80646E+01
   1.30350E+01  9.69507E+00  3.93817E+00  6.15798E+00  6.56016E+00  1.17141E+01  1.11819E+01  1.00052E+01  1.74854E+01  1.38206E+01
   1.49872E+01  2.22843E+01  1.97546E+01  2.52387E+01  2.21190E+01  2.38626E+01  3.54607E+01  3.22083E+01  3.07748E+01  2.90592E+01
   3.51469E+01  4.58821E+01  4.06819E+01  3.75635E+01  3.67773E+01  3.96555E+01  3.53118E+01  4.23295E+01  3.72791E+01  3.64270E+01
   3.58932E+01  3.40738E+01  3.69017E+01  3.66193E+01  3.75258E+01  2.85298E+01  3.14326E+01  3.20246E+01  3.69699E+01  2.61702E+01
   2.57797E+01  2.84822E+01  2.33950E+01  1.94678E+01  2.55023E+01  1.95237E+01  2.74139E+01  1.67161E+01  2.01874E+01  2.97123E+01
   3.02583E+01  2.49641E+01  2.77601E+01  2.49220E+01  3.55366E+01  2.83205E+01  2.03073E+01  2.33058E+01  1.96421E+01  1.92786E+01
   1.12830E+01  1.55106E+01  1.18906E+01  1.18846E+01  9.18721E+00  7.02522E+00  1.02802E+01  3.32080E+00  2.53307E+00  9.72428E+00
   3.80570E+00  1.88275E+00  1.35557E+01  1.16659E+01  9.32797E+00  1.36053E+01  1.59609E+01  5.05199E+00  2.77722E+00  1.06963E+01
   7.13469E+00  5.72467E+00  4.40604E+00  1.02238E+01  8.29824E+00 -1.88713E+00  2.62802E-02 -3.40613E+00  4.00413E+00 -5.28858E+00
  -4.69121E+00 -2.15288E+00 -2.31253E+00 -5.35703E+00  1.82032E+00 -4.78291E+00 -1.35305E+01 -3.04374E+00 -4.61765E+00 -8.58373E+00
  -5.84836E-01 -7.22172E-01 -5.50997E+00  3.34810E+00  4.09844E+00  1.54288E+01  1.82178E+01  1.47690E+01  1.81484E+01  2.14993E+01
   1.07481E+01  1.65001E+01  1.50076E+01  1.48989E+01  1.58145E+01  1.08023E+01  2.07014E+01  1.58920E+01  1.28053E+01  1.19335E+01
   1.30142E+01  1.00184E+01  5.81586E+00  1.03698E+01  1.25146E+01  7.88210E+00  2.45634E+00  1.29452E+00  3.56853E+00 -2.19538E+00
  -1.24044E+00 -5.15700E+00 -8.17839E+00 -3.95165E+00 -1.17241E+00 -3.37879E+00 -6.15250E+00 -3.06940E+00 -6.79876E+00 -5.66378E+00
  -1.79855E+00 -1.13192E+00 -1.90717E+00 -3.51473E+00 -2.25825E+00 -9.44858E+00 -8.79126E+00 -4.70240E+00 -3.03639E+00 -1.85372E+00
   3.84484E+00 -3.00799E+00 -3.60240E+00  1.52934E+00 -2.27324E+00 -4.37274E+00 -1.20780E+01 -8.24741E+00 -5.30498E+00 -3.54398E+00
  -1.09688E+01 -2.20599E+00  4.50435E+00 -2.68671E+00  1.09584E+00 -8.39140E+00 -7.97330E+00  2.04543E+00 -5.11142E+00 -5.46297E+00
  -3.04694E+00  6.39396E+00 -2.06693E+00  2.04481E+00  2.59967E-02  4.07041E-02 -4.65069E-01 -2.72310E+00  3.48341E+00 -3.10869E+00
   4.22594E-01 -6.91097E+00  2.71145E+00 -3.28946E+00 -2.65652E+00 -3.62386E+00  3.90027E+00 -5.92970E+00  3.49626E-01 -5.38477E+00
  -2.82175E-01  1.39687E+00 -2.02600E+00 -5.18851E+00 -4.59945E-01 -4.48325E+00  1.71868E-01 -5.19153E+00 -6.36687E+00  7.07392E+00
   7.78408E+00 -4.46823E+00  2.57981E+00  1.63436E+00  1.89180E+00  5.01255E-01 -3.46922E+00  1.67628E+00
 NY points of the fit to the data follow
   2.64528E+01  2.65383E+01  2.80104E+01  3.09195E+01  3.49688E+01  4.05882E+01  4.79437E+01  5.61686E+01  6.32627E+01  6.70815E+01
   6.66318E+01  6.25593E+01  5.65728E+01  5.04516E+01  4.52346E+01  4.10276E+01  3.74283E+01  3.42995E+01  3.22051E+01  3.11060E+01
   3.04528E+01  2.98741E+01  2.93971E+01  2.93579E+01  2.93351E+01  2.93448E+01  3.00954E+01  3.23674E+01  3.60817E+01  4.01449E+01
   4.33013E+01  4.46432E+01  4.38426E+01  4.11290E+01  3.70926E+01  3.25566E+01  2.84658E+01  2.53937E+01  2.38073E+01  2.38399E+01
   2.46746E+01  2.57548E+01  2.67786E+01  2.78462E+01  2.91339E+01  3.04761E+01  3.14535E+01  3.15097E+01  3.04625E+01  2.86675E+01
   2.65420E+01  2.45045E+01  2.29174E+01  2.18053E+01  2.09932E+01  2.04427E+01  2.02127E+01  2.02765E+01  2.04501E+01  2.05188E+01
   2.02954E+01  1.97013E+01  1.88224E+01  1.78600E+01  1.70580E+01  1.65829E+01  1.64062E+01  1.63972E+01  1.64819E+01  1.66212E+01
   1.67510E+01  1.67957E+01  1.66792E+01  1.63948E+01  1.60024E+01  1.55767E+01  1.51872E+01  1.48598E+01  1.46166E+01  1.45889E+01
   1.48669E+01  1.53075E+01  1.59146E+01  1.68159E+01  1.79091E+01  1.87130E+01  1.87041E+01  1.77552E+01  1.62344E+01  1.47294E+01
   1.36386E+01  1.30152E+01  1.26846E+01  1.24384E+01  1.22654E+01  1.28792E+01  1.60515E+01  2.14425E+01  2.83714E+01  3.78000E+01
   5.04185E+01  6.40884E+01  7.40850E+01  7.63455E+01  7.03807E+01  5.93551E+01  4.74608E+01  3.74987E+01  3.01343E+01  2.44639E+01
   1.94331E+01  1.50956E+01  1.28174E+01  1.20672E+01  1.17428E+01  1.15845E+01  1.15256E+01  1.15817E+01  1.19025E+01  1.32458E+01
   1.76810E+01  2.50395E+01  3.43604E+01  4.65753E+01  6.24468E+01  7.94777E+01  9.20933E+01  9.53437E+01  8.84683E+01  7.52750E+01
   6.09076E+01  4.86485E+01  3.90667E+01  3.08915E+01  2.30314E+01  1.60282E+01  1.20739E+01  1.09282E+01  1.11189E+01  1.18663E+01
   1.25445E+01  1.27917E+01  1.26050E+01  1.21049E+01  1.14037E+01  1.06567E+01  9.93341E+00  9.18999E+00  8.43462E+00  7.68796E+00
   7.01641E+00  6.45311E+00  6.00059E+00  5.64581E+00  5.23441E+00  4.77560E+00  4.28246E+00  3.62895E+00  2.75480E+00  1.63665E+00
   6.46591E-01  3.46076E-01  8.57649E-01  1.61850E+00  1.85194E+00  1.16759E+00 -2.48351E-01 -1.84190E+00 -3.16533E+00 -4.21855E+00
  -5.24823E+00 -6.24046E+00 -7.32457E+00 -8.53305E+00 -9.59108E+00 -1.00855E+01 -9.74582E+00 -8.89448E+00 -8.26405E+00 -8.27146E+00
  -8.76733E+00 -9.10527E+00 -8.85137E+00 -8.16866E+00 -7.33333E+00 -6.27891E+00 -4.54569E+00 -1.76946E+00  1.66153E+00  4.82655E+00
   6.81241E+00  7.24985E+00  6.55855E+00  5.39098E+00  4.26178E+00  3.39342E+00  2.88202E+00  3.14970E+00  4.39790E+00  6.48289E+00
   9.05310E+00  1.16587E+01  1.36108E+01  1.39742E+01  1.25266E+01  9.35903E+00  4.73630E+00 -4.51163E-01 -4.68305E+00 -6.46887E+00
  -5.54622E+00 -2.36128E+00  2.73468E+00  9.11407E+00  1.50771E+01  1.83073E+01  1.74380E+01  1.30129E+01  6.54750E+00 -6.62282E-01
  -6.78851E+00 -1.01741E+01 -1.00358E+01 -6.51854E+00 -9.51746E-01  5.13433E+00  1.02260E+01  1.35056E+01  1.50563E+01  1.54381E+01
   1.54713E+01  1.54839E+01  1.55819E+01  1.60615E+01  1.70837E+01  1.82846E+01  1.91288E+01  1.93940E+01  1.90668E+01  1.81802E+01
   1.68537E+01  1.57471E+01  1.56688E+01  1.68564E+01  1.88721E+01  2.10196E+01  2.29530E+01  2.44307E+01  2.55794E+01  2.70303E+01
   2.91674E+01  3.21634E+01  3.69169E+01  4.79141E+01  6.58433E+01  8.60647E+01  1.09570E+02  1.40076E+02  1.75142E+02  2.03158E+02
   2.11361E+02  1.95633E+02  1.63192E+02  1.26320E+02  9.45274E+01  7.12061E+01  5.40427E+01  3.91980E+01  2.55631E+01  1.69998E+01
   1.42028E+01  1.30063E+01  1.23786E+01  1.20461E+01  1.17211E+01  1.12207E+01  1.05919E+01  9.88800E+00  9.17122E+00  8.50088E+00
   7.91298E+00  7.40371E+00  6.97913E+00  6.64143E+00  6.36392E+00  6.12100E+00  5.91177E+00  5.75949E+00  5.69230E+00  5.72396E+00
   5.86051E+00  6.11736E+00  6.50261E+00  7.02126E+00  7.68085E+00  8.49523E+00  9.48244E+00  1.06588E+01  1.20368E+01  1.36190E+01
   1.53957E+01  1.73457E+01  1.94345E+01  2.16168E+01  2.38419E+01  2.60539E+01  2.81949E+01  3.02048E+01  3.20261E+01  3.36096E+01
   3.49150E+01  3.59126E+01  3.65895E+01  3.69491E+01  3.70122E+01  3.68140E+01  3.64037E+01  3.58414E+01  3.52000E+01  3.45703E+01
   3.40853E+01  3.38321E+01  3.36146E+01  3.33937E+01  3.32145E+01  3.28883E+01  3.19722E+01  3.01295E+01  2.75274E+01  2.49628E+01
   2.30757E+01  2.20625E+01  2.19727E+01  2.28206E+01  2.44220E+01  2.63025E+01  2.78912E+01  2.87590E+01  2.86545E+01  2.78379E+01
   2.67639E+01  2.56736E+01  2.45392E+01  2.32973E+01  2.19230E+01  2.05218E+01  1.89683E+01  1.71346E+01  1.52114E+01  1.34919E+01
   1.21428E+01  1.12430E+01  1.08237E+01  1.08225E+01  1.10503E+01  1.12654E+01  1.13025E+01  1.10774E+01  1.05977E+01  1.00005E+01
   9.39348E+00  8.80266E+00  8.19751E+00  7.55182E+00  6.92973E+00  6.37306E+00  5.85103E+00  5.34924E+00  4.86450E+00  4.39731E+00
   3.95079E+00  3.52823E+00  3.13361E+00  2.77051E+00  2.44350E+00  2.15703E+00  1.91606E+00  1.72463E+00  1.58696E+00  1.50681E+00
   1.48889E+00  1.53761E+00  1.65771E+00  1.85294E+00  2.12724E+00  2.48387E+00  2.92639E+00  3.45693E+00  4.07652E+00  4.78360E+00
   5.57501E+00  6.44478E+00  7.38476E+00  8.38284E+00  9.42369E+00  1.04879E+01  1.15537E+01  1.25964E+01  1.35902E+01  1.45076E+01
   1.53213E+01  1.60051E+01  1.65361E+01  1.68953E+01  1.70687E+01  1.70475E+01  1.68293E+01  1.64178E+01  1.58237E+01  1.50629E+01
   1.41564E+01  1.31280E+01  1.20045E+01  1.08134E+01  9.58314E+00  8.34001E+00  7.10843E+00  5.90906E+00  4.75961E+00  3.67388E+00
   2.66255E+00  1.73209E+00  8.85912E-01  1.24028E-01 -5.55138E-01 -1.15518E+00 -1.68047E+00 -2.13696E+00 -2.53079E+00 -2.86870E+00
  -3.15652E+00 -3.40009E+00 -3.60444E+00 -3.77491E+00 -3.91596E+00 -4.03185E+00 -4.12555E+00 -4.20003E+00 -4.25755E+00 -4.30075E+00
  -4.33147E+00 -4.35149E+00 -4.36167E+00 -4.36323E+00 -4.35701E+00 -4.34434E+00 -4.32583E+00 -4.30219E+00 -4.27349E+00 -4.24036E+00
  -4.20316E+00 -4.16272E+00 -4.11912E+00 -4.07265E+00 -4.02312E+00 -3.97103E+00 -3.91657E+00 -3.86031E+00 -3.80205E+00 -3.74193E+00
  -3.67973E+00 -3.61596E+00 -3.55071E+00 -3.48435E+00 -3.41655E+00 -3.34741E+00 -3.27679E+00 -3.20523E+00 -3.13272E+00 -3.05947E+00
  -2.98507E+00 -2.90968E+00 -2.83324E+00 -2.75626E+00 -2.67860E+00 -2.60040E+00 -2.52123E+00 -2.44135E+00 -2.36075E+00 -2.27991E+00
  -2.19856E+00 -2.11675E+00 -2.03411E+00 -1.95100E+00 -1.86742E+00 -1.78375E+00 -1.69961E+00 -1.61503E+00 -1.52973E+00 -1.44415E+00
  -1.35826E+00 -1.27228E+00 -1.18577E+00 -1.09878E+00 -1.01113E+00 -9.23240E-01 -8.35003E-01 -7.46494E-01
 NY background values follow
     2.518E+01    2.502E+01    2.486E+01    2.470E+01    2.453E+01    2.437E+01    2.421E+01    2.405E+01    2.389E+01    2.373E+01
     2.357E+01    2.340E+01    2.324E+01    2.308E+01    2.292E+01    2.276E+01    2.260E+01    2.244E+01    2.228E+01    2.212E+01
     2.196E+01    2.180E+01    2.164E+01    2.148E+01    2.132E+01    2.116E+01    2.100E+01    2.084E+01    2.069E+01    2.053E+01
     2.037E+01    2.021E+01    2.006E+01    1.990E+01    1.974E+01    1.959E+01    1.943E+01    1.927E+01    1.912E+01    1.896E+01
     1.881E+01    1.865E+01    1.850E+01    1.835E+01    1.819E+01    1.804E+01    1.789E+01    1.774E+01    1.759E+01    1.744E+01
     1.729E+01    1.714E+01    1.699E+01    1.684E+01    1.669E+01    1.654E+01    1.639E+01    1.624E+01    1.610E+01    1.595E+01
     1.580E+01    1.566E+01    1.551E+01    1.536E+01    1.522E+01    1.507E+01    1.493E+01    1.479E+01    1.464E+01    1.450E+01
     1.435E+01    1.421E+01    1.407E+01    1.393E+01    1.378E+01    1.364E+01    1.350E+01    1.336E+01    1.322E+01    1.308E+01
     1.294E+01    1.280E+01    1.266E+01    1.252E+01    1.238E+01    1.224E+01    1.210E+01    1.196E+01    1.183E+01    1.169E+01
     1.155E+01    1.141E+01    1.127E+01    1.114E+01    1.100E+01    1.086E+01    1.073E+01    1.059E+01    1.045E+01    1.032E+01
     1.018E+01    1.005E+01    9.912E+00    9.777E+00    9.642E+00    9.507E+00    9.372E+00    9.238E+00    9.103E+00    8.969E+00
     8.835E+00    8.702E+00    8.568E+00    8.434E+00    8.301E+00    8.168E+00    8.035E+00    7.902E+00    7.769E+00    7.637E+00
     7.504E+00    7.372E+00    7.240E+00    7.108E+00    6.976E+00    6.844E+00    6.712E+00    6.580E+00    6.449E+00    6.317E+00
     6.186E+00    6.055E+00    5.924E+00    5.793E+00    5.662E+00    5.531E+00    5.400E+00    5.270E+00    5.139E+00    5.009E+00
     4.879E+00    4.749E+00    4.620E+00    4.492E+00    4.363E+00    4.236E+00    4.109E+00    3.983E+00    3.858E+00    3.733E+00
     3.610E+00    3.487E+00    3.365E+00    3.245E+00    3.126E+00    3.008E+00    2.891E+00    2.775E+00    2.661E+00    2.549E+00
     2.438E+00    2.328E+00    2.220E+00    2.114E+00    2.010E+00    1.908E+00    1.807E+00    1.708E+00    1.612E+00    1.517E+00
     1.425E+00    1.335E+00    1.247E+00    1.162E+00    1.078E+00    9.978E-01    9.197E-01    8.441E-01    7.712E-01    7.010E-01
     6.336E-01    5.690E-01    5.072E-01    4.482E-01    3.920E-01    3.385E-01    2.876E-01    2.392E-01    1.934E-01    1.500E-01
     1.091E-01    7.041E-02    3.405E-02   -9.645E-05   -3.208E-02   -6.195E-02   -8.978E-02   -1.156E-01   -1.395E-01   -1.616E-01
    -1.818E-01   -2.003E-01   -2.170E-01   -2.321E-01   -2.457E-01   -2.577E-01   -2.682E-01   -2.774E-01   -2.852E-01   -2.917E-01
    -2.969E-01   -3.010E-01   -3.040E-01   -3.059E-01   -3.068E-01   -3.067E-01   -3.058E-01   -3.041E-01   -3.015E-01   -2.983E-01
    -2.944E-01   -2.899E-01   -2.849E-01   -2.793E-01   -2.734E-01   -2.671E-01   -2.605E-01   -2.536E-01   -2.466E-01   -2.393E-01
    -2.318E-01   -2.242E-01   -2.164E-01   -2.085E-01   -2.006E-01   -1.926E-01   -1.845E-01   -1.765E-01   -1.684E-01   -1.604E-01
    -1.525E-01   -1.446E-01   -1.369E-01   -1.292E-01   -1.218E-01   -1.145E-01   -1.074E-01   -1.005E-01   -9.395E-02   -8.762E-02
    -8.160E-02   -7.590E-02   -7.055E-02   -6.557E-02   -6.099E-02   -5.683E-02   -5.311E-02   -4.986E-02   -4.710E-02   -4.486E-02
    -4.316E-02   -4.203E-02   -4.148E-02   -4.154E-02   -4.224E-02   -4.360E-02   -4.564E-02   -4.839E-02   -5.187E-02   -5.611E-02
    -6.112E-02   -6.694E-02   -7.359E-02   -8.107E-02   -8.940E-02   -9.857E-02   -1.086E-01   -1.195E-01   -1.313E-01   -1.439E-01
    -1.575E-01   -1.719E-01   -1.872E-01   -2.035E-01   -2.207E-01   -2.387E-01   -2.578E-01   -2.777E-01   -2.986E-01   -3.205E-01
    -3.433E-01   -3.671E-01   -3.918E-01   -4.176E-01   -4.443E-01   -4.721E-01   -5.008E-01   -5.305E-01   -5.613E-01   -5.931E-01
    -6.259E-01   -6.598E-01   -6.947E-01   -7.306E-01   -7.677E-01   -8.058E-01   -8.450E-01   -8.852E-01   -9.266E-01   -9.690E-01
    -1.013E+00   -1.057E+00   -1.103E+00   -1.150E+00   -1.198E+00   -1.247E+00   -1.298E+00   -1.349E+00   -1.402E+00   -1.455E+00
    -1.510E+00   -1.566E+00   -1.623E+00   -1.680E+00   -1.739E+00   -1.798E+00   -1.858E+00   -1.919E+00   -1.981E+00   -2.043E+00
    -2.106E+00   -2.170E+00   -2.234E+00   -2.298E+00   -2.363E+00   -2.429E+00   -2.495E+00   -2.561E+00   -2.627E+00   -2.694E+00
    -2.761E+00   -2.828E+00   -2.895E+00   -2.963E+00   -3.030E+00   -3.098E+00   -3.165E+00   -3.232E+00   -3.299E+00   -3.366E+00
    -3.433E+00   -3.500E+00   -3.566E+00   -3.632E+00   -3.698E+00   -3.763E+00   -3.828E+00   -3.892E+00   -3.956E+00   -4.019E+00
    -4.082E+00   -4.144E+00   -4.205E+00   -4.266E+00   -4.325E+00   -4.384E+00   -4.442E+00   -4.500E+00   -4.556E+00   -4.611E+00
    -4.666E+00   -4.719E+00   -4.772E+00   -4.823E+00   -4.873E+00   -4.922E+00   -4.970E+00   -5.017E+00   -5.062E+00   -5.106E+00
    -5.149E+00   -5.190E+00   -5.230E+00   -5.269E+00   -5.306E+00   -5.341E+00   -5.375E+00   -5.408E+00   -5.439E+00   -5.468E+00
    -5.495E+00   -5.521E+00   -5.545E+00   -5.568E+00   -5.588E+00   -5.607E+00   -5.624E+00   -5.638E+00   -5.651E+00   -5.662E+00
    -5.671E+00   -5.678E+00   -5.683E+00   -5.685E+00   -5.686E+00   -5.684E+00   -5.680E+00   -5.673E+00   -5.665E+00   -5.654E+00
    -5.641E+00   -5.626E+00   -5.609E+00   -5.589E+00   -5.568E+00   -5.544E+00   -5.519E+00   -5.491E+00   -5.462E+00   -5.431E+00
    -5.398E+00   -5.363E+00   -5.326E+00   -5.288E+00   -5.248E+00   -5.206E+00   -5.162E+00   -5.117E+00   -5.071E+00   -5.023E+00
    -4.973E+00   -4.922E+00   -4.870E+00   -4.816E+00   -4.761E+00   -4.705E+00   -4.647E+00   -4.588E+00   -4.528E+00   -4.467E+00
    -4.405E+00   -4.341E+00   -4.277E+00   -4.211E+00   -4.145E+00   -4.077E+00   -4.009E+00   -3.940E+00   -3.870E+00   -3.799E+00
    -3.728E+00   -3.655E+00   -3.582E+00   -3.509E+00   -3.434E+00   -3.359E+00   -3.284E+00   -3.208E+00   -3.131E+00   -3.054E+00
    -2.976E+00   -2.898E+00   -2.819E+00   -2.740E+00   -2.660E+00   -2.580E+00   -2.500E+00   -2.419E+00   -2.338E+00   -2.256E+00
    -2.174E+00   -2.092E+00   -2.009E+00   -1.926E+00   -1.843E+00   -1.760E+00   -1.676E+00   -1.592E+00   -1.508E+00   -1.424E+00
    -1.339E+00   -1.255E+00   -1.170E+00   -1.085E+00   -1.001E+00   -9.156E-01   -8.307E-01   -7.456E-01   -6.606E-01   -5.756E-01
    -4.906E-01   -4.056E-01   -3.207E-01   -2.359E-01   -1.511E-01   -6.649E-02    1.801E-02    1.024E-01
 Ala      Conc. = 4.84E+02
