 LCModel (Version 6.3-1L) Copyright: S.W. Provencher.          Ref.: Magn. Reson. Med. 30:672-679 (1993).                
 Slice#2 Row#11 Col#4  PD_05_press_2_raw_act
 36 lines in following concentration table = NCONC+1
    Conc.  %SD /Cr+PCr  Metabolite                                         
 3.00E+03  27%  21.162 Ala                                                 
   20.708 144%   0.146 Asp                                                 
    0.000 999%   0.000 Cr                                                  
  141.718  59%   1.000 PCr                                                 
   10.639 170% 7.5E-02 GABA                                                
    9.928 182% 7.0E-02 Glc                                                 
    0.000 999%   0.000 Gln                                                 
    0.000 999%   0.000 Glu                                                 
    0.000 999%   0.000 GPC                                                 
   85.258  36%   0.602 PCh                                                 
    0.000 999%   0.000 GSH                                                 
 1.50E+03  24%  10.559 Ins                                                 
  158.852 550%   1.121 Lac                                                 
    0.000 999%   0.000 NAA                                                 
    0.000 999%   0.000 NAAG                                                
    3.926 153% 2.8E-02 Scyllo                                              
   17.604 169%   0.124 Tau                                                 
  102.564  79%   0.724 -CrCH2                                              
   85.258  36%   0.602 GPC+PCh                                             
    0.000 999%   0.000 NAA+NAAG                                            
  141.718  59%   1.000 Cr+PCr                                              
    0.000 999%   0.000 Glu+Gln                                             
  925.667  53%   6.532 Lip13a                                              
    0.000 999%   0.000 Lip13b                                              
  211.778  95%   1.494 Lip09                                               
 1.07E+03  17%   7.536 MM09                                                
    0.000 999%   0.000 Lip20                                               
 1.00E+03  24%   7.068 MM20                                                
  366.030  23%   2.583 MM12                                                
 1.04E+03  25%   7.355 MM14                                                
 1.46E+03  10%  10.314+MM17                                                
  925.667  53%   6.532 Lip13a+Lip13b                                       
 2.33E+03  25%  16.469 MM14+Lip13a+Lip13b+MM12                             
 1.28E+03  15%   9.030 MM09+Lip09                                          
 1.00E+03  24%   7.068 MM20+Lip20                                          
   6 lines in following misc. output table
  FWHM = 0.183 ppm    S/N =   3                                            
  Data shift = 0.245 ppm                                                   
  Ph:-160 deg      13.5 deg/ppm                                            
  alphaB,S = 3.2E+01,   1.5E+02                                            
    8 spline knots.   Ns = 9(2)                                            
  (11) 8 infls.   (10) 1 extrs.                                            
  498 points on ppm-axis = NY
      4.000000     3.992357     3.984714     3.977070     3.969427     3.961784     3.954141     3.946497     3.938854     3.931211
      3.923568     3.915925     3.908281     3.900638     3.892995     3.885352     3.877708     3.870065     3.862422     3.854779
      3.847136     3.839492     3.831849     3.824206     3.816563     3.808919     3.801276     3.793633     3.785990     3.778347
      3.770703     3.763060     3.755417     3.747774     3.740130     3.732487     3.724844     3.717201     3.709558     3.701914
      3.694271     3.686628     3.678985     3.671341     3.663698     3.656055     3.648412     3.640769     3.633125     3.625482
      3.617839     3.610196     3.602552     3.594909     3.587266     3.579623     3.571980     3.564336     3.556693     3.549050
      3.541407     3.533763     3.526120     3.518477     3.510834     3.503191     3.495547     3.487904     3.480261     3.472618
      3.464974     3.457331     3.449688     3.442045     3.434402     3.426758     3.419115     3.411472     3.403829     3.396185
      3.388542     3.380899     3.373256     3.365613     3.357969     3.350326     3.342683     3.335040     3.327396     3.319753
      3.312110     3.304467     3.296824     3.289180     3.281537     3.273894     3.266251     3.258607     3.250964     3.243321
      3.235678     3.228034     3.220391     3.212748     3.205105     3.197462     3.189818     3.182175     3.174532     3.166889
      3.159245     3.151602     3.143959     3.136316     3.128673     3.121029     3.113386     3.105743     3.098100     3.090456
      3.082813     3.075170     3.067527     3.059884     3.052240     3.044597     3.036954     3.029311     3.021667     3.014024
      3.006381     2.998738     2.991095     2.983451     2.975808     2.968165     2.960522     2.952878     2.945235     2.937592
      2.929949     2.922306     2.914662     2.907019     2.899376     2.891733     2.884089     2.876446     2.868803     2.861160
      2.853517     2.845873     2.838230     2.830587     2.822944     2.815300     2.807657     2.800014     2.792371     2.784728
      2.777084     2.769441     2.761798     2.754155     2.746511     2.738868     2.731225     2.723582     2.715939     2.708295
      2.700652     2.693009     2.685366     2.677722     2.670079     2.662436     2.654793     2.647150     2.639506     2.631863
      2.624220     2.616577     2.608933     2.601290     2.593647     2.586004     2.578361     2.570717     2.563074     2.555431
      2.547788     2.540144     2.532501     2.524858     2.517215     2.509572     2.501928     2.494285     2.486642     2.478999
      2.471355     2.463712     2.456069     2.448426     2.440783     2.433139     2.425496     2.417853     2.410210     2.402566
      2.394923     2.387280     2.379637     2.371994     2.364350     2.356707     2.349064     2.341421     2.333777     2.326134
      2.318491     2.310848     2.303205     2.295561     2.287918     2.280275     2.272632     2.264988     2.257345     2.249702
      2.242059     2.234416     2.226772     2.219129     2.211486     2.203843     2.196199     2.188556     2.180913     2.173270
      2.165627     2.157983     2.150340     2.142697     2.135054     2.127410     2.119767     2.112124     2.104481     2.096838
      2.089194     2.081551     2.073908     2.066265     2.058621     2.050978     2.043335     2.035692     2.028049     2.020405
      2.012762     2.005119     1.997476     1.989833     1.982190     1.974546     1.966903     1.959260     1.951617     1.943974
      1.936331     1.928688     1.921045     1.913402     1.905759     1.898115     1.890472     1.882829     1.875186     1.867543
      1.859900     1.852257     1.844614     1.836971     1.829327     1.821684     1.814041     1.806398     1.798755     1.791112
      1.783469     1.775826     1.768183     1.760540     1.752896     1.745253     1.737610     1.729967     1.722324     1.714681
      1.707038     1.699395     1.691752     1.684108     1.676465     1.668822     1.661179     1.653536     1.645893     1.638250
      1.630607     1.622964     1.615321     1.607677     1.600034     1.592391     1.584748     1.577105     1.569462     1.561819
      1.554176     1.546533     1.538890     1.531246     1.523603     1.515960     1.508317     1.500674     1.493031     1.485388
      1.477745     1.470102     1.462458     1.454815     1.447172     1.439529     1.431886     1.424243     1.416600     1.408957
      1.401314     1.393671     1.386027     1.378384     1.370741     1.363098     1.355455     1.347812     1.340169     1.332526
      1.324883     1.317240     1.309596     1.301953     1.294310     1.286667     1.279024     1.271381     1.263738     1.256095
      1.248452     1.240808     1.233165     1.225522     1.217879     1.210236     1.202593     1.194950     1.187307     1.179664
      1.172021     1.164377     1.156734     1.149091     1.141448     1.133805     1.126162     1.118519     1.110876     1.103233
      1.095590     1.087946     1.080303     1.072660     1.065017     1.057374     1.049731     1.042088     1.034445     1.026802
      1.019158     1.011515     1.003872     0.996229     0.988586     0.980943     0.973300     0.965657     0.958014     0.950371
      0.942727     0.935084     0.927441     0.919798     0.912155     0.904512     0.896869     0.889226     0.881583     0.873940
      0.866296     0.858653     0.851010     0.843367     0.835724     0.828081     0.820438     0.812795     0.805152     0.797508
      0.789865     0.782222     0.774579     0.766936     0.759293     0.751650     0.744007     0.736364     0.728721     0.721077
      0.713434     0.705791     0.698148     0.690505     0.682862     0.675219     0.667576     0.659933     0.652290     0.644646
      0.637003     0.629360     0.621717     0.614074     0.606431     0.598788     0.591145     0.583502     0.575858     0.568215
      0.560572     0.552929     0.545286     0.537643     0.530000     0.522357     0.514714     0.507071     0.499427     0.491784
      0.484141     0.476498     0.468855     0.461212     0.453569     0.445925     0.438282     0.430639     0.422996     0.415353
      0.407710     0.400067     0.392424     0.384780     0.377137     0.369494     0.361851     0.354208     0.346565     0.338922
      0.331278     0.323635     0.315992     0.308349     0.300706     0.293063     0.285420     0.277777     0.270133     0.262490
      0.254847     0.247204     0.239561     0.231918     0.224275     0.216631     0.208988     0.201345
 NY phased data points follow
   2.66584E+01  2.57765E+01  2.27485E+01  2.30044E+01  2.33534E+01  2.92830E+01  2.38254E+01  2.36303E+01  2.72058E+01  2.66774E+01
   2.55449E+01  2.59533E+01  2.72694E+01  2.09298E+01  2.33459E+01  2.16524E+01  1.93512E+01  1.95457E+01  2.40435E+01  2.58134E+01
   2.28445E+01  2.30065E+01  2.32019E+01  2.29125E+01  2.55563E+01  2.24141E+01  2.11463E+01  2.30291E+01  2.67868E+01  2.36971E+01
   2.29857E+01  2.50989E+01  2.45453E+01  2.38471E+01  2.53355E+01  3.20964E+01  3.21308E+01  2.80636E+01  2.66733E+01  3.31125E+01
   3.02182E+01  2.74246E+01  3.39063E+01  2.96009E+01  3.25351E+01  3.13920E+01  3.26174E+01  3.35710E+01  3.31479E+01  3.18131E+01
   3.54443E+01  3.48199E+01  3.17407E+01  3.00257E+01  3.31569E+01  3.22728E+01  2.69512E+01  2.75520E+01  2.90016E+01  3.02254E+01
   2.76112E+01  2.99031E+01  2.79487E+01  3.23305E+01  3.27343E+01  3.09291E+01  3.21382E+01  3.20284E+01  3.33195E+01  3.11265E+01
   2.56286E+01  2.70835E+01  2.81957E+01  2.71070E+01  2.70297E+01  2.67143E+01  3.01973E+01  2.88856E+01  2.94933E+01  2.64522E+01
   2.93815E+01  3.14707E+01  2.87940E+01  2.45326E+01  3.16591E+01  2.88311E+01  3.16268E+01  3.34281E+01  3.31703E+01  3.06000E+01
   4.03649E+01  3.62966E+01  3.38139E+01  3.10598E+01  2.73963E+01  3.11752E+01  2.66118E+01  2.93998E+01  2.63767E+01  3.12109E+01
   3.00644E+01  3.19336E+01  3.06351E+01  3.11533E+01  3.21654E+01  2.80823E+01  3.54962E+01  3.37174E+01  3.13485E+01  3.13894E+01
   3.47191E+01  3.12568E+01  3.38563E+01  3.13156E+01  3.21243E+01  3.24545E+01  3.23170E+01  3.53394E+01  2.93324E+01  3.23546E+01
   3.38541E+01  3.11240E+01  3.01144E+01  3.46729E+01  3.36448E+01  3.36697E+01  3.18566E+01  3.63148E+01  3.42053E+01  3.56444E+01
   3.89207E+01  3.54609E+01  3.18742E+01  3.17412E+01  3.87924E+01  3.22536E+01  2.96843E+01  3.21426E+01  3.59437E+01  3.65663E+01
   2.83800E+01  3.18686E+01  3.08167E+01  2.87575E+01  3.01207E+01  3.23748E+01  3.11201E+01  2.84341E+01  3.34079E+01  3.22525E+01
   3.50490E+01  3.25901E+01  3.33359E+01  3.08687E+01  3.41144E+01  3.02788E+01  3.44409E+01  3.24429E+01  3.56651E+01  3.19044E+01
   3.05518E+01  3.59276E+01  3.60792E+01  3.06758E+01  3.09960E+01  2.70998E+01  3.25446E+01  3.21243E+01  3.57737E+01  3.52154E+01
   2.90427E+01  3.51692E+01  3.76880E+01  3.09318E+01  3.53855E+01  3.81106E+01  3.57476E+01  3.28738E+01  3.35942E+01  3.94056E+01
   3.49021E+01  3.59392E+01  3.51821E+01  3.76281E+01  3.39551E+01  3.22449E+01  3.64961E+01  3.37559E+01  3.45359E+01  3.77432E+01
   3.36109E+01  3.35530E+01  3.51962E+01  3.32887E+01  3.53342E+01  3.44651E+01  3.56184E+01  3.02225E+01  3.92753E+01  3.67221E+01
   3.10411E+01  3.65187E+01  3.70206E+01  3.90066E+01  3.34109E+01  3.76451E+01  3.72741E+01  3.89892E+01  3.50325E+01  3.97746E+01
   3.72240E+01  3.54181E+01  3.39182E+01  3.45524E+01  3.69990E+01  3.62733E+01  3.14882E+01  3.53266E+01  3.61540E+01  3.76653E+01
   3.81329E+01  4.02977E+01  3.60675E+01  3.86246E+01  3.42473E+01  3.74002E+01  3.09108E+01  3.00796E+01  3.13962E+01  3.19034E+01
   3.42596E+01  3.42807E+01  3.41535E+01  3.54919E+01  3.32226E+01  3.86934E+01  3.46869E+01  3.83606E+01  4.03360E+01  3.94847E+01
   3.66084E+01  3.93226E+01  3.64730E+01  3.75923E+01  3.72267E+01  3.86254E+01  3.77020E+01  4.05222E+01  4.03159E+01  3.86377E+01
   3.82834E+01  3.62161E+01  4.09894E+01  3.42804E+01  4.07220E+01  3.51365E+01  3.76578E+01  3.95832E+01  3.65621E+01  3.52343E+01
   3.63705E+01  3.95136E+01  3.55246E+01  3.86342E+01  3.62605E+01  3.43830E+01  3.80329E+01  3.54236E+01  4.04582E+01  3.53413E+01
   3.22087E+01  3.54144E+01  3.66581E+01  3.85925E+01  3.73366E+01  3.64565E+01  3.85146E+01  3.57709E+01  3.32009E+01  3.26562E+01
   3.44476E+01  3.88736E+01  3.60522E+01  3.57101E+01  3.66494E+01  3.38673E+01  3.77433E+01  3.76138E+01  3.67737E+01  4.00167E+01
   3.58241E+01  3.67202E+01  3.89937E+01  3.85334E+01  4.41019E+01  4.20991E+01  4.78385E+01  4.34382E+01  4.96300E+01  5.07433E+01
   4.69472E+01  5.01017E+01  5.25735E+01  5.47099E+01  5.41194E+01  5.68381E+01  5.44877E+01  5.57718E+01  5.94952E+01  5.63947E+01
   5.40317E+01  5.78505E+01  5.15151E+01  4.92359E+01  5.42353E+01  5.26001E+01  5.34404E+01  5.05315E+01  4.48366E+01  4.46760E+01
   4.31748E+01  4.57314E+01  4.74482E+01  4.36453E+01  4.57077E+01  4.33295E+01  4.67615E+01  4.63109E+01  4.34195E+01  4.27729E+01
   4.25302E+01  4.42015E+01  4.81278E+01  4.41105E+01  4.44345E+01  4.65197E+01  4.01092E+01  4.79202E+01  4.51295E+01  4.41604E+01
   4.48825E+01  4.33634E+01  4.15449E+01  4.35822E+01  4.66627E+01  4.06776E+01  3.91056E+01  4.48737E+01  4.36913E+01  4.39044E+01
   4.53858E+01  4.16598E+01  4.06215E+01  4.66736E+01  4.35378E+01  4.34850E+01  3.89108E+01  4.01533E+01  4.08331E+01  4.02206E+01
   4.43333E+01  3.85474E+01  4.49123E+01  4.44323E+01  4.43869E+01  4.31816E+01  4.06542E+01  4.45311E+01  4.10492E+01  4.62016E+01
   4.66623E+01  4.36200E+01  4.37475E+01  4.25492E+01  4.06654E+01  4.28175E+01  4.38798E+01  4.13560E+01  4.14118E+01  4.06350E+01
   4.31668E+01  4.17130E+01  4.46254E+01  4.01686E+01  4.50350E+01  4.46377E+01  3.94573E+01  4.25741E+01  3.83376E+01  4.01140E+01
   3.83296E+01  4.43921E+01  3.98564E+01  3.89891E+01  3.75429E+01  4.11636E+01  4.54193E+01  3.97744E+01  4.24334E+01  4.03685E+01
   4.19000E+01  3.83131E+01  4.12018E+01  4.04972E+01  3.99410E+01  3.99711E+01  3.78017E+01  3.67572E+01  4.04726E+01  3.87204E+01
   3.67279E+01  3.84196E+01  3.88800E+01  3.75716E+01  3.63752E+01  3.35716E+01  3.67310E+01  3.70784E+01  3.36858E+01  3.71775E+01
   3.60730E+01  3.63291E+01  3.67761E+01  3.54884E+01  3.25359E+01  3.71651E+01  3.97591E+01  3.87903E+01  3.75539E+01  3.66185E+01
   3.49123E+01  3.22732E+01  3.36327E+01  3.60215E+01  3.48518E+01  3.18299E+01  3.34573E+01  3.36034E+01  3.14965E+01  3.64670E+01
   3.37516E+01  3.64821E+01  3.28991E+01  3.69155E+01  3.52476E+01  2.91887E+01  3.13883E+01  3.22249E+01  3.19958E+01  3.63581E+01
   3.34507E+01  3.36159E+01  3.13982E+01  3.63450E+01  3.62786E+01  3.10761E+01  3.09837E+01  3.09173E+01  2.59727E+01  3.59537E+01
   3.25411E+01  3.19910E+01  3.00208E+01  3.06468E+01  3.17387E+01  3.25714E+01  3.10506E+01  2.45860E+01  3.05862E+01  2.79174E+01
   3.08089E+01  2.57583E+01  2.60118E+01  2.99773E+01  2.89791E+01  2.75000E+01  3.02838E+01  2.49397E+01  2.96197E+01  2.43522E+01
   3.07022E+01  3.43164E+01  2.76287E+01  2.78652E+01  2.99937E+01  3.09198E+01  2.87456E+01  3.25261E+01  2.79920E+01  3.09538E+01
   2.53128E+01  3.02780E+01  2.42831E+01  2.92140E+01  3.04741E+01  2.79542E+01  2.66575E+01  2.84055E+01
 NY points of the fit to the data follow
   2.60376E+01  2.58378E+01  2.56236E+01  2.54010E+01  2.52827E+01  2.50977E+01  2.51510E+01  2.51181E+01  2.54780E+01  2.52730E+01
   2.56356E+01  2.51530E+01  2.54692E+01  2.47445E+01  2.49501E+01  2.40387E+01  2.44949E+01  2.38150E+01  2.45643E+01  2.41698E+01
   2.51128E+01  2.47852E+01  2.56730E+01  2.52372E+01  2.58520E+01  2.53552E+01  2.57552E+01  2.53284E+01  2.57343E+01  2.57588E+01
   2.63937E+01  2.67224E+01  2.73046E+01  2.76960E+01  2.80710E+01  2.84132E+01  2.85756E+01  2.87989E+01  2.87566E+01  2.89513E+01
   2.88233E+01  2.91798E+01  2.91471E+01  2.95732E+01  2.96046E+01  3.00542E+01  3.01087E+01  3.04266E+01  3.04174E+01  3.05254E+01
   3.04658E+01  3.04765E+01  3.03609E+01  3.03044E+01  3.03187E+01  3.02540E+01  3.04347E+01  3.04029E+01  3.06894E+01  3.06078E+01
   3.08973E+01  3.06990E+01  3.09247E+01  3.06834E+01  3.08859E+01  3.06242E+01  3.08203E+01  3.06093E+01  3.08416E+01  3.06226E+01
   3.08121E+01  3.04893E+01  3.06051E+01  3.01990E+01  3.02805E+01  2.98616E+01  2.99771E+01  2.95940E+01  2.97682E+01  2.94389E+01
   2.96075E+01  2.93028E+01  2.94554E+01  2.91651E+01  2.93577E+01  2.93478E+01  2.95742E+01  2.97078E+01  2.99499E+01  3.01373E+01
   3.03602E+01  3.05421E+01  3.07211E+01  3.08336E+01  3.09839E+01  3.10845E+01  3.12227E+01  3.13550E+01  3.14724E+01  3.15785E+01
   3.16678E+01  3.17338E+01  3.17878E+01  3.18008E+01  3.18297E+01  3.18214E+01  3.18486E+01  3.18477E+01  3.19332E+01  3.20373E+01
   3.20847E+01  3.22626E+01  3.22518E+01  3.25251E+01  3.24453E+01  3.27460E+01  3.25921E+01  3.28642E+01  3.26691E+01  3.29523E+01
   3.27295E+01  3.30147E+01  3.27654E+01  3.31085E+01  3.28462E+01  3.32215E+01  3.29392E+01  3.32650E+01  3.29758E+01  3.32476E+01
   3.29718E+01  3.31998E+01  3.29357E+01  3.31097E+01  3.28677E+01  3.29925E+01  3.27930E+01  3.28950E+01  3.27197E+01  3.27839E+01
   3.26290E+01  3.26509E+01  3.25311E+01  3.25303E+01  3.24361E+01  3.24064E+01  3.23683E+01  3.23579E+01  3.23628E+01  3.23826E+01
   3.23958E+01  3.24219E+01  3.24385E+01  3.24691E+01  3.24885E+01  3.25232E+01  3.25459E+01  3.25839E+01  3.26090E+01  3.26498E+01
   3.26774E+01  3.27207E+01  3.27501E+01  3.27950E+01  3.28256E+01  3.28715E+01  3.29048E+01  3.29522E+01  3.29872E+01  3.30352E+01
   3.30706E+01  3.31188E+01  3.31544E+01  3.32020E+01  3.32365E+01  3.32817E+01  3.33165E+01  3.33604E+01  3.33964E+01  3.34392E+01
   3.34759E+01  3.35177E+01  3.35551E+01  3.35963E+01  3.36340E+01  3.36744E+01  3.37123E+01  3.37522E+01  3.37910E+01  3.38313E+01
   3.38711E+01  3.39119E+01  3.39526E+01  3.39942E+01  3.40361E+01  3.40791E+01  3.41222E+01  3.41664E+01  3.42104E+01  3.42559E+01
   3.43010E+01  3.43485E+01  3.43949E+01  3.44448E+01  3.44942E+01  3.45490E+01  3.46030E+01  3.46631E+01  3.47205E+01  3.47844E+01
   3.48441E+01  3.49107E+01  3.49708E+01  3.50386E+01  3.51006E+01  3.51714E+01  3.52369E+01  3.53116E+01  3.53807E+01  3.54590E+01
   3.55312E+01  3.56124E+01  3.56872E+01  3.57709E+01  3.58486E+01  3.59357E+01  3.60182E+01  3.61108E+01  3.62002E+01  3.63004E+01
   3.63988E+01  3.65087E+01  3.66183E+01  3.67400E+01  3.68625E+01  3.69969E+01  3.71324E+01  3.72788E+01  3.74253E+01  3.75805E+01
   3.77335E+01  3.78916E+01  3.80441E+01  3.81976E+01  3.83412E+01  3.84806E+01  3.86049E+01  3.87196E+01  3.88144E+01  3.88952E+01
   3.89528E+01  3.89931E+01  3.90093E+01  3.90083E+01  3.89845E+01  3.89461E+01  3.88877E+01  3.88188E+01  3.87343E+01  3.86437E+01
   3.85417E+01  3.84379E+01  3.83268E+01  3.82172E+01  3.81036E+01  3.79943E+01  3.78832E+01  3.77787E+01  3.76741E+01  3.75772E+01
   3.74813E+01  3.73939E+01  3.73082E+01  3.72317E+01  3.71581E+01  3.70949E+01  3.70364E+01  3.69911E+01  3.69537E+01  3.69339E+01
   3.69277E+01  3.69462E+01  3.69865E+01  3.70621E+01  3.71715E+01  3.73297E+01  3.75368E+01  3.78088E+01  3.81458E+01  3.85633E+01
   3.90599E+01  3.96481E+01  4.03217E+01  4.10874E+01  4.19317E+01  4.28530E+01  4.38289E+01  4.48489E+01  4.58828E+01  4.69135E+01
   4.79071E+01  4.88458E+01  4.96994E+01  5.04573E+01  5.11020E+01  5.16416E+01  5.20851E+01  5.24821E+01  5.29221E+01  5.36659E+01
   5.48110E+01  5.45785E+01  5.52789E+01  5.38536E+01  5.38569E+01  5.13783E+01  5.05652E+01  4.70955E+01  4.69818E+01  4.43658E+01
   4.51485E+01  4.35228E+01  4.48701E+01  4.36938E+01  4.49868E+01  4.41072E+01  4.48952E+01  4.40288E+01  4.44417E+01  4.38239E+01
   4.42825E+01  4.41751E+01  4.45726E+01  4.46957E+01  4.47833E+01  4.50611E+01  4.48141E+01  4.52776E+01  4.49204E+01  4.53039E+01
   4.47875E+01  4.52164E+01  4.44889E+01  4.49833E+01  4.41847E+01  4.45758E+01  4.39125E+01  4.46792E+01  4.43694E+01  4.51476E+01
   4.48457E+01  4.52049E+01  4.47611E+01  4.48613E+01  4.41527E+01  4.38563E+01  4.32870E+01  4.29621E+01  4.27029E+01  4.25511E+01
   4.23798E+01  4.22550E+01  4.21079E+01  4.19806E+01  4.18313E+01  4.16995E+01  4.15593E+01  4.14346E+01  4.12913E+01  4.11555E+01
   4.10014E+01  4.08547E+01  4.07076E+01  4.05563E+01  4.04275E+01  4.03131E+01  4.02280E+01  4.01758E+01  4.01491E+01  4.01545E+01
   4.01853E+01  4.02473E+01  4.03328E+01  4.04459E+01  4.05772E+01  4.07295E+01  4.08916E+01  4.10648E+01  4.12372E+01  4.14090E+01
   4.15678E+01  4.17139E+01  4.18351E+01  4.19326E+01  4.19953E+01  4.20258E+01  4.20151E+01  4.19678E+01  4.18768E+01  4.17492E+01
   4.15799E+01  4.13778E+01  4.11396E+01  4.08756E+01  4.05834E+01  4.02741E+01  3.99456E+01  3.96089E+01  3.92618E+01  3.89146E+01
   3.85644E+01  3.82209E+01  3.78802E+01  3.75510E+01  3.72287E+01  3.69211E+01  3.66227E+01  3.63407E+01  3.60691E+01  3.58144E+01
   3.55701E+01  3.53424E+01  3.51246E+01  3.49225E+01  3.47293E+01  3.45507E+01  3.43796E+01  3.42218E+01  3.40701E+01  3.39303E+01
   3.37954E+01  3.36709E+01  3.35501E+01  3.34385E+01  3.33294E+01  3.32285E+01  3.31291E+01  3.30370E+01  3.29456E+01  3.28607E+01
   3.27757E+01  3.26967E+01  3.26171E+01  3.25429E+01  3.24677E+01  3.23975E+01  3.23259E+01  3.22589E+01  3.21903E+01  3.21261E+01
   3.20600E+01  3.19981E+01  3.19340E+01  3.18740E+01  3.18118E+01  3.17534E+01  3.16926E+01  3.16356E+01  3.15762E+01  3.15204E+01
   3.14620E+01  3.14072E+01  3.13498E+01  3.12959E+01  3.12393E+01  3.11862E+01  3.11304E+01  3.10779E+01  3.10227E+01  3.09709E+01
   3.09163E+01  3.08650E+01  3.08109E+01  3.07601E+01  3.07064E+01  3.06560E+01  3.06028E+01  3.05528E+01  3.05000E+01  3.04504E+01
   3.03979E+01  3.03487E+01  3.02965E+01  3.02476E+01  3.01958E+01  3.01472E+01  3.00956E+01  3.00473E+01  2.99961E+01  2.99482E+01
   2.98973E+01  2.98496E+01  2.97990E+01  2.97517E+01  2.97015E+01  2.96546E+01  2.96048E+01  2.95584E+01
 NY background values follow
     2.243E+01    2.251E+01    2.258E+01    2.265E+01    2.272E+01    2.279E+01    2.286E+01    2.294E+01    2.301E+01    2.308E+01
     2.315E+01    2.322E+01    2.329E+01    2.337E+01    2.344E+01    2.351E+01    2.358E+01    2.365E+01    2.373E+01    2.380E+01
     2.387E+01    2.394E+01    2.401E+01    2.408E+01    2.416E+01    2.423E+01    2.430E+01    2.437E+01    2.444E+01    2.451E+01
     2.459E+01    2.466E+01    2.473E+01    2.480E+01    2.487E+01    2.494E+01    2.501E+01    2.508E+01    2.516E+01    2.523E+01
     2.530E+01    2.537E+01    2.544E+01    2.551E+01    2.558E+01    2.565E+01    2.572E+01    2.579E+01    2.586E+01    2.593E+01
     2.600E+01    2.607E+01    2.614E+01    2.621E+01    2.628E+01    2.635E+01    2.642E+01    2.649E+01    2.656E+01    2.662E+01
     2.669E+01    2.676E+01    2.683E+01    2.690E+01    2.697E+01    2.703E+01    2.710E+01    2.717E+01    2.724E+01    2.731E+01
     2.737E+01    2.744E+01    2.751E+01    2.757E+01    2.764E+01    2.771E+01    2.777E+01    2.784E+01    2.790E+01    2.797E+01
     2.804E+01    2.810E+01    2.817E+01    2.823E+01    2.830E+01    2.836E+01    2.842E+01    2.849E+01    2.855E+01    2.862E+01
     2.868E+01    2.874E+01    2.881E+01    2.887E+01    2.893E+01    2.899E+01    2.906E+01    2.912E+01    2.918E+01    2.924E+01
     2.930E+01    2.936E+01    2.942E+01    2.948E+01    2.954E+01    2.960E+01    2.966E+01    2.972E+01    2.978E+01    2.984E+01
     2.990E+01    2.996E+01    3.001E+01    3.007E+01    3.013E+01    3.019E+01    3.024E+01    3.030E+01    3.036E+01    3.041E+01
     3.047E+01    3.052E+01    3.058E+01    3.063E+01    3.069E+01    3.074E+01    3.080E+01    3.085E+01    3.090E+01    3.096E+01
     3.101E+01    3.106E+01    3.112E+01    3.117E+01    3.122E+01    3.127E+01    3.132E+01    3.137E+01    3.142E+01    3.147E+01
     3.152E+01    3.157E+01    3.162E+01    3.167E+01    3.172E+01    3.177E+01    3.182E+01    3.186E+01    3.191E+01    3.196E+01
     3.201E+01    3.205E+01    3.210E+01    3.214E+01    3.219E+01    3.223E+01    3.228E+01    3.232E+01    3.237E+01    3.241E+01
     3.246E+01    3.250E+01    3.254E+01    3.258E+01    3.263E+01    3.267E+01    3.271E+01    3.275E+01    3.279E+01    3.283E+01
     3.287E+01    3.291E+01    3.295E+01    3.299E+01    3.303E+01    3.307E+01    3.311E+01    3.314E+01    3.318E+01    3.322E+01
     3.325E+01    3.329E+01    3.333E+01    3.336E+01    3.340E+01    3.343E+01    3.347E+01    3.350E+01    3.353E+01    3.357E+01
     3.360E+01    3.363E+01    3.366E+01    3.370E+01    3.373E+01    3.376E+01    3.379E+01    3.382E+01    3.385E+01    3.388E+01
     3.391E+01    3.394E+01    3.396E+01    3.399E+01    3.402E+01    3.405E+01    3.407E+01    3.410E+01    3.413E+01    3.415E+01
     3.418E+01    3.420E+01    3.423E+01    3.425E+01    3.427E+01    3.430E+01    3.432E+01    3.434E+01    3.436E+01    3.439E+01
     3.441E+01    3.443E+01    3.445E+01    3.447E+01    3.449E+01    3.451E+01    3.453E+01    3.455E+01    3.457E+01    3.458E+01
     3.460E+01    3.462E+01    3.464E+01    3.465E+01    3.467E+01    3.469E+01    3.470E+01    3.472E+01    3.473E+01    3.475E+01
     3.476E+01    3.478E+01    3.479E+01    3.480E+01    3.482E+01    3.483E+01    3.484E+01    3.485E+01    3.487E+01    3.488E+01
     3.489E+01    3.490E+01    3.491E+01    3.492E+01    3.493E+01    3.494E+01    3.495E+01    3.496E+01    3.496E+01    3.497E+01
     3.498E+01    3.499E+01    3.500E+01    3.500E+01    3.501E+01    3.502E+01    3.502E+01    3.503E+01    3.503E+01    3.504E+01
     3.504E+01    3.505E+01    3.505E+01    3.506E+01    3.506E+01    3.506E+01    3.507E+01    3.507E+01    3.507E+01    3.507E+01
     3.508E+01    3.508E+01    3.508E+01    3.508E+01    3.508E+01    3.508E+01    3.508E+01    3.508E+01    3.508E+01    3.508E+01
     3.508E+01    3.508E+01    3.508E+01    3.508E+01    3.507E+01    3.507E+01    3.507E+01    3.507E+01    3.506E+01    3.506E+01
     3.506E+01    3.505E+01    3.505E+01    3.505E+01    3.504E+01    3.504E+01    3.503E+01    3.503E+01    3.502E+01    3.501E+01
     3.501E+01    3.500E+01    3.500E+01    3.499E+01    3.498E+01    3.497E+01    3.497E+01    3.496E+01    3.495E+01    3.494E+01
     3.493E+01    3.492E+01    3.491E+01    3.491E+01    3.490E+01    3.489E+01    3.487E+01    3.486E+01    3.485E+01    3.484E+01
     3.483E+01    3.482E+01    3.481E+01    3.479E+01    3.478E+01    3.477E+01    3.476E+01    3.474E+01    3.473E+01    3.471E+01
     3.470E+01    3.469E+01    3.467E+01    3.466E+01    3.464E+01    3.462E+01    3.461E+01    3.459E+01    3.458E+01    3.456E+01
     3.454E+01    3.453E+01    3.451E+01    3.449E+01    3.447E+01    3.445E+01    3.443E+01    3.442E+01    3.440E+01    3.438E+01
     3.436E+01    3.434E+01    3.432E+01    3.429E+01    3.427E+01    3.425E+01    3.423E+01    3.421E+01    3.419E+01    3.416E+01
     3.414E+01    3.412E+01    3.410E+01    3.407E+01    3.405E+01    3.402E+01    3.400E+01    3.397E+01    3.395E+01    3.392E+01
     3.390E+01    3.387E+01    3.385E+01    3.382E+01    3.379E+01    3.376E+01    3.374E+01    3.371E+01    3.368E+01    3.365E+01
     3.362E+01    3.360E+01    3.357E+01    3.354E+01    3.351E+01    3.348E+01    3.345E+01    3.342E+01    3.338E+01    3.335E+01
     3.332E+01    3.329E+01    3.326E+01    3.322E+01    3.319E+01    3.316E+01    3.312E+01    3.309E+01    3.306E+01    3.302E+01
     3.299E+01    3.295E+01    3.292E+01    3.288E+01    3.285E+01    3.281E+01    3.278E+01    3.274E+01    3.270E+01    3.267E+01
     3.263E+01    3.259E+01    3.256E+01    3.252E+01    3.248E+01    3.244E+01    3.240E+01    3.237E+01    3.233E+01    3.229E+01
     3.225E+01    3.221E+01    3.217E+01    3.213E+01    3.209E+01    3.205E+01    3.201E+01    3.197E+01    3.193E+01    3.189E+01
     3.185E+01    3.181E+01    3.176E+01    3.172E+01    3.168E+01    3.164E+01    3.160E+01    3.156E+01    3.151E+01    3.147E+01
     3.143E+01    3.139E+01    3.134E+01    3.130E+01    3.126E+01    3.122E+01    3.117E+01    3.113E+01    3.109E+01    3.104E+01
     3.100E+01    3.095E+01    3.091E+01    3.087E+01    3.082E+01    3.078E+01    3.073E+01    3.069E+01    3.065E+01    3.060E+01
     3.056E+01    3.051E+01    3.047E+01    3.042E+01    3.038E+01    3.033E+01    3.029E+01    3.024E+01    3.020E+01    3.015E+01
     3.011E+01    3.006E+01    3.002E+01    2.997E+01    2.993E+01    2.988E+01    2.984E+01    2.979E+01    2.975E+01    2.970E+01
     2.966E+01    2.961E+01    2.957E+01    2.952E+01    2.948E+01    2.943E+01    2.939E+01    2.934E+01
 Ala      Conc. = 3.00E+03
