 LCModel (Version 6.3-1L) Copyright: S.W. Provencher.          Ref.: Magn. Reson. Med. 30:672-679 (1993).                
 Slice#2 Row#5 Col#8  PD_05_press_2_raw_act
 36 lines in following concentration table = NCONC+1
    Conc.  %SD /Cr+PCr  Metabolite                                         
    0.000 999%   0.000 Ala                                                 
    0.000 999%   0.000 Asp                                                 
  186.892 517% 6.6E-02 Cr                                                  
 2.64E+03  37%   0.934 PCr                                                 
   12.414 999% 4.4E-03 GABA                                                
   42.820 816% 1.5E-02 Glc                                                 
 2.03E+03  42%   0.719 Gln                                                 
 2.25E+03  43%   0.798 Glu                                                 
  179.972 356% 6.4E-02 GPC                                                 
 1.05E+03  61%   0.373 PCh                                                 
  560.248  42%   0.199 GSH                                                 
 1.34E+03  67%   0.473 Ins                                                 
  870.234  51%   0.308 Lac                                                 
 3.36E+03  10%   1.189 NAA                                                 
  402.331  91%   0.143 NAAG                                                
  179.930  44% 6.4E-02 Scyllo                                              
    0.000 999%   0.000 Tau                                                 
 1.70E+03  25%   0.603 -CrCH2                                              
 1.23E+03   6%   0.437 GPC+PCh                                             
 3.76E+03   7%   1.331 NAA+NAAG                                            
 2.82E+03   6%   1.000 Cr+PCr                                              
 4.28E+03  34%   1.518 Glu+Gln                                             
 1.33E+03 116%   0.471 Lip13a                                              
  131.322 433% 4.7E-02 Lip13b                                              
  138.651 321% 4.9E-02 Lip09                                               
 2.83E+03  21%   1.002 MM09                                                
  346.254  84%   0.123 Lip20                                               
 6.03E+03  16%   2.136 MM20                                                
  982.620  40%   0.348 MM12                                                
 2.63E+03  32%   0.930 MM14                                                
 1.65E+03  32%   0.584 MM17                                                
 1.46E+03  78%   0.518 Lip13a+Lip13b                                       
 5.07E+03  18%   1.796 MM14+Lip13a+Lip13b+MM12                             
 2.97E+03  15%   1.052 MM09+Lip09                                          
 6.38E+03  15%   2.259 MM20+Lip20                                          
   6 lines in following misc. output table
  FWHM = 0.061 ppm    S/N =   6                                            
  Data shift = 0.015 ppm                                                   
  Ph: -43 deg      -7.3 deg/ppm                                            
  alphaB,S = 4.9E+00,   4.7E+01                                            
   14 spline knots.   Ns = 9(1)                                            
  (15) 3 infls.   (15) 1 extrs.                                            
  498 points on ppm-axis = NY
      4.000000     3.992357     3.984714     3.977070     3.969427     3.961784     3.954141     3.946497     3.938854     3.931211
      3.923568     3.915925     3.908281     3.900638     3.892995     3.885352     3.877708     3.870065     3.862422     3.854779
      3.847136     3.839492     3.831849     3.824206     3.816563     3.808919     3.801276     3.793633     3.785990     3.778347
      3.770703     3.763060     3.755417     3.747774     3.740130     3.732487     3.724844     3.717201     3.709558     3.701914
      3.694271     3.686628     3.678985     3.671341     3.663698     3.656055     3.648412     3.640769     3.633125     3.625482
      3.617839     3.610196     3.602552     3.594909     3.587266     3.579623     3.571980     3.564336     3.556693     3.549050
      3.541407     3.533763     3.526120     3.518477     3.510834     3.503191     3.495547     3.487904     3.480261     3.472618
      3.464974     3.457331     3.449688     3.442045     3.434402     3.426758     3.419115     3.411472     3.403829     3.396185
      3.388542     3.380899     3.373256     3.365613     3.357969     3.350326     3.342683     3.335040     3.327396     3.319753
      3.312110     3.304467     3.296824     3.289180     3.281537     3.273894     3.266251     3.258607     3.250964     3.243321
      3.235678     3.228034     3.220391     3.212748     3.205105     3.197462     3.189818     3.182175     3.174532     3.166889
      3.159245     3.151602     3.143959     3.136316     3.128673     3.121029     3.113386     3.105743     3.098100     3.090456
      3.082813     3.075170     3.067527     3.059884     3.052240     3.044597     3.036954     3.029311     3.021667     3.014024
      3.006381     2.998738     2.991095     2.983451     2.975808     2.968165     2.960522     2.952878     2.945235     2.937592
      2.929949     2.922306     2.914662     2.907019     2.899376     2.891733     2.884089     2.876446     2.868803     2.861160
      2.853517     2.845873     2.838230     2.830587     2.822944     2.815300     2.807657     2.800014     2.792371     2.784728
      2.777084     2.769441     2.761798     2.754155     2.746511     2.738868     2.731225     2.723582     2.715939     2.708295
      2.700652     2.693009     2.685366     2.677722     2.670079     2.662436     2.654793     2.647150     2.639506     2.631863
      2.624220     2.616577     2.608933     2.601290     2.593647     2.586004     2.578361     2.570717     2.563074     2.555431
      2.547788     2.540144     2.532501     2.524858     2.517215     2.509572     2.501928     2.494285     2.486642     2.478999
      2.471355     2.463712     2.456069     2.448426     2.440783     2.433139     2.425496     2.417853     2.410210     2.402566
      2.394923     2.387280     2.379637     2.371994     2.364350     2.356707     2.349064     2.341421     2.333777     2.326134
      2.318491     2.310848     2.303205     2.295561     2.287918     2.280275     2.272632     2.264988     2.257345     2.249702
      2.242059     2.234416     2.226772     2.219129     2.211486     2.203843     2.196199     2.188556     2.180913     2.173270
      2.165627     2.157983     2.150340     2.142697     2.135054     2.127410     2.119767     2.112124     2.104481     2.096838
      2.089194     2.081551     2.073908     2.066265     2.058621     2.050978     2.043335     2.035692     2.028049     2.020405
      2.012762     2.005119     1.997476     1.989833     1.982190     1.974546     1.966903     1.959260     1.951617     1.943974
      1.936331     1.928688     1.921045     1.913402     1.905759     1.898115     1.890472     1.882829     1.875186     1.867543
      1.859900     1.852257     1.844614     1.836971     1.829327     1.821684     1.814041     1.806398     1.798755     1.791112
      1.783469     1.775826     1.768183     1.760540     1.752896     1.745253     1.737610     1.729967     1.722324     1.714681
      1.707038     1.699395     1.691752     1.684108     1.676465     1.668822     1.661179     1.653536     1.645893     1.638250
      1.630607     1.622964     1.615321     1.607677     1.600034     1.592391     1.584748     1.577105     1.569462     1.561819
      1.554176     1.546533     1.538890     1.531246     1.523603     1.515960     1.508317     1.500674     1.493031     1.485388
      1.477745     1.470102     1.462458     1.454815     1.447172     1.439529     1.431886     1.424243     1.416600     1.408957
      1.401314     1.393671     1.386027     1.378384     1.370741     1.363098     1.355455     1.347812     1.340169     1.332526
      1.324883     1.317240     1.309596     1.301953     1.294310     1.286667     1.279024     1.271381     1.263738     1.256095
      1.248452     1.240808     1.233165     1.225522     1.217879     1.210236     1.202593     1.194950     1.187307     1.179664
      1.172021     1.164377     1.156734     1.149091     1.141448     1.133805     1.126162     1.118519     1.110876     1.103233
      1.095590     1.087946     1.080303     1.072660     1.065017     1.057374     1.049731     1.042088     1.034445     1.026802
      1.019158     1.011515     1.003872     0.996229     0.988586     0.980943     0.973300     0.965657     0.958014     0.950371
      0.942727     0.935084     0.927441     0.919798     0.912155     0.904512     0.896869     0.889226     0.881583     0.873940
      0.866296     0.858653     0.851010     0.843367     0.835724     0.828081     0.820438     0.812795     0.805152     0.797508
      0.789865     0.782222     0.774579     0.766936     0.759293     0.751650     0.744007     0.736364     0.728721     0.721077
      0.713434     0.705791     0.698148     0.690505     0.682862     0.675219     0.667576     0.659933     0.652290     0.644646
      0.637003     0.629360     0.621717     0.614074     0.606431     0.598788     0.591145     0.583502     0.575858     0.568215
      0.560572     0.552929     0.545286     0.537643     0.530000     0.522357     0.514714     0.507071     0.499427     0.491784
      0.484141     0.476498     0.468855     0.461212     0.453569     0.445925     0.438282     0.430639     0.422996     0.415353
      0.407710     0.400067     0.392424     0.384780     0.377137     0.369494     0.361851     0.354208     0.346565     0.338922
      0.331278     0.323635     0.315992     0.308349     0.300706     0.293063     0.285420     0.277777     0.270133     0.262490
      0.254847     0.247204     0.239561     0.231918     0.224275     0.216631     0.208988     0.201345
 NY phased data points follow
  -8.56901E+01 -9.56412E+01 -8.22196E+01 -7.85850E+01 -6.46496E+01 -6.62966E+01 -3.73478E+01 -3.36585E+01 -2.77948E+01 -2.08133E+01
  -8.49198E+00 -1.79842E+01 -2.83239E+01 -3.62133E+01 -3.90719E+01 -4.07607E+01 -4.60272E+01 -5.12569E+01 -5.07795E+01 -5.50046E+01
  -5.05831E+01 -5.06574E+01 -4.09923E+01 -4.69522E+01 -4.58695E+01 -5.42454E+01 -4.22563E+01 -3.62428E+01 -3.11108E+01 -4.24924E+01
  -3.85435E+01 -2.30553E+01 -4.04286E+01 -4.09493E+01 -4.56664E+01 -5.83346E+01 -3.97445E+01 -5.41078E+01 -4.79281E+01 -5.72313E+01
  -4.07862E+01 -4.19788E+01 -3.40522E+01 -2.98256E+01 -2.74536E+01 -3.78341E+01 -2.95283E+01 -3.41214E+01 -2.95942E+01 -2.46839E+01
  -3.08342E+01 -3.05171E+01 -4.62396E+01 -3.86205E+01 -4.86518E+01 -2.93076E+01 -3.53851E+01 -1.88150E+01 -3.03262E+01 -4.37747E+01
  -3.90222E+01 -4.42720E+01 -5.49582E+01 -4.91860E+01 -4.61878E+01 -4.99135E+01 -6.17988E+01 -4.01202E+01 -4.92243E+01 -4.74225E+01
  -4.66386E+01 -4.07225E+01 -3.73050E+01 -3.51176E+01 -3.57458E+01 -3.73535E+01 -2.98855E+01 -4.26156E+01 -3.28762E+01 -3.74354E+01
  -3.10173E+01 -4.31197E+01 -2.00188E+01 -2.57495E+01 -3.26381E+01 -3.95207E+01 -4.06664E+01 -3.10731E+01 -1.88872E+01 -3.22718E+01
  -3.12556E+01 -2.51356E+01 -1.17703E+01 -3.21598E+01 -1.15304E+01 -2.46661E+01 -1.18730E+01 -8.21819E+00  6.94196E+00  1.75863E+01
   2.28291E+01  4.54267E+01  5.46414E+01  6.51989E+01  7.46624E+01  6.97080E+01  5.40390E+01  2.40009E+01 -1.02390E+01 -1.63526E+01
  -1.80971E+01 -8.28768E+00 -2.61824E+01 -2.43091E+01 -3.18942E+01 -2.74747E+01 -2.64612E+01 -1.76296E+01 -3.21134E+01 -9.42917E+00
  -7.59078E+00  2.91994E-01  6.31300E+00  2.32669E+01  3.97582E+01  2.69262E+01  4.60259E+01  4.99746E+01  4.68192E+01  3.91495E+01
   3.99783E+01  1.78648E+01  1.51634E+01 -7.31972E+00 -8.77352E+00 -2.32214E+01 -7.31110E+00 -2.22398E+01 -2.29214E+01 -2.22023E+01
  -3.42661E+01 -1.63835E+01 -1.52610E+01 -3.15842E+01 -3.35956E+01 -2.00872E+01 -2.34502E+01 -1.38713E+01 -2.67783E+01 -2.62056E+01
  -2.66489E+01 -2.17446E+01 -2.33936E+01 -3.25191E+01 -2.46920E+01 -2.84801E+01 -6.88854E+00 -2.38094E+01 -1.42345E+01 -1.86527E+01
  -1.15494E+01 -2.62705E+01  8.97893E-01 -2.48849E+01 -1.62671E+01 -2.96144E+01 -3.18059E+01 -1.63859E+01 -1.69487E+01 -2.74910E+01
  -2.59193E+01 -2.03713E+01 -3.62798E+01 -3.96722E+01 -4.27963E+01 -1.84362E+01 -3.13735E+01 -3.29348E+01 -2.22685E+01 -4.97093E+01
  -3.22600E+01 -1.91321E+01 -2.13406E+01 -3.57218E+01 -2.24555E+01 -2.65923E+01 -3.03010E+01 -2.85991E+01 -4.89414E+00 -1.29441E+01
   4.02475E+00 -1.40647E+01 -1.52564E+01 -1.84668E+01 -9.14974E+00 -5.87803E+00 -2.30075E+01 -1.42623E+01 -1.20871E+01 -2.19856E+01
  -8.73808E+00 -9.02518E+00  1.89280E+01 -5.02906E+00 -7.16212E+00 -1.14233E+01 -1.33396E+00 -1.31666E+01 -2.24456E+01 -2.29595E+01
  -1.95796E+01 -1.45570E-01 -1.62441E+01  3.21942E+00  5.31322E+00 -1.00051E+01  5.20308E+00 -8.06015E+00  6.77073E+00  1.71716E+00
  -5.38330E+00 -1.48300E+01 -1.56983E+01 -9.52693E+00  4.98028E+00  3.88526E-01 -7.45981E+00  6.84720E-01  1.23213E+01  1.74132E+01
   9.99277E-01  2.86995E+00  4.68294E+00 -2.05605E+00 -1.92711E+00  2.84503E+00  1.39896E+01  8.30565E+00  1.12797E+01  5.44715E+00
   2.27469E+00 -1.46269E+01 -4.37368E+00  1.01893E+01  5.54655E+00 -9.67725E+00  5.71528E+00  1.13801E+01  1.52334E+01  3.89686E+01
   2.89418E+01  3.30756E+01  1.57218E+01  3.98578E+01  4.29112E+01  6.10586E+01  7.32261E+01  7.87989E+01  1.00945E+02  1.08573E+02
   1.14645E+02  9.99996E+01  7.72047E+01  8.59137E+01  9.12570E+01  6.10723E+01  5.35990E+01  4.18004E+01  3.37336E+01  1.35002E+01
   1.11502E+01  1.72072E+01  4.97953E+00  5.77602E+00  1.04612E+01  5.43771E+00  2.13751E+00  1.88654E+01  2.01519E+01  1.02639E+01
   5.14811E+00 -5.79419E+00  9.00147E+00 -5.58743E+00 -1.17625E+01  2.41052E+00 -8.25423E+00 -8.11232E-01 -1.23340E+01 -1.06612E+01
  -7.87450E+00 -1.00807E+01 -4.41506E+00  4.39727E-01 -1.52313E+01 -7.77057E+00  3.40716E+00 -1.23808E+00  2.58909E+00  5.02660E+00
  -1.28323E+01  8.84958E+00  4.61893E+00 -3.54221E+00  6.26078E+00  3.67284E+00  2.01824E+01  2.36077E+00  1.21448E+01  1.76844E+01
   9.39172E+00  2.29061E+01  2.54817E+01  5.61217E+00  1.99576E+01  1.66916E+01  2.74163E+01  1.67607E+01  1.55121E+01  2.57582E+01
   2.17961E+01  1.65199E+01  1.27577E+01  2.84384E+01  9.53380E+00  2.38901E+00  1.60400E+01  2.37700E+00  2.11291E+01  2.51413E+01
   2.48642E+01  3.26055E+01  1.60567E+01  2.38957E+01  2.24280E+01  1.55866E+01  3.16458E+01  8.43288E+00  2.60556E+01  1.91943E+01
   1.84139E+01  1.64283E+01  2.03061E+01  2.07057E+01  2.67542E+01  2.10105E+01  1.40544E+01  5.22554E+00  1.21234E+01  1.43896E+01
   1.29919E+01  6.60795E+00  1.52874E+01  1.91284E+01  1.41815E+01  2.28586E+01  2.59823E+01  1.93696E+01  2.74033E+01  2.32409E+01
   7.19018E+00  3.55616E+01  2.41480E+01  2.80640E+01  1.39783E+01  8.38481E+00  8.60525E+00  2.87667E+01  2.78753E+01  8.77389E+00
   1.96408E+01  2.86512E+01  2.60011E+01  2.03605E+00  1.20343E+01  5.25600E+00  1.27380E+01  2.78568E+01  2.00562E+01  2.20314E+01
   1.42464E+01  2.54981E+01  2.46309E+01  1.63446E+01  1.54107E+01  2.07491E+01  6.09094E+00  7.89490E+00  1.99653E+01  3.92247E-01
   1.48556E+01  1.13372E+01  2.65269E+01  1.88330E+01  1.82929E+01  7.44705E+00  2.50258E+01  2.08170E+01  3.63530E+01  3.23771E+01
   2.27217E+01  4.08641E+01  2.28344E+01  2.78573E+01  3.46986E+01  1.46067E+01  1.60295E+01  2.12330E+01  2.63369E+01  2.15018E+01
   2.70763E+01  2.55139E+01  4.03940E+01  2.16920E+01  3.41680E+01  2.60258E+01  2.88708E+01  1.54538E+01  7.35405E+00  2.63961E+01
   1.47329E+01  2.03378E+01  2.74402E+01  2.04112E+01 -8.34422E+00  1.69558E+01  2.26817E+00  9.21204E+00  1.72021E+01  2.77978E+01
   2.52724E+01  1.11901E+01  2.26437E+01  2.69837E+01  2.40452E+01  6.84730E+00  2.16503E+01  1.80614E+01  1.82807E+01  2.55440E+01
   1.33070E+01  7.96858E+00  1.88216E+01  1.90465E+01  1.74496E-01  6.85809E+00  5.17643E+00  9.37939E+00  1.10871E+01  5.15695E+00
   9.20264E+00  1.59938E+01  1.15849E+01  2.78572E+01  2.53025E+01  6.12486E+00  6.27656E-02  1.00640E+01  6.03236E+00  2.02255E+01
   1.55784E+01  2.16527E+01 -1.12408E+00  4.30958E+00  2.22805E+01  1.34781E+00  1.46510E+01  2.21296E+01  1.78078E+01  1.72285E+01
  -1.70397E+00  8.20182E+00  1.11482E+01  1.03630E+01  2.62746E+00  4.05058E-01  2.13570E+01  1.66618E+01  1.93528E+01  1.65720E+01
   1.18592E+01  2.15951E+01  1.22884E+01  2.32764E+01  1.87177E+01  1.16661E+01  1.91784E+01  1.24602E+01  8.34628E+00  1.54281E+01
   1.68130E+01  2.28792E+01  1.46125E+01  8.91308E+00  2.07804E+01  6.45628E+00  1.94214E+01  2.02701E+01
 NY points of the fit to the data follow
  -5.96838E+01 -6.18782E+01 -6.16213E+01 -5.97620E+01 -5.73125E+01 -5.36945E+01 -4.81252E+01 -4.12374E+01 -3.47618E+01 -2.99009E+01
  -2.61812E+01 -2.29907E+01 -2.28142E+01 -2.78028E+01 -3.51584E+01 -4.05434E+01 -4.31011E+01 -4.40260E+01 -4.49214E+01 -4.63450E+01
  -4.76662E+01 -4.81902E+01 -4.80933E+01 -4.75184E+01 -4.64979E+01 -4.50172E+01 -4.29739E+01 -4.04664E+01 -3.78970E+01 -3.56348E+01
  -3.39854E+01 -3.30550E+01 -3.30165E+01 -3.43429E+01 -3.68547E+01 -3.97982E+01 -4.24181E+01 -4.42840E+01 -4.51802E+01 -4.50358E+01
  -4.40136E+01 -4.24080E+01 -4.07800E+01 -3.93731E+01 -3.82878E+01 -3.75423E+01 -3.70967E+01 -3.70497E+01 -3.73910E+01 -3.80674E+01
  -3.92023E+01 -4.06688E+01 -4.18514E+01 -4.22527E+01 -4.19521E+01 -4.13235E+01 -4.07463E+01 -4.03787E+01 -4.01008E+01 -3.98735E+01
  -3.97810E+01 -3.98161E+01 -4.00074E+01 -4.03339E+01 -4.06051E+01 -4.06839E+01 -4.05070E+01 -4.00989E+01 -3.95463E+01 -3.89769E+01
  -3.84799E+01 -3.81095E+01 -3.78632E+01 -3.76892E+01 -3.75693E+01 -3.75305E+01 -3.75310E+01 -3.74416E+01 -3.70041E+01 -3.61168E+01
  -3.50261E+01 -3.39467E+01 -3.28556E+01 -3.17181E+01 -3.07398E+01 -3.01486E+01 -2.99930E+01 -3.01820E+01 -3.05607E+01 -3.12474E+01
  -3.23085E+01 -3.32105E+01 -3.34065E+01 -3.29387E+01 -3.17691E+01 -2.79051E+01 -1.91474E+01 -6.98692E+00  6.51495E+00  2.09367E+01
   3.62751E+01  5.04377E+01  6.03793E+01  6.44749E+01  6.27800E+01  5.65652E+01  4.49102E+01  2.68231E+01  7.58285E+00 -6.07374E+00
  -1.36416E+01 -1.82396E+01 -2.20365E+01 -2.56225E+01 -2.81619E+01 -2.86011E+01 -2.82672E+01 -2.75851E+01 -2.61998E+01 -2.21087E+01
  -1.40934E+01 -3.82201E+00  7.19731E+00  1.89651E+01  3.13160E+01  4.22751E+01  4.96204E+01  5.22399E+01  5.04200E+01  4.50778E+01
   3.50497E+01  2.01124E+01  5.21996E+00 -4.94314E+00 -1.07461E+01 -1.46610E+01 -1.80518E+01 -2.12628E+01 -2.31624E+01 -2.32568E+01
  -2.27967E+01 -2.22860E+01 -2.19408E+01 -2.18562E+01 -2.19951E+01 -2.22660E+01 -2.25967E+01 -2.29053E+01 -2.31526E+01 -2.33659E+01
  -2.35460E+01 -2.36790E+01 -2.37639E+01 -2.38253E+01 -2.39440E+01 -2.41069E+01 -2.42702E+01 -2.43892E+01 -2.44489E+01 -2.45262E+01
  -2.46356E+01 -2.47198E+01 -2.47491E+01 -2.47803E+01 -2.48076E+01 -2.47663E+01 -2.47501E+01 -2.49328E+01 -2.54201E+01 -2.61827E+01
  -2.68954E+01 -2.72862E+01 -2.74425E+01 -2.75972E+01 -2.78078E+01 -2.79592E+01 -2.79241E+01 -2.77021E+01 -2.74266E+01 -2.71198E+01
  -2.67181E+01 -2.62287E+01 -2.57440E+01 -2.52117E+01 -2.44072E+01 -2.31423E+01 -2.15717E+01 -2.00268E+01 -1.87376E+01 -1.77140E+01
  -1.69347E+01 -1.64115E+01 -1.62673E+01 -1.65459E+01 -1.69058E+01 -1.69863E+01 -1.64979E+01 -1.51844E+01 -1.31649E+01 -1.08982E+01
  -8.76862E+00 -7.19345E+00 -6.72851E+00 -7.45356E+00 -9.12858E+00 -1.16565E+01 -1.46929E+01 -1.75436E+01 -1.93443E+01 -1.97090E+01
  -1.86160E+01 -1.62691E+01 -1.29107E+01 -8.80987E+00 -5.13140E+00 -3.34030E+00 -3.46267E+00 -4.55734E+00 -6.15704E+00 -8.36126E+00
  -1.06724E+01 -1.21172E+01 -1.19686E+01 -1.04991E+01 -8.40265E+00 -5.93234E+00 -3.15305E+00 -5.92228E-01  8.73261E-01  1.28367E+00
   1.40729E+00  1.66091E+00  2.10307E+00  2.75713E+00  3.68903E+00  4.80530E+00  5.94200E+00  6.81684E+00  7.39647E+00  7.81522E+00
   8.00076E+00  7.78534E+00  7.37416E+00  7.18359E+00  7.38065E+00  8.08536E+00  9.57935E+00  1.17638E+01  1.44631E+01  1.74427E+01
   2.05038E+01  2.37183E+01  2.82452E+01  3.66210E+01  4.82334E+01  6.06697E+01  7.29345E+01  8.54313E+01  9.72544E+01  1.05539E+02
   1.08535E+02  1.06404E+02  1.00526E+02  9.08304E+01  7.51426E+01  5.55700E+01  3.89233E+01  2.84018E+01  2.20024E+01  1.70747E+01
   1.26413E+01  8.65336E+00  6.54722E+00  5.63231E+00  5.00124E+00  4.48181E+00  4.01938E+00  3.52346E+00  2.99303E+00  2.47826E+00
   2.03959E+00  1.68967E+00  1.40275E+00  1.15174E+00  9.46022E-01  7.98421E-01  6.94403E-01  6.20126E-01  5.84305E-01  6.03442E-01
   6.82878E-01  8.19422E-01  1.00849E+00  1.25330E+00  1.55797E+00  1.92014E+00  2.33625E+00  2.81451E+00  3.36616E+00  3.99484E+00
   4.69744E+00  5.46772E+00  6.29932E+00  7.18308E+00  8.10189E+00  9.03664E+00  9.97103E+00  1.08882E+01  1.17723E+01  1.26072E+01
   1.33770E+01  1.40685E+01  1.46731E+01  1.51848E+01  1.56029E+01  1.59303E+01  1.61740E+01  1.63441E+01  1.64543E+01  1.65194E+01
   1.65553E+01  1.65774E+01  1.66000E+01  1.66350E+01  1.66921E+01  1.67774E+01  1.68948E+01  1.70443E+01  1.72240E+01  1.74294E+01
   1.76559E+01  1.78978E+01  1.81511E+01  1.84132E+01  1.86857E+01  1.89756E+01  1.93015E+01  1.97024E+01  2.02803E+01  2.12150E+01
   2.22957E+01  2.31054E+01  2.35194E+01  2.35753E+01  2.31284E+01  2.18583E+01  1.97363E+01  1.73417E+01  1.52567E+01  1.35813E+01
   1.21796E+01  1.15643E+01  1.25542E+01  1.49009E+01  1.76184E+01  1.99575E+01  2.18007E+01  2.32022E+01  2.38657E+01  2.33939E+01
   2.22341E+01  2.11151E+01  2.02422E+01  1.94839E+01  1.87267E+01  1.78868E+01  1.71704E+01  1.66176E+01  1.61527E+01  1.57431E+01
   1.53756E+01  1.50431E+01  1.47434E+01  1.44764E+01  1.42442E+01  1.40497E+01  1.38971E+01  1.37901E+01  1.37332E+01  1.37301E+01
   1.37853E+01  1.39026E+01  1.40860E+01  1.43387E+01  1.46637E+01  1.50632E+01  1.55392E+01  1.60922E+01  1.67222E+01  1.74267E+01
   1.82023E+01  1.90427E+01  1.99405E+01  2.08848E+01  2.18629E+01  2.28592E+01  2.38563E+01  2.48345E+01  2.57737E+01  2.66523E+01
   2.74496E+01  2.81452E+01  2.87214E+01  2.91626E+01  2.94576E+01  2.95984E+01  2.95821E+01  2.94098E+01  2.90879E+01  2.86263E+01
   2.80395E+01  2.73439E+01  2.65590E+01  2.57046E+01  2.48020E+01  2.38710E+01  2.29311E+01  2.19992E+01  2.10905E+01  2.02174E+01
   1.93900E+01  1.86155E+01  1.78991E+01  1.72430E+01  1.66483E+01  1.61139E+01  1.56381E+01  1.52177E+01  1.48491E+01  1.45281E+01
   1.42508E+01  1.40127E+01  1.38102E+01  1.36391E+01  1.34960E+01  1.33775E+01  1.32808E+01  1.32033E+01  1.31428E+01  1.30970E+01
   1.30644E+01  1.30432E+01  1.30322E+01  1.30302E+01  1.30364E+01  1.30495E+01  1.30691E+01  1.30942E+01  1.31246E+01  1.31594E+01
   1.31986E+01  1.32413E+01  1.32876E+01  1.33368E+01  1.33889E+01  1.34436E+01  1.35008E+01  1.35599E+01  1.36212E+01  1.36841E+01
   1.37490E+01  1.38153E+01  1.38831E+01  1.39522E+01  1.40226E+01  1.40941E+01  1.41668E+01  1.42405E+01  1.43151E+01  1.43905E+01
   1.44669E+01  1.45440E+01  1.46220E+01  1.47005E+01  1.47798E+01  1.48596E+01  1.49401E+01  1.50211E+01  1.51028E+01  1.51848E+01
   1.52674E+01  1.53503E+01  1.54339E+01  1.55178E+01  1.56022E+01  1.56869E+01  1.57720E+01  1.58574E+01  1.59434E+01  1.60296E+01
   1.61163E+01  1.62032E+01  1.62906E+01  1.63782E+01  1.64664E+01  1.65548E+01  1.66437E+01  1.67329E+01
 NY background values follow
    -5.904E+01   -5.881E+01   -5.858E+01   -5.835E+01   -5.813E+01   -5.790E+01   -5.767E+01   -5.744E+01   -5.721E+01   -5.698E+01
    -5.676E+01   -5.653E+01   -5.630E+01   -5.607E+01   -5.584E+01   -5.562E+01   -5.539E+01   -5.516E+01   -5.493E+01   -5.471E+01
    -5.448E+01   -5.425E+01   -5.402E+01   -5.380E+01   -5.357E+01   -5.334E+01   -5.311E+01   -5.289E+01   -5.266E+01   -5.243E+01
    -5.220E+01   -5.198E+01   -5.175E+01   -5.152E+01   -5.130E+01   -5.107E+01   -5.085E+01   -5.062E+01   -5.039E+01   -5.017E+01
    -4.994E+01   -4.972E+01   -4.949E+01   -4.927E+01   -4.904E+01   -4.881E+01   -4.859E+01   -4.836E+01   -4.814E+01   -4.792E+01
    -4.769E+01   -4.747E+01   -4.724E+01   -4.702E+01   -4.680E+01   -4.657E+01   -4.635E+01   -4.613E+01   -4.590E+01   -4.568E+01
    -4.546E+01   -4.524E+01   -4.501E+01   -4.479E+01   -4.457E+01   -4.435E+01   -4.413E+01   -4.391E+01   -4.369E+01   -4.347E+01
    -4.325E+01   -4.303E+01   -4.281E+01   -4.259E+01   -4.237E+01   -4.215E+01   -4.193E+01   -4.171E+01   -4.149E+01   -4.127E+01
    -4.106E+01   -4.084E+01   -4.062E+01   -4.040E+01   -4.019E+01   -3.997E+01   -3.976E+01   -3.954E+01   -3.932E+01   -3.911E+01
    -3.889E+01   -3.868E+01   -3.847E+01   -3.825E+01   -3.804E+01   -3.783E+01   -3.761E+01   -3.740E+01   -3.719E+01   -3.698E+01
    -3.677E+01   -3.655E+01   -3.634E+01   -3.613E+01   -3.592E+01   -3.571E+01   -3.550E+01   -3.529E+01   -3.509E+01   -3.488E+01
    -3.467E+01   -3.446E+01   -3.425E+01   -3.405E+01   -3.384E+01   -3.364E+01   -3.343E+01   -3.322E+01   -3.302E+01   -3.281E+01
    -3.261E+01   -3.241E+01   -3.220E+01   -3.200E+01   -3.180E+01   -3.160E+01   -3.139E+01   -3.119E+01   -3.099E+01   -3.079E+01
    -3.059E+01   -3.039E+01   -3.019E+01   -2.999E+01   -2.979E+01   -2.960E+01   -2.940E+01   -2.920E+01   -2.901E+01   -2.881E+01
    -2.861E+01   -2.842E+01   -2.822E+01   -2.803E+01   -2.784E+01   -2.764E+01   -2.745E+01   -2.726E+01   -2.706E+01   -2.687E+01
    -2.668E+01   -2.649E+01   -2.630E+01   -2.611E+01   -2.592E+01   -2.573E+01   -2.554E+01   -2.536E+01   -2.517E+01   -2.498E+01
    -2.479E+01   -2.461E+01   -2.442E+01   -2.424E+01   -2.405E+01   -2.387E+01   -2.369E+01   -2.350E+01   -2.332E+01   -2.314E+01
    -2.296E+01   -2.278E+01   -2.260E+01   -2.242E+01   -2.224E+01   -2.206E+01   -2.188E+01   -2.170E+01   -2.152E+01   -2.135E+01
    -2.117E+01   -2.099E+01   -2.082E+01   -2.064E+01   -2.047E+01   -2.030E+01   -2.012E+01   -1.995E+01   -1.978E+01   -1.961E+01
    -1.944E+01   -1.926E+01   -1.909E+01   -1.893E+01   -1.876E+01   -1.859E+01   -1.842E+01   -1.825E+01   -1.809E+01   -1.792E+01
    -1.775E+01   -1.759E+01   -1.742E+01   -1.726E+01   -1.710E+01   -1.693E+01   -1.677E+01   -1.661E+01   -1.645E+01   -1.628E+01
    -1.612E+01   -1.596E+01   -1.580E+01   -1.565E+01   -1.549E+01   -1.533E+01   -1.517E+01   -1.502E+01   -1.486E+01   -1.470E+01
    -1.455E+01   -1.439E+01   -1.424E+01   -1.409E+01   -1.393E+01   -1.378E+01   -1.363E+01   -1.348E+01   -1.333E+01   -1.318E+01
    -1.303E+01   -1.288E+01   -1.273E+01   -1.258E+01   -1.243E+01   -1.228E+01   -1.214E+01   -1.199E+01   -1.184E+01   -1.170E+01
    -1.155E+01   -1.141E+01   -1.127E+01   -1.112E+01   -1.098E+01   -1.084E+01   -1.069E+01   -1.055E+01   -1.041E+01   -1.027E+01
    -1.013E+01   -9.991E+00   -9.852E+00   -9.713E+00   -9.575E+00   -9.437E+00   -9.299E+00   -9.162E+00   -9.026E+00   -8.889E+00
    -8.754E+00   -8.618E+00   -8.483E+00   -8.349E+00   -8.214E+00   -8.081E+00   -7.947E+00   -7.814E+00   -7.682E+00   -7.550E+00
    -7.418E+00   -7.287E+00   -7.156E+00   -7.025E+00   -6.895E+00   -6.765E+00   -6.636E+00   -6.507E+00   -6.378E+00   -6.250E+00
    -6.122E+00   -5.994E+00   -5.867E+00   -5.740E+00   -5.613E+00   -5.487E+00   -5.361E+00   -5.236E+00   -5.111E+00   -4.986E+00
    -4.862E+00   -4.737E+00   -4.614E+00   -4.490E+00   -4.367E+00   -4.244E+00   -4.122E+00   -4.000E+00   -3.878E+00   -3.756E+00
    -3.635E+00   -3.514E+00   -3.394E+00   -3.274E+00   -3.154E+00   -3.034E+00   -2.915E+00   -2.796E+00   -2.677E+00   -2.559E+00
    -2.440E+00   -2.323E+00   -2.205E+00   -2.088E+00   -1.971E+00   -1.854E+00   -1.738E+00   -1.621E+00   -1.505E+00   -1.390E+00
    -1.274E+00   -1.159E+00   -1.045E+00   -9.300E-01   -8.157E-01   -7.017E-01   -5.879E-01   -4.744E-01   -3.611E-01   -2.482E-01
    -1.354E-01   -2.294E-02    8.928E-02    2.012E-01    3.130E-01    4.244E-01    5.357E-01    6.466E-01    7.573E-01    8.678E-01
     9.781E-01    1.088E+00    1.198E+00    1.307E+00    1.417E+00    1.526E+00    1.634E+00    1.743E+00    1.851E+00    1.959E+00
     2.067E+00    2.175E+00    2.282E+00    2.390E+00    2.497E+00    2.603E+00    2.710E+00    2.816E+00    2.922E+00    3.028E+00
     3.134E+00    3.239E+00    3.344E+00    3.449E+00    3.554E+00    3.659E+00    3.763E+00    3.867E+00    3.971E+00    4.075E+00
     4.179E+00    4.282E+00    4.385E+00    4.488E+00    4.591E+00    4.694E+00    4.796E+00    4.898E+00    5.000E+00    5.102E+00
     5.204E+00    5.306E+00    5.407E+00    5.508E+00    5.609E+00    5.710E+00    5.811E+00    5.911E+00    6.012E+00    6.112E+00
     6.212E+00    6.312E+00    6.412E+00    6.512E+00    6.611E+00    6.711E+00    6.810E+00    6.909E+00    7.008E+00    7.107E+00
     7.206E+00    7.304E+00    7.403E+00    7.501E+00    7.599E+00    7.697E+00    7.795E+00    7.893E+00    7.991E+00    8.089E+00
     8.186E+00    8.284E+00    8.381E+00    8.479E+00    8.576E+00    8.673E+00    8.770E+00    8.867E+00    8.963E+00    9.060E+00
     9.157E+00    9.253E+00    9.350E+00    9.446E+00    9.542E+00    9.638E+00    9.734E+00    9.830E+00    9.926E+00    1.002E+01
     1.012E+01    1.021E+01    1.031E+01    1.040E+01    1.050E+01    1.060E+01    1.069E+01    1.079E+01    1.088E+01    1.098E+01
     1.107E+01    1.117E+01    1.126E+01    1.136E+01    1.145E+01    1.155E+01    1.164E+01    1.174E+01    1.183E+01    1.193E+01
     1.202E+01    1.212E+01    1.221E+01    1.230E+01    1.240E+01    1.249E+01    1.259E+01    1.268E+01    1.278E+01    1.287E+01
     1.297E+01    1.306E+01    1.315E+01    1.325E+01    1.334E+01    1.344E+01    1.353E+01    1.363E+01    1.372E+01    1.381E+01
     1.391E+01    1.400E+01    1.410E+01    1.419E+01    1.428E+01    1.438E+01    1.447E+01    1.457E+01    1.466E+01    1.476E+01
     1.485E+01    1.494E+01    1.504E+01    1.513E+01    1.523E+01    1.532E+01    1.541E+01    1.551E+01    1.560E+01    1.570E+01
     1.579E+01    1.588E+01    1.598E+01    1.607E+01    1.617E+01    1.626E+01    1.635E+01    1.645E+01
 Cr       Conc. = 1.87E+02
