 LCModel (Version 6.3-1L) Copyright: S.W. Provencher.          Ref.: Magn. Reson. Med. 30:672-679 (1993).                
 Slice#2 Row#5 Col#5  PD_05_press_2_raw_act
 36 lines in following concentration table = NCONC+1
    Conc.  %SD /Cr+PCr  Metabolite                                         
    0.000 999%   0.000 Ala                                                 
  569.480  88%   0.196 Asp                                                 
 1.07E+03  52%   0.367 Cr                                                  
 1.84E+03  32%   0.633 PCr                                                 
  157.580 208% 5.4E-02 GABA                                                
  150.136 217% 5.2E-02 Glc                                                 
 1.31E+03  43%   0.450 Gln                                                 
 3.32E+03  20%   1.142 Glu                                                 
 1.31E+03   4%   0.449 GPC                                                 
    0.000 999%   0.000 PCh                                                 
  671.799  28%   0.231 GSH                                                 
 3.30E+03  18%   1.136 Ins                                                 
  383.845  79%   0.132 Lac                                                 
 4.29E+03   6%   1.475 NAA                                                 
  592.992  47%   0.204 NAAG                                                
  181.454  36% 6.2E-02 Scyllo                                              
   80.681 567% 2.8E-02 Tau                                                 
  431.946  62%   0.149 -CrCH2                                              
 1.31E+03   4%   0.449 GPC+PCh                                             
 4.88E+03   4%   1.679 NAA+NAAG                                            
 2.91E+03   5%   1.000 Cr+PCr                                              
 4.63E+03  19%   1.593 Glu+Gln                                             
 4.56E+03  26%   1.567 Lip13a                                              
    0.000 999%   0.000 Lip13b                                              
  215.227 289% 7.4E-02 Lip09                                               
 2.77E+03  24%   0.953 MM09                                                
  893.475  53%   0.307 Lip20                                               
 6.51E+03  14%   2.239 MM20                                                
  912.813  41%   0.314 MM12                                                
  186.860 397% 6.4E-02 MM14                                                
 2.11E+03  22%   0.725 MM17                                                
 4.56E+03  26%   1.567 Lip13a+Lip13b                                       
 5.66E+03  14%   1.945 MM14+Lip13a+Lip13b+MM12                             
 2.99E+03  14%   1.027 MM09+Lip09                                          
 7.40E+03  11%   2.546 MM20+Lip20                                          
   6 lines in following misc. output table
  FWHM = 0.054 ppm    S/N =   9                                            
  Data shift = 0.015 ppm                                                   
  Ph: -24 deg      -4.6 deg/ppm                                            
  alphaB,S = 8.5E+01,   2.0E+02                                            
   14 spline knots.   Ns = 6(1)                                            
   2 inflections.     1 extrema                                            
  498 points on ppm-axis = NY
      4.000000     3.992357     3.984714     3.977070     3.969427     3.961784     3.954141     3.946497     3.938854     3.931211
      3.923568     3.915925     3.908281     3.900638     3.892995     3.885352     3.877708     3.870065     3.862422     3.854779
      3.847136     3.839492     3.831849     3.824206     3.816563     3.808919     3.801276     3.793633     3.785990     3.778347
      3.770703     3.763060     3.755417     3.747774     3.740130     3.732487     3.724844     3.717201     3.709558     3.701914
      3.694271     3.686628     3.678985     3.671341     3.663698     3.656055     3.648412     3.640769     3.633125     3.625482
      3.617839     3.610196     3.602552     3.594909     3.587266     3.579623     3.571980     3.564336     3.556693     3.549050
      3.541407     3.533763     3.526120     3.518477     3.510834     3.503191     3.495547     3.487904     3.480261     3.472618
      3.464974     3.457331     3.449688     3.442045     3.434402     3.426758     3.419115     3.411472     3.403829     3.396185
      3.388542     3.380899     3.373256     3.365613     3.357969     3.350326     3.342683     3.335040     3.327396     3.319753
      3.312110     3.304467     3.296824     3.289180     3.281537     3.273894     3.266251     3.258607     3.250964     3.243321
      3.235678     3.228034     3.220391     3.212748     3.205105     3.197462     3.189818     3.182175     3.174532     3.166889
      3.159245     3.151602     3.143959     3.136316     3.128673     3.121029     3.113386     3.105743     3.098100     3.090456
      3.082813     3.075170     3.067527     3.059884     3.052240     3.044597     3.036954     3.029311     3.021667     3.014024
      3.006381     2.998738     2.991095     2.983451     2.975808     2.968165     2.960522     2.952878     2.945235     2.937592
      2.929949     2.922306     2.914662     2.907019     2.899376     2.891733     2.884089     2.876446     2.868803     2.861160
      2.853517     2.845873     2.838230     2.830587     2.822944     2.815300     2.807657     2.800014     2.792371     2.784728
      2.777084     2.769441     2.761798     2.754155     2.746511     2.738868     2.731225     2.723582     2.715939     2.708295
      2.700652     2.693009     2.685366     2.677722     2.670079     2.662436     2.654793     2.647150     2.639506     2.631863
      2.624220     2.616577     2.608933     2.601290     2.593647     2.586004     2.578361     2.570717     2.563074     2.555431
      2.547788     2.540144     2.532501     2.524858     2.517215     2.509572     2.501928     2.494285     2.486642     2.478999
      2.471355     2.463712     2.456069     2.448426     2.440783     2.433139     2.425496     2.417853     2.410210     2.402566
      2.394923     2.387280     2.379637     2.371994     2.364350     2.356707     2.349064     2.341421     2.333777     2.326134
      2.318491     2.310848     2.303205     2.295561     2.287918     2.280275     2.272632     2.264988     2.257345     2.249702
      2.242059     2.234416     2.226772     2.219129     2.211486     2.203843     2.196199     2.188556     2.180913     2.173270
      2.165627     2.157983     2.150340     2.142697     2.135054     2.127410     2.119767     2.112124     2.104481     2.096838
      2.089194     2.081551     2.073908     2.066265     2.058621     2.050978     2.043335     2.035692     2.028049     2.020405
      2.012762     2.005119     1.997476     1.989833     1.982190     1.974546     1.966903     1.959260     1.951617     1.943974
      1.936331     1.928688     1.921045     1.913402     1.905759     1.898115     1.890472     1.882829     1.875186     1.867543
      1.859900     1.852257     1.844614     1.836971     1.829327     1.821684     1.814041     1.806398     1.798755     1.791112
      1.783469     1.775826     1.768183     1.760540     1.752896     1.745253     1.737610     1.729967     1.722324     1.714681
      1.707038     1.699395     1.691752     1.684108     1.676465     1.668822     1.661179     1.653536     1.645893     1.638250
      1.630607     1.622964     1.615321     1.607677     1.600034     1.592391     1.584748     1.577105     1.569462     1.561819
      1.554176     1.546533     1.538890     1.531246     1.523603     1.515960     1.508317     1.500674     1.493031     1.485388
      1.477745     1.470102     1.462458     1.454815     1.447172     1.439529     1.431886     1.424243     1.416600     1.408957
      1.401314     1.393671     1.386027     1.378384     1.370741     1.363098     1.355455     1.347812     1.340169     1.332526
      1.324883     1.317240     1.309596     1.301953     1.294310     1.286667     1.279024     1.271381     1.263738     1.256095
      1.248452     1.240808     1.233165     1.225522     1.217879     1.210236     1.202593     1.194950     1.187307     1.179664
      1.172021     1.164377     1.156734     1.149091     1.141448     1.133805     1.126162     1.118519     1.110876     1.103233
      1.095590     1.087946     1.080303     1.072660     1.065017     1.057374     1.049731     1.042088     1.034445     1.026802
      1.019158     1.011515     1.003872     0.996229     0.988586     0.980943     0.973300     0.965657     0.958014     0.950371
      0.942727     0.935084     0.927441     0.919798     0.912155     0.904512     0.896869     0.889226     0.881583     0.873940
      0.866296     0.858653     0.851010     0.843367     0.835724     0.828081     0.820438     0.812795     0.805152     0.797508
      0.789865     0.782222     0.774579     0.766936     0.759293     0.751650     0.744007     0.736364     0.728721     0.721077
      0.713434     0.705791     0.698148     0.690505     0.682862     0.675219     0.667576     0.659933     0.652290     0.644646
      0.637003     0.629360     0.621717     0.614074     0.606431     0.598788     0.591145     0.583502     0.575858     0.568215
      0.560572     0.552929     0.545286     0.537643     0.530000     0.522357     0.514714     0.507071     0.499427     0.491784
      0.484141     0.476498     0.468855     0.461212     0.453569     0.445925     0.438282     0.430639     0.422996     0.415353
      0.407710     0.400067     0.392424     0.384780     0.377137     0.369494     0.361851     0.354208     0.346565     0.338922
      0.331278     0.323635     0.315992     0.308349     0.300706     0.293063     0.285420     0.277777     0.270133     0.262490
      0.254847     0.247204     0.239561     0.231918     0.224275     0.216631     0.208988     0.201345
 NY phased data points follow
  -1.61741E+01 -1.77781E+01 -6.18954E+00 -1.49270E+01 -1.05827E+01 -7.98209E+00  1.83431E+01  2.05089E+01  3.54499E+01  4.25592E+01
   4.97062E+01  4.82977E+01  5.81549E+01  2.94822E+01  3.05089E+01  1.14432E+01  1.58160E+01 -6.34899E+00 -8.24059E+00 -9.69186E+00
   4.11608E+00 -6.99233E+00  3.06754E+00  6.94946E+00  6.83648E+00 -5.11584E+00 -9.66074E+00  2.32204E+00  7.65387E+00  3.13406E+00
   1.25290E+01  6.71355E+00  9.79262E+00 -2.20274E+00  1.07209E+01  3.58936E+00 -2.97466E+00 -3.76762E+00  1.18773E+01 -8.28931E-01
   9.59423E+00 -5.36539E+00  2.18045E+00  5.91230E+00  1.28227E+01  1.31349E+01  2.55091E+01  2.25417E+01  3.03460E+01  2.72260E+01
   2.07384E+00  1.94345E+01  3.34784E+00 -3.36742E-01  5.83123E-01 -3.90944E+00  1.72832E+01  5.90775E-01 -2.22192E+00  3.44047E+00
   4.05861E-01 -1.36176E+01 -3.82932E+00 -1.95164E+01 -8.98538E+00 -1.23671E+01 -1.55891E+01 -1.05172E+01 -5.30361E+00 -1.86183E+01
  -1.54965E+01 -7.51899E-01 -5.92888E+00 -1.77641E+01 -2.46285E+00 -3.80499E+00 -1.61090E+01 -6.99302E+00 -2.10578E+00  8.91175E+00
  -1.39350E+01 -1.42537E+01 -2.78666E+00 -1.63696E+00 -4.58138E+00 -9.00744E-01 -1.06460E+01 -7.15751E+00 -7.02359E+00 -9.32707E+00
   4.31868E+00 -1.36350E+00 -7.38532E+00  8.55401E+00 -4.86551E+00  1.97281E+01 -4.43230E+00  5.20076E+00  4.43255E+00  2.29298E+01
   6.22339E+01  7.02244E+01  1.02636E+02  1.09483E+02  1.18497E+02  1.04908E+02  6.80002E+01  5.50082E+01  4.75243E+01  3.91769E+01
   3.70465E+00  1.05719E+01  5.17508E+00 -7.20592E+00 -6.46585E+00 -5.49950E+00 -3.90848E+00  1.03644E+01 -1.47922E+00  1.59595E+01
  -2.49980E+00 -4.18098E-01 -2.38302E-02  1.40617E+01  4.43367E+01  7.01621E+01  8.44112E+01  9.35039E+01  1.02819E+02  8.73870E+01
   6.71436E+01  2.81018E+01  4.55019E+01  2.94761E+01  8.13737E+00  2.83252E+00 -1.07829E+00  6.83450E+00 -2.18566E+01 -8.89394E+00
  -1.21335E+01 -1.05404E+01 -1.44236E+00 -6.07096E+00 -3.55374E+00 -1.21073E+01 -7.25862E+00 -1.04340E+01 -4.91177E+00 -2.12496E+00
   9.23313E+00 -9.58785E+00 -1.27883E+01 -1.05130E+01 -4.66666E+00 -6.18219E+00 -1.26287E+00 -1.18819E+01 -8.53625E+00 -2.63005E+01
  -8.95595E+00 -8.53000E+00 -1.57265E+01 -9.98427E+00 -1.74454E+01 -1.05038E+00 -9.48669E-01 -4.23407E+00 -1.15477E+01 -2.85287E+00
  -8.85068E+00 -2.46442E+01 -2.05889E+01 -2.15313E+01 -1.26146E+01 -2.00320E+01 -2.15472E+01 -3.51646E+01 -2.46116E+01 -2.45221E+01
  -2.02965E+01 -2.52358E+01 -1.84855E+01 -3.52663E+01 -2.28775E+01 -9.41048E+00 -3.31692E+00 -1.54040E+01 -7.46331E+00 -1.14793E+01
   2.79132E+00 -7.75116E+00 -3.36859E+00 -2.84593E+00 -8.33295E+00 -3.74489E-01  5.76456E+00 -1.30358E+01 -2.10709E+01 -3.06764E+01
  -2.84999E-01 -5.34866E-01  6.88227E+00  4.68605E+00  5.60030E+00  1.17090E+00 -9.38975E+00 -1.56821E+00 -2.12374E+01 -1.95179E+01
   3.55891E+00 -2.73051E+01 -1.29996E+01 -7.53147E+00 -2.98097E+00  1.49051E+01  2.07890E+01  1.75941E+01  2.07949E+01  5.28860E+00
  -8.38068E+00 -1.83532E+00 -7.01696E+00 -1.49784E+01 -1.14950E+01  4.93343E+00  2.32879E+01  1.05452E+01  1.53657E+01  2.51816E+01
   1.46529E+01  1.06946E+01  1.82911E+01  1.81795E+01  1.88125E+01  2.62732E+01  2.26673E+01  2.16165E+01  1.63302E+01  1.44147E+01
  -1.26787E+01 -6.90293E+00  4.53349E+00  1.21880E+01  1.04847E+01  1.78197E+01  2.36213E+01  3.78707E+01  1.96132E+01  2.95884E+01
   2.80670E+01  4.17456E+01  3.46819E+01  4.35200E+01  5.67529E+01  6.35225E+01  8.35677E+01  8.50449E+01  1.53481E+02  1.56652E+02
   1.88561E+02  1.76634E+02  1.59120E+02  1.27658E+02  8.57650E+01  7.09049E+01  6.09168E+01  4.39117E+01  2.88583E+01  2.48473E+01
   1.33857E+01  1.73925E+01  3.44090E+01  1.01128E+01  1.70142E+01  9.89216E+00  8.93378E+00  2.39689E+01  2.78864E+01  1.76984E+01
   4.55544E+00  1.15277E+01  1.90523E+01  1.02539E+01  1.54862E+01  1.10266E+01  1.85529E+01  1.41220E+01  1.47312E+01  1.52827E+01
   1.69161E+01  1.44372E+01 -1.38290E+00 -1.11167E+00  7.95560E+00  1.47804E+00  1.97252E+01 -1.83941E+00  1.48753E+01  1.48095E+01
   2.21737E+01  2.18894E+01  1.94244E+01  4.81175E+00  1.50281E+01  3.45688E+01  1.45379E+01  3.19270E+01  1.39138E+01  1.27930E+01
   1.75494E+01  1.10667E+01  2.39908E+01  5.66899E+00  9.61016E+00  1.45624E+01 -2.53992E+00  1.00426E+01  3.68025E+00 -7.18608E+00
   5.97437E+00  1.78396E+01 -9.88884E+00 -5.74090E-01 -1.12024E+01 -7.12429E+00 -9.79215E+00 -7.26409E+00 -5.92737E-01  3.51926E+00
   1.27881E+01 -5.92631E+00  1.21440E+01  1.00286E+01  1.54507E+01  6.64315E+00  1.25741E+01  1.85793E+01  6.93085E+00  1.80507E+01
   2.90866E+01  1.84698E+01  1.06140E+01  9.66602E+00  3.58674E+01  2.66991E+01  3.19691E+01  2.67199E+01  2.70959E+01  1.51993E+01
   1.67239E+01  1.26216E+01  1.42884E+01  2.49954E+01  4.61054E+01  3.52217E+01  2.03546E+01  2.05142E+01  2.54785E+01  1.53721E+01
   1.31077E+01  1.79792E+01  3.38628E+01  3.55094E+01  2.97748E+01  3.22815E+01  1.86287E+01  4.42600E+00  4.04821E+01  2.36860E+01
   2.49838E+01  2.43255E+01  3.15395E+01  5.56439E+00  1.70849E+01  3.86399E+01  2.24873E+01  2.18542E+01  1.00204E+01 -3.79525E-01
   1.09947E+01  8.05279E+00  9.94991E+00  2.04583E+01  2.27571E+01  2.50882E+01  1.35048E+01  2.08222E+01 -7.04718E-01  1.98302E+01
   1.37546E+01  1.63703E+01  1.85210E+01  1.72714E+01  1.34126E+00  2.55412E+01  2.33444E+01  1.95850E+01  1.99726E+01  1.92702E+01
   2.34700E+01  2.35469E+01  2.02761E+01  1.17446E+01  2.29806E+01  1.95890E+01  2.91672E+01  1.59368E+01  2.93614E+01  3.44624E+01
   3.04021E+01  3.12918E+01  2.46025E+01  2.04026E+01  2.73111E+01  2.65131E+01  1.92029E+01  2.66128E+01  2.86184E+01  1.40971E+01
   6.70878E+00  5.00872E+00  1.15954E+01  1.33955E+01  6.43151E+00  1.43625E+01  1.20497E+01  1.28410E+01  2.13682E+01  6.39677E+00
   1.72068E+01  1.82228E+01 -3.12719E+00  9.18988E+00  1.32895E+01 -2.46721E+00  1.37721E+01  5.38701E+00  1.55697E+01  2.46383E+00
   2.18113E+01  1.77426E+01  6.86736E+00 -1.77622E+00  7.55884E+00  3.55006E+00  1.68909E+01  1.27123E+01  1.38232E+01  8.63353E+00
   1.25105E+01  2.59666E+01  2.41781E+01  1.03574E+01  1.53483E+01  8.87196E-01 -5.20915E+00  1.71142E+01 -7.18319E+00  4.70466E+00
   1.43879E+01 -4.88372E+00  2.39217E+01  9.49886E+00 -8.52554E+00 -6.19691E-01  5.24730E+00  1.09036E+01  6.92028E+00 -3.02672E+00
   5.66932E-01  1.11271E+01  8.20308E+00  7.78202E+00  6.80275E+00  6.00195E+00  1.08154E+01  8.07722E+00  1.16856E+01  6.66864E+00
   5.89630E+00  2.12807E+01  1.74602E+01 -2.75474E-01  7.79873E+00  7.52424E+00  1.07097E+01  1.57949E-01  2.49744E+01  2.18461E+01
   1.05622E+01  6.75757E+00  9.47737E+00  2.60382E+00  8.04297E+00  1.11400E+01  1.37858E+01  3.57571E+00
 NY points of the fit to the data follow
  -7.74088E+00 -8.45607E+00 -8.47789E+00 -7.42531E+00 -4.01441E+00  2.33594E+00  1.17058E+01  2.30727E+01  3.45325E+01  4.38213E+01
   4.90017E+01  4.90995E+01  4.44867E+01  3.67151E+01  2.76690E+01  1.86542E+01  1.03436E+01  3.64379E+00 -5.39838E-01 -2.75331E+00
  -3.63683E+00 -4.06227E+00 -4.51550E+00 -5.08365E+00 -5.24864E+00 -4.70863E+00 -3.23406E+00 -7.16798E-01  2.66685E+00  6.54366E+00
   1.01326E+01  1.25724E+01  1.32875E+01  1.21614E+01  9.51617E+00  5.81341E+00  1.52383E+00 -2.31620E+00 -4.74606E+00 -5.97567E+00
  -5.95037E+00 -4.21764E+00 -6.11362E-01  4.46954E+00  1.00902E+01  1.52613E+01  1.88379E+01  1.99190E+01  1.83324E+01  1.44473E+01
   9.25214E+00  4.04237E+00 -4.63496E-01 -4.04646E+00 -6.19235E+00 -6.30814E+00 -4.74925E+00 -2.61038E+00 -7.16021E-01  4.80017E-01
   6.16685E-01 -3.67590E-01 -2.19948E+00 -4.29284E+00 -6.09858E+00 -7.32586E+00 -7.77006E+00 -7.33459E+00 -6.20630E+00 -4.74902E+00
  -3.33106E+00 -2.29097E+00 -1.78442E+00 -1.83442E+00 -2.32946E+00 -3.04712E+00 -3.82058E+00 -4.55420E+00 -5.22799E+00 -5.70557E+00
  -5.70260E+00 -5.14605E+00 -4.27997E+00 -3.43495E+00 -2.95374E+00 -3.13218E+00 -4.06036E+00 -5.56394E+00 -7.24502E+00 -8.62467E+00
  -9.31278E+00 -9.29549E+00 -8.87588E+00 -8.29357E+00 -7.56218E+00 -6.76090E+00 -5.64813E+00 -1.46024E+00  9.72188E+00  2.84413E+01
   5.27854E+01  7.85401E+01  1.00149E+02  1.12627E+02  1.13223E+02  1.02320E+02  8.35445E+01  6.19592E+01  4.11832E+01  2.25319E+01
   7.26468E+00 -1.88781E+00 -4.85935E+00 -5.71186E+00 -6.03151E+00 -6.16912E+00 -6.21273E+00 -6.18181E+00 -6.02127E+00 -5.57613E+00
  -4.32049E+00  1.32130E-02  1.01605E+01  2.61175E+01  4.61075E+01  6.66964E+01  8.35726E+01  9.30579E+01  9.32198E+01  8.45528E+01
   6.99445E+01  5.31308E+01  3.65810E+01  2.11775E+01  8.12592E+00  2.36352E-03 -3.08714E+00 -4.16706E+00 -4.30301E+00 -3.89025E+00
  -3.20910E+00 -2.45884E+00 -1.86924E+00 -1.63574E+00 -1.75720E+00 -2.18032E+00 -2.83909E+00 -3.59608E+00 -4.35801E+00 -5.06011E+00
  -5.68592E+00 -6.24924E+00 -6.69788E+00 -6.97729E+00 -7.11357E+00 -7.30533E+00 -7.73410E+00 -8.44702E+00 -9.37984E+00 -1.02716E+01
  -1.08721E+01 -1.10488E+01 -1.08195E+01 -1.03635E+01 -9.94264E+00 -9.77843E+00 -9.91662E+00 -1.02653E+01 -1.07533E+01 -1.13978E+01
  -1.22235E+01 -1.32234E+01 -1.42353E+01 -1.50505E+01 -1.56195E+01 -1.59531E+01 -1.60673E+01 -1.60143E+01 -1.58608E+01 -1.56583E+01
  -1.54361E+01 -1.52162E+01 -1.49280E+01 -1.44806E+01 -1.38574E+01 -1.28645E+01 -1.11831E+01 -8.87354E+00 -6.30689E+00 -4.03627E+00
  -2.49009E+00 -1.80327E+00 -1.95135E+00 -2.74230E+00 -3.91049E+00 -5.13881E+00 -5.93763E+00 -5.87765E+00 -4.77252E+00 -2.63648E+00
   2.41490E-01  3.28338E+00  5.80119E+00  7.22641E+00  6.91442E+00  4.63197E+00  6.74541E-01 -4.23384E+00 -9.04963E+00 -1.26017E+01
  -1.37684E+01 -1.18340E+01 -7.07870E+00 -5.81426E-01  6.11179E+00  1.13912E+01  1.38313E+01  1.25097E+01  7.50873E+00  5.30132E-01
  -6.38286E+00 -1.17319E+01 -1.43704E+01 -1.36873E+01 -9.80659E+00 -3.98839E+00  1.80200E+00  6.47536E+00  9.71404E+00  1.15792E+01
   1.21028E+01  1.16867E+01  1.12838E+01  1.15914E+01  1.25799E+01  1.39636E+01  1.54300E+01  1.65067E+01  1.68436E+01  1.63225E+01
   1.52425E+01  1.42174E+01  1.37795E+01  1.41569E+01  1.52925E+01  1.70556E+01  1.90189E+01  2.07369E+01  2.21700E+01  2.36716E+01
   2.59679E+01  2.93244E+01  3.38518E+01  3.96723E+01  4.89243E+01  6.49007E+01  8.74303E+01  1.14257E+02  1.41106E+02  1.62504E+02
   1.73455E+02  1.71031E+02  1.55691E+02  1.31821E+02  1.05521E+02  8.03754E+01  5.72948E+01  3.76360E+01  2.49835E+01  1.97126E+01
   1.70959E+01  1.54573E+01  1.44579E+01  1.38624E+01  1.33935E+01  1.29307E+01  1.23834E+01  1.17117E+01  1.09521E+01  1.01783E+01
   9.44613E+00  8.82312E+00  8.38642E+00  8.15427E+00  8.08415E+00  8.12452E+00  8.25440E+00  8.47381E+00  8.77879E+00  9.15597E+00
   9.61232E+00  1.01520E+01  1.07557E+01  1.13922E+01  1.20379E+01  1.26695E+01  1.32676E+01  1.38175E+01  1.43069E+01  1.47255E+01
   1.50694E+01  1.53264E+01  1.54786E+01  1.55126E+01  1.54227E+01  1.52095E+01  1.48775E+01  1.44357E+01  1.39027E+01  1.32993E+01
   1.26453E+01  1.19618E+01  1.12690E+01  1.05844E+01  9.92393E+00  9.30122E+00  8.72748E+00  8.21148E+00  7.75934E+00  7.37481E+00
   7.05956E+00  6.81363E+00  6.63574E+00  6.52407E+00  6.47629E+00  6.48989E+00  6.56240E+00  6.69184E+00  6.87687E+00  7.11693E+00
   7.41212E+00  7.76330E+00  8.17203E+00  8.64096E+00  9.17367E+00  9.77485E+00  1.04505E+01  1.12087E+01  1.20622E+01  1.30340E+01
   1.41772E+01  1.56023E+01  1.72801E+01  1.89954E+01  2.04963E+01  2.15289E+01  2.19193E+01  2.16314E+01  2.07969E+01  1.98483E+01
   1.92999E+01  1.94834E+01  2.04685E+01  2.21127E+01  2.41958E+01  2.64227E+01  2.82846E+01  2.94186E+01  2.98532E+01  2.97537E+01
   2.92571E+01  2.84258E+01  2.73740E+01  2.63616E+01  2.54471E+01  2.45511E+01  2.36471E+01  2.27325E+01  2.18133E+01  2.08989E+01
   1.99996E+01  1.91260E+01  1.82881E+01  1.74950E+01  1.67546E+01  1.60737E+01  1.54581E+01  1.49127E+01  1.44414E+01  1.40478E+01
   1.37346E+01  1.35044E+01  1.33595E+01  1.33019E+01  1.33337E+01  1.34566E+01  1.36720E+01  1.39809E+01  1.43832E+01  1.48784E+01
   1.54642E+01  1.61367E+01  1.68899E+01  1.77155E+01  1.86027E+01  1.95380E+01  2.05053E+01  2.14860E+01  2.24593E+01  2.34031E+01
   2.42943E+01  2.51099E+01  2.58280E+01  2.64282E+01  2.68934E+01  2.72096E+01  2.73677E+01  2.73630E+01  2.71957E+01  2.68711E+01
   2.63989E+01  2.57928E+01  2.50699E+01  2.42497E+01  2.33530E+01  2.24011E+01  2.14151E+01  2.04149E+01  1.94185E+01  1.84417E+01
   1.74978E+01  1.65973E+01  1.57481E+01  1.49555E+01  1.42227E+01  1.35506E+01  1.29388E+01  1.23854E+01  1.18874E+01  1.14416E+01
   1.10438E+01  1.06902E+01  1.03764E+01  1.00985E+01  9.85277E+00  9.63573E+00  9.44409E+00  9.27497E+00  9.12570E+00  8.99405E+00
   8.87798E+00  8.77576E+00  8.68578E+00  8.60669E+00  8.53726E+00  8.47652E+00  8.42356E+00  8.37762E+00  8.33793E+00  8.30392E+00
   8.27501E+00  8.25083E+00  8.23091E+00  8.21494E+00  8.20249E+00  8.19333E+00  8.18716E+00  8.18383E+00  8.18306E+00  8.18468E+00
   8.18845E+00  8.19427E+00  8.20197E+00  8.21151E+00  8.22268E+00  8.23541E+00  8.24953E+00  8.26503E+00  8.28178E+00  8.29976E+00
   8.31883E+00  8.33896E+00  8.36003E+00  8.38207E+00  8.40500E+00  8.42881E+00  8.45336E+00  8.47866E+00  8.50461E+00  8.53127E+00
   8.55855E+00  8.58645E+00  8.61485E+00  8.64378E+00  8.67318E+00  8.70311E+00  8.73347E+00  8.76426E+00  8.79539E+00  8.82690E+00
   8.85875E+00  8.89096E+00  8.92345E+00  8.95623E+00  8.98921E+00  9.02245E+00  9.05590E+00  9.08959E+00
 NY background values follow
    -1.742E+01   -1.737E+01   -1.732E+01   -1.727E+01   -1.722E+01   -1.717E+01   -1.712E+01   -1.707E+01   -1.702E+01   -1.697E+01
    -1.692E+01   -1.687E+01   -1.682E+01   -1.677E+01   -1.672E+01   -1.667E+01   -1.661E+01   -1.656E+01   -1.651E+01   -1.646E+01
    -1.641E+01   -1.636E+01   -1.631E+01   -1.626E+01   -1.621E+01   -1.616E+01   -1.611E+01   -1.606E+01   -1.601E+01   -1.596E+01
    -1.591E+01   -1.586E+01   -1.581E+01   -1.576E+01   -1.571E+01   -1.566E+01   -1.561E+01   -1.556E+01   -1.550E+01   -1.545E+01
    -1.540E+01   -1.535E+01   -1.530E+01   -1.525E+01   -1.520E+01   -1.515E+01   -1.510E+01   -1.505E+01   -1.500E+01   -1.495E+01
    -1.490E+01   -1.485E+01   -1.480E+01   -1.475E+01   -1.470E+01   -1.465E+01   -1.460E+01   -1.455E+01   -1.450E+01   -1.444E+01
    -1.439E+01   -1.434E+01   -1.429E+01   -1.424E+01   -1.419E+01   -1.414E+01   -1.409E+01   -1.404E+01   -1.399E+01   -1.394E+01
    -1.389E+01   -1.384E+01   -1.379E+01   -1.374E+01   -1.369E+01   -1.364E+01   -1.359E+01   -1.354E+01   -1.349E+01   -1.343E+01
    -1.338E+01   -1.333E+01   -1.328E+01   -1.323E+01   -1.318E+01   -1.313E+01   -1.308E+01   -1.303E+01   -1.298E+01   -1.293E+01
    -1.288E+01   -1.283E+01   -1.278E+01   -1.273E+01   -1.268E+01   -1.263E+01   -1.258E+01   -1.253E+01   -1.248E+01   -1.242E+01
    -1.237E+01   -1.232E+01   -1.227E+01   -1.222E+01   -1.217E+01   -1.212E+01   -1.207E+01   -1.202E+01   -1.197E+01   -1.192E+01
    -1.187E+01   -1.182E+01   -1.177E+01   -1.172E+01   -1.167E+01   -1.162E+01   -1.157E+01   -1.152E+01   -1.147E+01   -1.141E+01
    -1.136E+01   -1.131E+01   -1.126E+01   -1.121E+01   -1.116E+01   -1.111E+01   -1.106E+01   -1.101E+01   -1.096E+01   -1.091E+01
    -1.086E+01   -1.081E+01   -1.076E+01   -1.071E+01   -1.066E+01   -1.061E+01   -1.056E+01   -1.051E+01   -1.046E+01   -1.040E+01
    -1.035E+01   -1.030E+01   -1.025E+01   -1.020E+01   -1.015E+01   -1.010E+01   -1.005E+01   -1.000E+01   -9.950E+00   -9.900E+00
    -9.849E+00   -9.799E+00   -9.748E+00   -9.698E+00   -9.647E+00   -9.597E+00   -9.546E+00   -9.495E+00   -9.445E+00   -9.394E+00
    -9.344E+00   -9.293E+00   -9.243E+00   -9.192E+00   -9.142E+00   -9.091E+00   -9.041E+00   -8.990E+00   -8.940E+00   -8.889E+00
    -8.839E+00   -8.788E+00   -8.738E+00   -8.687E+00   -8.637E+00   -8.586E+00   -8.536E+00   -8.485E+00   -8.435E+00   -8.384E+00
    -8.334E+00   -8.283E+00   -8.233E+00   -8.182E+00   -8.132E+00   -8.081E+00   -8.031E+00   -7.980E+00   -7.930E+00   -7.879E+00
    -7.829E+00   -7.778E+00   -7.727E+00   -7.677E+00   -7.626E+00   -7.576E+00   -7.525E+00   -7.475E+00   -7.424E+00   -7.374E+00
    -7.323E+00   -7.273E+00   -7.222E+00   -7.172E+00   -7.121E+00   -7.071E+00   -7.020E+00   -6.970E+00   -6.919E+00   -6.869E+00
    -6.818E+00   -6.768E+00   -6.717E+00   -6.667E+00   -6.616E+00   -6.566E+00   -6.515E+00   -6.465E+00   -6.414E+00   -6.364E+00
    -6.313E+00   -6.263E+00   -6.212E+00   -6.162E+00   -6.111E+00   -6.060E+00   -6.010E+00   -5.959E+00   -5.909E+00   -5.858E+00
    -5.808E+00   -5.757E+00   -5.707E+00   -5.656E+00   -5.606E+00   -5.555E+00   -5.505E+00   -5.454E+00   -5.404E+00   -5.353E+00
    -5.303E+00   -5.252E+00   -5.202E+00   -5.151E+00   -5.101E+00   -5.050E+00   -5.000E+00   -4.949E+00   -4.899E+00   -4.848E+00
    -4.798E+00   -4.747E+00   -4.697E+00   -4.646E+00   -4.596E+00   -4.545E+00   -4.495E+00   -4.444E+00   -4.394E+00   -4.343E+00
    -4.293E+00   -4.242E+00   -4.192E+00   -4.141E+00   -4.091E+00   -4.040E+00   -3.990E+00   -3.939E+00   -3.889E+00   -3.838E+00
    -3.788E+00   -3.738E+00   -3.687E+00   -3.637E+00   -3.586E+00   -3.536E+00   -3.485E+00   -3.435E+00   -3.384E+00   -3.334E+00
    -3.283E+00   -3.233E+00   -3.182E+00   -3.132E+00   -3.081E+00   -3.031E+00   -2.980E+00   -2.930E+00   -2.879E+00   -2.829E+00
    -2.778E+00   -2.728E+00   -2.678E+00   -2.627E+00   -2.577E+00   -2.526E+00   -2.476E+00   -2.425E+00   -2.375E+00   -2.324E+00
    -2.274E+00   -2.223E+00   -2.173E+00   -2.122E+00   -2.072E+00   -2.021E+00   -1.971E+00   -1.921E+00   -1.870E+00   -1.820E+00
    -1.769E+00   -1.719E+00   -1.668E+00   -1.618E+00   -1.567E+00   -1.517E+00   -1.467E+00   -1.416E+00   -1.366E+00   -1.315E+00
    -1.265E+00   -1.214E+00   -1.164E+00   -1.113E+00   -1.063E+00   -1.013E+00   -9.621E-01   -9.117E-01   -8.612E-01   -8.108E-01
    -7.604E-01   -7.099E-01   -6.595E-01   -6.091E-01   -5.586E-01   -5.082E-01   -4.578E-01   -4.073E-01   -3.569E-01   -3.065E-01
    -2.561E-01   -2.056E-01   -1.552E-01   -1.048E-01   -5.438E-02   -3.959E-03    4.646E-02    9.688E-02    1.473E-01    1.977E-01
     2.481E-01    2.985E-01    3.489E-01    3.994E-01    4.498E-01    5.002E-01    5.506E-01    6.010E-01    6.514E-01    7.018E-01
     7.522E-01    8.026E-01    8.530E-01    9.034E-01    9.538E-01    1.004E+00    1.055E+00    1.105E+00    1.155E+00    1.206E+00
     1.256E+00    1.307E+00    1.357E+00    1.407E+00    1.458E+00    1.508E+00    1.558E+00    1.609E+00    1.659E+00    1.710E+00
     1.760E+00    1.810E+00    1.861E+00    1.911E+00    1.962E+00    2.012E+00    2.062E+00    2.113E+00    2.163E+00    2.213E+00
     2.264E+00    2.314E+00    2.364E+00    2.415E+00    2.465E+00    2.516E+00    2.566E+00    2.616E+00    2.667E+00    2.717E+00
     2.767E+00    2.818E+00    2.868E+00    2.918E+00    2.969E+00    3.019E+00    3.069E+00    3.120E+00    3.170E+00    3.220E+00
     3.271E+00    3.321E+00    3.371E+00    3.422E+00    3.472E+00    3.522E+00    3.573E+00    3.623E+00    3.673E+00    3.724E+00
     3.774E+00    3.824E+00    3.875E+00    3.925E+00    3.975E+00    4.026E+00    4.076E+00    4.126E+00    4.177E+00    4.227E+00
     4.277E+00    4.328E+00    4.378E+00    4.428E+00    4.479E+00    4.529E+00    4.579E+00    4.629E+00    4.680E+00    4.730E+00
     4.780E+00    4.831E+00    4.881E+00    4.931E+00    4.981E+00    5.032E+00    5.082E+00    5.132E+00    5.183E+00    5.233E+00
     5.283E+00    5.333E+00    5.384E+00    5.434E+00    5.484E+00    5.535E+00    5.585E+00    5.635E+00    5.685E+00    5.736E+00
     5.786E+00    5.836E+00    5.886E+00    5.937E+00    5.987E+00    6.037E+00    6.087E+00    6.138E+00    6.188E+00    6.238E+00
     6.288E+00    6.339E+00    6.389E+00    6.439E+00    6.489E+00    6.540E+00    6.590E+00    6.640E+00    6.690E+00    6.741E+00
     6.791E+00    6.841E+00    6.891E+00    6.942E+00    6.992E+00    7.042E+00    7.092E+00    7.142E+00    7.193E+00    7.243E+00
     7.293E+00    7.343E+00    7.393E+00    7.444E+00    7.494E+00    7.544E+00    7.594E+00    7.645E+00
 Asp      Conc. = 5.69E+02
