 LCModel (Version 6.3-1L) Copyright: S.W. Provencher.          Ref.: Magn. Reson. Med. 30:672-679 (1993).                
 Slice#3 Row#6 Col#9  PD_05_press_2_raw_act
 36 lines in following concentration table = NCONC+1
    Conc.  %SD /Cr+PCr  Metabolite                                         
  343.284  70%   0.176 Ala                                                 
  421.077  85%   0.216 Asp                                                 
    0.000 999%   0.000 Cr                                                  
 1.95E+03   6%   1.000 PCr                                                 
   27.682 838% 1.4E-02 GABA                                                
   55.205 411% 2.8E-02 Glc                                                 
 1.28E+03  39%   0.656 Gln                                                 
 3.07E+03  19%   1.575 Glu                                                 
  932.076   5%   0.477 GPC                                                 
    0.000 999%   0.000 PCh                                                 
  669.739  23%   0.343 GSH                                                 
 1.61E+03  30%   0.824 Ins                                                 
  400.077  69%   0.205 Lac                                                 
 3.07E+03   8%   1.570 NAA                                                 
   64.548 419% 3.3E-02 NAAG                                                
  163.345  31% 8.4E-02 Scyllo                                              
    0.000 999%   0.000 Tau                                                 
  476.523  42%   0.244 -CrCH2                                              
  932.076   5%   0.477 GPC+PCh                                             
 3.13E+03   5%   1.603 NAA+NAAG                                            
 1.95E+03   6%   1.000 Cr+PCr                                              
 4.36E+03  19%   2.231 Glu+Gln                                             
  279.112 518%   0.143 Lip13a                                              
  762.539 139%   0.391 Lip13b                                              
    0.000 999%   0.000 Lip09                                               
 1.97E+03  16%   1.008 MM09                                                
  207.090 105%   0.106 Lip20                                               
 4.08E+03  15%   2.089 MM20                                                
  622.035  34%   0.319 MM12                                                
 1.51E+03  36%   0.776 MM14                                                
 1.43E+03  25%   0.734 MM17                                                
 1.04E+03  60%   0.533 Lip13a+Lip13b                                       
 3.18E+03  19%   1.628 MM14+Lip13a+Lip13b+MM12                             
 1.97E+03  16%   1.008 MM09+Lip09                                          
 4.29E+03  14%   2.195 MM20+Lip20                                          
   6 lines in following misc. output table
  FWHM = 0.054 ppm    S/N =   7                                            
  Data shift = 0.023 ppm                                                   
  Ph: -61 deg     -17.5 deg/ppm                                            
  alphaB,S = 8.5E+01,   1.0E+02                                            
   14 spline knots.   Ns = 7(1)                                            
   2 inflections.     1 extrema                                            
  498 points on ppm-axis = NY
      4.000000     3.992357     3.984714     3.977070     3.969427     3.961784     3.954141     3.946497     3.938854     3.931211
      3.923568     3.915925     3.908281     3.900638     3.892995     3.885352     3.877708     3.870065     3.862422     3.854779
      3.847136     3.839492     3.831849     3.824206     3.816563     3.808919     3.801276     3.793633     3.785990     3.778347
      3.770703     3.763060     3.755417     3.747774     3.740130     3.732487     3.724844     3.717201     3.709558     3.701914
      3.694271     3.686628     3.678985     3.671341     3.663698     3.656055     3.648412     3.640769     3.633125     3.625482
      3.617839     3.610196     3.602552     3.594909     3.587266     3.579623     3.571980     3.564336     3.556693     3.549050
      3.541407     3.533763     3.526120     3.518477     3.510834     3.503191     3.495547     3.487904     3.480261     3.472618
      3.464974     3.457331     3.449688     3.442045     3.434402     3.426758     3.419115     3.411472     3.403829     3.396185
      3.388542     3.380899     3.373256     3.365613     3.357969     3.350326     3.342683     3.335040     3.327396     3.319753
      3.312110     3.304467     3.296824     3.289180     3.281537     3.273894     3.266251     3.258607     3.250964     3.243321
      3.235678     3.228034     3.220391     3.212748     3.205105     3.197462     3.189818     3.182175     3.174532     3.166889
      3.159245     3.151602     3.143959     3.136316     3.128673     3.121029     3.113386     3.105743     3.098100     3.090456
      3.082813     3.075170     3.067527     3.059884     3.052240     3.044597     3.036954     3.029311     3.021667     3.014024
      3.006381     2.998738     2.991095     2.983451     2.975808     2.968165     2.960522     2.952878     2.945235     2.937592
      2.929949     2.922306     2.914662     2.907019     2.899376     2.891733     2.884089     2.876446     2.868803     2.861160
      2.853517     2.845873     2.838230     2.830587     2.822944     2.815300     2.807657     2.800014     2.792371     2.784728
      2.777084     2.769441     2.761798     2.754155     2.746511     2.738868     2.731225     2.723582     2.715939     2.708295
      2.700652     2.693009     2.685366     2.677722     2.670079     2.662436     2.654793     2.647150     2.639506     2.631863
      2.624220     2.616577     2.608933     2.601290     2.593647     2.586004     2.578361     2.570717     2.563074     2.555431
      2.547788     2.540144     2.532501     2.524858     2.517215     2.509572     2.501928     2.494285     2.486642     2.478999
      2.471355     2.463712     2.456069     2.448426     2.440783     2.433139     2.425496     2.417853     2.410210     2.402566
      2.394923     2.387280     2.379637     2.371994     2.364350     2.356707     2.349064     2.341421     2.333777     2.326134
      2.318491     2.310848     2.303205     2.295561     2.287918     2.280275     2.272632     2.264988     2.257345     2.249702
      2.242059     2.234416     2.226772     2.219129     2.211486     2.203843     2.196199     2.188556     2.180913     2.173270
      2.165627     2.157983     2.150340     2.142697     2.135054     2.127410     2.119767     2.112124     2.104481     2.096838
      2.089194     2.081551     2.073908     2.066265     2.058621     2.050978     2.043335     2.035692     2.028049     2.020405
      2.012762     2.005119     1.997476     1.989833     1.982190     1.974546     1.966903     1.959260     1.951617     1.943974
      1.936331     1.928688     1.921045     1.913402     1.905759     1.898115     1.890472     1.882829     1.875186     1.867543
      1.859900     1.852257     1.844614     1.836971     1.829327     1.821684     1.814041     1.806398     1.798755     1.791112
      1.783469     1.775826     1.768183     1.760540     1.752896     1.745253     1.737610     1.729967     1.722324     1.714681
      1.707038     1.699395     1.691752     1.684108     1.676465     1.668822     1.661179     1.653536     1.645893     1.638250
      1.630607     1.622964     1.615321     1.607677     1.600034     1.592391     1.584748     1.577105     1.569462     1.561819
      1.554176     1.546533     1.538890     1.531246     1.523603     1.515960     1.508317     1.500674     1.493031     1.485388
      1.477745     1.470102     1.462458     1.454815     1.447172     1.439529     1.431886     1.424243     1.416600     1.408957
      1.401314     1.393671     1.386027     1.378384     1.370741     1.363098     1.355455     1.347812     1.340169     1.332526
      1.324883     1.317240     1.309596     1.301953     1.294310     1.286667     1.279024     1.271381     1.263738     1.256095
      1.248452     1.240808     1.233165     1.225522     1.217879     1.210236     1.202593     1.194950     1.187307     1.179664
      1.172021     1.164377     1.156734     1.149091     1.141448     1.133805     1.126162     1.118519     1.110876     1.103233
      1.095590     1.087946     1.080303     1.072660     1.065017     1.057374     1.049731     1.042088     1.034445     1.026802
      1.019158     1.011515     1.003872     0.996229     0.988586     0.980943     0.973300     0.965657     0.958014     0.950371
      0.942727     0.935084     0.927441     0.919798     0.912155     0.904512     0.896869     0.889226     0.881583     0.873940
      0.866296     0.858653     0.851010     0.843367     0.835724     0.828081     0.820438     0.812795     0.805152     0.797508
      0.789865     0.782222     0.774579     0.766936     0.759293     0.751650     0.744007     0.736364     0.728721     0.721077
      0.713434     0.705791     0.698148     0.690505     0.682862     0.675219     0.667576     0.659933     0.652290     0.644646
      0.637003     0.629360     0.621717     0.614074     0.606431     0.598788     0.591145     0.583502     0.575858     0.568215
      0.560572     0.552929     0.545286     0.537643     0.530000     0.522357     0.514714     0.507071     0.499427     0.491784
      0.484141     0.476498     0.468855     0.461212     0.453569     0.445925     0.438282     0.430639     0.422996     0.415353
      0.407710     0.400067     0.392424     0.384780     0.377137     0.369494     0.361851     0.354208     0.346565     0.338922
      0.331278     0.323635     0.315992     0.308349     0.300706     0.293063     0.285420     0.277777     0.270133     0.262490
      0.254847     0.247204     0.239561     0.231918     0.224275     0.216631     0.208988     0.201345
 NY phased data points follow
  -1.60369E+01 -1.97199E+01 -1.75367E+01 -1.94254E+01  3.26202E-01  5.57936E+00  6.39002E+00  2.96446E+00  3.49200E+00  1.83884E+01
   3.41930E+01  1.29268E+01  2.41830E+01 -7.83744E+00  7.25930E+00  8.88607E-01 -1.63391E+00 -4.33400E+00 -1.48649E+01 -1.45173E+01
  -4.05815E+00 -1.01324E+01 -1.17702E+01 -1.42811E+01  5.87266E+00  5.91968E+00  3.17880E+00 -1.72666E+01 -2.29827E-01 -1.22273E+01
   4.82152E+00 -5.65630E+00  6.59069E+00 -8.20856E+00 -1.84310E+00  8.53572E+00 -2.33497E+00 -9.03338E+00 -3.80097E+00 -9.53304E+00
  -1.00589E+01 -2.46456E+00 -7.64665E+00 -9.91206E+00 -6.68433E+00  1.17206E+01 -2.24986E-01  3.01786E+00  7.79522E+00  1.50181E+01
   7.29008E+00 -5.88046E+00 -1.33516E+00 -6.74324E+00 -1.14396E+01 -1.16021E+01 -9.76646E+00 -5.37026E+00 -5.04490E-02 -1.55521E+01
  -5.02165E+00 -2.49718E+01 -2.14044E+01 -1.11561E+01 -1.22341E+01 -2.63095E+01 -2.79642E+01 -2.57652E+01 -2.59086E+01 -2.98422E+01
  -1.63775E+01 -2.15351E+01 -1.00995E+01 -1.88079E+01 -7.70377E+00 -2.79882E+01 -2.65116E+00 -2.37403E+01 -1.20177E+01 -1.07699E+01
  -3.84964E+00 -1.54487E+01 -7.17213E+00 -1.63194E+01 -1.10773E+01 -1.12623E+01 -1.27082E+01  1.55563E+00 -4.94737E-01 -1.23613E+00
  -1.78915E+00 -3.05714E+00 -6.76500E+00 -1.80423E+01  1.31030E+00  1.96497E+00  2.09612E+00  1.74384E+00  1.29247E+01  1.42095E+01
   4.07667E+01  5.26851E+01  7.03741E+01  7.55712E+01  7.12159E+01  6.15328E+01  4.09657E+01  2.80126E+01  1.11934E+01 -3.43837E+00
   3.99338E+00  5.08552E+00 -3.16424E+00 -1.20516E+01 -5.40074E+00 -2.03709E+01 -6.35219E-01 -9.38668E+00 -1.00898E+01 -1.47383E+01
  -9.08007E+00 -8.09806E+00 -5.43209E+00  1.05077E+01  1.74185E+01  3.49315E+01  5.02748E+01  4.35048E+01  5.72637E+01  5.31204E+01
   5.34406E+01  2.66712E+01  1.87571E+01 -3.05742E+00 -5.20760E+00 -2.25552E+00 -4.81159E+00 -2.52096E-01 -1.21076E+01 -2.13746E+01
  -5.78808E+00 -7.15762E-01 -1.01575E+01 -1.20193E+01 -2.16711E+01 -8.00698E+00 -1.31889E+01 -3.64297E+00 -2.35028E+01 -1.59258E+01
  -3.16080E+00 -5.00539E+00 -1.45653E+01 -2.44699E+01 -1.21759E+01 -8.61300E+00 -1.72772E+01 -1.89876E+00 -1.73626E+01 -1.62314E+01
  -1.79151E+01 -1.73484E+01 -9.49196E+00 -2.34098E+01 -1.66033E+01 -1.57259E+01 -1.56259E+01 -2.01921E+01 -1.14942E+01 -2.07420E+01
  -1.87242E+01 -2.27003E+01 -2.07577E+01 -1.90672E+01 -2.09375E+01 -1.85922E+01 -2.69574E+01 -2.33318E+01 -2.97698E+01 -3.35911E+01
  -5.28411E+00 -8.70890E+00 -2.60005E+01 -1.87907E+01 -2.38667E+01 -1.47914E+01 -2.91337E+01 -2.09727E+01 -1.27145E+01 -1.33330E+01
  -8.17659E+00 -7.81676E+00 -1.10487E+00 -1.09815E+01 -1.10367E+01 -1.36769E+01 -1.07163E+01 -1.33902E+01 -9.16467E+00 -1.92592E+01
  -1.55331E+01 -1.53724E+00 -6.39955E+00  2.92821E+00  1.50381E+00  5.42936E+00 -1.07031E+01 -6.81753E+00 -5.48269E+00 -1.23391E+01
  -3.95975E+00 -1.01936E+00  1.13388E+01  8.80117E+00  6.60748E+00  7.78861E+00  2.50356E+01  1.16159E+01  1.64623E+01 -3.08080E-02
   5.97042E+00 -5.11177E+00 -1.32563E+01 -1.21830E+01  1.63378E-01 -1.70199E+00 -1.37049E+00  1.18595E+01  1.72704E+01  1.26291E+01
   1.03068E+01  4.82279E+00  1.89577E+01  7.85388E+00  1.52820E+01  4.52539E+00  6.22754E+00  1.02034E+01  4.17805E+00  1.06724E+01
   2.49777E+00  7.72511E+00 -1.00065E+01  1.48369E+00 -1.06677E+01  6.14499E+00 -1.52066E-01  8.99845E+00  1.24450E+01  1.41928E+01
   1.99430E+01  1.90688E+01  1.26430E+01  1.17717E+01  2.22008E+01  2.45715E+01  4.88316E+01  7.43260E+01  8.71556E+01  1.11502E+02
   1.01033E+02  1.04430E+02  8.82976E+01  8.78038E+01  6.01389E+01  4.76262E+01  2.45875E+01  2.27187E+01  1.22040E+01  1.50485E+01
   1.65171E+01 -3.69877E+00  9.26515E+00  1.40744E+01  8.97732E+00  1.32816E+01 -8.63878E-02  1.75846E+00 -1.27778E+00  1.99379E+00
  -4.48915E+00  6.34990E-01  7.70813E+00 -1.78586E+00  1.98441E+01  4.70224E+00  2.13809E+00  8.13648E+00  2.59101E+00 -1.23504E+01
   9.19447E+00  1.71515E-01  2.14612E+00 -3.76764E+00 -3.39230E+00 -4.27515E+00  1.19274E+00  7.51087E+00 -5.80264E+00  3.86957E+00
  -8.51648E+00 -1.19912E+01  3.30501E+00  7.12042E+00  1.20793E+01 -5.91807E-01  3.22337E+00  5.47538E+00  1.74006E+00  1.42766E+00
   1.48032E+01  1.83708E+01  1.75756E+01  6.06113E+00  1.17815E+01  1.42824E+01  1.97082E+01  1.64584E+01  9.60098E+00  2.02590E+01
   1.46735E+01  9.29403E+00  1.95950E+01  7.13426E+00  1.69762E+01  2.42461E+01  5.97951E+00  9.86625E+00  8.52837E+00  9.47374E+00
   3.71604E+00  3.48528E+00  9.74739E+00  5.40314E+00  5.88677E+00  1.07966E+01  5.66477E+00  1.67657E-02 -3.47765E+00  5.03501E+00
   7.37987E+00  1.04671E+01  1.48078E+01  2.07301E+01  2.05037E+01  1.38368E+01  1.80871E+01  1.35567E+01  2.05588E+01  8.85582E+00
   1.05859E+01  1.63894E-01  1.07269E+01  1.68313E+01  2.26046E+01  1.14608E+01  8.44067E+00  1.33448E+01  1.58433E+01  2.28864E+01
   7.06156E+00  1.17740E+01  7.93988E+00  1.10331E+01  1.15381E+01  7.84152E+00  1.45421E+01  1.76159E+01  1.03377E+01  1.45687E+01
   1.44206E+01  9.98907E+00  3.95834E+00 -1.75296E+00  5.93451E+00  1.02325E+01  6.94221E+00  5.69087E+00  1.85730E+00  2.68025E+00
   1.05841E+01  7.57636E+00  2.20655E+00 -1.04857E+00  2.73302E+00  1.15975E+01  1.44243E+01  6.08785E+00  6.16986E+00  1.26620E+01
   9.98894E+00  8.78166E+00 -2.74995E-01  6.12131E+00  1.17594E+01  7.51278E+00  2.09707E+00  1.35112E+01 -4.16976E+00  2.77498E+01
   9.70741E+00  1.37012E+01  1.25789E+01  2.96692E+00  1.03583E+01  1.64519E+01  1.10902E+01  2.46214E+01  2.16772E+01  1.55003E+01
   1.97859E+01  6.10278E+00  2.02995E+01  2.34812E-01  1.20359E+01  2.45285E+01  2.04593E+01  9.80873E+00  1.45016E+01  1.64042E+01
   2.15797E+01  8.77474E+00  1.44220E+01  1.72104E+01  1.20379E+01  1.60181E+01  9.63080E+00  7.61456E+00  7.55968E+00  9.53157E+00
   1.24751E+01  8.47685E+00  7.33738E+00  6.36230E+00  8.84429E+00 -8.09482E-01  9.18262E+00  1.30006E+01  1.21530E+01  9.88219E+00
   9.58639E+00  3.12138E+00  2.25352E+00  9.22670E+00  2.87463E+00  1.84608E+01  6.11793E-01 -6.97834E+00  3.52081E+00  6.93125E+00
   5.13258E+00  8.98095E+00 -7.96563E-02  1.42011E+01 -1.59583E+00  1.85425E+00 -3.30442E+00 -1.03774E+00  7.50553E+00  1.43535E+01
   1.23794E+01  9.72290E+00  7.66405E-02  1.48211E+00  5.53463E-01  7.95129E+00  9.53395E+00  1.32644E+00  7.18032E+00  1.08625E+01
   3.72944E-01  3.75257E+00  1.18391E+01  4.71668E+00  8.51497E+00  1.58143E+01  9.55485E-01  8.76514E+00  5.84251E+00  5.38229E+00
   9.27898E+00  1.45242E+01  4.25134E+00  1.40953E+01  6.82834E+00  7.74489E+00  6.52667E+00  1.23823E+01  6.22338E+00  1.21437E+01
   7.26480E+00  1.23108E+01  1.20759E+01  1.72674E+01 -5.91331E+00  1.04269E+01  7.47201E+00  1.16311E+01
 NY points of the fit to the data follow
  -1.39251E+01 -1.40336E+01 -1.33624E+01 -1.15370E+01 -8.33652E+00 -3.56656E+00  2.49904E+00  9.06299E+00  1.49630E+01  1.90143E+01
   2.04835E+01  1.92179E+01  1.55225E+01  1.01096E+01  4.19182E+00 -1.02471E+00 -4.88065E+00 -7.65055E+00 -9.60534E+00 -1.02739E+01
  -1.04321E+01 -1.04900E+01 -1.05526E+01 -1.05851E+01 -1.04840E+01 -9.97844E+00 -8.74499E+00 -6.63280E+00 -3.75479E+00 -5.50361E-01
   2.40428E+00  4.50650E+00  5.15612E+00  4.02532E+00  1.39262E+00 -2.10526E+00 -5.62843E+00 -8.74740E+00 -1.10475E+01 -1.19457E+01
  -1.16649E+01 -1.04384E+01 -8.51357E+00 -6.13997E+00 -3.57544E+00 -1.28672E+00  3.42136E-01  1.02838E+00  6.30121E-01 -7.82188E-01
  -3.04256E+00 -5.77376E+00 -8.36202E+00 -1.03855E+01 -1.16999E+01 -1.22668E+01 -1.21401E+01 -1.15160E+01 -1.07606E+01 -1.01801E+01
  -9.98086E+00 -1.02211E+01 -1.08562E+01 -1.17454E+01 -1.26562E+01 -1.33336E+01 -1.36132E+01 -1.34958E+01 -1.30403E+01 -1.23702E+01
  -1.16815E+01 -1.11155E+01 -1.07790E+01 -1.06833E+01 -1.07863E+01 -1.10341E+01 -1.13354E+01 -1.16041E+01 -1.17679E+01 -1.17530E+01
  -1.14538E+01 -1.07717E+01 -9.72998E+00 -8.47160E+00 -7.24989E+00 -6.37082E+00 -6.06841E+00 -6.40216E+00 -7.26154E+00 -8.43320E+00
  -9.62653E+00 -1.05096E+01 -1.08691E+01 -1.07212E+01 -1.02257E+01 -9.05308E+00 -5.81951E+00  5.52500E-01  1.08062E+01  2.48163E+01
   4.09989E+01  5.64436E+01  6.78163E+01  7.26822E+01  7.01266E+01  6.06780E+01  4.61449E+01  2.97349E+01  1.49061E+01  3.75345E+00
  -3.97118E+00 -9.27820E+00 -1.14117E+01 -1.17182E+01 -1.16341E+01 -1.14367E+01 -1.11895E+01 -1.08860E+01 -1.04698E+01 -9.77225E+00
  -8.14701E+00 -4.53254E+00  1.79482E+00  1.11029E+01  2.27308E+01  3.49817E+01  4.54972E+01  5.21107E+01  5.35966E+01  4.97896E+01
   4.13836E+01  3.00076E+01  1.81029E+01  7.81532E+00  1.17076E-02 -5.85657E+00 -9.66320E+00 -1.09437E+01 -1.10521E+01 -1.05498E+01
  -9.74332E+00 -8.94252E+00 -8.32929E+00 -7.99692E+00 -8.02679E+00 -8.34675E+00 -8.82603E+00 -9.38822E+00 -9.95285E+00 -1.04883E+01
  -1.09471E+01 -1.12934E+01 -1.15463E+01 -1.17217E+01 -1.18808E+01 -1.20810E+01 -1.23889E+01 -1.28270E+01 -1.33158E+01 -1.37525E+01
  -1.40193E+01 -1.40448E+01 -1.38360E+01 -1.34743E+01 -1.30861E+01 -1.27998E+01 -1.27210E+01 -1.28831E+01 -1.32192E+01 -1.36546E+01
  -1.41850E+01 -1.47442E+01 -1.52940E+01 -1.57762E+01 -1.60888E+01 -1.62515E+01 -1.62744E+01 -1.61789E+01 -1.60027E+01 -1.57814E+01
  -1.55800E+01 -1.54444E+01 -1.53399E+01 -1.51231E+01 -1.46041E+01 -1.37210E+01 -1.24662E+01 -1.08757E+01 -9.12933E+00 -7.47993E+00
  -6.26202E+00 -5.71738E+00 -5.91149E+00 -6.71338E+00 -7.80383E+00 -8.78210E+00 -9.30452E+00 -9.03637E+00 -7.85250E+00 -5.87495E+00
  -3.39160E+00 -8.37176E-01  1.20358E+00  2.12062E+00  1.57761E+00 -4.67916E-01 -3.72802E+00 -7.65051E+00 -1.13299E+01 -1.37827E+01
  -1.41961E+01 -1.22564E+01 -8.18421E+00 -2.75551E+00  2.74170E+00  6.87420E+00  8.49349E+00  7.12382E+00  3.08597E+00 -2.93528E+00
  -9.34681E+00 -1.43825E+01 -1.69308E+01 -1.66032E+01 -1.38402E+01 -9.33726E+00 -4.08639E+00  5.50732E-01  3.74987E+00  5.33538E+00
   5.74790E+00  5.52679E+00  5.04767E+00  4.79816E+00  5.19290E+00  6.10979E+00  7.13378E+00  7.84933E+00  7.98662E+00  7.52671E+00
   6.55396E+00  5.34495E+00  4.41251E+00  4.17251E+00  4.69597E+00  5.75757E+00  7.21492E+00  8.78157E+00  1.01229E+01  1.11736E+01
   1.21413E+01  1.32980E+01  1.49050E+01  1.81777E+01  2.46333E+01  3.52161E+01  4.99666E+01  6.75775E+01  8.52797E+01  9.94483E+01
   1.07034E+02  1.06528E+02  9.80264E+01  8.29141E+01  6.42025E+01  4.58713E+01  3.09505E+01  1.99684E+01  1.17081E+01  6.85065E+00
   4.97671E+00  4.07148E+00  3.57486E+00  3.35039E+00  3.30162E+00  3.25259E+00  3.14183E+00  2.92153E+00  2.57530E+00  2.14364E+00
   1.69959E+00  1.28424E+00  9.24525E-01  6.50662E-01  4.67541E-01  3.51357E-01  2.76423E-01  2.26442E-01  1.99969E-01  2.01815E-01
   2.28596E-01  2.88798E-01  3.91714E-01  5.40560E-01  7.36367E-01  9.80531E-01  1.27528E+00  1.62238E+00  2.02257E+00  2.47761E+00
   2.98708E+00  3.54763E+00  4.15390E+00  4.79734E+00  5.46734E+00  6.15159E+00  6.83704E+00  7.50993E+00  8.15645E+00  8.76370E+00
   9.32003E+00  9.81467E+00  1.02396E+01  1.05901E+01  1.08645E+01  1.10658E+01  1.12015E+01  1.12847E+01  1.13360E+01  1.13897E+01
   1.15056E+01  1.17191E+01  1.20000E+01  1.22634E+01  1.23645E+01  1.21384E+01  1.14610E+01  1.03083E+01  8.80039E+00  7.18952E+00
   5.77837E+00  4.89515E+00  4.78349E+00  5.47005E+00  6.73609E+00  8.24970E+00  9.78631E+00  1.11144E+01  1.20027E+01  1.24553E+01
   1.26530E+01  1.28313E+01  1.31229E+01  1.34573E+01  1.36953E+01  1.37388E+01  1.33766E+01  1.25290E+01  1.13370E+01  1.00835E+01
   9.10498E+00  8.74761E+00  9.23251E+00  1.05056E+01  1.22269E+01  1.39577E+01  1.54291E+01  1.63869E+01  1.65864E+01  1.60849E+01
   1.51041E+01  1.39218E+01  1.27238E+01  1.15417E+01  1.05037E+01  9.67892E+00  9.00249E+00  8.43951E+00  7.96992E+00  7.57763E+00
   7.24904E+00  6.97258E+00  6.73919E+00  6.54191E+00  6.37608E+00  6.23864E+00  6.12815E+00  6.04410E+00  5.98696E+00  5.95761E+00
   5.95744E+00  5.98799E+00  6.05117E+00  6.14890E+00  6.28337E+00  6.45665E+00  6.67101E+00  6.92846E+00  7.23105E+00  7.58035E+00
   7.97765E+00  8.42336E+00  8.91720E+00  9.45764E+00  1.00420E+01  1.06659E+01  1.13234E+01  1.20067E+01  1.27064E+01  1.34111E+01
   1.41084E+01  1.47844E+01  1.54247E+01  1.60144E+01  1.65396E+01  1.69870E+01  1.73451E+01  1.76046E+01  1.77590E+01  1.78047E+01
   1.77414E+01  1.75720E+01  1.73025E+01  1.69417E+01  1.65005E+01  1.59917E+01  1.54293E+01  1.48274E+01  1.42005E+01  1.35621E+01
   1.29246E+01  1.22991E+01  1.16950E+01  1.11196E+01  1.05787E+01  1.00761E+01  9.61436E+00  9.19418E+00  8.81546E+00  8.47693E+00
   8.17676E+00  7.91247E+00  7.68144E+00  7.48074E+00  7.30759E+00  7.15908E+00  7.03262E+00  6.92563E+00  6.83594E+00  6.76142E+00
   6.70034E+00  6.65098E+00  6.61199E+00  6.58206E+00  6.56018E+00  6.54535E+00  6.53683E+00  6.53381E+00  6.53575E+00  6.54203E+00
   6.55231E+00  6.56607E+00  6.58307E+00  6.60289E+00  6.62534E+00  6.65012E+00  6.67710E+00  6.70601E+00  6.73674E+00  6.76905E+00
   6.80291E+00  6.83811E+00  6.87463E+00  6.91230E+00  6.95110E+00  6.99085E+00  7.03159E+00  7.07315E+00  7.11559E+00  7.15872E+00
   7.20260E+00  7.24708E+00  7.29224E+00  7.33795E+00  7.38426E+00  7.43104E+00  7.47834E+00  7.52605E+00  7.57425E+00  7.62281E+00
   7.67181E+00  7.72111E+00  7.77080E+00  7.82077E+00  7.87111E+00  7.92171E+00  7.97264E+00  8.02378E+00  8.07524E+00  8.12690E+00
   8.17887E+00  8.23102E+00  8.28344E+00  8.33604E+00  8.38890E+00  8.44195E+00  8.49527E+00  8.54877E+00
 NY background values follow
    -2.125E+01   -2.119E+01   -2.113E+01   -2.108E+01   -2.102E+01   -2.096E+01   -2.090E+01   -2.084E+01   -2.078E+01   -2.072E+01
    -2.067E+01   -2.061E+01   -2.055E+01   -2.049E+01   -2.043E+01   -2.037E+01   -2.031E+01   -2.025E+01   -2.020E+01   -2.014E+01
    -2.008E+01   -2.002E+01   -1.996E+01   -1.990E+01   -1.984E+01   -1.978E+01   -1.973E+01   -1.967E+01   -1.961E+01   -1.955E+01
    -1.949E+01   -1.943E+01   -1.937E+01   -1.931E+01   -1.926E+01   -1.920E+01   -1.914E+01   -1.908E+01   -1.902E+01   -1.896E+01
    -1.890E+01   -1.884E+01   -1.879E+01   -1.873E+01   -1.867E+01   -1.861E+01   -1.855E+01   -1.849E+01   -1.843E+01   -1.837E+01
    -1.832E+01   -1.826E+01   -1.820E+01   -1.814E+01   -1.808E+01   -1.802E+01   -1.796E+01   -1.790E+01   -1.785E+01   -1.779E+01
    -1.773E+01   -1.767E+01   -1.761E+01   -1.755E+01   -1.749E+01   -1.743E+01   -1.738E+01   -1.732E+01   -1.726E+01   -1.720E+01
    -1.714E+01   -1.708E+01   -1.702E+01   -1.696E+01   -1.690E+01   -1.685E+01   -1.679E+01   -1.673E+01   -1.667E+01   -1.661E+01
    -1.655E+01   -1.649E+01   -1.643E+01   -1.638E+01   -1.632E+01   -1.626E+01   -1.620E+01   -1.614E+01   -1.608E+01   -1.602E+01
    -1.596E+01   -1.590E+01   -1.585E+01   -1.579E+01   -1.573E+01   -1.567E+01   -1.561E+01   -1.555E+01   -1.549E+01   -1.543E+01
    -1.537E+01   -1.532E+01   -1.526E+01   -1.520E+01   -1.514E+01   -1.508E+01   -1.502E+01   -1.496E+01   -1.490E+01   -1.485E+01
    -1.479E+01   -1.473E+01   -1.467E+01   -1.461E+01   -1.455E+01   -1.449E+01   -1.443E+01   -1.437E+01   -1.432E+01   -1.426E+01
    -1.420E+01   -1.414E+01   -1.408E+01   -1.402E+01   -1.396E+01   -1.390E+01   -1.384E+01   -1.379E+01   -1.373E+01   -1.367E+01
    -1.361E+01   -1.355E+01   -1.349E+01   -1.343E+01   -1.337E+01   -1.331E+01   -1.326E+01   -1.320E+01   -1.314E+01   -1.308E+01
    -1.302E+01   -1.296E+01   -1.290E+01   -1.284E+01   -1.278E+01   -1.272E+01   -1.267E+01   -1.261E+01   -1.255E+01   -1.249E+01
    -1.243E+01   -1.237E+01   -1.231E+01   -1.225E+01   -1.219E+01   -1.214E+01   -1.208E+01   -1.202E+01   -1.196E+01   -1.190E+01
    -1.184E+01   -1.178E+01   -1.172E+01   -1.166E+01   -1.161E+01   -1.155E+01   -1.149E+01   -1.143E+01   -1.137E+01   -1.131E+01
    -1.125E+01   -1.119E+01   -1.113E+01   -1.107E+01   -1.102E+01   -1.096E+01   -1.090E+01   -1.084E+01   -1.078E+01   -1.072E+01
    -1.066E+01   -1.060E+01   -1.054E+01   -1.048E+01   -1.043E+01   -1.037E+01   -1.031E+01   -1.025E+01   -1.019E+01   -1.013E+01
    -1.007E+01   -1.001E+01   -9.954E+00   -9.895E+00   -9.836E+00   -9.777E+00   -9.718E+00   -9.659E+00   -9.600E+00   -9.541E+00
    -9.482E+00   -9.423E+00   -9.364E+00   -9.305E+00   -9.246E+00   -9.187E+00   -9.128E+00   -9.069E+00   -9.010E+00   -8.951E+00
    -8.892E+00   -8.833E+00   -8.774E+00   -8.715E+00   -8.656E+00   -8.597E+00   -8.538E+00   -8.479E+00   -8.420E+00   -8.361E+00
    -8.302E+00   -8.243E+00   -8.184E+00   -8.125E+00   -8.066E+00   -8.007E+00   -7.948E+00   -7.889E+00   -7.830E+00   -7.771E+00
    -7.712E+00   -7.653E+00   -7.594E+00   -7.535E+00   -7.476E+00   -7.417E+00   -7.358E+00   -7.299E+00   -7.240E+00   -7.181E+00
    -7.122E+00   -7.063E+00   -7.004E+00   -6.945E+00   -6.886E+00   -6.827E+00   -6.768E+00   -6.709E+00   -6.650E+00   -6.591E+00
    -6.532E+00   -6.473E+00   -6.414E+00   -6.354E+00   -6.295E+00   -6.236E+00   -6.177E+00   -6.118E+00   -6.059E+00   -6.000E+00
    -5.941E+00   -5.882E+00   -5.823E+00   -5.764E+00   -5.705E+00   -5.646E+00   -5.587E+00   -5.528E+00   -5.469E+00   -5.410E+00
    -5.351E+00   -5.292E+00   -5.233E+00   -5.174E+00   -5.115E+00   -5.056E+00   -4.997E+00   -4.937E+00   -4.878E+00   -4.819E+00
    -4.760E+00   -4.701E+00   -4.642E+00   -4.583E+00   -4.524E+00   -4.465E+00   -4.406E+00   -4.347E+00   -4.288E+00   -4.229E+00
    -4.170E+00   -4.111E+00   -4.052E+00   -3.993E+00   -3.934E+00   -3.875E+00   -3.815E+00   -3.756E+00   -3.697E+00   -3.638E+00
    -3.579E+00   -3.520E+00   -3.461E+00   -3.402E+00   -3.343E+00   -3.284E+00   -3.225E+00   -3.166E+00   -3.107E+00   -3.048E+00
    -2.989E+00   -2.930E+00   -2.870E+00   -2.811E+00   -2.752E+00   -2.693E+00   -2.634E+00   -2.575E+00   -2.516E+00   -2.457E+00
    -2.398E+00   -2.339E+00   -2.280E+00   -2.221E+00   -2.162E+00   -2.103E+00   -2.043E+00   -1.984E+00   -1.925E+00   -1.866E+00
    -1.807E+00   -1.748E+00   -1.689E+00   -1.630E+00   -1.571E+00   -1.512E+00   -1.453E+00   -1.394E+00   -1.335E+00   -1.276E+00
    -1.216E+00   -1.157E+00   -1.098E+00   -1.039E+00   -9.801E-01   -9.210E-01   -8.620E-01   -8.029E-01   -7.438E-01   -6.847E-01
    -6.257E-01   -5.666E-01   -5.075E-01   -4.484E-01   -3.893E-01   -3.303E-01   -2.712E-01   -2.121E-01   -1.530E-01   -9.394E-02
    -3.486E-02    2.423E-02    8.331E-02    1.424E-01    2.015E-01    2.606E-01    3.196E-01    3.787E-01    4.378E-01    4.969E-01
     5.560E-01    6.150E-01    6.741E-01    7.332E-01    7.923E-01    8.514E-01    9.105E-01    9.695E-01    1.029E+00    1.088E+00
     1.147E+00    1.206E+00    1.265E+00    1.324E+00    1.383E+00    1.442E+00    1.501E+00    1.560E+00    1.619E+00    1.679E+00
     1.738E+00    1.797E+00    1.856E+00    1.915E+00    1.974E+00    2.033E+00    2.092E+00    2.151E+00    2.210E+00    2.269E+00
     2.329E+00    2.388E+00    2.447E+00    2.506E+00    2.565E+00    2.624E+00    2.683E+00    2.742E+00    2.801E+00    2.860E+00
     2.919E+00    2.978E+00    3.038E+00    3.097E+00    3.156E+00    3.215E+00    3.274E+00    3.333E+00    3.392E+00    3.451E+00
     3.510E+00    3.569E+00    3.628E+00    3.687E+00    3.747E+00    3.806E+00    3.865E+00    3.924E+00    3.983E+00    4.042E+00
     4.101E+00    4.160E+00    4.219E+00    4.278E+00    4.337E+00    4.396E+00    4.456E+00    4.515E+00    4.574E+00    4.633E+00
     4.692E+00    4.751E+00    4.810E+00    4.869E+00    4.928E+00    4.987E+00    5.046E+00    5.105E+00    5.165E+00    5.224E+00
     5.283E+00    5.342E+00    5.401E+00    5.460E+00    5.519E+00    5.578E+00    5.637E+00    5.696E+00    5.755E+00    5.814E+00
     5.874E+00    5.933E+00    5.992E+00    6.051E+00    6.110E+00    6.169E+00    6.228E+00    6.287E+00    6.346E+00    6.405E+00
     6.464E+00    6.523E+00    6.582E+00    6.642E+00    6.701E+00    6.760E+00    6.819E+00    6.878E+00    6.937E+00    6.996E+00
     7.055E+00    7.114E+00    7.173E+00    7.232E+00    7.291E+00    7.350E+00    7.409E+00    7.469E+00    7.528E+00    7.587E+00
     7.646E+00    7.705E+00    7.764E+00    7.823E+00    7.882E+00    7.941E+00    8.000E+00    8.059E+00
 Ala      Conc. = 3.43E+02
