 LCModel (Version 6.3-1L) Copyright: S.W. Provencher.          Ref.: Magn. Reson. Med. 30:672-679 (1993).                
 Slice#1 Row#8 Col#12  PD_05_press_2_raw_act
 36 lines in following concentration table = NCONC+1
    Conc.  %SD /Cr+PCr  Metabolite                                         
   31.141 172%   4.113 Ala                                                 
   20.967 156%   2.769 Asp                                                 
    7.571 389%   1.000 Cr                                                  
    0.000 999%   0.000 PCr                                                 
   12.006 163%   1.586 GABA                                                
   14.254 139%   1.883 Glc                                                 
   60.907 165%   8.045 Gln                                                 
  242.571  50%  32.040 Glu                                                 
    7.668 148%   1.013 GPC                                                 
    0.000 999%   0.000 PCh                                                 
    2.782 999%   0.367 GSH                                                 
    0.000 999%   0.000 Ins                                                 
    0.000 999%   0.000 Lac                                                 
  414.377  17%  54.733 NAA                                                 
   65.200 101%   8.612 NAAG                                                
    4.976 124%   0.657 Scyllo                                              
   13.930 230%   1.840 Tau                                                 
    4.261 393%   0.563 -CrCH2                                              
    7.668 148%   1.013 GPC+PCh                                             
  479.577  15%  63.344 NAA+NAAG                                            
    7.571 389%   1.000 Cr+PCr                                              
  303.478  50%  40.085 Glu+Gln                                             
    0.000 999%   0.000 Lip13a                                              
  219.332  72%  28.970 Lip13b                                              
    0.000 999%   0.000 Lip09                                               
 6.52E+03   8% 861.104 MM09                                                
  527.200  53%  69.635 Lip20                                               
 2.18E+03  20% 288.311 MM20                                                
 4.88E+03  13% 644.296 MM12                                                
 3.05E+03  20% 403.070 MM14                                                
 1.87E+03  26% 246.356 MM17                                                
  219.332  72%  28.970 Lip13a+Lip13b                                       
 8.15E+03  10% 1.1E+03 MM14+Lip13a+Lip13b+MM12                             
 6.52E+03   8% 861.104 MM09+Lip09                                          
 2.71E+03  15% 357.946 MM20+Lip20                                          
   6 lines in following misc. output table
  FWHM = 0.031 ppm    S/N =   5                                            
  Data shift = 0.000 ppm                                                   
  Ph:  45 deg      24.3 deg/ppm                                            
  alphaB,S = 1.6E+00,   1.1E+01                                            
   14 spline knots.   Ns = 5(1)                                            
  ( 7) 3 infls.   ( 6) 2 extrs.                                            
  498 points on ppm-axis = NY
      4.000000     3.992357     3.984714     3.977070     3.969427     3.961784     3.954141     3.946497     3.938854     3.931211
      3.923568     3.915925     3.908281     3.900638     3.892995     3.885352     3.877708     3.870065     3.862422     3.854779
      3.847136     3.839492     3.831849     3.824206     3.816563     3.808919     3.801276     3.793633     3.785990     3.778347
      3.770703     3.763060     3.755417     3.747774     3.740130     3.732487     3.724844     3.717201     3.709558     3.701914
      3.694271     3.686628     3.678985     3.671341     3.663698     3.656055     3.648412     3.640769     3.633125     3.625482
      3.617839     3.610196     3.602552     3.594909     3.587266     3.579623     3.571980     3.564336     3.556693     3.549050
      3.541407     3.533763     3.526120     3.518477     3.510834     3.503191     3.495547     3.487904     3.480261     3.472618
      3.464974     3.457331     3.449688     3.442045     3.434402     3.426758     3.419115     3.411472     3.403829     3.396185
      3.388542     3.380899     3.373256     3.365613     3.357969     3.350326     3.342683     3.335040     3.327396     3.319753
      3.312110     3.304467     3.296824     3.289180     3.281537     3.273894     3.266251     3.258607     3.250964     3.243321
      3.235678     3.228034     3.220391     3.212748     3.205105     3.197462     3.189818     3.182175     3.174532     3.166889
      3.159245     3.151602     3.143959     3.136316     3.128673     3.121029     3.113386     3.105743     3.098100     3.090456
      3.082813     3.075170     3.067527     3.059884     3.052240     3.044597     3.036954     3.029311     3.021667     3.014024
      3.006381     2.998738     2.991095     2.983451     2.975808     2.968165     2.960522     2.952878     2.945235     2.937592
      2.929949     2.922306     2.914662     2.907019     2.899376     2.891733     2.884089     2.876446     2.868803     2.861160
      2.853517     2.845873     2.838230     2.830587     2.822944     2.815300     2.807657     2.800014     2.792371     2.784728
      2.777084     2.769441     2.761798     2.754155     2.746511     2.738868     2.731225     2.723582     2.715939     2.708295
      2.700652     2.693009     2.685366     2.677722     2.670079     2.662436     2.654793     2.647150     2.639506     2.631863
      2.624220     2.616577     2.608933     2.601290     2.593647     2.586004     2.578361     2.570717     2.563074     2.555431
      2.547788     2.540144     2.532501     2.524858     2.517215     2.509572     2.501928     2.494285     2.486642     2.478999
      2.471355     2.463712     2.456069     2.448426     2.440783     2.433139     2.425496     2.417853     2.410210     2.402566
      2.394923     2.387280     2.379637     2.371994     2.364350     2.356707     2.349064     2.341421     2.333777     2.326134
      2.318491     2.310848     2.303205     2.295561     2.287918     2.280275     2.272632     2.264988     2.257345     2.249702
      2.242059     2.234416     2.226772     2.219129     2.211486     2.203843     2.196199     2.188556     2.180913     2.173270
      2.165627     2.157983     2.150340     2.142697     2.135054     2.127410     2.119767     2.112124     2.104481     2.096838
      2.089194     2.081551     2.073908     2.066265     2.058621     2.050978     2.043335     2.035692     2.028049     2.020405
      2.012762     2.005119     1.997476     1.989833     1.982190     1.974546     1.966903     1.959260     1.951617     1.943974
      1.936331     1.928688     1.921045     1.913402     1.905759     1.898115     1.890472     1.882829     1.875186     1.867543
      1.859900     1.852257     1.844614     1.836971     1.829327     1.821684     1.814041     1.806398     1.798755     1.791112
      1.783469     1.775826     1.768183     1.760540     1.752896     1.745253     1.737610     1.729967     1.722324     1.714681
      1.707038     1.699395     1.691752     1.684108     1.676465     1.668822     1.661179     1.653536     1.645893     1.638250
      1.630607     1.622964     1.615321     1.607677     1.600034     1.592391     1.584748     1.577105     1.569462     1.561819
      1.554176     1.546533     1.538890     1.531246     1.523603     1.515960     1.508317     1.500674     1.493031     1.485388
      1.477745     1.470102     1.462458     1.454815     1.447172     1.439529     1.431886     1.424243     1.416600     1.408957
      1.401314     1.393671     1.386027     1.378384     1.370741     1.363098     1.355455     1.347812     1.340169     1.332526
      1.324883     1.317240     1.309596     1.301953     1.294310     1.286667     1.279024     1.271381     1.263738     1.256095
      1.248452     1.240808     1.233165     1.225522     1.217879     1.210236     1.202593     1.194950     1.187307     1.179664
      1.172021     1.164377     1.156734     1.149091     1.141448     1.133805     1.126162     1.118519     1.110876     1.103233
      1.095590     1.087946     1.080303     1.072660     1.065017     1.057374     1.049731     1.042088     1.034445     1.026802
      1.019158     1.011515     1.003872     0.996229     0.988586     0.980943     0.973300     0.965657     0.958014     0.950371
      0.942727     0.935084     0.927441     0.919798     0.912155     0.904512     0.896869     0.889226     0.881583     0.873940
      0.866296     0.858653     0.851010     0.843367     0.835724     0.828081     0.820438     0.812795     0.805152     0.797508
      0.789865     0.782222     0.774579     0.766936     0.759293     0.751650     0.744007     0.736364     0.728721     0.721077
      0.713434     0.705791     0.698148     0.690505     0.682862     0.675219     0.667576     0.659933     0.652290     0.644646
      0.637003     0.629360     0.621717     0.614074     0.606431     0.598788     0.591145     0.583502     0.575858     0.568215
      0.560572     0.552929     0.545286     0.537643     0.530000     0.522357     0.514714     0.507071     0.499427     0.491784
      0.484141     0.476498     0.468855     0.461212     0.453569     0.445925     0.438282     0.430639     0.422996     0.415353
      0.407710     0.400067     0.392424     0.384780     0.377137     0.369494     0.361851     0.354208     0.346565     0.338922
      0.331278     0.323635     0.315992     0.308349     0.300706     0.293063     0.285420     0.277777     0.270133     0.262490
      0.254847     0.247204     0.239561     0.231918     0.224275     0.216631     0.208988     0.201345
 NY phased data points follow
   8.69431E-01 -1.84962E+00 -5.31902E+00 -4.47351E+00  5.05300E+00 -3.50947E-01  3.01256E+00 -3.69861E-02 -3.12941E+00 -3.02360E+00
  -3.92849E+00  1.02076E+00 -3.33864E+00  2.80377E+00 -2.52283E+00 -6.54160E+00 -3.99841E+00 -2.34144E+00 -2.49404E+00  3.47349E+00
  -1.06034E+00 -7.41340E+00 -3.89744E+00 -2.13116E+00 -1.20178E+00  1.79015E-01 -1.24315E+00  2.09612E+00 -3.59890E+00 -4.30792E+00
  -9.23644E-01  1.30278E+00 -1.11527E+00 -4.23981E-02  2.71289E+00 -1.37043E-02  2.77289E-01 -4.70661E+00  3.43926E-01  1.06409E+00
   1.66476E+00 -8.72137E-01 -5.57223E+00  3.67461E-03  2.53594E+00 -1.07672E+00 -3.50814E-01 -5.41088E+00 -5.82703E-01 -7.35655E-01
  -2.25179E+00 -4.21566E+00  2.20722E+00  2.99124E+00  4.01206E+00 -2.58478E-01  2.53539E-01 -3.28044E+00  1.08491E+00  1.71607E+00
   2.73287E-01  1.38371E+00 -2.68872E+00 -1.67579E-01  3.66595E+00  2.78078E+00  4.13398E-01  1.26721E+00  7.16476E-01 -1.78675E+00
   1.13274E+00  9.18787E-01  5.16557E+00 -6.68744E+00  1.15598E-01 -2.08104E+00 -3.31745E+00  2.96969E+00 -1.91166E-01 -2.56829E+00
  -8.58250E-01 -1.11625E+00  1.21064E+00 -2.98626E+00  3.55737E+00  4.80710E+00  3.14118E-01  5.49493E-02 -4.75968E+00  1.46590E+00
  -2.42520E-01 -1.85097E+00  1.32018E+00  1.78907E+00  1.45809E+00 -5.35758E-01  1.19448E+00  6.98848E+00  4.18516E+00 -1.27651E+00
  -7.04260E+00  8.25111E+00  2.15949E+00  2.13116E+00  2.20898E+00 -5.26736E-01 -6.76573E+00 -2.22007E+00 -3.99196E+00 -3.73403E-01
  -1.17177E+00 -4.66524E+00  4.99697E-01  1.98648E+00  5.15435E+00 -3.57295E-01  1.84555E+00  8.41385E+00 -7.18822E-01  1.00611E+01
  -1.03011E-01  4.81660E-01 -2.03665E+00  5.60887E+00 -8.29796E-01 -4.74002E+00  7.25023E+00  5.26129E+00  2.05007E+00  6.10432E+00
  -8.97893E-02 -1.34249E+00 -1.10780E+00  1.88836E+00  3.27367E+00  4.90303E+00  6.10679E+00  3.15710E+00  2.22641E+00 -1.33088E+00
   2.89795E+00  3.66547E+00  6.13101E+00  1.75484E+00  6.46521E+00  3.64565E+00  5.21947E+00  7.44813E-01 -1.53986E-01  1.64788E-01
   5.08553E+00  2.21954E+00  1.43282E+00  2.85016E+00  1.88218E+00 -3.14403E-02  3.36939E+00  6.61744E+00  3.73909E+00  4.93871E+00
   4.03641E+00 -1.94856E+00  2.74518E+00  5.29697E+00 -1.48382E+00  3.88857E+00  4.73075E+00  2.46269E+00 -2.03596E+00 -4.03980E-02
   2.37537E+00  2.09899E+00 -2.01154E+00  6.89633E+00  4.20989E+00  1.91450E+00  1.23468E+00  1.61666E+00  7.92089E-01  1.23970E+00
  -1.10703E-01  1.17783E+00  1.17789E+00  4.23317E-01  2.45324E+00  2.66820E+00  1.80738E+00  2.31774E+00  8.06743E+00  6.02781E+00
   5.54288E+00  8.39637E+00  2.78042E+00  3.25862E+00  2.93570E+00 -9.26064E-02  1.34363E+00 -1.70085E-01  2.33511E+00  5.20431E+00
   3.49582E+00  6.53039E+00  2.14948E+00  3.52710E+00  1.60535E+00  5.22529E+00  1.03219E+00  5.56501E-01  3.75837E+00  2.82433E+00
   2.66446E+00 -1.95456E-02  2.70619E+00  3.24373E+00  5.39652E+00  8.12528E+00  7.25224E+00  1.16333E+01  9.36898E+00  7.18027E+00
   7.76253E-01 -6.16055E-02  5.19067E-01  1.36010E+00  1.01815E+01  7.50868E+00  4.53690E-01  7.77443E+00  1.52002E+00  4.91660E+00
   9.81296E+00  9.09138E+00  4.00993E+00  7.48037E+00  1.11583E+01  4.90757E+00  2.40130E+00  7.03231E+00  8.15284E+00  4.52486E+00
   6.05355E+00  7.69627E+00  6.68080E+00  6.22136E+00  9.03262E+00  4.92909E+00  9.44144E+00  1.31391E+01  1.24404E+01  1.11686E+01
   1.15631E+01  1.04339E+01  1.15509E+01  1.48497E+01  1.13111E+01  1.42900E+01  1.93828E+01  2.38555E+01  2.20782E+01  2.66653E+01
   3.23839E+01  3.13276E+01  2.49751E+01  1.11632E+01  7.36201E+00  1.48456E-01  1.14271E+01  8.12869E+00  8.68636E+00  6.28715E+00
   6.41467E+00  8.10470E+00  1.26658E-01  7.51981E+00  4.70976E+00  4.29312E+00  5.58378E+00  4.17219E+00 -3.62742E-01  3.45599E+00
   1.10889E+00  8.11466E+00  7.31348E+00  4.19128E+00  1.42656E+00  5.91365E+00  3.02905E+00  7.70489E+00  6.12548E+00  3.06908E+00
   9.48195E+00  1.18226E+01  9.24158E+00  1.08503E+01  8.84085E+00  6.35213E+00  5.74559E+00  9.61154E+00  9.53388E+00  1.26648E+01
   9.37839E+00  4.03796E+00  7.30644E+00  1.32044E+01  7.19172E+00  1.34286E+01  5.26990E+00  1.31079E+01  9.15527E+00  1.44760E+01
   1.72147E+01  1.02666E+01  1.35158E+01  1.33806E+01  1.53277E+01  1.45091E+01  1.20632E+01  7.70275E+00  1.15114E+01  1.04404E+01
   7.06384E+00  1.23373E+01  1.29667E+01  1.75683E+01  1.37191E+01  1.30249E+01  1.68339E+01  1.97105E+01  1.11701E+01  1.25120E+01
   1.39532E+01  1.85955E+01  1.81267E+01  1.68970E+01  1.53557E+01  2.08386E+01  1.63904E+01  1.54002E+01  1.56634E+01  1.78108E+01
   1.52830E+01  1.84829E+01  1.55489E+01  1.36435E+01  1.47504E+01  1.55864E+01  1.05145E+01  9.36395E+00  1.36346E+01  1.75324E+01
   1.37041E+01  1.47273E+01  2.09695E+01  1.95854E+01  1.38662E+01  1.90334E+01  1.67235E+01  2.22752E+01  2.49527E+01  2.12605E+01
   2.25936E+01  2.32985E+01  2.25221E+01  2.45441E+01  2.35007E+01  2.57535E+01  2.58045E+01  1.91020E+01  2.31300E+01  2.52195E+01
   2.22433E+01  2.41055E+01  2.19973E+01  2.62264E+01  2.29077E+01  2.51909E+01  2.89029E+01  2.50631E+01  2.07439E+01  2.28338E+01
   2.94560E+01  2.80659E+01  2.34787E+01  2.26962E+01  2.40598E+01  2.45637E+01  2.04956E+01  1.90903E+01  2.10483E+01  2.39864E+01
   1.85637E+01  2.15747E+01  2.30769E+01  2.43827E+01  2.25795E+01  2.18301E+01  2.46802E+01  2.07752E+01  2.81114E+01  2.27864E+01
   2.55218E+01  2.05804E+01  2.36599E+01  2.05368E+01  1.77322E+01  2.28682E+01  2.25047E+01  1.87977E+01  1.62823E+01  1.72375E+01
   1.64983E+01  1.19402E+01  1.70560E+01  1.89995E+01  1.27514E+01  1.51478E+01  1.73615E+01  1.30415E+01  1.01044E+01  1.20330E+01
   5.82465E+00  8.51315E+00  5.61500E+00  8.43433E+00  7.64236E+00  6.38149E+00  6.40760E+00  5.11939E+00  3.05525E+00  4.62480E+00
   4.78916E+00  4.93175E+00  5.31789E-01  2.56754E+00  5.31234E-01  4.25163E+00  2.39215E+00  1.09109E+00  3.33603E-01 -1.19201E+00
  -3.66028E+00 -5.99745E-01 -1.50001E+00  2.35316E+00 -1.62965E+00 -4.36866E+00 -5.95131E+00 -6.31776E+00 -7.19074E+00 -4.62210E+00
  -6.64599E+00 -5.90642E+00 -8.42925E+00 -5.18939E+00 -4.04364E+00 -3.70252E+00 -1.05158E+01 -3.02431E+00 -1.39267E+01 -9.70127E+00
  -9.44742E+00 -8.42186E+00 -1.09366E+01 -1.33169E+01 -1.17843E+01 -1.00799E+01 -6.62379E+00 -1.18670E+01 -1.25905E+01 -4.47252E+00
  -1.29639E+01 -1.38734E+01 -1.06767E+01 -1.07324E+01 -1.26664E+01 -1.26849E+01 -1.28493E+01 -1.66120E+01 -1.67353E+01 -9.12264E+00
  -1.00771E+01 -8.40434E+00 -9.53137E+00 -1.13782E+01 -1.56691E+01 -1.40293E+01 -1.30779E+01 -1.17126E+01 -9.57466E+00 -1.59559E+01
  -1.21410E+01 -1.44156E+01 -1.69685E+01 -1.71302E+01 -8.60354E+00 -1.20141E+01 -1.47725E+01 -1.38696E+01
 NY points of the fit to the data follow
  -9.16131E-01 -8.90790E-01 -8.60382E-01 -8.29700E-01 -8.07562E-01 -7.98272E-01 -8.01486E-01 -8.20018E-01 -8.44548E-01 -8.23698E-01
  -7.05039E-01 -5.31637E-01 -4.26720E-01 -4.65054E-01 -5.89464E-01 -6.78725E-01 -6.85944E-01 -6.58018E-01 -6.36356E-01 -5.89579E-01
  -4.71941E-01 -2.94259E-01 -1.21213E-01 -2.00046E-02 -3.88106E-02 -1.92094E-01 -4.90831E-01 -8.99177E-01 -1.21599E+00 -1.18416E+00
  -7.03735E-01  7.51033E-02  8.26971E-01  1.19399E+00  9.91171E-01  2.96832E-01 -5.73312E-01 -1.21250E+00 -1.35356E+00 -1.01179E+00
  -4.32166E-01  5.19686E-02  2.50821E-01  1.76311E-01 -1.19342E-02 -1.44705E-01 -1.93217E-01 -2.04448E-01 -1.95659E-01 -1.70599E-01
  -1.39974E-01 -1.19315E-01 -1.20695E-01 -1.34869E-01 -1.42030E-01 -1.37276E-01 -1.31622E-01 -1.30902E-01 -1.29549E-01 -1.17987E-01
  -9.44020E-02 -6.70556E-02 -4.35910E-02 -2.47181E-02 -4.75369E-03  1.94153E-02  3.88629E-02  4.56692E-02  4.29657E-02  3.83173E-02
   4.48781E-02  7.67774E-02  1.31425E-01  1.96075E-01  2.67451E-01  3.24781E-01  3.36075E-01  2.92335E-01  2.21195E-01  1.71340E-01
   1.82835E-01  2.63569E-01  3.87898E-01  5.18265E-01  6.50623E-01  7.89694E-01  8.77169E-01  8.34338E-01  6.61743E-01  4.62685E-01
   3.54963E-01  3.67465E-01  4.13752E-01  4.28103E-01  4.35441E-01  4.74307E-01  5.59619E-01  6.99377E-01  8.97944E-01  1.12791E+00
   1.35646E+00  1.63544E+00  1.94489E+00  2.08492E+00  1.88698E+00  1.43257E+00  1.02001E+00  8.80091E-01  9.87344E-01  1.12550E+00
   1.21099E+00  1.27899E+00  1.35112E+00  1.42989E+00  1.50992E+00  1.58905E+00  1.66846E+00  1.74856E+00  1.82566E+00  1.89773E+00
   1.97198E+00  2.05757E+00  2.16439E+00  2.29847E+00  2.45217E+00  2.63120E+00  2.83229E+00  2.98282E+00  2.99768E+00  2.88276E+00
   2.73180E+00  2.63801E+00  2.62323E+00  2.62761E+00  2.61190E+00  2.59529E+00  2.58973E+00  2.59041E+00  2.59438E+00  2.59869E+00
   2.59373E+00  2.57108E+00  2.53293E+00  2.49646E+00  2.47915E+00  2.47415E+00  2.45522E+00  2.40617E+00  2.33921E+00  2.27865E+00
   2.23435E+00  2.20245E+00  2.16886E+00  2.12481E+00  2.08611E+00  2.06966E+00  2.05751E+00  2.01508E+00  1.91775E+00  1.72346E+00
   1.45884E+00  1.27721E+00  1.32333E+00  1.61573E+00  1.95628E+00  2.03573E+00  1.74461E+00  1.30024E+00  9.72270E-01  8.59275E-01
   9.02302E-01  9.38838E-01  8.87119E-01  7.73074E-01  6.14515E-01  4.43550E-01  3.98944E-01  5.85431E-01  9.05355E-01  1.09410E+00
   9.79996E-01  7.04189E-01  5.82992E-01  7.56547E-01  1.04359E+00  1.19409E+00  1.16907E+00  1.21684E+00  1.52193E+00  1.95845E+00
   2.25716E+00  2.27819E+00  2.10662E+00  1.94827E+00  1.89546E+00  1.93445E+00  2.01643E+00  2.04241E+00  1.97500E+00  1.92638E+00
   2.04504E+00  2.35255E+00  2.76265E+00  3.09629E+00  3.20345E+00  2.99701E+00  2.47713E+00  1.83042E+00  1.26050E+00  8.99915E-01
   8.86845E-01  1.31259E+00  2.11755E+00  3.11999E+00  4.17699E+00  5.10854E+00  5.56084E+00  5.15362E+00  3.93523E+00  2.56024E+00
   1.66247E+00  1.37659E+00  1.55809E+00  2.24668E+00  3.52743E+00  5.02037E+00  6.09839E+00  6.44717E+00  6.29047E+00  6.06067E+00
   5.94485E+00  5.90766E+00  5.98268E+00  6.22318E+00  6.56801E+00  6.91523E+00  7.22164E+00  7.52292E+00  7.83518E+00  8.09464E+00
   8.26610E+00  8.35265E+00  8.44272E+00  8.68741E+00  9.17017E+00  9.77947E+00  1.02892E+01  1.05811E+01  1.06864E+01  1.07527E+01
   1.08894E+01  1.12421E+01  1.19356E+01  1.29091E+01  1.41858E+01  1.60525E+01  1.85986E+01  2.11363E+01  2.38484E+01  2.79520E+01
   3.17247E+01  3.08749E+01  2.36167E+01  1.35430E+01  6.31744E+00  4.49063E+00  5.63701E+00  6.28815E+00  6.15402E+00  5.88806E+00
   5.63599E+00  5.41349E+00  5.25918E+00  5.16761E+00  5.09372E+00  4.98764E+00  4.82436E+00  4.62637E+00  4.45586E+00  4.35672E+00
   4.32372E+00  4.34049E+00  4.40679E+00  4.52323E+00  4.67679E+00  4.85173E+00  5.04414E+00  5.26635E+00  5.52887E+00  5.83160E+00
   6.17416E+00  6.55879E+00  6.97678E+00  7.41060E+00  7.84470E+00  8.27219E+00  8.69363E+00  9.10835E+00  9.50832E+00  9.88677E+00
   1.02407E+01  1.05642E+01  1.08477E+01  1.10824E+01  1.12647E+01  1.13978E+01  1.14867E+01  1.15365E+01  1.15545E+01  1.15493E+01
   1.15297E+01  1.15055E+01  1.14867E+01  1.14835E+01  1.15056E+01  1.15619E+01  1.16597E+01  1.18046E+01  1.20000E+01  1.22481E+01
   1.25505E+01  1.29103E+01  1.33331E+01  1.38013E+01  1.42707E+01  1.47232E+01  1.51066E+01  1.53055E+01  1.52930E+01  1.52117E+01
   1.52684E+01  1.55509E+01  1.59453E+01  1.62943E+01  1.66217E+01  1.69526E+01  1.71395E+01  1.70267E+01  1.66355E+01  1.61458E+01
   1.57405E+01  1.54415E+01  1.51747E+01  1.49272E+01  1.47253E+01  1.45934E+01  1.45535E+01  1.46256E+01  1.48254E+01  1.51613E+01
   1.56321E+01  1.62253E+01  1.69169E+01  1.76739E+01  1.84578E+01  1.92303E+01  1.99588E+01  2.06216E+01  2.12100E+01  2.17279E+01
   2.21883E+01  2.26087E+01  2.30050E+01  2.33880E+01  2.37607E+01  2.41176E+01  2.44467E+01  2.47319E+01  2.49565E+01  2.51057E+01
   2.51693E+01  2.51421E+01  2.50244E+01  2.48217E+01  2.45441E+01  2.42053E+01  2.38214E+01  2.34099E+01  2.29888E+01  2.25755E+01
   2.21866E+01  2.18370E+01  2.15393E+01  2.13035E+01  2.11367E+01  2.10431E+01  2.10239E+01  2.10777E+01  2.12001E+01  2.13842E+01
   2.16209E+01  2.18992E+01  2.22067E+01  2.25300E+01  2.28547E+01  2.31662E+01  2.34497E+01  2.36913E+01  2.38779E+01  2.39974E+01
   2.40395E+01  2.39952E+01  2.38580E+01  2.36233E+01  2.32890E+01  2.28549E+01  2.23232E+01  2.16979E+01  2.09850E+01  2.01920E+01
   1.93280E+01  1.84027E+01  1.74264E+01  1.64100E+01  1.53644E+01  1.43002E+01  1.32274E+01  1.21554E+01  1.10927E+01  1.00467E+01
   9.02399E+00  8.03009E+00  7.06933E+00  6.14500E+00  5.25950E+00  4.41442E+00  3.61065E+00  2.84836E+00  2.12711E+00  1.44597E+00
   8.03721E-01  1.98950E-01 -3.69964E-01 -9.04853E-01 -1.40767E+00 -1.88037E+00 -2.32483E+00 -2.74286E+00 -3.13623E+00 -3.50671E+00
  -3.85600E+00 -4.18569E+00 -4.49715E+00 -4.79171E+00 -5.07061E+00 -5.33510E+00 -5.58631E+00 -5.82521E+00 -6.05267E+00 -6.26950E+00
  -6.47651E+00 -6.67447E+00 -6.86408E+00 -7.04589E+00 -7.22040E+00 -7.38811E+00 -7.54954E+00 -7.70517E+00 -7.85541E+00 -8.00056E+00
  -8.14091E+00 -8.27679E+00 -8.40855E+00 -8.53650E+00 -8.66082E+00 -8.78171E+00 -8.89934E+00 -9.01396E+00 -9.12580E+00 -9.23504E+00
  -9.34177E+00 -9.44609E+00 -9.54815E+00 -9.64813E+00 -9.74618E+00 -9.84239E+00 -9.93680E+00 -1.00295E+01 -1.01205E+01 -1.02101E+01
  -1.02984E+01 -1.03852E+01 -1.04708E+01 -1.05550E+01 -1.06381E+01 -1.07201E+01 -1.08012E+01 -1.08811E+01 -1.09601E+01 -1.10381E+01
  -1.11152E+01 -1.11916E+01 -1.12671E+01 -1.13418E+01 -1.14158E+01 -1.14890E+01 -1.15615E+01 -1.16335E+01
 NY background values follow
    -1.447E+00   -1.436E+00   -1.425E+00   -1.413E+00   -1.402E+00   -1.391E+00   -1.379E+00   -1.368E+00   -1.357E+00   -1.345E+00
    -1.334E+00   -1.323E+00   -1.311E+00   -1.300E+00   -1.288E+00   -1.277E+00   -1.266E+00   -1.254E+00   -1.243E+00   -1.232E+00
    -1.220E+00   -1.209E+00   -1.198E+00   -1.187E+00   -1.175E+00   -1.164E+00   -1.153E+00   -1.141E+00   -1.130E+00   -1.119E+00
    -1.108E+00   -1.097E+00   -1.085E+00   -1.074E+00   -1.063E+00   -1.052E+00   -1.041E+00   -1.030E+00   -1.019E+00   -1.008E+00
    -9.966E-01   -9.856E-01   -9.746E-01   -9.637E-01   -9.527E-01   -9.418E-01   -9.310E-01   -9.201E-01   -9.093E-01   -8.985E-01
    -8.878E-01   -8.770E-01   -8.664E-01   -8.557E-01   -8.451E-01   -8.345E-01   -8.240E-01   -8.135E-01   -8.030E-01   -7.926E-01
    -7.823E-01   -7.719E-01   -7.617E-01   -7.514E-01   -7.412E-01   -7.311E-01   -7.210E-01   -7.110E-01   -7.010E-01   -6.911E-01
    -6.812E-01   -6.714E-01   -6.617E-01   -6.520E-01   -6.424E-01   -6.328E-01   -6.233E-01   -6.138E-01   -6.045E-01   -5.952E-01
    -5.859E-01   -5.767E-01   -5.676E-01   -5.586E-01   -5.497E-01   -5.408E-01   -5.320E-01   -5.232E-01   -5.146E-01   -5.060E-01
    -4.975E-01   -4.891E-01   -4.807E-01   -4.725E-01   -4.643E-01   -4.562E-01   -4.483E-01   -4.404E-01   -4.326E-01   -4.248E-01
    -4.172E-01   -4.097E-01   -4.023E-01   -3.950E-01   -3.878E-01   -3.807E-01   -3.737E-01   -3.668E-01   -3.600E-01   -3.533E-01
    -3.468E-01   -3.404E-01   -3.340E-01   -3.278E-01   -3.218E-01   -3.158E-01   -3.100E-01   -3.043E-01   -2.987E-01   -2.933E-01
    -2.879E-01   -2.828E-01   -2.777E-01   -2.728E-01   -2.680E-01   -2.634E-01   -2.589E-01   -2.546E-01   -2.504E-01   -2.463E-01
    -2.424E-01   -2.387E-01   -2.351E-01   -2.317E-01   -2.284E-01   -2.253E-01   -2.223E-01   -2.195E-01   -2.168E-01   -2.144E-01
    -2.121E-01   -2.099E-01   -2.080E-01   -2.062E-01   -2.045E-01   -2.031E-01   -2.018E-01   -2.007E-01   -1.998E-01   -1.991E-01
    -1.986E-01   -1.982E-01   -1.981E-01   -1.981E-01   -1.984E-01   -1.988E-01   -1.994E-01   -2.002E-01   -2.013E-01   -2.025E-01
    -2.039E-01   -2.055E-01   -2.074E-01   -2.094E-01   -2.117E-01   -2.142E-01   -2.169E-01   -2.198E-01   -2.229E-01   -2.263E-01
    -2.299E-01   -2.337E-01   -2.377E-01   -2.420E-01   -2.464E-01   -2.512E-01   -2.561E-01   -2.613E-01   -2.667E-01   -2.724E-01
    -2.783E-01   -2.845E-01   -2.909E-01   -2.975E-01   -3.044E-01   -3.116E-01   -3.189E-01   -3.266E-01   -3.344E-01   -3.425E-01
    -3.509E-01   -3.595E-01   -3.683E-01   -3.774E-01   -3.868E-01   -3.963E-01   -4.061E-01   -4.162E-01   -4.265E-01   -4.370E-01
    -4.478E-01   -4.589E-01   -4.701E-01   -4.816E-01   -4.934E-01   -5.054E-01   -5.176E-01   -5.301E-01   -5.428E-01   -5.558E-01
    -5.690E-01   -5.824E-01   -5.961E-01   -6.100E-01   -6.242E-01   -6.386E-01   -6.532E-01   -6.681E-01   -6.832E-01   -6.986E-01
    -7.142E-01   -7.300E-01   -7.461E-01   -7.624E-01   -7.790E-01   -7.958E-01   -8.128E-01   -8.301E-01   -8.476E-01   -8.654E-01
    -8.833E-01   -9.016E-01   -9.200E-01   -9.387E-01   -9.576E-01   -9.768E-01   -9.962E-01   -1.016E+00   -1.036E+00   -1.056E+00
    -1.076E+00   -1.097E+00   -1.117E+00   -1.138E+00   -1.159E+00   -1.181E+00   -1.203E+00   -1.224E+00   -1.247E+00   -1.269E+00
    -1.291E+00   -1.314E+00   -1.337E+00   -1.360E+00   -1.384E+00   -1.408E+00   -1.431E+00   -1.456E+00   -1.480E+00   -1.504E+00
    -1.529E+00   -1.554E+00   -1.579E+00   -1.605E+00   -1.630E+00   -1.656E+00   -1.682E+00   -1.708E+00   -1.735E+00   -1.761E+00
    -1.788E+00   -1.815E+00   -1.842E+00   -1.870E+00   -1.897E+00   -1.925E+00   -1.953E+00   -1.982E+00   -2.010E+00   -2.039E+00
    -2.068E+00   -2.097E+00   -2.126E+00   -2.156E+00   -2.185E+00   -2.215E+00   -2.245E+00   -2.275E+00   -2.306E+00   -2.337E+00
    -2.367E+00   -2.399E+00   -2.430E+00   -2.461E+00   -2.493E+00   -2.525E+00   -2.557E+00   -2.589E+00   -2.621E+00   -2.654E+00
    -2.687E+00   -2.720E+00   -2.753E+00   -2.786E+00   -2.820E+00   -2.853E+00   -2.887E+00   -2.921E+00   -2.956E+00   -2.990E+00
    -3.025E+00   -3.060E+00   -3.095E+00   -3.130E+00   -3.165E+00   -3.201E+00   -3.237E+00   -3.273E+00   -3.309E+00   -3.345E+00
    -3.381E+00   -3.418E+00   -3.455E+00   -3.492E+00   -3.529E+00   -3.566E+00   -3.604E+00   -3.642E+00   -3.679E+00   -3.718E+00
    -3.756E+00   -3.794E+00   -3.833E+00   -3.871E+00   -3.910E+00   -3.949E+00   -3.989E+00   -4.028E+00   -4.068E+00   -4.107E+00
    -4.147E+00   -4.187E+00   -4.227E+00   -4.268E+00   -4.308E+00   -4.349E+00   -4.390E+00   -4.431E+00   -4.472E+00   -4.514E+00
    -4.555E+00   -4.597E+00   -4.639E+00   -4.681E+00   -4.723E+00   -4.765E+00   -4.808E+00   -4.850E+00   -4.893E+00   -4.936E+00
    -4.979E+00   -5.022E+00   -5.066E+00   -5.109E+00   -5.153E+00   -5.197E+00   -5.241E+00   -5.285E+00   -5.329E+00   -5.374E+00
    -5.418E+00   -5.463E+00   -5.508E+00   -5.553E+00   -5.598E+00   -5.643E+00   -5.689E+00   -5.735E+00   -5.780E+00   -5.826E+00
    -5.872E+00   -5.918E+00   -5.965E+00   -6.011E+00   -6.058E+00   -6.105E+00   -6.151E+00   -6.199E+00   -6.246E+00   -6.293E+00
    -6.340E+00   -6.388E+00   -6.436E+00   -6.484E+00   -6.532E+00   -6.580E+00   -6.628E+00   -6.676E+00   -6.725E+00   -6.774E+00
    -6.822E+00   -6.871E+00   -6.920E+00   -6.970E+00   -7.019E+00   -7.068E+00   -7.118E+00   -7.168E+00   -7.217E+00   -7.267E+00
    -7.317E+00   -7.368E+00   -7.418E+00   -7.468E+00   -7.519E+00   -7.570E+00   -7.620E+00   -7.671E+00   -7.722E+00   -7.774E+00
    -7.825E+00   -7.876E+00   -7.928E+00   -7.979E+00   -8.031E+00   -8.083E+00   -8.135E+00   -8.187E+00   -8.239E+00   -8.291E+00
    -8.343E+00   -8.396E+00   -8.448E+00   -8.501E+00   -8.554E+00   -8.607E+00   -8.660E+00   -8.713E+00   -8.766E+00   -8.819E+00
    -8.872E+00   -8.925E+00   -8.979E+00   -9.032E+00   -9.086E+00   -9.140E+00   -9.194E+00   -9.247E+00   -9.301E+00   -9.355E+00
    -9.409E+00   -9.464E+00   -9.518E+00   -9.572E+00   -9.627E+00   -9.681E+00   -9.736E+00   -9.790E+00   -9.845E+00   -9.900E+00
    -9.954E+00   -1.001E+01   -1.006E+01   -1.012E+01   -1.017E+01   -1.023E+01   -1.028E+01   -1.034E+01   -1.039E+01   -1.045E+01
    -1.050E+01   -1.056E+01   -1.062E+01   -1.067E+01   -1.073E+01   -1.078E+01   -1.084E+01   -1.089E+01   -1.095E+01   -1.100E+01
    -1.106E+01   -1.111E+01   -1.117E+01   -1.123E+01   -1.128E+01   -1.134E+01   -1.139E+01   -1.145E+01   -1.150E+01   -1.156E+01
    -1.161E+01   -1.167E+01   -1.173E+01   -1.178E+01   -1.184E+01   -1.189E+01   -1.195E+01   -1.200E+01
 Ala      Conc. = 3.11E+01
