 LCModel (Version 6.3-1L) Copyright: S.W. Provencher.          Ref.: Magn. Reson. Med. 30:672-679 (1993).                
 Slice#1 Row#8 Col#10  PD_05_press_2_raw_act
 36 lines in following concentration table = NCONC+1
    Conc.  %SD /Cr+PCr  Metabolite                                         
   89.767 153% 7.4E-02 Ala                                                 
    0.000 999%   0.000 Asp                                                 
  252.831 126%   0.209 Cr                                                  
  957.395  34%   0.791 PCr                                                 
    0.000 999%   0.000 GABA                                                
  127.840 144%   0.106 Glc                                                 
  810.632  35%   0.670 Gln                                                 
 1.57E+03  20%   1.299 Glu                                                 
  492.859   6%   0.407 GPC                                                 
    0.000 999%   0.000 PCh                                                 
  368.510  27%   0.304 GSH                                                 
 1.25E+03  26%   1.030 Ins                                                 
   93.229 159% 7.7E-02 Lac                                                 
 2.78E+03   7%   2.295 NAA                                                 
  781.100  24%   0.645 NAAG                                                
   53.489  67% 4.4E-02 Scyllo                                              
  575.357  43%   0.475 Tau                                                 
  977.679  14%   0.808 -CrCH2                                              
  492.859   6%   0.407 GPC+PCh                                             
 3.56E+03   4%   2.941 NAA+NAAG                                            
 1.21E+03   7%   1.000 Cr+PCr                                              
 2.38E+03  18%   1.969 Glu+Gln                                             
 2.39E+03  35%   1.977 Lip13a                                              
    0.000 999%   0.000 Lip13b                                              
  443.936  94%   0.367 Lip09                                               
 2.46E+03  20%   2.036 MM09                                                
  181.507 155%   0.150 Lip20                                               
 4.46E+03  13%   3.688 MM20                                                
  968.804  38%   0.801 MM12                                                
 2.06E+03  29%   1.700 MM14                                                
 1.84E+03  22%   1.518 MM17                                                
 2.39E+03  35%   1.977 Lip13a+Lip13b                                       
 5.42E+03  11%   4.477 MM14+Lip13a+Lip13b+MM12                             
 2.91E+03  10%   2.403 MM09+Lip09                                          
 4.64E+03  12%   3.838 MM20+Lip20                                          
   6 lines in following misc. output table
  FWHM = 0.038 ppm    S/N =  12                                            
  Data shift = 0.015 ppm                                                   
  Ph: -17 deg       0.0 deg/ppm                                            
  alphaB,S = 2.4E+00,   5.3E+01                                            
   14 spline knots.   Ns = 6(1)                                            
  ( 9) 3 infls.   ( 9) 1 extrs.                                            
  498 points on ppm-axis = NY
      4.000000     3.992357     3.984714     3.977070     3.969427     3.961784     3.954141     3.946497     3.938854     3.931211
      3.923568     3.915925     3.908281     3.900638     3.892995     3.885352     3.877708     3.870065     3.862422     3.854779
      3.847136     3.839492     3.831849     3.824206     3.816563     3.808919     3.801276     3.793633     3.785990     3.778347
      3.770703     3.763060     3.755417     3.747774     3.740130     3.732487     3.724844     3.717201     3.709558     3.701914
      3.694271     3.686628     3.678985     3.671341     3.663698     3.656055     3.648412     3.640769     3.633125     3.625482
      3.617839     3.610196     3.602552     3.594909     3.587266     3.579623     3.571980     3.564336     3.556693     3.549050
      3.541407     3.533763     3.526120     3.518477     3.510834     3.503191     3.495547     3.487904     3.480261     3.472618
      3.464974     3.457331     3.449688     3.442045     3.434402     3.426758     3.419115     3.411472     3.403829     3.396185
      3.388542     3.380899     3.373256     3.365613     3.357969     3.350326     3.342683     3.335040     3.327396     3.319753
      3.312110     3.304467     3.296824     3.289180     3.281537     3.273894     3.266251     3.258607     3.250964     3.243321
      3.235678     3.228034     3.220391     3.212748     3.205105     3.197462     3.189818     3.182175     3.174532     3.166889
      3.159245     3.151602     3.143959     3.136316     3.128673     3.121029     3.113386     3.105743     3.098100     3.090456
      3.082813     3.075170     3.067527     3.059884     3.052240     3.044597     3.036954     3.029311     3.021667     3.014024
      3.006381     2.998738     2.991095     2.983451     2.975808     2.968165     2.960522     2.952878     2.945235     2.937592
      2.929949     2.922306     2.914662     2.907019     2.899376     2.891733     2.884089     2.876446     2.868803     2.861160
      2.853517     2.845873     2.838230     2.830587     2.822944     2.815300     2.807657     2.800014     2.792371     2.784728
      2.777084     2.769441     2.761798     2.754155     2.746511     2.738868     2.731225     2.723582     2.715939     2.708295
      2.700652     2.693009     2.685366     2.677722     2.670079     2.662436     2.654793     2.647150     2.639506     2.631863
      2.624220     2.616577     2.608933     2.601290     2.593647     2.586004     2.578361     2.570717     2.563074     2.555431
      2.547788     2.540144     2.532501     2.524858     2.517215     2.509572     2.501928     2.494285     2.486642     2.478999
      2.471355     2.463712     2.456069     2.448426     2.440783     2.433139     2.425496     2.417853     2.410210     2.402566
      2.394923     2.387280     2.379637     2.371994     2.364350     2.356707     2.349064     2.341421     2.333777     2.326134
      2.318491     2.310848     2.303205     2.295561     2.287918     2.280275     2.272632     2.264988     2.257345     2.249702
      2.242059     2.234416     2.226772     2.219129     2.211486     2.203843     2.196199     2.188556     2.180913     2.173270
      2.165627     2.157983     2.150340     2.142697     2.135054     2.127410     2.119767     2.112124     2.104481     2.096838
      2.089194     2.081551     2.073908     2.066265     2.058621     2.050978     2.043335     2.035692     2.028049     2.020405
      2.012762     2.005119     1.997476     1.989833     1.982190     1.974546     1.966903     1.959260     1.951617     1.943974
      1.936331     1.928688     1.921045     1.913402     1.905759     1.898115     1.890472     1.882829     1.875186     1.867543
      1.859900     1.852257     1.844614     1.836971     1.829327     1.821684     1.814041     1.806398     1.798755     1.791112
      1.783469     1.775826     1.768183     1.760540     1.752896     1.745253     1.737610     1.729967     1.722324     1.714681
      1.707038     1.699395     1.691752     1.684108     1.676465     1.668822     1.661179     1.653536     1.645893     1.638250
      1.630607     1.622964     1.615321     1.607677     1.600034     1.592391     1.584748     1.577105     1.569462     1.561819
      1.554176     1.546533     1.538890     1.531246     1.523603     1.515960     1.508317     1.500674     1.493031     1.485388
      1.477745     1.470102     1.462458     1.454815     1.447172     1.439529     1.431886     1.424243     1.416600     1.408957
      1.401314     1.393671     1.386027     1.378384     1.370741     1.363098     1.355455     1.347812     1.340169     1.332526
      1.324883     1.317240     1.309596     1.301953     1.294310     1.286667     1.279024     1.271381     1.263738     1.256095
      1.248452     1.240808     1.233165     1.225522     1.217879     1.210236     1.202593     1.194950     1.187307     1.179664
      1.172021     1.164377     1.156734     1.149091     1.141448     1.133805     1.126162     1.118519     1.110876     1.103233
      1.095590     1.087946     1.080303     1.072660     1.065017     1.057374     1.049731     1.042088     1.034445     1.026802
      1.019158     1.011515     1.003872     0.996229     0.988586     0.980943     0.973300     0.965657     0.958014     0.950371
      0.942727     0.935084     0.927441     0.919798     0.912155     0.904512     0.896869     0.889226     0.881583     0.873940
      0.866296     0.858653     0.851010     0.843367     0.835724     0.828081     0.820438     0.812795     0.805152     0.797508
      0.789865     0.782222     0.774579     0.766936     0.759293     0.751650     0.744007     0.736364     0.728721     0.721077
      0.713434     0.705791     0.698148     0.690505     0.682862     0.675219     0.667576     0.659933     0.652290     0.644646
      0.637003     0.629360     0.621717     0.614074     0.606431     0.598788     0.591145     0.583502     0.575858     0.568215
      0.560572     0.552929     0.545286     0.537643     0.530000     0.522357     0.514714     0.507071     0.499427     0.491784
      0.484141     0.476498     0.468855     0.461212     0.453569     0.445925     0.438282     0.430639     0.422996     0.415353
      0.407710     0.400067     0.392424     0.384780     0.377137     0.369494     0.361851     0.354208     0.346565     0.338922
      0.331278     0.323635     0.315992     0.308349     0.300706     0.293063     0.285420     0.277777     0.270133     0.262490
      0.254847     0.247204     0.239561     0.231918     0.224275     0.216631     0.208988     0.201345
 NY phased data points follow
   1.63569E+01  1.68039E+01  3.06117E+01  1.87093E+01  1.73964E+01  3.35644E+00  1.95831E+01  2.02520E+01  2.54939E+01  1.68442E+01
   1.14603E+01  2.07901E+01  1.87123E+01  1.51439E+01  2.05981E+01  2.42567E+01  2.42604E+01  1.69180E+01  1.23080E+01  2.11350E+01
   1.72971E+01  1.97747E+01  1.80957E+01  1.98864E+01  1.81001E+01  1.84462E+01  1.85005E+01  1.51192E+01  1.66551E+01  2.18291E+01
   2.50326E+01  1.97878E+01  2.00320E+01  1.74077E+01  1.62298E+01  2.14797E+01  2.11800E+01  2.20461E+01  1.45496E+01  1.88490E+01
   1.97820E+01  1.35094E+01  1.97653E+01  1.27572E+01  1.77358E+01  2.82669E+01  2.71915E+01  2.47755E+01  2.43000E+01  2.60151E+01
   1.97602E+01  1.90472E+01  1.39890E+01  2.28839E+01  1.46012E+01  2.23350E+01  1.64677E+01  1.67585E+01  1.59818E+01  1.90654E+01
   1.46152E+01  7.11939E+00  7.82076E+00  1.54975E+01  3.24489E+00  1.35097E+01  1.09801E+01  1.90179E+01  7.35354E+00  5.72756E+00
   1.93349E+01  9.91430E+00  5.31053E+00  1.36172E+01  1.39878E+01  1.59852E+01  1.32429E+01  1.23922E+01  1.22046E+01  1.33701E+01
   9.58683E+00  1.46224E+01  1.39591E+01  1.50654E+01  1.11498E+01  9.94788E+00  5.90282E+00  1.41981E+01  1.34016E+01  9.69542E+00
   1.54348E+01  1.89017E+01  9.99963E+00  1.42304E+01  1.07159E+01  1.56821E+01  1.74547E+01  1.73451E+01  2.86954E+01  3.09262E+01
   3.42391E+01  4.90695E+01  5.93548E+01  6.67900E+01  5.26117E+01  5.09290E+01  3.20498E+01  3.04850E+01  2.69958E+01  2.31571E+01
   1.84114E+01  1.99551E+01  2.01231E+01  1.38927E+01  6.43451E+00  1.43646E+01  1.36682E+01  2.04165E+01  1.73258E+01  1.35847E+01
   1.26174E+01  1.68259E+01  9.35527E+00  2.24181E+01  3.26890E+01  3.97430E+01  5.52365E+01  5.73127E+01  5.54996E+01  4.79425E+01
   3.49525E+01  3.41838E+01  1.99361E+01  1.94652E+01  1.43389E+01  1.39257E+01  1.77889E+01  1.88564E+01  1.79287E+01  1.03676E+01
   1.00481E+01  1.61288E+01  1.51746E+01  6.44671E+00  1.07631E+01 -8.40274E-01  2.68608E+00  7.11217E+00  1.12017E+01  5.98684E-01
   6.16427E+00  9.70977E+00  3.94940E+00  9.64929E+00  1.34003E+01  6.07446E+00  5.88132E+00  6.39330E+00  2.67609E+00  1.04265E+01
   4.43930E+00  1.07072E+01  3.41385E+00  4.53363E+00  3.76724E+00  5.03693E+00 -4.23943E-01 -5.31142E+00 -8.70839E+00 -9.17093E+00
  -1.42179E+01 -5.38497E+00 -9.24181E+00 -1.22593E+01 -1.42486E+01 -1.81433E+01 -1.22045E+01 -1.08603E+01 -8.93733E+00 -1.31450E+01
  -1.09560E+01 -8.38228E+00 -1.29455E+00 -4.99902E+00  3.47450E-02 -6.27359E+00 -5.00237E+00 -3.60664E+00 -6.55699E+00  3.19684E+00
   8.38845E+00  3.77539E+00 -4.29995E-01  4.48989E+00 -1.35037E-01 -9.07392E+00 -5.84442E+00 -9.40977E+00 -9.66353E+00 -7.59679E+00
  -3.93664E+00  4.24269E-01  6.55541E+00  5.34398E+00  1.25403E+01  1.11638E+01  9.75708E+00  4.93168E+00  4.88316E+00  6.89389E+00
  -2.12692E+00  9.37549E+00  1.07081E+01  1.17868E+01  1.91772E+01  2.37947E+01  2.23344E+01  1.88792E+01  2.37038E+01  1.55352E+01
   1.86087E+00  3.38056E+00  7.67163E+00 -2.25053E+00  3.93179E+00  1.61474E+01  1.17497E+01  1.77999E+01  2.21005E+01  1.51049E+01
   1.31510E+01  1.97809E+01  1.96176E+01  1.13539E+01  1.29841E+01  1.35591E+01  1.84304E+01  2.03192E+01  1.93666E+01  1.74108E+01
   1.47516E+01  1.21575E+01  1.16553E+01  7.47656E+00  8.56384E+00  1.40083E+01  2.04595E+01  2.05412E+01  2.23316E+01  2.25020E+01
   2.37114E+01  2.21416E+01  3.10635E+01  4.10078E+01  6.23450E+01  6.17148E+01  7.46902E+01  9.05734E+01  1.16739E+02  1.26388E+02
   1.37355E+02  1.38399E+02  1.09912E+02  7.20792E+01  5.52343E+01  2.95497E+01  2.75821E+01  2.12843E+01  2.10123E+01  1.78850E+01
   9.62389E+00  6.43219E+00  1.06294E+01  1.08414E+01  8.60973E+00  8.11639E+00  5.67451E+00  7.55858E+00  6.02849E-01  8.38608E+00
   6.22367E+00  1.11386E+01  8.56972E+00  7.55331E+00  8.67982E+00  1.90406E+01 -8.91067E-01  1.06465E+01  1.35878E+01  1.24714E+01
   1.05493E+01  1.08530E+01  1.29585E+01  1.32479E+01  5.64240E+00  1.40748E+01  1.04523E+01  9.78619E+00  7.87548E+00  4.92556E+00
   1.76313E+01  1.18569E+01  1.56966E+01  8.53019E+00  8.85464E+00  1.35160E+01  1.32816E+01  1.30086E+01  2.27011E+01  1.66152E+01
   1.67194E+01  1.21522E+01  1.12849E+01  1.22276E+01  1.75777E+01  2.23031E+01  1.66318E+01  1.78195E+01  1.99159E+01  1.34673E+01
   1.49768E+01  8.86977E+00  6.22414E+00  1.43930E+01  1.39918E+01  1.72471E+01  1.77609E+01  2.11146E+01  1.02873E+01  1.49289E+01
   9.26603E+00  1.35067E+01  1.87451E+01  1.98448E+01  1.06012E+01  1.10568E+01  1.61126E+01  1.73774E+01  1.24615E+01  1.85981E+01
   1.11065E+01  1.59844E+01  2.00338E+01  1.63877E+01  2.23505E+01  2.45689E+01  1.99377E+01  1.52664E+01  2.15547E+01  9.54296E+00
   2.36658E+01  1.77376E+01  1.73256E+01  2.03861E+01  1.74134E+01  1.50204E+01  2.25020E+01  1.86479E+01  2.00307E+01  2.77022E+01
   1.31912E+01  1.58619E+01  1.46948E+01  1.43423E+01  1.33774E+01  1.85652E+01  7.02402E+00  1.73927E+01  1.95612E+01  2.10035E+01
   1.53832E+01  1.72396E+01  1.78357E+01  1.41427E+01  1.52722E+01  1.84883E+01  1.48417E+01  7.95387E+00  1.63457E+01  9.06944E+00
   1.13333E+01  1.36169E+01  1.04340E+01  1.51621E+01  1.21253E+01  1.32012E+01  8.99334E+00  1.02113E+01  1.33674E+01  1.52347E+01
   1.02859E+01  1.07559E+01  1.13674E+01  1.45954E+01  1.47075E+01  1.83427E+01  2.14663E+01  2.06014E+01  1.90980E+01  2.19696E+01
   1.88334E+01  1.99507E+01  2.03644E+01  2.37061E+01  1.78564E+01  2.34722E+01  2.62445E+01  2.35609E+01  2.62103E+01  2.14865E+01
   1.91257E+01  1.20387E+01  1.26101E+01  1.75389E+01  1.89506E+01  1.53335E+01  2.03204E+01  1.31361E+01  1.45502E+01  1.03487E+01
   1.08932E+01  7.10903E+00  5.46883E+00  7.85542E+00  6.11789E+00  6.08145E+00  9.04236E+00  1.13123E+01  8.16982E+00  8.78598E+00
   3.40205E+00  6.28964E+00 -4.92516E-01  8.44794E+00  6.06671E+00  1.13531E+01 -1.41999E-02 -9.50129E-01  6.42005E+00  7.61471E+00
   8.50303E+00  6.97111E+00  1.61742E+00  8.74931E+00 -1.89466E+00  6.41194E+00  5.46559E+00  5.61793E+00  1.97206E+00  8.99657E-01
   3.87219E+00  4.93858E+00  3.57846E+00  2.00719E+00  5.56686E+00 -2.59628E-02  4.66395E+00 -2.79679E+00 -2.85295E+00  4.90629E+00
   4.08438E+00  3.00654E+00  8.60250E+00 -1.00141E+00 -2.64534E+00 -1.60938E+00 -1.16633E+00  4.82663E+00  6.31215E+00  3.69458E+00
  -3.20000E+00  5.34772E-01  6.01393E-01  2.72223E+00  9.66833E-01  1.18634E+01 -3.07850E-01  6.45070E+00  5.91317E+00 -8.29617E-01
   3.40633E-01 -3.26837E+00  4.10748E+00  2.72453E+00  5.48496E+00  6.25891E+00 -3.38352E+00 -7.50352E+00  5.46588E+00  3.00109E+00
   2.29253E+00  1.00281E+00 -2.61170E+00  3.11310E-01 -2.02393E+00  3.17828E+00  4.52185E+00  1.90814E+00
 NY points of the fit to the data follow
   1.52764E+01  1.50411E+01  1.52513E+01  1.56403E+01  1.61431E+01  1.70994E+01  1.82304E+01  1.88960E+01  1.92486E+01  1.96367E+01
   2.00403E+01  2.04860E+01  2.08122E+01  2.05409E+01  1.96099E+01  1.84153E+01  1.75921E+01  1.72476E+01  1.68224E+01  1.64202E+01
   1.62333E+01  1.62161E+01  1.60569E+01  1.58964E+01  1.58643E+01  1.57216E+01  1.60240E+01  1.73312E+01  1.95490E+01  2.23143E+01
   2.48451E+01  2.62773E+01  2.60406E+01  2.44002E+01  2.19205E+01  1.91601E+01  1.64119E+01  1.42304E+01  1.32144E+01  1.30925E+01
   1.36988E+01  1.48418E+01  1.61562E+01  1.76659E+01  1.95331E+01  2.17196E+01  2.36908E+01  2.46293E+01  2.39226E+01  2.15908E+01
   1.84516E+01  1.56848E+01  1.38728E+01  1.29382E+01  1.25225E+01  1.25495E+01  1.30688E+01  1.38967E+01  1.48199E+01  1.56102E+01
   1.59724E+01  1.57060E+01  1.48344E+01  1.38439E+01  1.31045E+01  1.28278E+01  1.29637E+01  1.32483E+01  1.34878E+01  1.38104E+01
   1.42559E+01  1.46729E+01  1.51933E+01  1.57917E+01  1.61397E+01  1.60616E+01  1.54174E+01  1.42293E+01  1.27695E+01  1.16325E+01
   1.13250E+01  1.16887E+01  1.22495E+01  1.28268E+01  1.32419E+01  1.31810E+01  1.26118E+01  1.16840E+01  1.06544E+01  9.95057E+00
   9.84269E+00  1.00795E+01  1.02899E+01  1.03565E+01  1.04113E+01  1.09852E+01  1.27824E+01  1.66954E+01  2.14771E+01  2.80782E+01
   3.82415E+01  5.02444E+01  6.01601E+01  6.42460E+01  6.02511E+01  4.94383E+01  3.67812E+01  2.69735E+01  2.09437E+01  1.69171E+01
   1.32960E+01  1.12340E+01  1.05503E+01  1.02616E+01  1.01268E+01  1.00417E+01  1.00255E+01  1.00711E+01  1.02013E+01  1.05187E+01
   1.14188E+01  1.40111E+01  1.77754E+01  2.30859E+01  3.17009E+01  4.25594E+01  5.21455E+01  5.70483E+01  5.50303E+01  4.66158E+01
   3.58688E+01  2.70363E+01  2.12996E+01  1.72794E+01  1.32776E+01  1.01611E+01  8.61504E+00  8.03868E+00  8.24894E+00  8.93364E+00
   9.64849E+00  1.01092E+01  1.02160E+01  9.94733E+00  9.44815E+00  8.93226E+00  8.47628E+00  8.09628E+00  7.72109E+00  7.34667E+00
   6.99194E+00  6.59555E+00  6.19335E+00  5.89118E+00  5.70009E+00  5.60693E+00  5.68279E+00  5.63340E+00  5.15400E+00  4.33418E+00
   3.39066E+00  2.89154E+00  3.14632E+00  3.81848E+00  4.24023E+00  3.97297E+00  2.97181E+00  1.70823E+00  7.63806E-01  2.14184E-01
  -9.43846E-02 -2.91178E-01 -6.29245E-01 -1.25175E+00 -2.02627E+00 -2.56403E+00 -2.44305E+00 -1.76328E+00 -1.05762E+00 -8.48328E-01
  -1.14684E+00 -1.53366E+00 -1.36454E+00 -7.10296E-01 -9.19739E-02  4.75576E-01  1.42867E+00  3.01193E+00  5.22660E+00  7.51486E+00
   9.08912E+00  9.52252E+00  8.89818E+00  7.77711E+00  6.53018E+00  5.31438E+00  4.50977E+00  4.41117E+00  5.04865E+00  6.38525E+00
   8.36241E+00  1.05361E+01  1.22363E+01  1.30280E+01  1.24815E+01  1.07290E+01  7.68193E+00  3.71613E+00  4.17712E-02 -2.37885E+00
  -2.98369E+00 -1.58362E+00  1.52470E+00  5.87499E+00  1.05596E+01  1.43825E+01  1.61456E+01  1.52891E+01  1.19870E+01  7.45795E+00
   3.03019E+00 -2.81478E-01 -1.64582E+00 -7.89220E-01  2.18488E+00  6.39666E+00  1.02317E+01  1.27558E+01  1.38551E+01  1.39821E+01
   1.35926E+01  1.30842E+01  1.27689E+01  1.30053E+01  1.38343E+01  1.49755E+01  1.60432E+01  1.68269E+01  1.73248E+01  1.71894E+01
   1.62714E+01  1.50556E+01  1.42945E+01  1.44298E+01  1.54385E+01  1.70922E+01  1.88194E+01  2.00985E+01  2.09131E+01  2.19661E+01
   2.41951E+01  2.70000E+01  3.15307E+01  3.93896E+01  5.21926E+01  6.55028E+01  7.80685E+01  9.43614E+01  1.13590E+02  1.30176E+02
   1.37804E+02  1.30684E+02  1.08120E+02  7.90348E+01  5.54141E+01  4.07583E+01  3.14503E+01  2.28771E+01  1.71358E+01  1.50422E+01
   1.38840E+01  1.30859E+01  1.25640E+01  1.22200E+01  1.18403E+01  1.13459E+01  1.07316E+01  1.00679E+01  9.45383E+00  8.97565E+00
   8.64308E+00  8.40837E+00  8.25253E+00  8.17458E+00  8.11801E+00  8.02429E+00  7.90902E+00  7.81382E+00  7.78290E+00  7.84568E+00
   8.01712E+00  8.30738E+00  8.69249E+00  9.11405E+00  9.53724E+00  9.94698E+00  1.03475E+01  1.07608E+01  1.11967E+01  1.16587E+01
   1.21607E+01  1.26929E+01  1.32202E+01  1.37107E+01  1.41441E+01  1.45151E+01  1.48185E+01  1.50444E+01  1.51926E+01  1.52697E+01
   1.52783E+01  1.52257E+01  1.51187E+01  1.49683E+01  1.47858E+01  1.45866E+01  1.43842E+01  1.41938E+01  1.40276E+01  1.39020E+01
   1.38363E+01  1.38602E+01  1.39406E+01  1.40769E+01  1.42959E+01  1.44992E+01  1.45490E+01  1.43844E+01  1.40275E+01  1.36364E+01
   1.34100E+01  1.34186E+01  1.37022E+01  1.42461E+01  1.49710E+01  1.58069E+01  1.66009E+01  1.71518E+01  1.74270E+01  1.75478E+01
   1.76630E+01  1.78558E+01  1.80563E+01  1.82524E+01  1.85302E+01  1.87767E+01  1.88317E+01  1.86211E+01  1.81717E+01  1.76665E+01
   1.72850E+01  1.71525E+01  1.73337E+01  1.77740E+01  1.83456E+01  1.89553E+01  1.94343E+01  1.96014E+01  1.94767E+01  1.92010E+01
   1.88880E+01  1.85599E+01  1.81670E+01  1.77396E+01  1.73092E+01  1.68626E+01  1.63948E+01  1.59089E+01  1.54082E+01  1.48999E+01
   1.43901E+01  1.38873E+01  1.33979E+01  1.29301E+01  1.24899E+01  1.20853E+01  1.17222E+01  1.14080E+01  1.11474E+01  1.09466E+01
   1.08095E+01  1.07420E+01  1.07474E+01  1.08304E+01  1.09926E+01  1.12370E+01  1.15637E+01  1.19740E+01  1.24654E+01  1.30356E+01
   1.36781E+01  1.43863E+01  1.51495E+01  1.59568E+01  1.67926E+01  1.76409E+01  1.84821E+01  1.92973E+01  2.00651E+01  2.07662E+01
   2.13799E+01  2.18888E+01  2.22764E+01  2.25314E+01  2.26444E+01  2.26118E+01  2.24325E+01  2.21111E+01  2.16548E+01  2.10762E+01
   2.03893E+01  1.96116E+01  1.87602E+01  1.78546E+01  1.69125E+01  1.59528E+01  1.49910E+01  1.40423E+01  1.31180E+01  1.22288E+01
   1.13819E+01  1.05838E+01  9.83721E+00  9.14443E+00  8.50464E+00  7.91770E+00  7.38097E+00  6.89272E+00  6.44884E+00  6.04655E+00
   5.68143E+00  5.35100E+00  5.05126E+00  4.77990E+00  4.53297E+00  4.30843E+00  4.10306E+00  3.91569E+00  3.74371E+00  3.58613E+00
   3.44042E+00  3.30594E+00  3.18087E+00  3.06516E+00  2.95717E+00  2.85673E+00  2.76217E+00  2.67366E+00  2.59006E+00  2.51182E+00
   2.43769E+00  2.36787E+00  2.30114E+00  2.23806E+00  2.17780E+00  2.12094E+00  2.06639E+00  2.01450E+00  1.96432E+00  1.91660E+00
   1.87062E+00  1.82694E+00  1.78454E+00  1.74392E+00  1.70430E+00  1.66651E+00  1.62983E+00  1.59479E+00  1.56040E+00  1.52727E+00
   1.49478E+00  1.46373E+00  1.43337E+00  1.40419E+00  1.37531E+00  1.34741E+00  1.31995E+00  1.29368E+00  1.26778E+00  1.24273E+00
   1.21775E+00  1.19360E+00  1.16976E+00  1.14689E+00  1.12415E+00  1.10202E+00  1.07985E+00  1.05844E+00  1.03722E+00  1.01678E+00
   9.96264E-01  9.76207E-01  9.56043E-01  9.36580E-01  9.17201E-01  8.98396E-01  8.79340E-01  8.60645E-01
 NY background values follow
     1.121E+01    1.117E+01    1.112E+01    1.108E+01    1.103E+01    1.099E+01    1.095E+01    1.090E+01    1.086E+01    1.081E+01
     1.077E+01    1.073E+01    1.068E+01    1.064E+01    1.059E+01    1.055E+01    1.050E+01    1.046E+01    1.042E+01    1.037E+01
     1.033E+01    1.028E+01    1.024E+01    1.020E+01    1.015E+01    1.011E+01    1.006E+01    1.002E+01    9.976E+00    9.932E+00
     9.888E+00    9.844E+00    9.800E+00    9.756E+00    9.712E+00    9.668E+00    9.624E+00    9.580E+00    9.536E+00    9.492E+00
     9.448E+00    9.404E+00    9.360E+00    9.316E+00    9.272E+00    9.228E+00    9.184E+00    9.140E+00    9.096E+00    9.052E+00
     9.008E+00    8.965E+00    8.921E+00    8.877E+00    8.833E+00    8.789E+00    8.746E+00    8.702E+00    8.658E+00    8.614E+00
     8.571E+00    8.527E+00    8.483E+00    8.440E+00    8.396E+00    8.352E+00    8.309E+00    8.265E+00    8.222E+00    8.178E+00
     8.135E+00    8.091E+00    8.048E+00    8.005E+00    7.961E+00    7.918E+00    7.875E+00    7.831E+00    7.788E+00    7.745E+00
     7.702E+00    7.658E+00    7.615E+00    7.572E+00    7.529E+00    7.486E+00    7.443E+00    7.400E+00    7.357E+00    7.314E+00
     7.272E+00    7.229E+00    7.186E+00    7.143E+00    7.101E+00    7.058E+00    7.016E+00    6.973E+00    6.930E+00    6.888E+00
     6.846E+00    6.803E+00    6.761E+00    6.719E+00    6.677E+00    6.635E+00    6.592E+00    6.550E+00    6.509E+00    6.467E+00
     6.425E+00    6.383E+00    6.341E+00    6.300E+00    6.258E+00    6.217E+00    6.175E+00    6.134E+00    6.093E+00    6.052E+00
     6.011E+00    5.969E+00    5.929E+00    5.888E+00    5.847E+00    5.806E+00    5.766E+00    5.725E+00    5.685E+00    5.644E+00
     5.604E+00    5.564E+00    5.524E+00    5.484E+00    5.444E+00    5.404E+00    5.364E+00    5.325E+00    5.285E+00    5.246E+00
     5.207E+00    5.167E+00    5.128E+00    5.089E+00    5.051E+00    5.012E+00    4.973E+00    4.935E+00    4.897E+00    4.858E+00
     4.820E+00    4.782E+00    4.745E+00    4.707E+00    4.669E+00    4.632E+00    4.595E+00    4.558E+00    4.521E+00    4.484E+00
     4.448E+00    4.411E+00    4.375E+00    4.339E+00    4.303E+00    4.267E+00    4.232E+00    4.196E+00    4.161E+00    4.126E+00
     4.091E+00    4.057E+00    4.022E+00    3.988E+00    3.954E+00    3.920E+00    3.887E+00    3.853E+00    3.820E+00    3.787E+00
     3.754E+00    3.722E+00    3.689E+00    3.657E+00    3.625E+00    3.594E+00    3.562E+00    3.531E+00    3.500E+00    3.469E+00
     3.438E+00    3.408E+00    3.378E+00    3.348E+00    3.318E+00    3.288E+00    3.259E+00    3.230E+00    3.201E+00    3.172E+00
     3.143E+00    3.115E+00    3.086E+00    3.058E+00    3.030E+00    3.003E+00    2.975E+00    2.948E+00    2.921E+00    2.894E+00
     2.867E+00    2.840E+00    2.814E+00    2.788E+00    2.762E+00    2.736E+00    2.710E+00    2.685E+00    2.659E+00    2.634E+00
     2.609E+00    2.584E+00    2.559E+00    2.535E+00    2.510E+00    2.486E+00    2.462E+00    2.438E+00    2.414E+00    2.390E+00
     2.367E+00    2.344E+00    2.321E+00    2.297E+00    2.275E+00    2.252E+00    2.229E+00    2.207E+00    2.185E+00    2.163E+00
     2.141E+00    2.119E+00    2.097E+00    2.076E+00    2.054E+00    2.033E+00    2.012E+00    1.991E+00    1.970E+00    1.950E+00
     1.929E+00    1.909E+00    1.889E+00    1.869E+00    1.849E+00    1.829E+00    1.810E+00    1.790E+00    1.771E+00    1.752E+00
     1.733E+00    1.714E+00    1.695E+00    1.677E+00    1.659E+00    1.640E+00    1.622E+00    1.604E+00    1.586E+00    1.569E+00
     1.551E+00    1.534E+00    1.516E+00    1.499E+00    1.482E+00    1.465E+00    1.449E+00    1.432E+00    1.416E+00    1.399E+00
     1.383E+00    1.367E+00    1.351E+00    1.336E+00    1.320E+00    1.304E+00    1.289E+00    1.274E+00    1.259E+00    1.244E+00
     1.229E+00    1.214E+00    1.199E+00    1.185E+00    1.170E+00    1.156E+00    1.142E+00    1.128E+00    1.114E+00    1.100E+00
     1.086E+00    1.073E+00    1.059E+00    1.046E+00    1.033E+00    1.020E+00    1.007E+00    9.936E-01    9.808E-01    9.681E-01
     9.555E-01    9.430E-01    9.306E-01    9.183E-01    9.061E-01    8.940E-01    8.820E-01    8.701E-01    8.583E-01    8.466E-01
     8.349E-01    8.234E-01    8.120E-01    8.007E-01    7.894E-01    7.783E-01    7.672E-01    7.563E-01    7.454E-01    7.346E-01
     7.239E-01    7.133E-01    7.028E-01    6.923E-01    6.820E-01    6.717E-01    6.615E-01    6.514E-01    6.414E-01    6.315E-01
     6.216E-01    6.118E-01    6.021E-01    5.925E-01    5.829E-01    5.735E-01    5.641E-01    5.548E-01    5.455E-01    5.363E-01
     5.272E-01    5.182E-01    5.092E-01    5.004E-01    4.915E-01    4.828E-01    4.741E-01    4.655E-01    4.569E-01    4.485E-01
     4.400E-01    4.317E-01    4.234E-01    4.152E-01    4.070E-01    3.989E-01    3.908E-01    3.829E-01    3.749E-01    3.671E-01
     3.593E-01    3.515E-01    3.438E-01    3.362E-01    3.286E-01    3.211E-01    3.136E-01    3.062E-01    2.988E-01    2.915E-01
     2.842E-01    2.770E-01    2.699E-01    2.628E-01    2.557E-01    2.487E-01    2.418E-01    2.349E-01    2.280E-01    2.212E-01
     2.144E-01    2.077E-01    2.010E-01    1.944E-01    1.878E-01    1.813E-01    1.748E-01    1.683E-01    1.619E-01    1.555E-01
     1.492E-01    1.429E-01    1.367E-01    1.305E-01    1.243E-01    1.182E-01    1.121E-01    1.060E-01    9.998E-02    9.399E-02
     8.803E-02    8.211E-02    7.623E-02    7.037E-02    6.455E-02    5.876E-02    5.301E-02    4.728E-02    4.158E-02    3.591E-02
     3.027E-02    2.466E-02    1.907E-02    1.351E-02    7.978E-03    2.470E-03   -3.014E-03   -8.474E-03   -1.391E-02   -1.932E-02
    -2.472E-02   -3.009E-02   -3.544E-02   -4.077E-02   -4.608E-02   -5.137E-02   -5.664E-02   -6.190E-02   -6.714E-02   -7.236E-02
    -7.757E-02   -8.276E-02   -8.794E-02   -9.310E-02   -9.826E-02   -1.034E-01   -1.085E-01   -1.136E-01   -1.187E-01   -1.238E-01
    -1.289E-01   -1.340E-01   -1.391E-01   -1.441E-01   -1.492E-01   -1.543E-01   -1.593E-01   -1.643E-01   -1.694E-01   -1.744E-01
    -1.794E-01   -1.844E-01   -1.894E-01   -1.944E-01   -1.994E-01   -2.044E-01   -2.094E-01   -2.144E-01   -2.194E-01   -2.243E-01
    -2.293E-01   -2.343E-01   -2.392E-01   -2.442E-01   -2.491E-01   -2.541E-01   -2.590E-01   -2.640E-01   -2.689E-01   -2.739E-01
    -2.788E-01   -2.837E-01   -2.887E-01   -2.936E-01   -2.985E-01   -3.035E-01   -3.084E-01   -3.133E-01   -3.183E-01   -3.232E-01
    -3.281E-01   -3.330E-01   -3.380E-01   -3.429E-01   -3.478E-01   -3.528E-01   -3.577E-01   -3.626E-01
 Ala      Conc. = 8.98E+01
