 LCModel (Version 6.3-1L) Copyright: S.W. Provencher.          Ref.: Magn. Reson. Med. 30:672-679 (1993).                
 Slice#2 Row#8 Col#12  PD_05_press_2_raw_act
 36 lines in following concentration table = NCONC+1
    Conc.  %SD /Cr+PCr  Metabolite                                         
    0.000 999%   0.000 Ala                                                 
   45.106 106%   0.000 Asp                                                 
    0.000 999%   0.000 Cr                                                  
    0.000 999%   0.000 PCr                                                 
   23.623 123%   0.000 GABA                                                
   23.117 124%   0.000 Glc                                                 
    0.000 999%   0.000 Gln                                                 
  208.188 148%   0.000 Glu                                                 
    0.000 999%   0.000 GPC                                                 
    0.000 999%   0.000 PCh                                                 
    0.000 999%   0.000 GSH                                                 
    9.762 999%   0.000 Ins                                                 
    0.000 999%   0.000 Lac                                                 
  909.054   9%   0.000 NAA                                                 
    0.000 999%   0.000 NAAG                                                
   11.782  77%   0.000 Scyllo                                              
   38.075 123%   0.000 Tau                                                 
    2.821 326%   0.000 -CrCH2                                              
    0.000 999%   0.000 GPC+PCh                                             
  909.054   9%   0.000 NAA+NAAG                                            
    0.000 999%   0.000 Cr+PCr                                              
  208.188 148%   0.000 Glu+Gln                                             
    0.000 999%   0.000 Lip13a                                              
    0.000 999%   0.000 Lip13b                                              
    0.000 999%   0.000 Lip09                                               
 2.25E+03   9%   0.000 MM09                                                
  131.015  95%   0.000 Lip20                                               
 1.33E+03  26%   0.000 MM20                                                
 1.21E+03  18%   0.000 MM12                                                
 1.08E+03  29%   0.000 MM14                                                
  993.097  30%   0.000 MM17                                                
    0.000 999%   0.000 Lip13a+Lip13b                                       
 2.29E+03  16%   0.000 MM14+Lip13a+Lip13b+MM12                             
 2.25E+03   9%   0.000 MM09+Lip09                                          
 1.46E+03  23%   0.000 MM20+Lip20                                          
   6 lines in following misc. output table
  FWHM = 0.061 ppm    S/N =   4                                            
  Data shift = 0.015 ppm                                                   
  Ph:  33 deg      16.1 deg/ppm                                            
  alphaB,S = 8.5E+01,   1.5E+02                                            
   14 spline knots.   Ns = 9(1)                                            
   2 inflections.     1 extrema                                            
  498 points on ppm-axis = NY
      4.000000     3.992357     3.984714     3.977070     3.969427     3.961784     3.954141     3.946497     3.938854     3.931211
      3.923568     3.915925     3.908281     3.900638     3.892995     3.885352     3.877708     3.870065     3.862422     3.854779
      3.847136     3.839492     3.831849     3.824206     3.816563     3.808919     3.801276     3.793633     3.785990     3.778347
      3.770703     3.763060     3.755417     3.747774     3.740130     3.732487     3.724844     3.717201     3.709558     3.701914
      3.694271     3.686628     3.678985     3.671341     3.663698     3.656055     3.648412     3.640769     3.633125     3.625482
      3.617839     3.610196     3.602552     3.594909     3.587266     3.579623     3.571980     3.564336     3.556693     3.549050
      3.541407     3.533763     3.526120     3.518477     3.510834     3.503191     3.495547     3.487904     3.480261     3.472618
      3.464974     3.457331     3.449688     3.442045     3.434402     3.426758     3.419115     3.411472     3.403829     3.396185
      3.388542     3.380899     3.373256     3.365613     3.357969     3.350326     3.342683     3.335040     3.327396     3.319753
      3.312110     3.304467     3.296824     3.289180     3.281537     3.273894     3.266251     3.258607     3.250964     3.243321
      3.235678     3.228034     3.220391     3.212748     3.205105     3.197462     3.189818     3.182175     3.174532     3.166889
      3.159245     3.151602     3.143959     3.136316     3.128673     3.121029     3.113386     3.105743     3.098100     3.090456
      3.082813     3.075170     3.067527     3.059884     3.052240     3.044597     3.036954     3.029311     3.021667     3.014024
      3.006381     2.998738     2.991095     2.983451     2.975808     2.968165     2.960522     2.952878     2.945235     2.937592
      2.929949     2.922306     2.914662     2.907019     2.899376     2.891733     2.884089     2.876446     2.868803     2.861160
      2.853517     2.845873     2.838230     2.830587     2.822944     2.815300     2.807657     2.800014     2.792371     2.784728
      2.777084     2.769441     2.761798     2.754155     2.746511     2.738868     2.731225     2.723582     2.715939     2.708295
      2.700652     2.693009     2.685366     2.677722     2.670079     2.662436     2.654793     2.647150     2.639506     2.631863
      2.624220     2.616577     2.608933     2.601290     2.593647     2.586004     2.578361     2.570717     2.563074     2.555431
      2.547788     2.540144     2.532501     2.524858     2.517215     2.509572     2.501928     2.494285     2.486642     2.478999
      2.471355     2.463712     2.456069     2.448426     2.440783     2.433139     2.425496     2.417853     2.410210     2.402566
      2.394923     2.387280     2.379637     2.371994     2.364350     2.356707     2.349064     2.341421     2.333777     2.326134
      2.318491     2.310848     2.303205     2.295561     2.287918     2.280275     2.272632     2.264988     2.257345     2.249702
      2.242059     2.234416     2.226772     2.219129     2.211486     2.203843     2.196199     2.188556     2.180913     2.173270
      2.165627     2.157983     2.150340     2.142697     2.135054     2.127410     2.119767     2.112124     2.104481     2.096838
      2.089194     2.081551     2.073908     2.066265     2.058621     2.050978     2.043335     2.035692     2.028049     2.020405
      2.012762     2.005119     1.997476     1.989833     1.982190     1.974546     1.966903     1.959260     1.951617     1.943974
      1.936331     1.928688     1.921045     1.913402     1.905759     1.898115     1.890472     1.882829     1.875186     1.867543
      1.859900     1.852257     1.844614     1.836971     1.829327     1.821684     1.814041     1.806398     1.798755     1.791112
      1.783469     1.775826     1.768183     1.760540     1.752896     1.745253     1.737610     1.729967     1.722324     1.714681
      1.707038     1.699395     1.691752     1.684108     1.676465     1.668822     1.661179     1.653536     1.645893     1.638250
      1.630607     1.622964     1.615321     1.607677     1.600034     1.592391     1.584748     1.577105     1.569462     1.561819
      1.554176     1.546533     1.538890     1.531246     1.523603     1.515960     1.508317     1.500674     1.493031     1.485388
      1.477745     1.470102     1.462458     1.454815     1.447172     1.439529     1.431886     1.424243     1.416600     1.408957
      1.401314     1.393671     1.386027     1.378384     1.370741     1.363098     1.355455     1.347812     1.340169     1.332526
      1.324883     1.317240     1.309596     1.301953     1.294310     1.286667     1.279024     1.271381     1.263738     1.256095
      1.248452     1.240808     1.233165     1.225522     1.217879     1.210236     1.202593     1.194950     1.187307     1.179664
      1.172021     1.164377     1.156734     1.149091     1.141448     1.133805     1.126162     1.118519     1.110876     1.103233
      1.095590     1.087946     1.080303     1.072660     1.065017     1.057374     1.049731     1.042088     1.034445     1.026802
      1.019158     1.011515     1.003872     0.996229     0.988586     0.980943     0.973300     0.965657     0.958014     0.950371
      0.942727     0.935084     0.927441     0.919798     0.912155     0.904512     0.896869     0.889226     0.881583     0.873940
      0.866296     0.858653     0.851010     0.843367     0.835724     0.828081     0.820438     0.812795     0.805152     0.797508
      0.789865     0.782222     0.774579     0.766936     0.759293     0.751650     0.744007     0.736364     0.728721     0.721077
      0.713434     0.705791     0.698148     0.690505     0.682862     0.675219     0.667576     0.659933     0.652290     0.644646
      0.637003     0.629360     0.621717     0.614074     0.606431     0.598788     0.591145     0.583502     0.575858     0.568215
      0.560572     0.552929     0.545286     0.537643     0.530000     0.522357     0.514714     0.507071     0.499427     0.491784
      0.484141     0.476498     0.468855     0.461212     0.453569     0.445925     0.438282     0.430639     0.422996     0.415353
      0.407710     0.400067     0.392424     0.384780     0.377137     0.369494     0.361851     0.354208     0.346565     0.338922
      0.331278     0.323635     0.315992     0.308349     0.300706     0.293063     0.285420     0.277777     0.270133     0.262490
      0.254847     0.247204     0.239561     0.231918     0.224275     0.216631     0.208988     0.201345
 NY phased data points follow
  -4.73548E+00 -1.89909E-01 -3.63201E+00 -2.48401E+00 -2.74714E+00 -8.54051E-01 -2.22443E+00 -7.38247E+00 -2.22746E-01 -6.74575E+00
  -5.45749E+00 -2.12152E+00 -3.44689E+00 -5.73724E+00 -2.27660E+00 -5.88372E+00 -2.26900E+00  1.47269E+00  6.18880E-01 -4.05520E+00
  -1.20454E+00 -5.17632E+00 -2.77848E+00 -2.40539E+00 -3.37017E-01 -1.42061E+00 -4.76394E+00 -3.04953E+00 -3.85109E+00 -4.33627E+00
   6.49800E-01 -6.68264E+00 -4.19654E+00  1.25255E-01 -7.33410E-01 -1.01145E+01  1.57429E+00 -6.70081E-01 -1.13590E+00 -2.41256E+00
  -6.41877E-01 -1.70819E+00 -2.86188E-01 -2.20489E+00  5.52199E-01  6.13854E-01  3.19635E+00 -8.04831E-01 -2.49285E+00 -5.53774E+00
  -5.80612E-01  1.37632E+00 -3.18438E-01 -1.09876E+00 -2.41047E+00 -4.98650E-01  3.40234E+00 -5.17897E-01  2.55979E+00  7.38370E+00
  -1.27138E+00  1.26508E+00 -2.25809E+00 -3.23727E-01 -2.14306E+00 -2.68427E+00  2.56962E+00 -1.73435E+00 -2.91513E+00  1.08275E+00
   1.74382E+00 -3.32620E+00 -3.32396E+00 -6.93268E-01 -3.86771E+00  8.48659E-01 -1.72186E+00 -3.77459E+00  1.08050E-01  4.19324E-01
  -2.48157E+00  1.35125E+00  3.85978E+00  7.95904E-01  3.67929E+00 -2.49930E+00  4.75453E+00 -1.64089E+00 -2.98346E+00 -5.35559E+00
   4.12838E+00 -1.59389E+00  2.86351E+00 -3.22964E+00  2.08021E+00 -2.42343E+00  1.04811E-01 -4.08276E+00 -4.97067E+00 -3.67840E+00
   6.06810E+00  4.15958E+00  7.09680E-01  3.71746E+00 -4.60592E+00 -1.75362E+00 -5.84189E+00 -1.84121E+00 -1.90967E+00 -6.91733E+00
  -1.62088E+00 -1.88768E+00  4.03196E+00 -1.57382E+00 -3.25656E-01  1.43048E+00 -8.60263E-01  4.50909E+00 -1.28157E+00 -5.55575E+00
  -5.20712E+00 -4.15895E+00 -3.66967E+00 -1.22608E+00  1.94483E+00  4.45813E+00 -1.65839E+00  6.61519E-01 -2.41274E+00 -3.37507E+00
   1.28683E+00 -4.59354E-02 -4.91769E-01  2.28915E+00 -3.77005E-02 -2.37391E+00 -4.12350E-01 -3.78048E+00  6.87631E-01 -7.09914E-01
  -3.38804E+00  2.65685E+00  2.34348E+00  3.09192E+00 -5.79607E-01 -9.03273E-01 -2.20870E-01  6.02205E+00  2.36183E+00  2.95413E+00
   1.59226E-01  5.13913E+00 -2.40730E+00 -1.93653E+00  1.35526E+00  2.99074E+00  5.74397E-01  4.13536E+00 -1.25799E+00 -5.22875E+00
   1.31153E+00  5.55308E+00 -4.03360E+00 -3.31209E+00  3.78833E+00  7.53428E+00 -1.44574E+00 -3.07569E+00  2.77925E+00  1.11249E+00
  -3.55330E+00  6.39168E+00  5.96292E+00  8.39912E-01  5.13392E+00 -3.03708E-01  1.13144E+00 -1.15468E+00 -2.99133E+00  4.11426E+00
  -6.27515E-01 -1.32949E-01  3.55963E+00 -1.69192E-01 -1.42774E+00  3.86847E+00  1.52411E+00 -2.06096E+00  2.09609E+00  4.64943E+00
   1.17513E+00  3.68084E+00 -8.83674E-01 -2.80367E+00  6.94361E-01 -4.84570E+00  3.13832E-01 -2.83093E+00  2.03196E+00  3.26957E+00
   1.62140E-01 -1.11502E+00  4.27028E+00  1.59021E+00 -1.77148E+00 -2.48474E+00  9.95623E-01  1.56816E-01  3.63079E+00  8.27204E-01
   2.95853E-01 -1.16198E+00  7.95378E-01  3.12005E+00  3.66962E+00  8.95083E+00  1.11892E+01 -1.14345E+00  5.98289E+00 -6.12494E-01
  -1.14162E+00  5.26559E-01  2.40297E+00  3.41280E+00  1.56211E+00  5.62460E+00 -8.54776E-01  9.84144E-01  6.37035E+00  4.04449E+00
   4.45292E-01  8.93283E-01  4.37400E+00  5.40660E+00  1.34112E+00  3.59043E+00  3.15461E+00  2.11769E+00  4.72371E+00  3.19002E+00
  -1.45190E+00 -2.58910E+00  3.28785E+00  3.65520E-01  5.83808E+00  5.19184E+00  7.31622E+00  3.82716E+00  7.78713E+00  9.60027E+00
   8.84440E+00  7.90255E+00  5.13131E+00  7.52017E+00  8.56048E+00  1.59120E+01  1.91888E+01  2.59126E+01  2.71851E+01  3.12915E+01
   3.24067E+01  3.06938E+01  2.58445E+01  1.40259E+01  2.21119E+01  1.44582E+01  1.04011E+01  9.14652E+00  1.30210E+01  7.21078E+00
   5.06506E+00  9.40353E-01  4.62882E+00  2.35910E+00  3.70106E+00  3.24153E+00 -3.87413E-01  7.21600E-01  9.61944E-01  5.79533E+00
   3.14410E+00  4.59396E+00  6.05398E-01  2.47376E-01 -3.97992E+00  8.45625E-01  2.18205E+00  2.54601E-01 -2.01567E-01  5.79717E+00
   2.24585E+00  2.66768E+00  3.76085E+00  1.24698E+00  4.14871E-01  2.76532E+00  2.28714E+00  1.76339E+00  3.15124E+00  4.72923E+00
   7.18017E+00  5.03048E+00 -2.12184E-02  7.15455E+00  5.01691E+00  5.95397E+00  1.03298E+01  7.86657E+00  6.90279E+00  5.81797E+00
   3.77986E+00  7.96817E+00  1.19241E+01  8.10832E+00  8.09112E+00  7.20480E+00  1.11274E+01  8.04542E+00  8.66809E+00  7.57292E+00
   7.02366E+00  1.20714E+01 -4.73454E-01  1.29282E+01  1.11051E+01  1.14125E+01  9.32586E+00  9.67824E+00  2.44805E+00  1.32524E+01
   8.23902E+00  1.27027E+01  7.14815E+00  1.05670E+01  5.71589E+00  4.72095E+00  7.50628E+00  5.95368E-01  4.82768E+00  8.82282E+00
   6.61247E+00  7.18857E+00  5.72083E+00  4.48998E+00  9.53497E-01  1.11196E+00  1.12309E+00  6.49462E+00  4.41961E+00  4.33998E+00
   7.10046E+00  6.28529E+00  3.40530E+00  3.67178E+00  2.67327E+00  5.19846E+00  9.93536E+00  8.43195E+00  6.66530E+00  4.85004E+00
   5.71834E+00  7.27399E+00  6.74068E+00  7.30043E+00  9.58918E+00  4.20072E+00  6.05110E+00  8.10264E+00  9.23360E+00  1.31127E+01
   9.05119E+00  1.11850E+01  5.44461E+00  7.78366E+00  9.57123E+00  1.24421E+01  4.38866E+00  7.01828E+00  1.34084E+01  1.42192E+01
   7.96469E+00  1.16968E+01  1.00682E+01  7.90161E+00  5.47919E+00  1.10611E+01  7.62679E+00  6.83767E+00  1.10137E+01  5.56503E+00
   5.02339E+00  1.01572E+01  5.01829E+00  1.22205E+01  1.42487E+01  8.51858E+00  1.16285E+01  1.68090E+01  1.58420E+01  1.12562E+01
   9.68275E+00  1.23101E+01  9.42615E+00  1.40587E+01  1.15718E+01  1.05867E+01  5.63355E+00  9.49927E+00  1.47225E+01  8.81369E+00
   1.27156E+01  9.29034E+00  9.61468E+00  1.11973E+01  8.70907E+00  1.29186E+01  8.99736E+00  7.89637E+00  3.16099E+00  1.17145E+01
   6.37341E+00  1.03607E+01  7.46578E+00  6.55104E+00  9.86855E+00  5.08092E+00  6.97751E+00  5.90157E+00  1.09949E+01  7.48868E+00
   2.81640E+00  4.19202E+00  1.00564E+01  5.09953E+00  3.04694E+00  5.87836E+00  4.24389E+00  7.62422E-01  2.80349E+00  3.39181E+00
   3.57641E+00  6.93686E+00  7.56437E+00  2.73440E+00  2.45761E-01  1.36430E-01 -2.35964E+00  4.26180E+00  4.21582E+00  1.06032E+00
   2.43730E+00  7.69461E-01  7.68976E+00 -1.25374E-01 -1.58506E+00  2.93083E+00  1.10260E+00  2.81235E+00  3.09996E-01  4.84169E+00
   1.52398E+00  7.01782E-01 -6.23969E+00 -1.14907E+00  2.17292E+00  8.74553E-01 -1.10992E+00 -8.56729E-02 -9.18872E-01  1.98415E+00
  -5.83469E-02 -5.91144E-01 -1.04636E+00 -4.15722E+00 -2.88160E+00 -1.98798E+00 -2.01554E+00  1.14383E+00  1.80486E+00 -2.24301E+00
   8.68077E-01 -3.36459E+00 -4.30960E+00 -7.92436E-01 -3.28839E+00 -1.79148E-01  6.30629E-01 -3.73876E+00 -6.15923E-01  1.45562E+00
  -6.85939E+00 -1.58208E+00 -2.53183E+00 -4.11274E+00 -7.12701E+00 -3.21452E+00 -1.72047E+00 -3.95351E+00
 NY points of the fit to the data follow
  -1.33486E+00 -1.32980E+00 -1.33070E+00 -1.33900E+00 -1.35362E+00 -1.37203E+00 -1.39062E+00 -1.40528E+00 -1.41234E+00 -1.40965E+00
  -1.39840E+00 -1.38344E+00 -1.37061E+00 -1.36317E+00 -1.36044E+00 -1.35844E+00 -1.35148E+00 -1.33361E+00 -1.30098E+00 -1.25484E+00
  -1.20148E+00 -1.15128E+00 -1.11609E+00 -1.10445E+00 -1.11717E+00 -1.14325E+00 -1.16362E+00 -1.15911E+00 -1.11982E+00 -1.05065E+00
  -9.71197E-01 -9.07914E-01 -8.80113E-01 -8.95507E-01 -9.49417E-01 -1.02309E+00 -1.08975E+00 -1.12820E+00 -1.13458E+00 -1.12108E+00
  -1.09913E+00 -1.08011E+00 -1.07036E+00 -1.06533E+00 -1.05695E+00 -1.04279E+00 -1.02631E+00 -1.01349E+00 -1.00836E+00 -1.01368E+00
  -1.02692E+00 -1.03939E+00 -1.04789E+00 -1.05285E+00 -1.05454E+00 -1.05331E+00 -1.04980E+00 -1.04427E+00 -1.03622E+00 -1.02496E+00
  -1.01098E+00 -9.95745E-01 -9.80757E-01 -9.67383E-01 -9.56855E-01 -9.49730E-01 -9.45113E-01 -9.39914E-01 -9.29786E-01 -9.10910E-01
  -8.81862E-01 -8.45576E-01 -8.08684E-01 -7.79220E-01 -7.63196E-01 -7.62297E-01 -7.73185E-01 -7.85649E-01 -7.83405E-01 -7.51507E-01
  -6.83234E-01 -5.85386E-01 -4.73647E-01 -3.67463E-01 -2.85245E-01 -2.39097E-01 -2.32865E-01 -2.65327E-01 -3.29570E-01 -4.10692E-01
  -4.94396E-01 -5.70922E-01 -6.32351E-01 -6.74425E-01 -6.99502E-01 -7.11153E-01 -7.08658E-01 -6.89947E-01 -6.65599E-01 -6.47702E-01
  -6.36845E-01 -6.27895E-01 -6.14720E-01 -5.94428E-01 -5.68502E-01 -5.39975E-01 -5.11588E-01 -4.85027E-01 -4.59299E-01 -4.31079E-01
  -3.98670E-01 -3.64109E-01 -3.27941E-01 -2.90412E-01 -2.53136E-01 -2.16744E-01 -1.80619E-01 -1.44664E-01 -1.07958E-01 -6.82374E-02
  -2.45010E-02  2.41196E-02  7.79535E-02  1.36331E-01  1.97526E-01  2.58433E-01  3.14656E-01  3.62008E-01  3.97846E-01  4.21102E-01
   4.32043E-01  4.32440E-01  4.25935E-01  4.15840E-01  4.03408E-01  3.88934E-01  3.72271E-01  3.53747E-01  3.34383E-01  3.15149E-01
   2.96600E-01  2.79379E-01  2.63401E-01  2.47106E-01  2.28206E-01  2.04808E-01  1.76842E-01  1.46370E-01  1.15514E-01  8.72379E-02
   6.45823E-02  4.75635E-02  3.01045E-02 -1.23658E-03 -6.04535E-02 -1.53518E-01 -2.71773E-01 -3.93198E-01 -4.93989E-01 -5.57782E-01
  -5.79335E-01 -5.65191E-01 -5.32984E-01 -5.09014E-01 -5.20217E-01 -5.80610E-01 -6.85728E-01 -8.20576E-01 -9.70182E-01 -1.12471E+00
  -1.27767E+00 -1.42446E+00 -1.56349E+00 -1.68214E+00 -1.76440E+00 -1.79927E+00 -1.78300E+00 -1.73555E+00 -1.68199E+00 -1.63987E+00
  -1.61225E+00 -1.58135E+00 -1.52358E+00 -1.42231E+00 -1.27048E+00 -1.07100E+00 -8.37647E-01 -5.89138E-01 -3.30009E-01 -5.59151E-02
   2.13499E-01  4.53393E-01  6.42660E-01  7.76246E-01  8.58983E-01  8.96342E-01  8.97332E-01  8.72619E-01  8.42678E-01  8.44408E-01
   8.97347E-01  9.81755E-01  1.06383E+00  1.10800E+00  1.08289E+00  9.74333E-01  7.98514E-01  6.01623E-01  4.36269E-01  3.35097E-01
   3.19407E-01  3.90228E-01  5.22728E-01  6.78316E-01  8.17110E-01  8.99754E-01  8.90539E-01  7.99136E-01  6.75771E-01  5.83553E-01
   5.71286E-01  6.60536E-01  8.47466E-01  1.09586E+00  1.35413E+00  1.59646E+00  1.81936E+00  2.02783E+00  2.21839E+00  2.39396E+00
   2.56825E+00  2.74825E+00  2.92563E+00  3.08503E+00  3.22473E+00  3.35680E+00  3.48962E+00  3.62599E+00  3.77523E+00  3.94699E+00
   4.14659E+00  4.37222E+00  4.61512E+00  4.86337E+00  5.10331E+00  5.32277E+00  5.51732E+00  5.69242E+00  5.86061E+00  6.03850E+00
   6.25976E+00  6.65027E+00  7.51009E+00  9.21221E+00  1.19751E+01  1.57002E+01  1.99502E+01  2.40754E+01  2.73935E+01  2.93395E+01
   2.95627E+01  2.80536E+01  2.52305E+01  2.17984E+01  1.83771E+01  1.52685E+01  1.25727E+01  1.02566E+01  8.15702E+00  6.17487E+00
   4.49528E+00  3.48409E+00  3.10441E+00  2.91114E+00  2.76500E+00  2.63827E+00  2.51965E+00  2.40605E+00  2.30069E+00  2.20629E+00
   2.12510E+00  2.05870E+00  2.00810E+00  1.97363E+00  1.95644E+00  1.95753E+00  1.97688E+00  2.01470E+00  2.07161E+00  2.14821E+00
   2.24539E+00  2.36418E+00  2.50571E+00  2.67152E+00  2.86265E+00  3.07966E+00  3.32296E+00  3.59222E+00  3.88597E+00  4.20189E+00
   4.53694E+00  4.88721E+00  5.24780E+00  5.61324E+00  5.97753E+00  6.33426E+00  6.67705E+00  6.99978E+00  7.29689E+00  7.56361E+00
   7.79627E+00  7.99242E+00  8.15096E+00  8.27224E+00  8.35800E+00  8.41117E+00  8.43558E+00  8.43574E+00  8.41645E+00  8.38256E+00
   8.33857E+00  8.28839E+00  8.23506E+00  8.18063E+00  8.12611E+00  8.07152E+00  8.01601E+00  7.95796E+00  7.89526E+00  7.82551E+00
   7.74633E+00  7.65561E+00  7.55168E+00  7.43353E+00  7.30089E+00  7.15432E+00  6.99525E+00  6.82594E+00  6.64939E+00  6.46917E+00
   6.28934E+00  6.11424E+00  5.94839E+00  5.79628E+00  5.66218E+00  5.55003E+00  5.46329E+00  5.40486E+00  5.37693E+00  5.38099E+00
   5.41765E+00  5.48669E+00  5.58700E+00  5.71660E+00  5.87266E+00  6.05153E+00  6.24881E+00  6.45946E+00  6.67794E+00  6.89840E+00
   7.11483E+00  7.32127E+00  7.51205E+00  7.68200E+00  7.82666E+00  7.94252E+00  8.02712E+00  8.07917E+00  8.09865E+00  8.08678E+00
   8.04601E+00  7.97990E+00  7.89297E+00  7.79050E+00  7.67838E+00  7.56282E+00  7.45019E+00  7.34679E+00  7.25862E+00  7.19126E+00
   7.14973E+00  7.13840E+00  7.16088E+00  7.21999E+00  7.31772E+00  7.45521E+00  7.63272E+00  7.84969E+00  8.10463E+00  8.39518E+00
   8.71809E+00  9.06920E+00  9.44349E+00  9.83509E+00  1.02373E+01  1.06429E+01  1.10437E+01  1.14316E+01  1.17978E+01  1.21338E+01
   1.24313E+01  1.26824E+01  1.28803E+01  1.30190E+01  1.30937E+01  1.31014E+01  1.30404E+01  1.29107E+01  1.27140E+01  1.24536E+01
   1.21342E+01  1.17617E+01  1.13430E+01  1.08855E+01  1.03975E+01  9.88698E+00  9.36204E+00  8.83031E+00  8.29888E+00  7.77409E+00
   7.26147E+00  6.76564E+00  6.29030E+00  5.83826E+00  5.41146E+00  5.01112E+00  4.63775E+00  4.29130E+00  3.97124E+00  3.67667E+00
   3.40641E+00  3.15911E+00  2.93328E+00  2.72738E+00  2.53986E+00  2.36918E+00  2.21388E+00  2.07257E+00  1.94397E+00  1.82687E+00
   1.72015E+00  1.62282E+00  1.53396E+00  1.45274E+00  1.37844E+00  1.31039E+00  1.24797E+00  1.19066E+00  1.13799E+00  1.08952E+00
   1.04489E+00  1.00373E+00  9.65753E-01  9.30668E-01  8.98239E-01  8.68246E-01  8.40487E-01  8.14775E-01  7.90944E-01  7.68852E-01
   7.48369E-01  7.29375E-01  7.11754E-01  6.95403E-01  6.80229E-01  6.66154E-01  6.53105E-01  6.41011E-01  6.29802E-01  6.19417E-01
   6.09806E-01  6.00922E-01  5.92723E-01  5.85161E-01  5.78194E-01  5.71784E-01  5.65904E-01  5.60526E-01  5.55621E-01  5.51158E-01
   5.47108E-01  5.43452E-01  5.40173E-01  5.37255E-01  5.34675E-01  5.32413E-01  5.30453E-01  5.28783E-01  5.27396E-01  5.26279E-01
   5.25417E-01  5.24796E-01  5.24409E-01  5.24252E-01  5.24323E-01  5.24612E-01  5.25111E-01  5.25814E-01
 NY background values follow
    -1.193E+00   -1.189E+00   -1.185E+00   -1.181E+00   -1.178E+00   -1.174E+00   -1.170E+00   -1.166E+00   -1.163E+00   -1.159E+00
    -1.155E+00   -1.151E+00   -1.148E+00   -1.144E+00   -1.140E+00   -1.136E+00   -1.133E+00   -1.129E+00   -1.125E+00   -1.121E+00
    -1.118E+00   -1.114E+00   -1.110E+00   -1.106E+00   -1.103E+00   -1.099E+00   -1.095E+00   -1.091E+00   -1.088E+00   -1.084E+00
    -1.080E+00   -1.076E+00   -1.073E+00   -1.069E+00   -1.065E+00   -1.061E+00   -1.058E+00   -1.054E+00   -1.050E+00   -1.046E+00
    -1.042E+00   -1.039E+00   -1.035E+00   -1.031E+00   -1.027E+00   -1.024E+00   -1.020E+00   -1.016E+00   -1.012E+00   -1.008E+00
    -1.005E+00   -1.001E+00   -9.972E-01   -9.934E-01   -9.896E-01   -9.858E-01   -9.820E-01   -9.783E-01   -9.745E-01   -9.707E-01
    -9.669E-01   -9.631E-01   -9.593E-01   -9.555E-01   -9.518E-01   -9.480E-01   -9.442E-01   -9.404E-01   -9.366E-01   -9.328E-01
    -9.290E-01   -9.252E-01   -9.214E-01   -9.177E-01   -9.139E-01   -9.101E-01   -9.063E-01   -9.025E-01   -8.987E-01   -8.949E-01
    -8.911E-01   -8.873E-01   -8.835E-01   -8.797E-01   -8.759E-01   -8.721E-01   -8.683E-01   -8.645E-01   -8.607E-01   -8.569E-01
    -8.531E-01   -8.493E-01   -8.455E-01   -8.417E-01   -8.379E-01   -8.341E-01   -8.303E-01   -8.265E-01   -8.227E-01   -8.189E-01
    -8.150E-01   -8.112E-01   -8.074E-01   -8.036E-01   -7.998E-01   -7.960E-01   -7.922E-01   -7.884E-01   -7.846E-01   -7.808E-01
    -7.769E-01   -7.731E-01   -7.693E-01   -7.655E-01   -7.617E-01   -7.579E-01   -7.541E-01   -7.502E-01   -7.464E-01   -7.426E-01
    -7.388E-01   -7.350E-01   -7.312E-01   -7.273E-01   -7.235E-01   -7.197E-01   -7.159E-01   -7.121E-01   -7.083E-01   -7.044E-01
    -7.006E-01   -6.968E-01   -6.930E-01   -6.891E-01   -6.853E-01   -6.815E-01   -6.777E-01   -6.739E-01   -6.700E-01   -6.662E-01
    -6.624E-01   -6.586E-01   -6.547E-01   -6.509E-01   -6.471E-01   -6.433E-01   -6.394E-01   -6.356E-01   -6.318E-01   -6.280E-01
    -6.241E-01   -6.203E-01   -6.165E-01   -6.126E-01   -6.088E-01   -6.050E-01   -6.012E-01   -5.973E-01   -5.935E-01   -5.897E-01
    -5.858E-01   -5.820E-01   -5.782E-01   -5.743E-01   -5.705E-01   -5.667E-01   -5.628E-01   -5.590E-01   -5.552E-01   -5.513E-01
    -5.475E-01   -5.437E-01   -5.398E-01   -5.360E-01   -5.322E-01   -5.283E-01   -5.245E-01   -5.207E-01   -5.168E-01   -5.130E-01
    -5.092E-01   -5.053E-01   -5.015E-01   -4.977E-01   -4.938E-01   -4.900E-01   -4.862E-01   -4.823E-01   -4.785E-01   -4.746E-01
    -4.708E-01   -4.670E-01   -4.631E-01   -4.593E-01   -4.555E-01   -4.516E-01   -4.478E-01   -4.439E-01   -4.401E-01   -4.363E-01
    -4.324E-01   -4.286E-01   -4.247E-01   -4.209E-01   -4.171E-01   -4.132E-01   -4.094E-01   -4.056E-01   -4.017E-01   -3.979E-01
    -3.940E-01   -3.902E-01   -3.864E-01   -3.825E-01   -3.787E-01   -3.748E-01   -3.710E-01   -3.672E-01   -3.633E-01   -3.595E-01
    -3.556E-01   -3.518E-01   -3.480E-01   -3.441E-01   -3.403E-01   -3.364E-01   -3.326E-01   -3.287E-01   -3.249E-01   -3.211E-01
    -3.172E-01   -3.134E-01   -3.095E-01   -3.057E-01   -3.019E-01   -2.980E-01   -2.942E-01   -2.903E-01   -2.865E-01   -2.827E-01
    -2.788E-01   -2.750E-01   -2.711E-01   -2.673E-01   -2.635E-01   -2.596E-01   -2.558E-01   -2.519E-01   -2.481E-01   -2.443E-01
    -2.404E-01   -2.366E-01   -2.327E-01   -2.289E-01   -2.250E-01   -2.212E-01   -2.174E-01   -2.135E-01   -2.097E-01   -2.058E-01
    -2.020E-01   -1.982E-01   -1.943E-01   -1.905E-01   -1.866E-01   -1.828E-01   -1.790E-01   -1.751E-01   -1.713E-01   -1.675E-01
    -1.636E-01   -1.598E-01   -1.559E-01   -1.521E-01   -1.483E-01   -1.444E-01   -1.406E-01   -1.367E-01   -1.329E-01   -1.291E-01
    -1.252E-01   -1.214E-01   -1.176E-01   -1.137E-01   -1.099E-01   -1.060E-01   -1.022E-01   -9.837E-02   -9.453E-02   -9.070E-02
    -8.686E-02   -8.303E-02   -7.919E-02   -7.536E-02   -7.152E-02   -6.768E-02   -6.385E-02   -6.002E-02   -5.618E-02   -5.235E-02
    -4.851E-02   -4.468E-02   -4.085E-02   -3.701E-02   -3.318E-02   -2.935E-02   -2.551E-02   -2.168E-02   -1.785E-02   -1.402E-02
    -1.019E-02   -6.354E-03   -2.523E-03    1.308E-03    5.139E-03    8.969E-03    1.280E-02    1.663E-02    2.046E-02    2.429E-02
     2.812E-02    3.195E-02    3.577E-02    3.960E-02    4.343E-02    4.726E-02    5.108E-02    5.491E-02    5.874E-02    6.256E-02
     6.639E-02    7.021E-02    7.404E-02    7.787E-02    8.169E-02    8.551E-02    8.934E-02    9.316E-02    9.698E-02    1.008E-01
     1.046E-01    1.085E-01    1.123E-01    1.161E-01    1.199E-01    1.237E-01    1.276E-01    1.314E-01    1.352E-01    1.390E-01
     1.428E-01    1.467E-01    1.505E-01    1.543E-01    1.581E-01    1.619E-01    1.657E-01    1.696E-01    1.734E-01    1.772E-01
     1.810E-01    1.848E-01    1.886E-01    1.924E-01    1.963E-01    2.001E-01    2.039E-01    2.077E-01    2.115E-01    2.153E-01
     2.191E-01    2.229E-01    2.267E-01    2.305E-01    2.344E-01    2.382E-01    2.420E-01    2.458E-01    2.496E-01    2.534E-01
     2.572E-01    2.610E-01    2.648E-01    2.686E-01    2.724E-01    2.762E-01    2.800E-01    2.838E-01    2.876E-01    2.914E-01
     2.952E-01    2.990E-01    3.028E-01    3.066E-01    3.104E-01    3.142E-01    3.180E-01    3.218E-01    3.256E-01    3.294E-01
     3.332E-01    3.370E-01    3.408E-01    3.446E-01    3.484E-01    3.522E-01    3.559E-01    3.597E-01    3.635E-01    3.673E-01
     3.711E-01    3.749E-01    3.787E-01    3.825E-01    3.863E-01    3.900E-01    3.938E-01    3.976E-01    4.014E-01    4.052E-01
     4.090E-01    4.127E-01    4.165E-01    4.203E-01    4.241E-01    4.279E-01    4.316E-01    4.354E-01    4.392E-01    4.430E-01
     4.468E-01    4.505E-01    4.543E-01    4.581E-01    4.618E-01    4.656E-01    4.694E-01    4.732E-01    4.769E-01    4.807E-01
     4.845E-01    4.882E-01    4.920E-01    4.958E-01    4.995E-01    5.033E-01    5.071E-01    5.108E-01    5.146E-01    5.184E-01
     5.221E-01    5.259E-01    5.296E-01    5.334E-01    5.372E-01    5.409E-01    5.447E-01    5.484E-01    5.522E-01    5.560E-01
     5.597E-01    5.635E-01    5.672E-01    5.710E-01    5.747E-01    5.785E-01    5.822E-01    5.860E-01    5.897E-01    5.935E-01
     5.972E-01    6.010E-01    6.047E-01    6.084E-01    6.122E-01    6.159E-01    6.197E-01    6.234E-01    6.272E-01    6.309E-01
     6.346E-01    6.384E-01    6.421E-01    6.458E-01    6.496E-01    6.533E-01    6.570E-01    6.608E-01    6.645E-01    6.682E-01
     6.720E-01    6.757E-01    6.794E-01    6.832E-01    6.869E-01    6.906E-01    6.943E-01    6.981E-01
 Asp      Conc. = 4.51E+01
