 LCModel (Version 6.3-1L) Copyright: S.W. Provencher.          Ref.: Magn. Reson. Med. 30:672-679 (1993).                
 Slice#2 Row#12 Col#11  PD_05_press_2_raw_act
 36 lines in following concentration table = NCONC+1
    Conc.  %SD /Cr+PCr  Metabolite                                         
  360.700  20%  19.898 Ala                                                 
    6.560 111%   0.362 Asp                                                 
    4.419 999%   0.244 Cr                                                  
   13.709 591%   0.756 PCr                                                 
    4.417  99%   0.244 GABA                                                
    4.259 103%   0.235 Glc                                                 
   57.778 250%   3.187 Gln                                                 
  300.218  54%  16.561 Glu                                                 
    0.000 999%   0.000 GPC                                                 
   16.991  54%   0.937 PCh                                                 
    0.000 999%   0.000 GSH                                                 
    0.000 999%   0.000 Ins                                                 
   49.398 151%   2.725 Lac                                                 
   71.333  39%   3.935 NAA                                                 
    0.000 999%   0.000 NAAG                                                
    1.483  98% 8.2E-02 Scyllo                                              
    7.178 101%   0.396 Tau                                                 
    0.784 999% 4.3E-02 -CrCH2                                              
   16.991  54%   0.937 GPC+PCh                                             
   71.333  39%   3.935 NAA+NAAG                                            
   18.128 137%   1.000 Cr+PCr                                              
  357.995  69%  19.748 Glu+Gln                                             
    0.000 999%   0.000 Lip13a                                              
    0.000 999%   0.000 Lip13b                                              
    0.000 999%   0.000 Lip09                                               
    0.000 999%   0.000 MM09                                                
 2.89E-05 999% 1.6E-06 Lip20                                               
    0.000 999%   0.000 MM20                                                
    0.000 999%   0.000 MM12                                                
 9.39E-02 999% 5.2E-03 MM14                                                
 9.59E-02 999% 5.3E-03 MM17                                                
    0.000 999%   0.000 Lip13a+Lip13b                                       
 9.39E-02 999% 5.2E-03 MM14+Lip13a+Lip13b+MM12                             
    0.000 999%   0.000 MM09+Lip09                                          
 2.89E-05 999% 1.6E-06 MM20+Lip20                                          
   6 lines in following misc. output table
  FWHM = 0.084 ppm    S/N =   1                                            
  Data shift =-0.008 ppm                                                   
  Ph:-169 deg     -68.7 deg/ppm                                            
  alphaB,S = 6.3E-01,   2.2E+01                                            
   14 spline knots.   Ns = 5(1)                                            
  (10) 4 infls.   ( 9) 3 extrs.                                            
  498 points on ppm-axis = NY
      4.000000     3.992357     3.984714     3.977070     3.969427     3.961784     3.954141     3.946497     3.938854     3.931211
      3.923568     3.915925     3.908281     3.900638     3.892995     3.885352     3.877708     3.870065     3.862422     3.854779
      3.847136     3.839492     3.831849     3.824206     3.816563     3.808919     3.801276     3.793633     3.785990     3.778347
      3.770703     3.763060     3.755417     3.747774     3.740130     3.732487     3.724844     3.717201     3.709558     3.701914
      3.694271     3.686628     3.678985     3.671341     3.663698     3.656055     3.648412     3.640769     3.633125     3.625482
      3.617839     3.610196     3.602552     3.594909     3.587266     3.579623     3.571980     3.564336     3.556693     3.549050
      3.541407     3.533763     3.526120     3.518477     3.510834     3.503191     3.495547     3.487904     3.480261     3.472618
      3.464974     3.457331     3.449688     3.442045     3.434402     3.426758     3.419115     3.411472     3.403829     3.396185
      3.388542     3.380899     3.373256     3.365613     3.357969     3.350326     3.342683     3.335040     3.327396     3.319753
      3.312110     3.304467     3.296824     3.289180     3.281537     3.273894     3.266251     3.258607     3.250964     3.243321
      3.235678     3.228034     3.220391     3.212748     3.205105     3.197462     3.189818     3.182175     3.174532     3.166889
      3.159245     3.151602     3.143959     3.136316     3.128673     3.121029     3.113386     3.105743     3.098100     3.090456
      3.082813     3.075170     3.067527     3.059884     3.052240     3.044597     3.036954     3.029311     3.021667     3.014024
      3.006381     2.998738     2.991095     2.983451     2.975808     2.968165     2.960522     2.952878     2.945235     2.937592
      2.929949     2.922306     2.914662     2.907019     2.899376     2.891733     2.884089     2.876446     2.868803     2.861160
      2.853517     2.845873     2.838230     2.830587     2.822944     2.815300     2.807657     2.800014     2.792371     2.784728
      2.777084     2.769441     2.761798     2.754155     2.746511     2.738868     2.731225     2.723582     2.715939     2.708295
      2.700652     2.693009     2.685366     2.677722     2.670079     2.662436     2.654793     2.647150     2.639506     2.631863
      2.624220     2.616577     2.608933     2.601290     2.593647     2.586004     2.578361     2.570717     2.563074     2.555431
      2.547788     2.540144     2.532501     2.524858     2.517215     2.509572     2.501928     2.494285     2.486642     2.478999
      2.471355     2.463712     2.456069     2.448426     2.440783     2.433139     2.425496     2.417853     2.410210     2.402566
      2.394923     2.387280     2.379637     2.371994     2.364350     2.356707     2.349064     2.341421     2.333777     2.326134
      2.318491     2.310848     2.303205     2.295561     2.287918     2.280275     2.272632     2.264988     2.257345     2.249702
      2.242059     2.234416     2.226772     2.219129     2.211486     2.203843     2.196199     2.188556     2.180913     2.173270
      2.165627     2.157983     2.150340     2.142697     2.135054     2.127410     2.119767     2.112124     2.104481     2.096838
      2.089194     2.081551     2.073908     2.066265     2.058621     2.050978     2.043335     2.035692     2.028049     2.020405
      2.012762     2.005119     1.997476     1.989833     1.982190     1.974546     1.966903     1.959260     1.951617     1.943974
      1.936331     1.928688     1.921045     1.913402     1.905759     1.898115     1.890472     1.882829     1.875186     1.867543
      1.859900     1.852257     1.844614     1.836971     1.829327     1.821684     1.814041     1.806398     1.798755     1.791112
      1.783469     1.775826     1.768183     1.760540     1.752896     1.745253     1.737610     1.729967     1.722324     1.714681
      1.707038     1.699395     1.691752     1.684108     1.676465     1.668822     1.661179     1.653536     1.645893     1.638250
      1.630607     1.622964     1.615321     1.607677     1.600034     1.592391     1.584748     1.577105     1.569462     1.561819
      1.554176     1.546533     1.538890     1.531246     1.523603     1.515960     1.508317     1.500674     1.493031     1.485388
      1.477745     1.470102     1.462458     1.454815     1.447172     1.439529     1.431886     1.424243     1.416600     1.408957
      1.401314     1.393671     1.386027     1.378384     1.370741     1.363098     1.355455     1.347812     1.340169     1.332526
      1.324883     1.317240     1.309596     1.301953     1.294310     1.286667     1.279024     1.271381     1.263738     1.256095
      1.248452     1.240808     1.233165     1.225522     1.217879     1.210236     1.202593     1.194950     1.187307     1.179664
      1.172021     1.164377     1.156734     1.149091     1.141448     1.133805     1.126162     1.118519     1.110876     1.103233
      1.095590     1.087946     1.080303     1.072660     1.065017     1.057374     1.049731     1.042088     1.034445     1.026802
      1.019158     1.011515     1.003872     0.996229     0.988586     0.980943     0.973300     0.965657     0.958014     0.950371
      0.942727     0.935084     0.927441     0.919798     0.912155     0.904512     0.896869     0.889226     0.881583     0.873940
      0.866296     0.858653     0.851010     0.843367     0.835724     0.828081     0.820438     0.812795     0.805152     0.797508
      0.789865     0.782222     0.774579     0.766936     0.759293     0.751650     0.744007     0.736364     0.728721     0.721077
      0.713434     0.705791     0.698148     0.690505     0.682862     0.675219     0.667576     0.659933     0.652290     0.644646
      0.637003     0.629360     0.621717     0.614074     0.606431     0.598788     0.591145     0.583502     0.575858     0.568215
      0.560572     0.552929     0.545286     0.537643     0.530000     0.522357     0.514714     0.507071     0.499427     0.491784
      0.484141     0.476498     0.468855     0.461212     0.453569     0.445925     0.438282     0.430639     0.422996     0.415353
      0.407710     0.400067     0.392424     0.384780     0.377137     0.369494     0.361851     0.354208     0.346565     0.338922
      0.331278     0.323635     0.315992     0.308349     0.300706     0.293063     0.285420     0.277777     0.270133     0.262490
      0.254847     0.247204     0.239561     0.231918     0.224275     0.216631     0.208988     0.201345
 NY phased data points follow
  -1.97065E+00 -3.47510E+00 -3.23605E+00 -2.58618E+00 -1.54359E+00 -1.65906E+00 -1.23367E+00  3.63335E-02  1.78937E+00 -1.53458E+00
  -2.54047E+00 -4.40137E-01 -2.58928E+00 -1.23804E+00  3.63205E-01 -4.42223E-01 -1.16211E+00 -3.85635E+00 -3.32883E+00 -2.97475E+00
  -1.43481E+00 -7.82954E-01 -1.00708E+00  8.48748E-01  7.75566E-02 -3.30980E+00 -3.54372E+00 -3.70240E+00 -1.31910E+00 -1.05448E+00
  -4.89285E-01  3.71845E-01 -5.26047E+00 -2.40945E-01  2.47053E+00 -9.82936E-01 -2.84730E+00 -3.10652E+00  1.26624E+00 -2.74776E+00
  -1.05135E+00  1.66456E+00 -1.19191E+00 -1.19814E+00 -8.27875E-01  1.28157E+00  1.90601E-01 -1.81590E+00 -2.66199E+00 -2.30461E+00
  -1.23430E+00 -1.56873E+00 -3.37264E+00 -2.51729E+00  2.50565E+00 -1.76899E-01 -3.78326E-01 -1.81427E+00  1.02185E+00 -2.01283E+00
  -1.97298E+00 -6.72711E-02 -2.09063E+00 -3.07460E+00 -1.37267E+00 -1.16709E+00 -2.29656E+00 -1.70704E+00  2.74318E-01 -5.73463E-01
  -1.13604E+00  6.04638E-01 -2.98283E-01  2.95440E+00  3.67571E-01  1.01268E+00  1.65647E-02 -9.02193E-01 -1.90570E+00  1.44989E+00
  -1.12634E-01 -1.01619E-02  2.30534E+00  2.74417E-01 -2.72840E+00 -1.39481E-01 -1.57913E+00  3.43192E+00 -1.08466E-01  5.95228E-02
   4.46704E-01 -1.21150E+00  7.86631E-01  2.13296E+00 -4.05211E-01 -1.76159E+00 -6.16698E-01 -7.90843E-01 -1.35736E+00  7.19628E-01
   3.17662E+00  3.14484E-01  2.98344E+00  2.64363E+00  1.38286E+00  1.82517E+00 -5.80428E-02 -1.51577E+00  4.78772E-01  8.24625E-01
   7.21856E-01 -1.11125E+00 -2.30641E+00 -1.13006E+00  9.23219E-01  2.14299E+00  2.18552E+00 -4.99385E-01 -1.68248E-01  1.89067E+00
  -1.65095E+00  8.98027E-01 -1.28644E+00 -2.72742E-01 -1.43407E+00 -4.27922E-03  3.10060E+00  1.70681E+00  2.07538E+00  1.32303E+00
  -1.04544E-01 -8.22479E-02 -9.07764E-01  8.13777E-01 -2.57503E-01  9.88516E-01 -4.53411E+00  2.49084E+00  6.48284E-01 -2.24103E+00
  -6.76446E-02 -9.38398E-01  2.64842E+00  1.02444E+00 -3.91300E-01  9.60097E-01  1.87626E+00  1.33835E+00  1.27808E-01  2.09702E-01
   1.17368E+00  2.68696E+00  1.10602E+00  2.48465E+00  9.46082E-01 -5.43503E-01  1.11983E+00  1.44285E+00  2.46581E+00  9.24647E-01
   2.75866E+00  2.82156E+00  9.31134E-01  2.01217E+00 -1.98010E+00  2.26490E+00  1.49596E+00  1.48915E+00  2.70581E+00  2.86353E+00
   1.71710E+00  2.32040E+00 -7.70504E-02 -1.06259E+00  1.54488E+00  1.10222E+00  1.47446E+00  1.08682E-01 -1.83769E+00  1.46309E+00
   1.28793E+00 -6.45722E-01  1.85577E-01 -1.01865E+00 -6.63719E-01  2.10497E+00 -1.45652E+00  4.90943E-02 -1.91325E+00  1.52480E+00
   1.57692E+00  3.13881E+00  9.63205E-02  6.08278E-01  1.50305E+00 -3.46347E-01 -1.83998E+00 -2.73741E-01 -7.79493E-01  1.25949E-01
  -6.73681E-02 -6.93276E-01  5.65363E-01  4.55484E+00  2.66870E+00 -2.20078E+00  1.73792E+00  8.78505E-01  2.67527E+00  2.96122E+00
   2.43726E+00  1.02678E+00 -2.43896E-01  7.14051E-01  2.23068E+00 -4.88314E-01  4.24177E-01  1.21876E+00 -4.72562E-01  1.47099E+00
   3.70965E+00 -2.87615E+00 -6.37163E-01  6.34877E-01  1.54134E+00 -4.36588E-01  2.74922E+00 -1.55563E+00  7.13923E-01  2.50063E+00
   2.19515E+00  3.46841E+00  6.58310E-01 -1.08324E+00  3.00436E+00  9.52187E-01  2.32913E+00 -2.48177E-01  4.58062E-01  2.65705E+00
   2.63810E+00  2.57190E+00  2.72392E+00  1.69222E+00 -4.47840E-01 -5.54741E-01  1.70682E+00  2.35423E+00  5.51075E-01  1.24078E+00
   6.77309E-01  1.68856E+00  4.27063E+00  2.80724E+00  2.81942E+00  3.13264E+00  4.08365E+00 -6.99452E-02 -6.73481E-01  2.88050E+00
   4.89958E+00  6.25712E+00  6.48796E+00  6.44327E+00  2.70485E+00  4.76462E+00  4.92439E+00  1.33682E+00  4.82282E+00  3.34141E+00
   4.86003E+00  3.64624E-01  2.95158E+00  2.11993E+00  6.04963E-01  3.34308E+00  4.78513E+00  2.29917E+00  4.48613E+00  5.67675E+00
   2.64821E+00  4.51483E+00 -6.84902E-01  3.96613E+00  2.98822E+00  4.16930E+00  8.15764E-01  9.78307E-01  4.11483E+00  2.84176E+00
   2.58333E+00  8.23410E-01  5.63169E+00  6.04762E+00  5.37100E+00  7.10604E+00  5.45979E+00  3.43738E+00  3.03325E+00  5.62913E+00
   4.66601E+00  5.11077E+00  5.41313E+00  5.65278E+00  3.06066E+00  7.00629E+00  5.21476E+00  8.18988E+00  6.88097E+00  3.73301E+00
   5.95677E+00  4.16075E+00  3.33472E+00  2.04074E+00  4.13336E+00  7.66270E+00  5.68141E+00  7.00625E+00  6.51240E+00  5.96439E+00
   5.99949E+00  7.78783E+00  6.83664E+00  6.93147E+00  5.36000E+00  4.54306E+00  4.04773E+00  3.62712E+00  3.75178E+00  4.72617E-02
   4.53499E+00  7.05401E-01  4.27379E+00  3.32021E+00  2.90265E+00  2.35917E+00  1.47945E+00  2.65492E+00  1.24310E+00  5.05146E+00
   3.58349E+00  5.92928E+00  3.01040E+00  4.39208E+00  6.14225E+00  5.89031E+00  6.75138E+00  2.30032E+00  2.19656E+00  2.12120E+00
   2.60211E+00  1.70303E+00  1.69699E+00  1.14793E+00  2.58851E+00  1.65464E+00  1.59956E+00  1.63574E+00 -1.62412E+00  5.18022E-01
   1.10843E-01  1.33111E+00 -2.22786E-01  5.57028E-02 -8.12151E-01  2.02394E+00  1.49272E+00  2.73609E-01  4.12292E+00  1.72793E+00
   3.24302E+00  2.36471E+00  2.82654E+00  1.46264E+00  1.98335E+00 -1.15810E-01  4.77695E-01  1.91437E+00  9.72940E-01 -2.25806E+00
   7.35196E-01 -4.49437E-01  2.39948E+00  3.40539E+00  1.59823E+00  2.66316E-01 -2.27174E+00 -3.63554E+00 -1.39977E+00  8.30861E-01
   1.48679E+00  2.20401E+00  7.84647E-01 -3.64173E+00 -1.02800E+00  7.55102E-01 -5.81073E-01 -4.78700E-01 -7.36764E-01  1.47113E+00
   1.86793E-01  1.43755E+00  2.51878E-01 -2.52428E+00  8.04010E-01 -5.38935E-01  1.84807E-01  2.39729E+00  1.80193E-01  9.96591E-01
  -5.26722E-02  5.53564E-01 -9.78216E-02 -5.09093E-02 -1.59990E+00  9.56970E-01  1.06046E+00 -9.48607E-01  7.86637E-01 -2.20909E+00
   4.26103E-01  1.65637E+00  1.91322E+00 -7.32649E-01 -4.98660E-01  1.25209E+00  3.96178E+00  1.05999E+00  3.76988E+00  5.27760E-02
   5.45666E-01  8.52553E-01  2.53556E-01  6.11759E-01 -1.20121E+00  5.69597E-01  1.62627E+00  1.05141E+00 -6.48404E-01 -4.12571E-02
   2.10832E+00 -1.09204E-01  1.90351E+00  1.90284E+00 -1.24411E+00  8.27317E-01  3.53272E-01 -1.48223E+00  1.30258E+00 -1.43241E+00
  -9.65134E-02  2.10467E+00 -1.13941E+00 -1.12750E+00  7.88966E-02  2.13484E+00  1.84341E+00  2.92659E+00  1.09572E-01  8.91130E-01
  -3.15439E-01  6.00752E-01  4.15439E-01  1.66252E+00 -8.67033E-01 -3.44269E+00  7.76080E-01 -8.18679E-01 -2.26511E-01  6.22703E-02
  -3.20940E+00  3.04975E+00  9.59210E-01  2.33986E+00  1.14093E+00 -1.72211E-01  1.88620E+00  4.57678E-01  4.62142E-01  2.86350E+00
  -6.02120E-01  2.36301E+00 -5.63493E-01 -1.03029E+00  4.17142E-01 -1.65488E-01  8.88500E-01  2.22301E-01 -9.91690E-01 -1.48152E+00
   1.90627E+00  1.59827E+00  1.65099E+00  4.67810E-01  8.85582E-01  2.34164E+00  1.17662E+00 -7.29967E-02
 NY points of the fit to the data follow
  -1.80179E+00 -1.78769E+00 -1.76548E+00 -1.71746E+00 -1.61238E+00 -1.50205E+00 -1.42071E+00 -1.36258E+00 -1.33062E+00 -1.31782E+00
  -1.31288E+00 -1.30867E+00 -1.32436E+00 -1.41176E+00 -1.51088E+00 -1.56327E+00 -1.53174E+00 -1.43866E+00 -1.29068E+00 -1.04890E+00
  -7.07227E-01 -5.19928E-01 -6.16606E-01 -8.85341E-01 -1.16685E+00 -1.47085E+00 -1.74057E+00 -1.84736E+00 -1.63615E+00 -1.24820E+00
  -1.11487E+00 -1.27553E+00 -1.33415E+00 -1.24061E+00 -1.07262E+00 -8.43079E-01 -5.48924E-01 -2.43852E-01 -1.91764E-01 -5.45084E-01
  -1.00774E+00 -1.23806E+00 -1.25939E+00 -1.16702E+00 -1.03044E+00 -9.41419E-01 -9.04296E-01 -8.56239E-01 -8.42859E-01 -8.35480E-01
  -8.28642E-01 -8.19144E-01 -8.10734E-01 -8.06762E-01 -8.00814E-01 -7.90593E-01 -7.76869E-01 -7.59003E-01 -7.45215E-01 -7.35755E-01
  -7.23692E-01 -7.09073E-01 -6.92508E-01 -6.76633E-01 -6.59858E-01 -6.45000E-01 -6.32730E-01 -6.19614E-01 -6.03839E-01 -5.86923E-01
  -5.64341E-01 -5.36087E-01 -5.13218E-01 -4.97730E-01 -4.85648E-01 -4.76882E-01 -4.64843E-01 -4.47067E-01 -4.25006E-01 -4.01119E-01
  -3.79230E-01 -3.54513E-01 -3.25799E-01 -2.99722E-01 -2.79284E-01 -2.60145E-01 -2.39937E-01 -2.20927E-01 -2.05891E-01 -1.92411E-01
  -1.81674E-01 -1.82674E-01 -1.95547E-01 -1.92131E-01 -1.62823E-01 -1.28096E-01 -8.99467E-02 -1.66210E-02  2.48717E-01  7.40549E-01
   1.10028E+00  1.23477E+00  1.24298E+00  1.20327E+00  1.14651E+00  1.11906E+00  1.17276E+00  1.24968E+00  1.14842E+00  7.39305E-01
   3.04272E-01  1.73849E-01  1.53930E-01  1.53867E-01  1.58291E-01  1.66295E-01  1.77061E-01  1.90425E-01  2.04722E-01  2.21160E-01
   2.45874E-01  3.09578E-01  4.73784E-01  6.44469E-01  7.34232E-01  7.62842E-01  7.66636E-01  7.59929E-01  7.55532E-01  7.72553E-01
   8.11432E-01  8.22301E-01  7.31070E-01  5.62230E-01  4.77357E-01  4.68977E-01  4.74169E-01  4.80909E-01  4.90004E-01  5.03523E-01
   5.20864E-01  5.40163E-01  5.58244E-01  5.75365E-01  5.90442E-01  6.02359E-01  6.14015E-01  6.27925E-01  6.45068E-01  6.62249E-01
   6.76878E-01  6.89065E-01  7.00222E-01  7.13920E-01  7.29417E-01  7.40876E-01  7.39833E-01  7.34102E-01  7.37266E-01  7.52413E-01
   7.80833E-01  8.07390E-01  8.21666E-01  8.26840E-01  8.26967E-01  8.29337E-01  8.44357E-01  8.73290E-01  8.97276E-01  9.05468E-01
   8.97907E-01  8.76672E-01  8.64753E-01  8.77503E-01  9.01503E-01  9.23516E-01  9.32101E-01  9.34498E-01  9.44006E-01  9.60383E-01
   9.82680E-01  1.01068E+00  1.03720E+00  1.05607E+00  1.07036E+00  1.09491E+00  1.13294E+00  1.18046E+00  1.21570E+00  1.22744E+00
   1.23168E+00  1.24082E+00  1.26789E+00  1.30246E+00  1.31770E+00  1.32051E+00  1.34314E+00  1.39697E+00  1.47418E+00  1.56564E+00
   1.67107E+00  1.77241E+00  1.80801E+00  1.77503E+00  1.70228E+00  1.51862E+00  1.31116E+00  1.18597E+00  1.14527E+00  1.21240E+00
   1.40160E+00  1.79495E+00  2.14126E+00  2.25932E+00  2.20612E+00  2.13878E+00  2.07655E+00  1.77397E+00  1.35853E+00  1.15670E+00
   1.11064E+00  9.36424E-01  6.53335E-01  6.24827E-01  7.53492E-01  8.62070E-01  9.95428E-01  1.31696E+00  1.85490E+00  2.28719E+00
   2.38669E+00  2.29501E+00  2.21755E+00  2.14349E+00  2.08465E+00  2.02411E+00  1.97792E+00  1.97436E+00  1.90558E+00  1.82980E+00
   1.82915E+00  1.88505E+00  1.93907E+00  1.96301E+00  1.95257E+00  1.88227E+00  1.78006E+00  1.71124E+00  1.76517E+00  1.92717E+00
   2.01236E+00  2.04406E+00  2.07278E+00  2.04362E+00  2.01478E+00  2.36673E+00  3.15165E+00  3.76902E+00  4.02364E+00  4.05302E+00
   3.97097E+00  3.82584E+00  3.75001E+00  3.84150E+00  4.01156E+00  3.87569E+00  3.23888E+00  2.57025E+00  2.33010E+00  2.24568E+00
   2.20605E+00  2.22264E+00  2.25541E+00  2.25872E+00  2.26406E+00  2.27183E+00  2.28366E+00  2.31093E+00  2.34316E+00  2.34815E+00
   2.32906E+00  2.31095E+00  2.29882E+00  2.28720E+00  2.27609E+00  2.27119E+00  2.27630E+00  2.28518E+00  2.28932E+00  2.29179E+00
   2.29387E+00  2.29474E+00  2.29471E+00  2.29557E+00  2.29825E+00  2.30122E+00  2.30381E+00  2.30735E+00  2.31220E+00  2.31776E+00
   2.32411E+00  2.33100E+00  2.33850E+00  2.34680E+00  2.35612E+00  2.36678E+00  2.37917E+00  2.39357E+00  2.41005E+00  2.42879E+00
   2.45090E+00  2.47756E+00  2.50977E+00  2.54906E+00  2.59766E+00  2.65881E+00  2.73738E+00  2.84101E+00  2.98268E+00  3.18698E+00
   3.50850E+00  4.09656E+00  5.11171E+00  5.59970E+00  4.97189E+00  3.85973E+00  2.76111E+00  1.76529E+00  8.17503E-01 -8.66369E-02
  -3.00790E-01  1.82121E-01  1.89016E-01 -1.76409E-01  3.27773E-01  1.34186E+00  2.04262E+00  2.61988E+00  3.47068E+00  4.69638E+00
   5.61365E+00  5.27424E+00  4.34488E+00  3.85293E+00  3.47239E+00  3.10904E+00  2.79623E+00  2.53493E+00  2.30581E+00  2.10466E+00
   2.03404E+00  2.08193E+00  2.05217E+00  1.92075E+00  1.87705E+00  1.97060E+00  2.04128E+00  2.09577E+00  2.18957E+00  2.33091E+00
   2.41838E+00  2.32487E+00  2.15890E+00  2.06258E+00  2.00319E+00  1.95976E+00  1.92498E+00  1.89552E+00  1.86964E+00  1.84630E+00
   1.82486E+00  1.80488E+00  1.78605E+00  1.76811E+00  1.75090E+00  1.73428E+00  1.71818E+00  1.70251E+00  1.68720E+00  1.67220E+00
   1.65746E+00  1.64294E+00  1.62862E+00  1.61449E+00  1.60051E+00  1.58667E+00  1.57294E+00  1.55932E+00  1.54579E+00  1.53236E+00
   1.51900E+00  1.50572E+00  1.49249E+00  1.47932E+00  1.46620E+00  1.45314E+00  1.44013E+00  1.42716E+00  1.41422E+00  1.40132E+00
   1.38847E+00  1.37565E+00  1.36286E+00  1.35011E+00  1.33738E+00  1.32469E+00  1.31203E+00  1.29940E+00  1.28681E+00  1.27423E+00
   1.26169E+00  1.24917E+00  1.23668E+00  1.22422E+00  1.21177E+00  1.19935E+00  1.18694E+00  1.17456E+00  1.16220E+00  1.14986E+00
   1.13753E+00  1.12522E+00  1.11293E+00  1.10066E+00  1.08840E+00  1.07616E+00  1.06393E+00  1.05171E+00  1.03951E+00  1.02733E+00
   1.01517E+00  1.00301E+00  9.90861E-01  9.78727E-01  9.66611E-01  9.54509E-01  9.42417E-01  9.30333E-01  9.18262E-01  9.06205E-01
   8.94165E-01  8.82136E-01  8.70116E-01  8.58105E-01  8.46106E-01  8.34123E-01  8.22155E-01  8.10198E-01  7.98248E-01  7.86306E-01
   7.74379E-01  7.62467E-01  7.50569E-01  7.38679E-01  7.26798E-01  7.14927E-01  7.03071E-01  6.91227E-01  6.79394E-01  6.67567E-01
   6.55748E-01  6.43939E-01  6.32145E-01  6.20360E-01  6.08581E-01  5.96806E-01  5.85038E-01  5.73282E-01  5.61537E-01  5.49800E-01
   5.38068E-01  5.26338E-01  5.14618E-01  5.02907E-01  4.91207E-01  4.79512E-01  4.67820E-01  4.56131E-01  4.44452E-01  4.32783E-01
   4.21121E-01  4.09461E-01  3.97802E-01  3.86148E-01  3.74503E-01  3.62867E-01  3.51237E-01  3.39606E-01  3.27978E-01  3.16356E-01
   3.04745E-01  2.93142E-01  2.81542E-01  2.69942E-01  2.58347E-01  2.46762E-01  2.35190E-01  2.23627E-01
 NY background values follow
    -1.835E+00   -1.817E+00   -1.799E+00   -1.782E+00   -1.764E+00   -1.746E+00   -1.728E+00   -1.711E+00   -1.693E+00   -1.675E+00
    -1.657E+00   -1.640E+00   -1.622E+00   -1.604E+00   -1.586E+00   -1.569E+00   -1.551E+00   -1.533E+00   -1.515E+00   -1.498E+00
    -1.480E+00   -1.462E+00   -1.444E+00   -1.427E+00   -1.409E+00   -1.391E+00   -1.373E+00   -1.356E+00   -1.338E+00   -1.320E+00
    -1.302E+00   -1.285E+00   -1.267E+00   -1.249E+00   -1.232E+00   -1.214E+00   -1.196E+00   -1.178E+00   -1.161E+00   -1.143E+00
    -1.125E+00   -1.108E+00   -1.090E+00   -1.072E+00   -1.055E+00   -1.037E+00   -1.019E+00   -1.002E+00   -9.842E-01   -9.666E-01
    -9.490E-01   -9.314E-01   -9.138E-01   -8.962E-01   -8.786E-01   -8.610E-01   -8.435E-01   -8.259E-01   -8.084E-01   -7.908E-01
    -7.733E-01   -7.558E-01   -7.383E-01   -7.208E-01   -7.034E-01   -6.859E-01   -6.685E-01   -6.510E-01   -6.336E-01   -6.162E-01
    -5.988E-01   -5.815E-01   -5.641E-01   -5.468E-01   -5.295E-01   -5.122E-01   -4.949E-01   -4.776E-01   -4.604E-01   -4.431E-01
    -4.259E-01   -4.087E-01   -3.916E-01   -3.744E-01   -3.573E-01   -3.402E-01   -3.231E-01   -3.060E-01   -2.890E-01   -2.720E-01
    -2.550E-01   -2.380E-01   -2.210E-01   -2.041E-01   -1.872E-01   -1.703E-01   -1.535E-01   -1.367E-01   -1.199E-01   -1.031E-01
    -8.633E-02   -6.960E-02   -5.291E-02   -3.624E-02   -1.959E-02   -2.979E-03    1.361E-02    3.016E-02    4.669E-02    6.319E-02
     7.966E-02    9.610E-02    1.125E-01    1.289E-01    1.452E-01    1.616E-01    1.778E-01    1.941E-01    2.103E-01    2.265E-01
     2.427E-01    2.588E-01    2.749E-01    2.909E-01    3.069E-01    3.229E-01    3.389E-01    3.548E-01    3.707E-01    3.865E-01
     4.023E-01    4.181E-01    4.338E-01    4.495E-01    4.652E-01    4.808E-01    4.964E-01    5.120E-01    5.275E-01    5.429E-01
     5.584E-01    5.738E-01    5.891E-01    6.044E-01    6.197E-01    6.349E-01    6.501E-01    6.652E-01    6.803E-01    6.954E-01
     7.104E-01    7.254E-01    7.403E-01    7.552E-01    7.701E-01    7.849E-01    7.996E-01    8.143E-01    8.290E-01    8.436E-01
     8.582E-01    8.727E-01    8.872E-01    9.017E-01    9.161E-01    9.304E-01    9.447E-01    9.590E-01    9.732E-01    9.873E-01
     1.001E+00    1.016E+00    1.030E+00    1.043E+00    1.057E+00    1.071E+00    1.085E+00    1.099E+00    1.113E+00    1.126E+00
     1.140E+00    1.153E+00    1.167E+00    1.180E+00    1.194E+00    1.207E+00    1.220E+00    1.234E+00    1.247E+00    1.260E+00
     1.273E+00    1.286E+00    1.299E+00    1.312E+00    1.325E+00    1.337E+00    1.350E+00    1.363E+00    1.375E+00    1.388E+00
     1.400E+00    1.413E+00    1.425E+00    1.437E+00    1.449E+00    1.462E+00    1.474E+00    1.486E+00    1.498E+00    1.509E+00
     1.521E+00    1.533E+00    1.544E+00    1.556E+00    1.567E+00    1.579E+00    1.590E+00    1.601E+00    1.613E+00    1.624E+00
     1.635E+00    1.646E+00    1.656E+00    1.667E+00    1.678E+00    1.689E+00    1.699E+00    1.710E+00    1.720E+00    1.730E+00
     1.740E+00    1.750E+00    1.760E+00    1.770E+00    1.780E+00    1.790E+00    1.799E+00    1.809E+00    1.818E+00    1.828E+00
     1.837E+00    1.846E+00    1.855E+00    1.864E+00    1.872E+00    1.881E+00    1.889E+00    1.898E+00    1.906E+00    1.914E+00
     1.922E+00    1.930E+00    1.938E+00    1.945E+00    1.953E+00    1.960E+00    1.967E+00    1.974E+00    1.981E+00    1.988E+00
     1.995E+00    2.001E+00    2.007E+00    2.014E+00    2.020E+00    2.026E+00    2.031E+00    2.037E+00    2.042E+00    2.047E+00
     2.053E+00    2.057E+00    2.062E+00    2.067E+00    2.071E+00    2.075E+00    2.079E+00    2.083E+00    2.087E+00    2.091E+00
     2.094E+00    2.097E+00    2.100E+00    2.103E+00    2.106E+00    2.108E+00    2.110E+00    2.113E+00    2.114E+00    2.116E+00
     2.118E+00    2.119E+00    2.120E+00    2.122E+00    2.122E+00    2.123E+00    2.124E+00    2.124E+00    2.124E+00    2.124E+00
     2.124E+00    2.123E+00    2.123E+00    2.122E+00    2.121E+00    2.119E+00    2.118E+00    2.116E+00    2.115E+00    2.113E+00
     2.110E+00    2.108E+00    2.106E+00    2.103E+00    2.100E+00    2.097E+00    2.093E+00    2.090E+00    2.086E+00    2.082E+00
     2.078E+00    2.073E+00    2.069E+00    2.064E+00    2.059E+00    2.054E+00    2.049E+00    2.043E+00    2.038E+00    2.032E+00
     2.026E+00    2.020E+00    2.014E+00    2.007E+00    2.001E+00    1.994E+00    1.987E+00    1.980E+00    1.973E+00    1.965E+00
     1.958E+00    1.950E+00    1.942E+00    1.935E+00    1.926E+00    1.918E+00    1.910E+00    1.902E+00    1.893E+00    1.885E+00
     1.876E+00    1.867E+00    1.858E+00    1.849E+00    1.840E+00    1.830E+00    1.821E+00    1.811E+00    1.802E+00    1.792E+00
     1.782E+00    1.773E+00    1.763E+00    1.753E+00    1.743E+00    1.732E+00    1.722E+00    1.712E+00    1.702E+00    1.691E+00
     1.681E+00    1.670E+00    1.659E+00    1.649E+00    1.638E+00    1.627E+00    1.616E+00    1.605E+00    1.594E+00    1.583E+00
     1.572E+00    1.561E+00    1.550E+00    1.538E+00    1.527E+00    1.516E+00    1.504E+00    1.493E+00    1.482E+00    1.470E+00
     1.459E+00    1.447E+00    1.435E+00    1.424E+00    1.412E+00    1.401E+00    1.389E+00    1.377E+00    1.366E+00    1.354E+00
     1.342E+00    1.330E+00    1.319E+00    1.307E+00    1.295E+00    1.283E+00    1.271E+00    1.260E+00    1.248E+00    1.236E+00
     1.224E+00    1.212E+00    1.201E+00    1.189E+00    1.177E+00    1.165E+00    1.154E+00    1.142E+00    1.130E+00    1.118E+00
     1.106E+00    1.095E+00    1.083E+00    1.071E+00    1.059E+00    1.048E+00    1.036E+00    1.024E+00    1.012E+00    1.001E+00
     9.887E-01    9.770E-01    9.652E-01    9.535E-01    9.418E-01    9.300E-01    9.183E-01    9.065E-01    8.948E-01    8.831E-01
     8.714E-01    8.597E-01    8.480E-01    8.363E-01    8.246E-01    8.129E-01    8.012E-01    7.895E-01    7.778E-01    7.662E-01
     7.545E-01    7.429E-01    7.312E-01    7.196E-01    7.079E-01    6.963E-01    6.847E-01    6.731E-01    6.615E-01    6.499E-01
     6.383E-01    6.267E-01    6.151E-01    6.035E-01    5.919E-01    5.804E-01    5.688E-01    5.573E-01    5.457E-01    5.341E-01
     5.226E-01    5.111E-01    4.995E-01    4.880E-01    4.765E-01    4.649E-01    4.534E-01    4.419E-01    4.304E-01    4.188E-01
     4.073E-01    3.958E-01    3.843E-01    3.728E-01    3.613E-01    3.498E-01    3.383E-01    3.268E-01    3.153E-01    3.038E-01
     2.923E-01    2.808E-01    2.693E-01    2.578E-01    2.463E-01    2.349E-01    2.234E-01    2.119E-01
 Ala      Conc. = 3.61E+02
