 LCModel (Version 6.3-1L) Copyright: S.W. Provencher.          Ref.: Magn. Reson. Med. 30:672-679 (1993).                
 Slice#1 Row#11 Col#2  PD_05_press_2_raw_act
 36 lines in following concentration table = NCONC+1
    Conc.  %SD /Cr+PCr  Metabolite                                         
  431.837 342%   0.000 Ala                                                 
    0.000 999%   0.000 Asp                                                 
    0.000 999%   0.000 Cr                                                  
    0.000 999%   0.000 PCr                                                 
    0.000 999%   0.000 GABA                                                
   99.675 174%   0.000 Glc                                                 
 1.36E+04   9%   0.000 Gln                                                 
    0.000 999%   0.000 Glu                                                 
   71.611  65%   0.000 GPC                                                 
    0.000 999%   0.000 PCh                                                 
  263.767  78%   0.000 GSH                                                 
 3.14E+03  15%   0.000 Ins                                                 
    0.000 999%   0.000 Lac                                                 
    0.000 999%   0.000 NAA                                                 
    0.000 999%   0.000 NAAG                                                
  243.170  17%   0.000+Scyllo                                              
  727.245  35%   0.000 Tau                                                 
    0.000 999%   0.000 -CrCH2                                              
   71.611  65%   0.000 GPC+PCh                                             
    0.000 999%   0.000 NAA+NAAG                                            
    0.000 999%   0.000 Cr+PCr                                              
 1.36E+04   9%   0.000 Glu+Gln                                             
 1.12E+04  17%   0.000 Lip13a                                              
    0.000 999%   0.000 Lip13b                                              
 3.48E+03  15%   0.000 Lip09                                               
 3.85E+03  13%   0.000 MM09                                                
 1.95E+03  18%   0.000 Lip20                                               
 6.66E+03  10%   0.000 MM20                                                
    0.000 999%   0.000 MM12                                                
 8.85E+03  17%   0.000 MM14                                                
 1.71E+04   8%   0.000+MM17                                                
 1.12E+04  17%   0.000 Lip13a+Lip13b                                       
 2.01E+04  11%   0.000 MM14+Lip13a+Lip13b+MM12                             
 7.33E+03   7%   0.000 MM09+Lip09                                          
 8.61E+03   7%   0.000 MM20+Lip20                                          
   6 lines in following misc. output table
  FWHM = 0.168 ppm    S/N =  22                                            
  Data shift = 0.214 ppm                                                   
  Ph: -80 deg      61.8 deg/ppm                                            
  alphaB,S = 1.6E+01,   3.6E+02                                            
    6 spline knots.   Ns = 9(2)                                            
  (15) 2 infls.   ( 3) 1 extrs.                                            
  498 points on ppm-axis = NY
      4.000000     3.992357     3.984714     3.977070     3.969427     3.961784     3.954141     3.946497     3.938854     3.931211
      3.923568     3.915925     3.908281     3.900638     3.892995     3.885352     3.877708     3.870065     3.862422     3.854779
      3.847136     3.839492     3.831849     3.824206     3.816563     3.808919     3.801276     3.793633     3.785990     3.778347
      3.770703     3.763060     3.755417     3.747774     3.740130     3.732487     3.724844     3.717201     3.709558     3.701914
      3.694271     3.686628     3.678985     3.671341     3.663698     3.656055     3.648412     3.640769     3.633125     3.625482
      3.617839     3.610196     3.602552     3.594909     3.587266     3.579623     3.571980     3.564336     3.556693     3.549050
      3.541407     3.533763     3.526120     3.518477     3.510834     3.503191     3.495547     3.487904     3.480261     3.472618
      3.464974     3.457331     3.449688     3.442045     3.434402     3.426758     3.419115     3.411472     3.403829     3.396185
      3.388542     3.380899     3.373256     3.365613     3.357969     3.350326     3.342683     3.335040     3.327396     3.319753
      3.312110     3.304467     3.296824     3.289180     3.281537     3.273894     3.266251     3.258607     3.250964     3.243321
      3.235678     3.228034     3.220391     3.212748     3.205105     3.197462     3.189818     3.182175     3.174532     3.166889
      3.159245     3.151602     3.143959     3.136316     3.128673     3.121029     3.113386     3.105743     3.098100     3.090456
      3.082813     3.075170     3.067527     3.059884     3.052240     3.044597     3.036954     3.029311     3.021667     3.014024
      3.006381     2.998738     2.991095     2.983451     2.975808     2.968165     2.960522     2.952878     2.945235     2.937592
      2.929949     2.922306     2.914662     2.907019     2.899376     2.891733     2.884089     2.876446     2.868803     2.861160
      2.853517     2.845873     2.838230     2.830587     2.822944     2.815300     2.807657     2.800014     2.792371     2.784728
      2.777084     2.769441     2.761798     2.754155     2.746511     2.738868     2.731225     2.723582     2.715939     2.708295
      2.700652     2.693009     2.685366     2.677722     2.670079     2.662436     2.654793     2.647150     2.639506     2.631863
      2.624220     2.616577     2.608933     2.601290     2.593647     2.586004     2.578361     2.570717     2.563074     2.555431
      2.547788     2.540144     2.532501     2.524858     2.517215     2.509572     2.501928     2.494285     2.486642     2.478999
      2.471355     2.463712     2.456069     2.448426     2.440783     2.433139     2.425496     2.417853     2.410210     2.402566
      2.394923     2.387280     2.379637     2.371994     2.364350     2.356707     2.349064     2.341421     2.333777     2.326134
      2.318491     2.310848     2.303205     2.295561     2.287918     2.280275     2.272632     2.264988     2.257345     2.249702
      2.242059     2.234416     2.226772     2.219129     2.211486     2.203843     2.196199     2.188556     2.180913     2.173270
      2.165627     2.157983     2.150340     2.142697     2.135054     2.127410     2.119767     2.112124     2.104481     2.096838
      2.089194     2.081551     2.073908     2.066265     2.058621     2.050978     2.043335     2.035692     2.028049     2.020405
      2.012762     2.005119     1.997476     1.989833     1.982190     1.974546     1.966903     1.959260     1.951617     1.943974
      1.936331     1.928688     1.921045     1.913402     1.905759     1.898115     1.890472     1.882829     1.875186     1.867543
      1.859900     1.852257     1.844614     1.836971     1.829327     1.821684     1.814041     1.806398     1.798755     1.791112
      1.783469     1.775826     1.768183     1.760540     1.752896     1.745253     1.737610     1.729967     1.722324     1.714681
      1.707038     1.699395     1.691752     1.684108     1.676465     1.668822     1.661179     1.653536     1.645893     1.638250
      1.630607     1.622964     1.615321     1.607677     1.600034     1.592391     1.584748     1.577105     1.569462     1.561819
      1.554176     1.546533     1.538890     1.531246     1.523603     1.515960     1.508317     1.500674     1.493031     1.485388
      1.477745     1.470102     1.462458     1.454815     1.447172     1.439529     1.431886     1.424243     1.416600     1.408957
      1.401314     1.393671     1.386027     1.378384     1.370741     1.363098     1.355455     1.347812     1.340169     1.332526
      1.324883     1.317240     1.309596     1.301953     1.294310     1.286667     1.279024     1.271381     1.263738     1.256095
      1.248452     1.240808     1.233165     1.225522     1.217879     1.210236     1.202593     1.194950     1.187307     1.179664
      1.172021     1.164377     1.156734     1.149091     1.141448     1.133805     1.126162     1.118519     1.110876     1.103233
      1.095590     1.087946     1.080303     1.072660     1.065017     1.057374     1.049731     1.042088     1.034445     1.026802
      1.019158     1.011515     1.003872     0.996229     0.988586     0.980943     0.973300     0.965657     0.958014     0.950371
      0.942727     0.935084     0.927441     0.919798     0.912155     0.904512     0.896869     0.889226     0.881583     0.873940
      0.866296     0.858653     0.851010     0.843367     0.835724     0.828081     0.820438     0.812795     0.805152     0.797508
      0.789865     0.782222     0.774579     0.766936     0.759293     0.751650     0.744007     0.736364     0.728721     0.721077
      0.713434     0.705791     0.698148     0.690505     0.682862     0.675219     0.667576     0.659933     0.652290     0.644646
      0.637003     0.629360     0.621717     0.614074     0.606431     0.598788     0.591145     0.583502     0.575858     0.568215
      0.560572     0.552929     0.545286     0.537643     0.530000     0.522357     0.514714     0.507071     0.499427     0.491784
      0.484141     0.476498     0.468855     0.461212     0.453569     0.445925     0.438282     0.430639     0.422996     0.415353
      0.407710     0.400067     0.392424     0.384780     0.377137     0.369494     0.361851     0.354208     0.346565     0.338922
      0.331278     0.323635     0.315992     0.308349     0.300706     0.293063     0.285420     0.277777     0.270133     0.262490
      0.254847     0.247204     0.239561     0.231918     0.224275     0.216631     0.208988     0.201345
 NY phased data points follow
   1.53614E-01 -4.49113E+00 -2.52931E+00 -3.38495E+00 -1.59847E+00 -8.06589E+00 -3.38531E+00 -4.79066E+00 -4.18216E+00 -4.36780E+00
  -2.51003E+00 -2.75117E+00 -6.75017E+00 -2.46530E+00  1.44879E-01 -3.37313E+00 -2.88818E+00 -2.20556E-01  1.66649E+00 -2.10074E-01
  -2.21332E+00 -2.65372E+00 -3.76670E+00 -3.26505E+00 -3.46621E-01  9.64305E-01  7.44462E-01 -2.12751E+00 -2.79824E+00 -4.59700E+00
  -3.32799E-01 -4.04298E+00 -1.56116E+00 -4.59671E+00 -9.86603E-01 -1.86839E+00 -8.23406E-01 -4.47295E+00 -3.19961E+00 -3.74282E+00
  -1.48916E+00 -7.59921E-01 -1.33276E+00 -5.88900E+00  9.00790E-01 -4.91213E-01 -1.64859E+00 -2.76686E+00 -7.97226E-01 -3.60336E+00
  -2.59948E+00 -1.81251E+00 -2.23591E+00 -1.69115E+00  1.15350E+00 -2.09010E+00 -3.90048E+00 -9.39951E-01 -8.83840E-01 -2.69224E+00
  -2.30857E+00 -3.81682E+00 -2.56697E+00 -7.78923E+00 -5.33868E+00 -7.75788E-01 -4.20993E+00 -3.08954E+00 -7.37781E-01 -5.27030E+00
  -4.64367E+00 -2.81318E+00 -4.18262E+00 -4.70749E-02 -2.32049E+00 -7.80618E+00 -3.19839E+00 -6.39141E+00 -2.45752E+00 -5.35673E+00
  -6.64143E+00 -8.68810E+00 -4.92771E+00 -6.13365E+00 -4.96666E-01 -3.59575E+00 -6.37262E+00 -9.01363E+00 -2.59072E+00 -6.64467E+00
  -8.53304E+00 -9.49181E+00 -2.57103E+00 -6.21924E+00 -6.81233E+00 -1.01687E+01 -6.39527E+00 -5.81361E+00 -7.14866E+00 -9.22943E+00
  -8.98127E+00 -1.68858E+01 -1.88516E+01 -1.31471E+01 -1.45647E+01 -1.87742E+01 -1.70610E+01 -1.49651E+01 -1.49145E+01 -1.59440E+01
  -1.64620E+01 -1.37553E+01 -1.94293E+01 -1.87825E+01 -1.83648E+01 -1.92639E+01 -1.57157E+01 -1.59960E+01 -1.89657E+01 -1.71904E+01
  -1.64385E+01 -1.78086E+01 -1.59317E+01 -1.73364E+01 -1.45514E+01 -1.92391E+01 -1.75066E+01 -1.54014E+01 -1.49625E+01 -1.66449E+01
  -1.20060E+01 -1.13449E+01 -1.38599E+01 -1.45805E+01 -1.42105E+01 -1.32346E+01 -1.32573E+01 -1.40269E+01 -1.18251E+01 -1.27382E+01
  -1.25240E+01 -1.24366E+01 -1.22761E+01 -1.31680E+01 -1.11261E+01 -1.14998E+01 -8.29371E+00 -1.16032E+01 -1.33608E+01 -1.37356E+01
  -1.25378E+01 -8.96503E+00 -1.28086E+01 -1.44877E+01 -1.36930E+01 -1.13916E+01 -1.36463E+01 -1.60163E+01 -1.63455E+01 -1.85536E+01
  -1.34512E+01 -2.16449E+01 -1.98797E+01 -2.03154E+01 -2.03804E+01 -2.22254E+01 -2.15548E+01 -2.23038E+01 -1.89975E+01 -2.27142E+01
  -2.35886E+01 -2.56227E+01 -2.19205E+01 -2.78707E+01 -2.63966E+01 -2.85731E+01 -2.76977E+01 -2.82258E+01 -2.90091E+01 -3.03410E+01
  -3.16164E+01 -2.98309E+01 -2.80421E+01 -2.82597E+01 -3.20955E+01 -3.02211E+01 -3.10574E+01 -3.19149E+01 -3.44248E+01 -3.29833E+01
  -3.34244E+01 -2.99627E+01 -3.04021E+01 -3.02048E+01 -2.99149E+01 -3.02524E+01 -2.91457E+01 -3.17916E+01 -3.14492E+01 -2.94077E+01
  -2.98289E+01 -2.62515E+01 -2.80190E+01 -2.88461E+01 -2.64839E+01 -2.66233E+01 -2.60419E+01 -2.88173E+01 -2.29971E+01 -2.25516E+01
  -2.03914E+01 -1.81918E+01 -1.62803E+01 -1.55820E+01 -1.58520E+01 -1.35113E+01 -9.74872E+00 -8.39241E+00 -1.00230E+01 -7.69346E+00
  -8.76484E+00 -6.81513E+00  8.35065E-01 -3.52901E+00  7.71229E-01  7.93587E-01  4.50505E+00  3.18488E+00  4.76266E+00  4.17921E+00
   2.84923E+00 -2.03810E-01  2.76065E+00  2.63569E+00  2.45965E+00  3.62586E+00  3.81331E+00  1.17498E+01  1.14824E+01  9.92097E+00
   7.94330E+00  7.13271E+00  6.44859E+00  3.88162E+00  6.42698E+00  5.51335E+00  4.61352E+00  5.97365E+00  7.70540E+00  2.87227E+00
   6.38781E-01  1.99499E+00  1.48353E+00 -2.83194E+00 -4.98170E-01 -7.77843E-01 -2.13886E+00 -1.11453E+00 -2.64202E+00 -3.58980E+00
  -1.30533E+00 -2.10257E+00 -6.22733E+00 -7.96337E+00 -6.40746E+00 -3.06814E+00 -6.58042E+00 -8.42959E+00 -5.70320E+00 -1.08498E+01
  -1.01688E+01 -7.48107E+00 -9.51075E+00 -1.22859E+01 -1.51713E+01 -1.59079E+01 -1.80146E+01 -1.68559E+01 -1.44625E+01 -1.67344E+01
  -2.11482E+01 -2.07047E+01 -2.54642E+01 -2.26615E+01 -2.20956E+01 -1.95355E+01 -2.05878E+01 -2.06996E+01 -2.19566E+01 -2.34050E+01
  -1.89170E+01 -1.95280E+01 -1.48832E+01 -1.28939E+01 -6.64619E+00 -2.89975E+00  3.05963E+00  1.00579E+01  1.86991E+01  2.44771E+01
   3.39182E+01  4.34752E+01  5.35879E+01  6.57379E+01  8.18131E+01  8.95224E+01  1.01606E+02  1.10103E+02  1.23995E+02  1.31964E+02
   1.39387E+02  1.46634E+02  1.51787E+02  1.53160E+02  1.53604E+02  1.55182E+02  1.53364E+02  1.52598E+02  1.47642E+02  1.41876E+02
   1.35527E+02  1.29139E+02  1.23225E+02  1.14793E+02  1.04219E+02  1.05116E+02  9.19970E+01  8.26743E+01  7.57835E+01  7.14574E+01
   6.58035E+01  5.91955E+01  5.36282E+01  5.07377E+01  4.37079E+01  3.97199E+01  3.79943E+01  3.06867E+01  2.84459E+01  2.97129E+01
   2.35618E+01  2.49710E+01  2.26744E+01  1.58454E+01  1.81523E+01  1.89254E+01  1.43431E+01  1.09968E+01  1.33122E+01  1.20777E+01
   8.30200E+00  8.29704E+00  1.05282E+01  6.63135E+00  6.16995E+00  5.82919E+00  9.00723E+00  8.44282E+00  7.96837E+00  6.13031E+00
   6.15718E+00  7.94182E+00  1.10916E+01  1.09372E+01  8.53952E+00  8.19196E+00  7.42372E+00  8.43147E+00  1.06045E+01  1.23440E+01
   1.17246E+01  1.30762E+01  1.32144E+01  1.27478E+01  1.52602E+01  1.69373E+01  1.48710E+01  1.43225E+01  1.50012E+01  1.72185E+01
   1.42032E+01  1.57573E+01  1.72067E+01  1.59981E+01  1.49458E+01  1.82006E+01  1.66364E+01  1.86120E+01  1.69545E+01  1.64530E+01
   1.71517E+01  1.82490E+01  1.49666E+01  1.47705E+01  1.45317E+01  1.70799E+01  1.46176E+01  1.58755E+01  1.55029E+01  1.40229E+01
   1.70700E+01  1.46737E+01  1.45680E+01  1.44039E+01  9.38530E+00  1.24288E+01  1.21526E+01  1.29900E+01  1.35173E+01  1.51690E+01
   9.85634E+00  9.39412E+00  1.39325E+01  9.91200E+00  8.85437E+00  8.09326E+00  5.74726E+00  8.71482E+00  9.86662E+00  8.83496E+00
   5.94652E+00  6.48312E+00  6.68584E+00  1.91607E+00  5.38347E+00  4.29546E+00  4.95833E+00  3.39706E+00  3.93051E-01  3.86555E+00
   4.66086E+00  4.34450E+00  2.75573E+00  1.29787E+00  2.26708E+00  4.31115E+00 -6.05912E-02 -1.50752E+00  2.60571E+00  1.45348E-01
   7.04745E-01 -3.20070E+00 -2.03363E+00 -1.34976E+00 -2.27940E+00 -3.23464E+00 -2.70901E+00 -2.71236E-01 -2.34412E+00 -1.85360E+00
  -1.34731E+00 -3.93791E+00 -1.90441E+00 -4.72652E+00 -4.35676E+00 -8.69682E-01 -5.80399E+00 -4.99331E+00 -8.57974E+00 -6.24283E+00
  -5.94686E+00 -6.54580E+00 -6.48955E+00 -5.07266E+00 -5.39424E+00 -7.48830E+00 -3.24952E+00 -6.62667E+00 -9.30528E+00 -9.13212E+00
  -7.73096E+00 -7.58134E+00 -7.99892E+00 -9.03484E+00 -7.33063E+00 -9.12621E+00 -1.05262E+01 -8.82668E+00 -9.49996E+00 -6.90912E+00
  -8.22993E+00 -1.07749E+01 -7.33156E+00 -7.70036E+00 -7.91136E+00 -9.45869E+00 -6.93709E+00 -7.76511E+00 -1.15419E+01 -6.25145E+00
  -9.98051E+00 -6.98710E+00 -1.13935E+01 -8.47117E+00 -7.14626E+00 -7.11242E+00 -7.06027E+00 -8.54619E+00
 NY points of the fit to the data follow
  -1.39949E+00 -1.56315E+00 -1.89370E+00 -2.13172E+00 -2.48857E+00 -2.72602E+00 -2.98908E+00 -3.10406E+00 -3.62066E+00 -3.99828E+00
  -4.69156E+00 -5.18880E+00 -5.73145E+00 -5.99730E+00 -5.47844E+00 -5.41889E+00 -4.42812E+00 -4.36390E+00 -3.50142E+00 -3.82921E+00
  -3.17350E+00 -3.51275E+00 -2.70207E+00 -3.01349E+00 -1.94426E+00 -2.22130E+00 -1.04364E+00 -1.34448E+00 -3.45009E-01 -7.13645E-01
  -4.86104E-02 -2.00489E-01  2.53585E-01  2.69193E-01  4.74567E-01  6.41499E-01  6.53179E-01  9.49216E-01  7.17936E-01  1.12710E+00
   6.03793E-01  1.09629E+00  3.13675E-01  9.76655E-01  6.87800E-02  8.73681E-01 -8.34883E-02  6.56116E-01 -6.19382E-01 -3.69411E-01
  -1.66561E+00 -1.56968E+00 -2.52660E+00 -2.30874E+00 -2.53745E+00 -2.27896E+00 -2.57553E+00 -2.57054E+00 -3.06569E+00 -3.36701E+00
  -4.03620E+00 -4.24764E+00 -4.86078E+00 -5.04263E+00 -5.58728E+00 -5.67499E+00 -6.11200E+00 -6.01657E+00 -6.07214E+00 -5.92730E+00
  -5.69416E+00 -5.57360E+00 -5.18585E+00 -5.38257E+00 -5.01475E+00 -5.53024E+00 -5.08724E+00 -5.84306E+00 -5.22984E+00 -6.21685E+00
  -5.34904E+00 -6.60920E+00 -5.65088E+00 -7.13470E+00 -6.07940E+00 -7.74590E+00 -6.74624E+00 -8.53643E+00 -7.62825E+00 -9.39924E+00
  -8.56797E+00 -1.02176E+01 -9.51807E+00 -1.09989E+01 -1.04721E+01 -1.17171E+01 -1.13822E+01 -1.23346E+01 -1.22369E+01 -1.29217E+01
  -1.30304E+01 -1.34413E+01 -1.37125E+01 -1.38551E+01 -1.42135E+01 -1.41189E+01 -1.44864E+01 -1.41667E+01 -1.43964E+01 -1.40474E+01
  -1.43360E+01 -1.40500E+01 -1.43611E+01 -1.41168E+01 -1.43743E+01 -1.41592E+01 -1.43486E+01 -1.41701E+01 -1.42678E+01 -1.41367E+01
  -1.41290E+01 -1.40474E+01 -1.40362E+01 -1.39891E+01 -1.39234E+01 -1.39049E+01 -1.39018E+01 -1.39286E+01 -1.39949E+01 -1.40549E+01
  -1.41600E+01 -1.42645E+01 -1.44045E+01 -1.45407E+01 -1.46990E+01 -1.48512E+01 -1.50140E+01 -1.51759E+01 -1.53331E+01 -1.55037E+01
  -1.56539E+01 -1.58290E+01 -1.59721E+01 -1.61425E+01 -1.62739E+01 -1.64320E+01 -1.65493E+01 -1.66961E+01 -1.68083E+01 -1.69552E+01
  -1.70720E+01 -1.72276E+01 -1.73583E+01 -1.75273E+01 -1.76743E+01 -1.78526E+01 -1.80286E+01 -1.82491E+01 -1.84658E+01 -1.87201E+01
  -1.89716E+01 -1.92389E+01 -1.95047E+01 -1.97725E+01 -2.00411E+01 -2.03118E+01 -2.05772E+01 -2.08484E+01 -2.11049E+01 -2.13625E+01
  -2.15945E+01 -2.18361E+01 -2.20295E+01 -2.22428E+01 -2.23922E+01 -2.26275E+01 -2.29165E+01 -2.32341E+01 -2.38318E+01 -2.43732E+01
  -2.51490E+01 -2.58089E+01 -2.65652E+01 -2.69243E+01 -2.72106E+01 -2.71775E+01 -2.72258E+01 -2.67637E+01 -2.67975E+01 -2.63107E+01
  -2.66650E+01 -2.67450E+01 -2.82649E+01 -2.83674E+01 -2.97355E+01 -2.93521E+01 -3.02573E+01 -2.93785E+01 -3.00393E+01 -2.90037E+01
  -2.98128E+01 -2.88664E+01 -2.98561E+01 -2.89343E+01 -2.97463E+01 -2.85887E+01 -2.88122E+01 -2.72466E+01 -2.66971E+01 -2.47697E+01
  -2.36088E+01 -2.15934E+01 -2.01275E+01 -1.82480E+01 -1.67018E+01 -1.49909E+01 -1.33604E+01 -1.20345E+01 -1.09029E+01 -9.74380E+00
  -8.45758E+00 -6.98410E+00 -5.13728E+00 -2.89232E+00 -7.76879E-01  1.11303E+00  2.73720E+00  3.80110E+00  4.55044E+00  4.51688E+00
   4.38102E+00  3.38939E+00  2.60128E+00  1.75105E+00  1.98739E+00  1.32813E+00  2.35951E+00  1.53560E+00  3.00730E+00  1.71106E+00
   3.49006E+00  1.76736E+00  3.96871E+00  2.14222E+00  4.80603E+00  2.96259E+00  5.89255E+00  3.84978E+00  6.72587E+00  4.29779E+00
   6.80965E+00  3.99839E+00  6.07604E+00  3.08366E+00  4.76006E+00  1.85700E+00  3.11325E+00  3.05578E-01  8.41947E-01 -1.53587E+00
  -1.06713E+00 -2.86661E+00 -2.41612E+00 -3.74507E+00 -3.59759E+00 -5.25376E+00 -5.48297E+00 -7.29927E+00 -7.88004E+00 -9.63216E+00
  -1.03082E+01 -1.17935E+01 -1.23899E+01 -1.33671E+01 -1.38038E+01 -1.44249E+01 -1.47945E+01 -1.51969E+01 -1.55761E+01 -1.59006E+01
  -1.62354E+01 -1.65278E+01 -1.67559E+01 -1.69103E+01 -1.69723E+01 -1.69319E+01 -1.67556E+01 -1.64162E+01 -1.58724E+01 -1.50745E+01
  -1.39601E+01 -1.24574E+01 -1.04833E+01 -7.94615E+00 -4.74952E+00 -7.95823E-01  4.00668E+00  9.73841E+00  1.64591E+01  2.41970E+01
   3.29429E+01  4.26406E+01  5.31858E+01  6.44161E+01  7.61233E+01  8.80472E+01  9.98998E+01  1.11366E+02  1.22143E+02  1.31924E+02
   1.40302E+02  1.47220E+02  1.52266E+02  1.55637E+02  1.56974E+02  1.56713E+02  1.54552E+02  1.51260E+02  1.46390E+02  1.40919E+02
   1.34287E+02  1.27585E+02  1.20125E+02  1.13026E+02  1.05474E+02  9.85677E+01  9.13985E+01  8.49943E+01  7.84205E+01  7.25962E+01
   6.66382E+01  6.13402E+01  5.59408E+01  5.10877E+01  4.62101E+01  4.17831E+01  3.74527E+01  3.35106E+01  2.98052E+01  2.64412E+01
   2.34441E+01  2.07268E+01  1.84598E+01  1.63958E+01  1.48218E+01  1.33670E+01  1.24004E+01  1.14773E+01  1.09911E+01  1.05062E+01
   1.02906E+01  1.00532E+01  1.00140E+01  9.93431E+00  9.98023E+00  9.98920E+00  1.00621E+01  1.01701E+01  1.02866E+01  1.03979E+01
   1.04959E+01  1.05766E+01  1.06384E+01  1.06825E+01  1.07114E+01  1.07295E+01  1.07423E+01  1.07562E+01  1.07782E+01  1.08155E+01
   1.08755E+01  1.09652E+01  1.10912E+01  1.12591E+01  1.14735E+01  1.17375E+01  1.20526E+01  1.24186E+01  1.28329E+01  1.32911E+01
   1.37865E+01  1.43104E+01  1.48523E+01  1.53998E+01  1.59393E+01  1.64565E+01  1.69369E+01  1.73661E+01  1.77307E+01  1.80188E+01
   1.82207E+01  1.83290E+01  1.83394E+01  1.82506E+01  1.80645E+01  1.77859E+01  1.74227E+01  1.69851E+01  1.64853E+01  1.59367E+01
   1.53537E+01  1.47507E+01  1.41417E+01  1.35395E+01  1.29555E+01  1.23993E+01  1.18781E+01  1.13970E+01  1.09588E+01  1.05639E+01
   1.02106E+01  9.89533E+00  9.61303E+00  9.35733E+00  9.12093E+00  8.89607E+00  8.67477E+00  8.44929E+00  8.21232E+00  7.95733E+00
   7.67870E+00  7.37201E+00  7.03400E+00  6.66272E+00  6.25748E+00  5.81882E+00  5.34840E+00  4.84886E+00  4.32368E+00  3.77697E+00
   3.21337E+00  2.63770E+00  2.05499E+00  1.47014E+00  8.87880E-01  3.12630E-01 -2.51609E-01 -8.01293E-01 -1.33341E+00 -1.84545E+00
  -2.33544E+00 -2.80192E+00 -3.24389E+00 -3.66076E+00 -4.05238E+00 -4.41881E+00 -4.76053E+00 -5.07809E+00 -5.37235E+00 -5.64419E+00
  -5.89466E+00 -6.12480E+00 -6.33575E+00 -6.52859E+00 -6.70445E+00 -6.86437E+00 -7.00940E+00 -7.14053E+00 -7.25868E+00 -7.36477E+00
  -7.45959E+00 -7.54397E+00 -7.61858E+00 -7.68415E+00 -7.74126E+00 -7.79055E+00 -7.83249E+00 -7.86764E+00 -7.89641E+00 -7.91928E+00
  -7.93659E+00 -7.94875E+00 -7.95606E+00 -7.95887E+00 -7.95744E+00 -7.95205E+00 -7.94295E+00 -7.93038E+00 -7.91453E+00 -7.89562E+00
  -7.87382E+00 -7.84931E+00 -7.82226E+00 -7.79280E+00 -7.76107E+00 -7.72721E+00 -7.69132E+00 -7.65352E+00 -7.61391E+00 -7.57258E+00
  -7.52961E+00 -7.48508E+00 -7.43904E+00 -7.39156E+00 -7.34266E+00 -7.29237E+00 -7.24070E+00 -7.18760E+00
 NY background values follow
    -1.234E+01   -1.240E+01   -1.246E+01   -1.253E+01   -1.259E+01   -1.265E+01   -1.271E+01   -1.277E+01   -1.283E+01   -1.290E+01
    -1.296E+01   -1.302E+01   -1.308E+01   -1.315E+01   -1.321E+01   -1.327E+01   -1.334E+01   -1.340E+01   -1.346E+01   -1.353E+01
    -1.359E+01   -1.365E+01   -1.372E+01   -1.378E+01   -1.385E+01   -1.391E+01   -1.397E+01   -1.404E+01   -1.410E+01   -1.417E+01
    -1.423E+01   -1.430E+01   -1.436E+01   -1.443E+01   -1.449E+01   -1.456E+01   -1.462E+01   -1.469E+01   -1.475E+01   -1.482E+01
    -1.488E+01   -1.495E+01   -1.501E+01   -1.508E+01   -1.514E+01   -1.521E+01   -1.527E+01   -1.534E+01   -1.541E+01   -1.547E+01
    -1.554E+01   -1.560E+01   -1.567E+01   -1.573E+01   -1.580E+01   -1.586E+01   -1.593E+01   -1.599E+01   -1.606E+01   -1.613E+01
    -1.619E+01   -1.626E+01   -1.632E+01   -1.639E+01   -1.645E+01   -1.652E+01   -1.658E+01   -1.665E+01   -1.671E+01   -1.678E+01
    -1.684E+01   -1.691E+01   -1.697E+01   -1.704E+01   -1.710E+01   -1.717E+01   -1.723E+01   -1.730E+01   -1.736E+01   -1.743E+01
    -1.749E+01   -1.756E+01   -1.762E+01   -1.769E+01   -1.775E+01   -1.781E+01   -1.788E+01   -1.794E+01   -1.801E+01   -1.807E+01
    -1.813E+01   -1.820E+01   -1.826E+01   -1.832E+01   -1.839E+01   -1.845E+01   -1.851E+01   -1.857E+01   -1.864E+01   -1.870E+01
    -1.876E+01   -1.882E+01   -1.889E+01   -1.895E+01   -1.901E+01   -1.907E+01   -1.913E+01   -1.919E+01   -1.926E+01   -1.932E+01
    -1.938E+01   -1.944E+01   -1.950E+01   -1.956E+01   -1.962E+01   -1.968E+01   -1.974E+01   -1.980E+01   -1.986E+01   -1.991E+01
    -1.997E+01   -2.003E+01   -2.009E+01   -2.015E+01   -2.021E+01   -2.026E+01   -2.032E+01   -2.038E+01   -2.044E+01   -2.049E+01
    -2.055E+01   -2.061E+01   -2.066E+01   -2.072E+01   -2.077E+01   -2.083E+01   -2.088E+01   -2.094E+01   -2.099E+01   -2.105E+01
    -2.110E+01   -2.116E+01   -2.121E+01   -2.126E+01   -2.132E+01   -2.137E+01   -2.142E+01   -2.147E+01   -2.152E+01   -2.158E+01
    -2.163E+01   -2.168E+01   -2.173E+01   -2.178E+01   -2.183E+01   -2.188E+01   -2.193E+01   -2.198E+01   -2.203E+01   -2.207E+01
    -2.212E+01   -2.217E+01   -2.222E+01   -2.226E+01   -2.231E+01   -2.236E+01   -2.240E+01   -2.245E+01   -2.249E+01   -2.254E+01
    -2.258E+01   -2.263E+01   -2.267E+01   -2.272E+01   -2.276E+01   -2.280E+01   -2.284E+01   -2.289E+01   -2.293E+01   -2.297E+01
    -2.301E+01   -2.305E+01   -2.309E+01   -2.313E+01   -2.317E+01   -2.321E+01   -2.325E+01   -2.328E+01   -2.332E+01   -2.336E+01
    -2.340E+01   -2.343E+01   -2.347E+01   -2.350E+01   -2.354E+01   -2.357E+01   -2.361E+01   -2.364E+01   -2.368E+01   -2.371E+01
    -2.374E+01   -2.377E+01   -2.381E+01   -2.384E+01   -2.387E+01   -2.390E+01   -2.393E+01   -2.396E+01   -2.399E+01   -2.401E+01
    -2.404E+01   -2.407E+01   -2.410E+01   -2.412E+01   -2.415E+01   -2.418E+01   -2.420E+01   -2.423E+01   -2.425E+01   -2.427E+01
    -2.430E+01   -2.432E+01   -2.434E+01   -2.436E+01   -2.438E+01   -2.441E+01   -2.443E+01   -2.445E+01   -2.446E+01   -2.448E+01
    -2.450E+01   -2.452E+01   -2.454E+01   -2.455E+01   -2.457E+01   -2.458E+01   -2.460E+01   -2.461E+01   -2.463E+01   -2.464E+01
    -2.465E+01   -2.467E+01   -2.468E+01   -2.469E+01   -2.470E+01   -2.471E+01   -2.472E+01   -2.473E+01   -2.474E+01   -2.475E+01
    -2.475E+01   -2.476E+01   -2.477E+01   -2.477E+01   -2.478E+01   -2.478E+01   -2.478E+01   -2.479E+01   -2.479E+01   -2.479E+01
    -2.479E+01   -2.479E+01   -2.479E+01   -2.479E+01   -2.479E+01   -2.479E+01   -2.479E+01   -2.479E+01   -2.478E+01   -2.478E+01
    -2.477E+01   -2.477E+01   -2.476E+01   -2.476E+01   -2.475E+01   -2.474E+01   -2.473E+01   -2.472E+01   -2.471E+01   -2.470E+01
    -2.469E+01   -2.468E+01   -2.467E+01   -2.465E+01   -2.464E+01   -2.463E+01   -2.461E+01   -2.460E+01   -2.458E+01   -2.456E+01
    -2.454E+01   -2.453E+01   -2.451E+01   -2.449E+01   -2.447E+01   -2.445E+01   -2.442E+01   -2.440E+01   -2.438E+01   -2.435E+01
    -2.433E+01   -2.430E+01   -2.428E+01   -2.425E+01   -2.422E+01   -2.420E+01   -2.417E+01   -2.414E+01   -2.411E+01   -2.408E+01
    -2.404E+01   -2.401E+01   -2.398E+01   -2.394E+01   -2.391E+01   -2.387E+01   -2.384E+01   -2.380E+01   -2.376E+01   -2.372E+01
    -2.369E+01   -2.365E+01   -2.360E+01   -2.356E+01   -2.352E+01   -2.348E+01   -2.343E+01   -2.339E+01   -2.334E+01   -2.330E+01
    -2.325E+01   -2.320E+01   -2.315E+01   -2.310E+01   -2.305E+01   -2.300E+01   -2.295E+01   -2.290E+01   -2.285E+01   -2.279E+01
    -2.274E+01   -2.268E+01   -2.263E+01   -2.257E+01   -2.251E+01   -2.245E+01   -2.240E+01   -2.234E+01   -2.228E+01   -2.221E+01
    -2.215E+01   -2.209E+01   -2.203E+01   -2.196E+01   -2.190E+01   -2.184E+01   -2.177E+01   -2.170E+01   -2.164E+01   -2.157E+01
    -2.150E+01   -2.143E+01   -2.136E+01   -2.129E+01   -2.122E+01   -2.115E+01   -2.108E+01   -2.101E+01   -2.094E+01   -2.086E+01
    -2.079E+01   -2.071E+01   -2.064E+01   -2.056E+01   -2.049E+01   -2.041E+01   -2.034E+01   -2.026E+01   -2.018E+01   -2.010E+01
    -2.002E+01   -1.994E+01   -1.986E+01   -1.978E+01   -1.970E+01   -1.962E+01   -1.954E+01   -1.946E+01   -1.938E+01   -1.929E+01
    -1.921E+01   -1.913E+01   -1.904E+01   -1.896E+01   -1.887E+01   -1.879E+01   -1.870E+01   -1.862E+01   -1.853E+01   -1.844E+01
    -1.836E+01   -1.827E+01   -1.818E+01   -1.809E+01   -1.800E+01   -1.792E+01   -1.783E+01   -1.774E+01   -1.765E+01   -1.756E+01
    -1.747E+01   -1.738E+01   -1.729E+01   -1.720E+01   -1.710E+01   -1.701E+01   -1.692E+01   -1.683E+01   -1.674E+01   -1.664E+01
    -1.655E+01   -1.646E+01   -1.637E+01   -1.627E+01   -1.618E+01   -1.608E+01   -1.599E+01   -1.590E+01   -1.580E+01   -1.571E+01
    -1.561E+01   -1.552E+01   -1.542E+01   -1.533E+01   -1.523E+01   -1.514E+01   -1.504E+01   -1.495E+01   -1.485E+01   -1.476E+01
    -1.466E+01   -1.457E+01   -1.447E+01   -1.437E+01   -1.428E+01   -1.418E+01   -1.409E+01   -1.399E+01   -1.389E+01   -1.380E+01
    -1.370E+01   -1.360E+01   -1.351E+01   -1.341E+01   -1.332E+01   -1.322E+01   -1.312E+01   -1.303E+01   -1.293E+01   -1.283E+01
    -1.274E+01   -1.264E+01   -1.255E+01   -1.245E+01   -1.235E+01   -1.226E+01   -1.216E+01   -1.207E+01   -1.197E+01   -1.188E+01
    -1.178E+01   -1.168E+01   -1.159E+01   -1.149E+01   -1.140E+01   -1.130E+01   -1.121E+01   -1.112E+01   -1.102E+01   -1.093E+01
    -1.083E+01   -1.074E+01   -1.065E+01   -1.055E+01   -1.046E+01   -1.037E+01   -1.027E+01   -1.018E+01   -1.009E+01   -9.995E+00
    -9.903E+00   -9.811E+00   -9.720E+00   -9.629E+00   -9.538E+00   -9.447E+00   -9.357E+00   -9.266E+00
 Ala      Conc. = 4.32E+02
