 LCModel (Version 6.3-1L) Copyright: S.W. Provencher.          Ref.: Magn. Reson. Med. 30:672-679 (1993).                
 Slice#3 Row#4 Col#3  PD_05_press_2_raw_act
 36 lines in following concentration table = NCONC+1
    Conc.  %SD /Cr+PCr  Metabolite                                         
    0.000 999%   0.000 Ala                                                 
   90.170 387% 3.8E-02 Asp                                                 
 1.08E+03  34%   0.459 Cr                                                  
 1.27E+03  31%   0.541 PCr                                                 
    0.000 999%   0.000 GABA                                                
    0.000 999%   0.000 Glc                                                 
  932.834  38%   0.396 Gln                                                 
 2.07E+03  19%   0.880 Glu                                                 
  768.414   5%   0.326 GPC                                                 
    0.000 999%   0.000 PCh                                                 
  711.706  18%   0.302 GSH                                                 
 1.07E+03  43%   0.455 Ins                                                 
    0.000 999%   0.000 Lac                                                 
 2.79E+03   5%   1.183 NAA                                                 
    0.000 999%   0.000 NAAG                                                
   66.504  71% 2.8E-02 Scyllo                                              
  204.028 165% 8.7E-02 Tau                                                 
  133.140 169% 5.6E-02 -CrCH2                                              
  768.414   5%   0.326 GPC+PCh                                             
 2.79E+03   5%   1.183 NAA+NAAG                                            
 2.36E+03   5%   1.000 Cr+PCr                                              
 3.01E+03  18%   1.276 Glu+Gln                                             
    0.000 999%   0.000 Lip13a                                              
    0.000 999%   0.000 Lip13b                                              
 9.70E-03 999% 4.1E-06 Lip09                                               
 4.23E+03  14%   1.796 MM09                                                
    0.000 999%   0.000 Lip20                                               
 6.87E+03  15%   2.915 MM20                                                
    0.000 999%   0.000 MM12                                                
    0.000 999%   0.000 MM14                                                
 8.00E+03  13%   3.393 MM17                                                
    0.000 999%   0.000 Lip13a+Lip13b                                       
    0.000 999%   0.000 MM14+Lip13a+Lip13b+MM12                             
 4.23E+03  14%   1.796 MM09+Lip09                                          
 6.87E+03  15%   2.915 MM20+Lip20                                          
   6 lines in following misc. output table
  FWHM = 0.046 ppm    S/N =   9                                            
  Data shift = 0.031 ppm                                                   
  Ph: -12 deg      -6.2 deg/ppm                                            
  alphaB,S = 3.2E-01,   4.7E+01                                            
   14 spline knots.   Ns = 5(1)                                            
  (10) 2 infls.   ( 5) 1 extrs.                                            
  498 points on ppm-axis = NY
      4.000000     3.992357     3.984714     3.977070     3.969427     3.961784     3.954141     3.946497     3.938854     3.931211
      3.923568     3.915925     3.908281     3.900638     3.892995     3.885352     3.877708     3.870065     3.862422     3.854779
      3.847136     3.839492     3.831849     3.824206     3.816563     3.808919     3.801276     3.793633     3.785990     3.778347
      3.770703     3.763060     3.755417     3.747774     3.740130     3.732487     3.724844     3.717201     3.709558     3.701914
      3.694271     3.686628     3.678985     3.671341     3.663698     3.656055     3.648412     3.640769     3.633125     3.625482
      3.617839     3.610196     3.602552     3.594909     3.587266     3.579623     3.571980     3.564336     3.556693     3.549050
      3.541407     3.533763     3.526120     3.518477     3.510834     3.503191     3.495547     3.487904     3.480261     3.472618
      3.464974     3.457331     3.449688     3.442045     3.434402     3.426758     3.419115     3.411472     3.403829     3.396185
      3.388542     3.380899     3.373256     3.365613     3.357969     3.350326     3.342683     3.335040     3.327396     3.319753
      3.312110     3.304467     3.296824     3.289180     3.281537     3.273894     3.266251     3.258607     3.250964     3.243321
      3.235678     3.228034     3.220391     3.212748     3.205105     3.197462     3.189818     3.182175     3.174532     3.166889
      3.159245     3.151602     3.143959     3.136316     3.128673     3.121029     3.113386     3.105743     3.098100     3.090456
      3.082813     3.075170     3.067527     3.059884     3.052240     3.044597     3.036954     3.029311     3.021667     3.014024
      3.006381     2.998738     2.991095     2.983451     2.975808     2.968165     2.960522     2.952878     2.945235     2.937592
      2.929949     2.922306     2.914662     2.907019     2.899376     2.891733     2.884089     2.876446     2.868803     2.861160
      2.853517     2.845873     2.838230     2.830587     2.822944     2.815300     2.807657     2.800014     2.792371     2.784728
      2.777084     2.769441     2.761798     2.754155     2.746511     2.738868     2.731225     2.723582     2.715939     2.708295
      2.700652     2.693009     2.685366     2.677722     2.670079     2.662436     2.654793     2.647150     2.639506     2.631863
      2.624220     2.616577     2.608933     2.601290     2.593647     2.586004     2.578361     2.570717     2.563074     2.555431
      2.547788     2.540144     2.532501     2.524858     2.517215     2.509572     2.501928     2.494285     2.486642     2.478999
      2.471355     2.463712     2.456069     2.448426     2.440783     2.433139     2.425496     2.417853     2.410210     2.402566
      2.394923     2.387280     2.379637     2.371994     2.364350     2.356707     2.349064     2.341421     2.333777     2.326134
      2.318491     2.310848     2.303205     2.295561     2.287918     2.280275     2.272632     2.264988     2.257345     2.249702
      2.242059     2.234416     2.226772     2.219129     2.211486     2.203843     2.196199     2.188556     2.180913     2.173270
      2.165627     2.157983     2.150340     2.142697     2.135054     2.127410     2.119767     2.112124     2.104481     2.096838
      2.089194     2.081551     2.073908     2.066265     2.058621     2.050978     2.043335     2.035692     2.028049     2.020405
      2.012762     2.005119     1.997476     1.989833     1.982190     1.974546     1.966903     1.959260     1.951617     1.943974
      1.936331     1.928688     1.921045     1.913402     1.905759     1.898115     1.890472     1.882829     1.875186     1.867543
      1.859900     1.852257     1.844614     1.836971     1.829327     1.821684     1.814041     1.806398     1.798755     1.791112
      1.783469     1.775826     1.768183     1.760540     1.752896     1.745253     1.737610     1.729967     1.722324     1.714681
      1.707038     1.699395     1.691752     1.684108     1.676465     1.668822     1.661179     1.653536     1.645893     1.638250
      1.630607     1.622964     1.615321     1.607677     1.600034     1.592391     1.584748     1.577105     1.569462     1.561819
      1.554176     1.546533     1.538890     1.531246     1.523603     1.515960     1.508317     1.500674     1.493031     1.485388
      1.477745     1.470102     1.462458     1.454815     1.447172     1.439529     1.431886     1.424243     1.416600     1.408957
      1.401314     1.393671     1.386027     1.378384     1.370741     1.363098     1.355455     1.347812     1.340169     1.332526
      1.324883     1.317240     1.309596     1.301953     1.294310     1.286667     1.279024     1.271381     1.263738     1.256095
      1.248452     1.240808     1.233165     1.225522     1.217879     1.210236     1.202593     1.194950     1.187307     1.179664
      1.172021     1.164377     1.156734     1.149091     1.141448     1.133805     1.126162     1.118519     1.110876     1.103233
      1.095590     1.087946     1.080303     1.072660     1.065017     1.057374     1.049731     1.042088     1.034445     1.026802
      1.019158     1.011515     1.003872     0.996229     0.988586     0.980943     0.973300     0.965657     0.958014     0.950371
      0.942727     0.935084     0.927441     0.919798     0.912155     0.904512     0.896869     0.889226     0.881583     0.873940
      0.866296     0.858653     0.851010     0.843367     0.835724     0.828081     0.820438     0.812795     0.805152     0.797508
      0.789865     0.782222     0.774579     0.766936     0.759293     0.751650     0.744007     0.736364     0.728721     0.721077
      0.713434     0.705791     0.698148     0.690505     0.682862     0.675219     0.667576     0.659933     0.652290     0.644646
      0.637003     0.629360     0.621717     0.614074     0.606431     0.598788     0.591145     0.583502     0.575858     0.568215
      0.560572     0.552929     0.545286     0.537643     0.530000     0.522357     0.514714     0.507071     0.499427     0.491784
      0.484141     0.476498     0.468855     0.461212     0.453569     0.445925     0.438282     0.430639     0.422996     0.415353
      0.407710     0.400067     0.392424     0.384780     0.377137     0.369494     0.361851     0.354208     0.346565     0.338922
      0.331278     0.323635     0.315992     0.308349     0.300706     0.293063     0.285420     0.277777     0.270133     0.262490
      0.254847     0.247204     0.239561     0.231918     0.224275     0.216631     0.208988     0.201345
 NY phased data points follow
  -3.48948E+01 -3.14424E+01 -1.86768E+01 -1.85737E+01 -1.42914E+01 -9.44525E+00 -7.25908E+00  5.08100E+00  1.94681E+01  3.12626E+01
   3.74872E+01  3.76703E+01  4.00219E+01  1.51596E+01 -4.10010E-01 -4.29698E+00 -7.85335E-01 -8.92523E-01 -2.58296E+00  3.40828E+00
  -1.97555E+01 -1.43914E+01 -1.32218E+01 -2.32012E+01 -5.12212E+00 -9.11723E+00 -1.91414E+01 -9.79579E+00 -8.18463E+00  1.14933E+00
   4.80030E+00  2.81632E+00  2.65469E+00 -3.59162E+00 -1.51664E+01 -8.31644E+00 -9.25672E+00 -1.33990E+01 -7.24632E+00 -1.65888E+01
  -1.52388E+01 -1.90312E+01 -2.24098E+01 -8.49114E+00 -1.46000E+01 -5.27036E+00  5.05966E-02  2.37417E+00  3.35109E+00  4.09968E-01
  -2.39793E+00 -1.30620E+01 -9.23736E+00 -1.09548E+01 -1.98237E+01 -8.20731E+00 -1.39670E+01 -4.83788E+00 -1.60121E+01 -3.47074E+00
  -1.74750E+01 -1.34070E+01 -1.88264E+01 -1.88022E+01 -1.35806E+01 -3.53454E+01 -1.95362E+01 -1.91508E+01 -2.70567E+01 -2.22591E+01
  -1.66186E+01 -1.67171E+01 -1.70783E+01 -2.39182E+01 -7.10841E+00 -2.27112E+01 -1.51680E+01 -1.60617E+01 -1.59941E+01 -1.83015E+01
  -1.41610E+01 -1.87714E+01 -6.88621E+00 -7.38514E+00 -1.48773E+01 -9.71924E+00 -1.03757E+01 -2.16931E+01 -1.11710E+01 -1.29219E+01
  -9.13500E+00 -2.78760E+00 -1.16294E+00 -1.16038E+01 -7.78654E+00 -1.24427E+01 -1.12408E+00 -4.48308E-01  7.22371E+00  1.98856E+01
   2.81439E+01  4.00164E+01  6.30204E+01  6.97646E+01  7.03571E+01  6.27372E+01  4.27831E+01  2.30042E+01  8.92870E+00  3.65602E+00
  -2.21987E+00 -2.54937E-01 -9.21425E-01 -1.11551E+01  2.68026E+00 -6.61999E+00  8.60662E-01 -9.79074E+00  1.79794E+00 -1.68404E+01
  -1.27658E+01 -2.07332E+00  1.40282E+00  9.50153E+00  3.13099E+01  5.55235E+01  7.65789E+01  8.93510E+01  8.42669E+01  7.04482E+01
   5.13562E+01  3.14414E+01  1.92321E+01  2.54354E+01  4.11624E+00  2.64998E-01 -4.26982E+00 -1.12830E+01 -3.75826E+00 -5.65335E+00
  -1.35251E+01 -7.18766E+00 -4.69841E+00 -4.92840E+00 -9.21649E+00 -5.88051E+00 -9.85707E+00 -3.69661E+00 -1.70168E+01 -9.60405E+00
  -4.77882E+00 -1.03066E+01 -6.14034E+00 -9.29790E+00 -2.71719E+01 -7.64550E+00 -5.99641E+00 -9.76752E+00 -1.06712E+01 -1.95819E+01
  -1.99947E+01 -6.62697E+00 -8.43989E+00 -1.99361E+00 -5.60194E+00 -2.09051E+01 -1.86456E+00 -1.71998E+00 -3.63706E+00 -1.27381E+01
  -4.21516E+00 -1.01059E+01 -2.28665E+01 -1.41071E+01 -1.84747E+01 -2.42660E+01 -1.48272E+01 -1.36521E+01 -1.72640E+01 -1.76696E+01
  -1.10861E+01 -2.63855E+01 -2.78813E+01 -2.48705E+01 -1.81774E+01 -2.59423E+01 -6.44035E+00 -1.09069E+01 -3.98670E+00 -6.63029E+00
  -8.74292E+00  5.97132E+00  1.42656E+01  3.81013E+00  1.22725E+01  7.82846E-01 -2.41815E+00  9.41985E+00 -8.46996E+00 -1.18532E+01
  -1.36201E+01  3.30531E+00  1.45143E+01  9.78401E-01  1.85129E+01  2.92396E+00 -8.85673E+00 -5.36579E+00 -1.44044E+01 -8.54372E+00
  -1.30692E+01 -4.29924E+00 -1.09978E+01  8.27765E+00  7.77664E+00  1.71326E+01  1.66227E+01  2.54934E+01  1.96456E+01  1.52118E+01
   1.04421E+01 -7.66065E+00 -6.37036E+00 -4.99423E+00 -3.18155E+00  3.13941E-01  1.16967E+01  1.37696E+01  1.49925E+01  9.82978E+00
   4.83494E+00  1.08138E+01  1.93818E+01  1.17812E+01  3.61350E+00  1.53707E+01  9.26379E+00  1.64835E+01  9.37393E+00  1.20859E+01
   8.58747E+00  2.72132E+00  4.44210E-01  1.15014E+01  1.08348E+01  1.85524E+01  2.22545E+01  2.38348E+01  2.06285E+01  2.08392E+00
   2.48506E+01  1.56120E+01  2.94780E+01  2.77456E+01  2.71190E+01  3.64955E+01  4.05787E+01  6.89501E+01  9.17755E+01  1.19396E+02
   1.37897E+02  1.26477E+02  1.04962E+02  7.79345E+01  4.99534E+01  3.18410E+01  2.69729E+01  2.17481E+01  2.25652E+01  2.34034E+01
   1.41479E+01  6.03731E+00  1.16005E+01  9.90213E+00  1.53139E+01  2.34247E+01  1.33962E+01  6.03683E+00  1.98501E+01  4.99072E+00
   1.33413E+01  1.47412E+01  1.79420E+01  1.22580E+01  6.48854E+00  7.89861E+00  1.36446E+01  2.89509E+00  9.25650E+00  1.01036E+01
   1.11577E+01  9.42395E+00  8.66829E+00  9.12836E+00  1.04067E+01  4.58230E+00  6.49263E+00  5.58532E+00  1.08178E+01  1.16952E+01
   1.68163E+01  2.25722E+01  1.25592E+01  9.39519E+00  1.37366E+01  1.57244E+01  1.53751E+01  1.38460E+01  1.79514E+01  1.76237E+01
   2.98291E+01  2.19847E+01  9.95179E+00  2.36870E+01  1.35699E+01  1.41656E+01  6.90969E+00  1.26697E+01  2.15590E+00  6.49002E+00
   4.27472E+00 -3.34168E-01 -2.39704E+00  4.54466E-01 -3.32921E+00  1.41369E+00 -1.09177E+01 -6.54036E+00 -6.18117E+00 -2.94257E+00
  -2.22750E+01 -1.17416E+01 -2.23266E+01 -1.88813E+01 -1.15696E+01 -1.79768E+01 -2.78569E+01 -3.39570E+01 -3.91196E+01 -3.84159E+01
  -4.16744E+01 -2.93955E+01 -2.85490E+01 -4.45433E+01 -4.01277E+01 -3.23813E+01 -2.85155E+01 -4.27323E+01 -4.43004E+01 -4.64857E+01
  -5.33754E+01 -5.29871E+01 -4.89786E+01 -3.88975E+01 -4.27478E+01 -2.71036E+01 -3.38706E+01 -5.22716E+01 -4.37275E+01 -4.69974E+01
  -4.66512E+01 -4.65461E+01 -4.24154E+01 -4.80882E+01 -4.06317E+01 -3.15160E+01 -4.70548E+01 -3.56665E+01 -3.35779E+01 -2.92540E+01
  -2.45299E+01 -3.01116E+01 -1.53760E+01 -1.87470E+01 -1.98682E+01 -1.88789E+01 -2.46757E+01 -1.79081E+01 -2.02891E+01 -1.64416E+01
  -8.86317E+00 -1.25752E+01 -2.19838E+01 -1.13955E+01 -1.69344E+01 -2.05753E+01 -9.83850E+00 -9.75215E+00 -7.42050E+00 -9.50772E+00
  -1.17201E+01 -4.48011E+00 -6.69786E+00 -4.05343E+00 -9.08278E+00 -9.73107E+00 -1.35789E+00  6.17366E-01  4.82854E+00  7.25850E+00
   4.52554E+00 -8.85038E-01  1.18551E+01  2.30636E-01 -6.09603E+00  4.09941E+00  1.09211E-01  6.38004E+00  3.34743E+00  8.14824E+00
   4.44541E+00 -5.33536E+00  4.96916E+00  1.10725E+01  7.31489E+00  1.70702E+00  4.71420E+00 -1.94943E+00 -7.51694E+00 -3.67509E+00
  -4.52800E+00  2.61631E+00 -2.40613E+00 -4.80272E+00 -1.65654E+00  5.12848E+00  2.74085E+00 -3.39207E+00 -7.32811E+00  4.36510E+00
  -1.78220E+00  1.24629E+00  5.52833E+00 -4.74617E+00 -2.90207E+00  7.20374E+00 -4.22859E+00 -2.98919E+00 -3.32828E+00 -6.16406E+00
   1.84813E+00  1.06050E-01 -3.98927E+00 -5.89514E+00  2.98859E+00  8.49832E+00  5.23747E+00  1.54191E+00  1.50765E+00  1.78654E+00
  -7.54241E-01  7.24116E+00  1.16284E+00 -7.69193E+00  5.02389E+00 -1.34941E+00  4.06248E+00  1.50685E+00  8.46554E+00  1.56806E+01
   2.92008E+00  7.20550E+00  3.01289E+00 -4.88564E+00  2.98624E+00  8.82677E+00  1.16185E+01  8.81018E+00  3.27663E+00 -2.16254E+00
   4.26760E+00  5.41038E+00 -2.97253E+00  1.11462E+00  5.85896E+00 -2.00014E+00 -9.59758E+00  5.18027E+00  2.28716E+00  8.35028E+00
   3.00023E-01  4.37078E+00  1.13165E+01  3.94724E+00  1.69007E-01  5.31177E+00  1.34443E+01  2.56290E+00  4.66993E+00  5.41246E+00
   4.63050E+00  2.18959E+00  1.12106E+01  2.15175E+00  1.45854E+01  1.01476E+01  1.77996E+00  5.27147E+00
 NY points of the fit to the data follow
  -2.15061E+01 -2.14662E+01 -2.10234E+01 -1.99495E+01 -1.73157E+01 -1.21564E+01 -4.14090E+00  7.08534E+00  1.96776E+01  3.08914E+01
   3.75116E+01  3.73997E+01  3.07091E+01  2.01131E+01  9.20736E+00  4.88258E-02 -6.35083E+00 -1.00680E+01 -1.24467E+01 -1.35993E+01
  -1.42692E+01 -1.48103E+01 -1.53441E+01 -1.60487E+01 -1.66812E+01 -1.61562E+01 -1.43990E+01 -1.11527E+01 -6.34199E+00 -9.63920E-01
   3.36470E+00  5.11161E+00  4.01515E+00  6.01441E-01 -3.82291E+00 -8.33678E+00 -1.27181E+01 -1.56303E+01 -1.68091E+01 -1.66296E+01
  -1.55934E+01 -1.41621E+01 -1.23547E+01 -1.04588E+01 -8.56743E+00 -6.57890E+00 -4.79713E+00 -3.80960E+00 -4.09914E+00 -5.81327E+00
  -8.33446E+00 -1.07736E+01 -1.27151E+01 -1.41076E+01 -1.48249E+01 -1.48362E+01 -1.44104E+01 -1.37086E+01 -1.28915E+01 -1.21841E+01
  -1.18432E+01 -1.20633E+01 -1.28011E+01 -1.37751E+01 -1.45844E+01 -1.50507E+01 -1.51162E+01 -1.47677E+01 -1.42248E+01 -1.36349E+01
  -1.30601E+01 -1.25255E+01 -1.21297E+01 -1.19256E+01 -1.19106E+01 -1.21362E+01 -1.25354E+01 -1.30093E+01 -1.35023E+01 -1.38115E+01
  -1.37806E+01 -1.33098E+01 -1.25125E+01 -1.16069E+01 -1.08061E+01 -1.03800E+01 -1.05859E+01 -1.14369E+01 -1.26095E+01 -1.36052E+01
  -1.40556E+01 -1.39378E+01 -1.35958E+01 -1.31627E+01 -1.26185E+01 -1.20528E+01 -1.12977E+01 -9.38249E+00 -3.00667E+00  9.14406E+00
   2.59780E+01  4.62047E+01  6.50166E+01  7.54240E+01  7.29882E+01  5.90892E+01  3.95913E+01  2.15323E+01  8.75690E+00 -2.19442E-01
  -5.57457E+00 -7.41949E+00 -8.12435E+00 -8.42969E+00 -8.55633E+00 -8.58429E+00 -8.55551E+00 -8.48872E+00 -8.37018E+00 -8.11234E+00
  -7.48668E+00 -5.62844E+00  1.02902E+00  1.42048E+01  3.24164E+01  5.44306E+01  7.53362E+01  8.75172E+01  8.59907E+01  7.21076E+01
   5.18584E+01  3.27654E+01  1.90850E+01  8.69978E+00  1.03141E+00 -3.16777E+00 -5.88412E+00 -7.15831E+00 -6.93887E+00 -5.67929E+00
  -4.07960E+00 -2.69641E+00 -2.06280E+00 -2.26300E+00 -2.96064E+00 -3.87164E+00 -4.73639E+00 -5.44109E+00 -6.04967E+00 -6.53829E+00
  -6.99694E+00 -7.42098E+00 -7.77703E+00 -8.01634E+00 -8.11232E+00 -8.15205E+00 -8.33447E+00 -8.72203E+00 -9.35930E+00 -1.01215E+01
  -1.06391E+01 -1.06914E+01 -1.01954E+01 -9.37746E+00 -8.73413E+00 -8.70832E+00 -9.27234E+00 -1.00461E+01 -1.07998E+01 -1.13179E+01
  -1.16912E+01 -1.21952E+01 -1.27261E+01 -1.32591E+01 -1.37390E+01 -1.39406E+01 -1.37680E+01 -1.32346E+01 -1.26491E+01 -1.23314E+01
  -1.23763E+01 -1.25766E+01 -1.27185E+01 -1.27583E+01 -1.27240E+01 -1.23737E+01 -1.13038E+01 -9.18031E+00 -6.34056E+00 -3.44889E+00
  -1.20873E+00 -1.57638E-01 -4.32427E-01 -1.82370E+00 -3.79598E+00 -5.72481E+00 -7.08838E+00 -7.46320E+00 -6.51092E+00 -4.22080E+00
  -1.01497E+00  2.39841E+00  5.26044E+00  6.95747E+00  7.24238E+00  5.57083E+00  2.32081E+00 -1.77278E+00 -6.03237E+00 -9.37820E+00
  -1.07422E+01 -9.44064E+00 -5.41753E+00  3.47234E-01  6.71748E+00  1.21577E+01  1.53471E+01  1.49124E+01  1.07664E+01  4.50209E+00
  -2.07719E+00 -7.30939E+00 -1.00559E+01 -9.60508E+00 -5.77931E+00 -1.06406E-01  5.51943E+00  9.58575E+00  1.17038E+01  1.22862E+01
   1.17277E+01  1.06147E+01  1.00731E+01  1.06126E+01  1.19419E+01  1.37892E+01  1.57197E+01  1.72438E+01  1.77450E+01  1.69515E+01
   1.52560E+01  1.34240E+01  1.22330E+01  1.21252E+01  1.33678E+01  1.57292E+01  1.83156E+01  2.02961E+01  2.13594E+01  2.17814E+01
   2.18215E+01  2.17838E+01  2.20444E+01  2.29270E+01  2.52976E+01  3.36958E+01  4.90894E+01  7.01636E+01  9.55535E+01  1.18957E+02
   1.31116E+02  1.26448E+02  1.07208E+02  8.11033E+01  5.73363E+01  4.05175E+01  2.78952E+01  2.00437E+01  1.65400E+01  1.43054E+01
   1.25613E+01  1.11401E+01  1.01136E+01  9.37759E+00  8.81107E+00  8.29386E+00  7.68825E+00  6.94676E+00  6.12546E+00  5.29216E+00
   4.49346E+00  3.79511E+00  3.25410E+00  2.87517E+00  2.63626E+00  2.51065E+00  2.48391E+00  2.56384E+00  2.75206E+00  3.05655E+00
   3.49160E+00  4.06290E+00  4.77123E+00  5.61152E+00  6.57500E+00  7.64986E+00  8.81665E+00  1.00537E+01  1.13379E+01  1.26413E+01
   1.39312E+01  1.51730E+01  1.63301E+01  1.73647E+01  1.82391E+01  1.89181E+01  1.93709E+01  1.95729E+01  1.95070E+01  1.91633E+01
   1.85384E+01  1.76373E+01  1.64718E+01  1.50606E+01  1.34289E+01  1.16068E+01  9.62778E+00  7.52697E+00  5.34021E+00  3.10264E+00
   8.47877E-01 -1.39361E+00 -3.59505E+00 -5.73417E+00 -7.79280E+00 -9.75699E+00 -1.16167E+01 -1.33658E+01 -1.50017E+01 -1.65249E+01
  -1.79376E+01 -1.92440E+01 -2.04491E+01 -2.15591E+01 -2.25809E+01 -2.35213E+01 -2.43867E+01 -2.51833E+01 -2.59169E+01 -2.65928E+01
  -2.72160E+01 -2.77910E+01 -2.83213E+01 -2.88100E+01 -2.92599E+01 -2.96734E+01 -3.00526E+01 -3.03993E+01 -3.07145E+01 -3.09993E+01
  -3.12544E+01 -3.14808E+01 -3.16788E+01 -3.18489E+01 -3.19908E+01 -3.21046E+01 -3.21902E+01 -3.22476E+01 -3.22764E+01 -3.22758E+01
  -3.22452E+01 -3.21839E+01 -3.20911E+01 -3.19663E+01 -3.18090E+01 -3.16186E+01 -3.13941E+01 -3.11348E+01 -3.08396E+01 -3.05069E+01
  -3.01349E+01 -2.97213E+01 -2.92638E+01 -2.87596E+01 -2.82057E+01 -2.75985E+01 -2.69342E+01 -2.62086E+01 -2.54176E+01 -2.45571E+01
  -2.36231E+01 -2.26118E+01 -2.15199E+01 -2.03455E+01 -1.90875E+01 -1.77470E+01 -1.63266E+01 -1.48313E+01 -1.32686E+01 -1.16491E+01
  -9.98627E+00 -8.29656E+00 -6.59878E+00 -4.91426E+00 -3.26603E+00 -1.67856E+00 -1.76415E-01  1.21643E+00  2.47782E+00  3.58800E+00
   4.53063E+00  5.29332E+00  5.86862E+00  6.25407E+00  6.45254E+00  6.47156E+00  6.32326E+00  6.02345E+00  5.59146E+00  5.04894E+00
   4.41894E+00  3.72459E+00  2.98853E+00  2.23198E+00  1.47456E+00  7.33379E-01  2.30183E-02 -6.45010E-01 -1.26179E+00 -1.82112E+00
  -2.31889E+00 -2.75329E+00 -3.12421E+00 -3.43321E+00 -3.68279E+00 -3.87631E+00 -4.01743E+00 -4.11037E+00 -4.15939E+00 -4.16894E+00
  -4.14308E+00 -4.08574E+00 -4.00040E+00 -3.89055E+00 -3.75926E+00 -3.60950E+00 -3.44368E+00 -3.26404E+00 -3.07246E+00 -2.87088E+00
  -2.66089E+00 -2.44405E+00 -2.22148E+00 -1.99431E+00 -1.76347E+00 -1.53005E+00 -1.29486E+00 -1.05873E+00 -8.22162E-01 -5.85801E-01
  -3.50153E-01 -1.15912E-01  1.16497E-01  3.46680E-01  5.74660E-01  8.00267E-01  1.02344E+00  1.24395E+00  1.46184E+00  1.67707E+00
   1.88980E+00  2.09993E+00  2.30749E+00  2.51238E+00  2.71478E+00  2.91473E+00  3.11241E+00  3.30775E+00  3.50083E+00  3.69162E+00
   3.88039E+00  4.06721E+00  4.25226E+00  4.43549E+00  4.61704E+00  4.79695E+00  4.97551E+00  5.15280E+00  5.32896E+00  5.50395E+00
   5.67797E+00  5.85111E+00  6.02368E+00  6.19571E+00  6.36736E+00  6.53862E+00  6.70972E+00  6.88080E+00  7.05213E+00  7.22372E+00
   7.39573E+00  7.56817E+00  7.74134E+00  7.91537E+00  8.09050E+00  8.26672E+00  8.44420E+00  8.62301E+00
 NY background values follow
    -2.430E+01   -2.419E+01   -2.407E+01   -2.396E+01   -2.384E+01   -2.373E+01   -2.362E+01   -2.351E+01   -2.341E+01   -2.330E+01
    -2.320E+01   -2.309E+01   -2.299E+01   -2.289E+01   -2.279E+01   -2.269E+01   -2.259E+01   -2.249E+01   -2.239E+01   -2.230E+01
    -2.220E+01   -2.210E+01   -2.201E+01   -2.191E+01   -2.182E+01   -2.172E+01   -2.163E+01   -2.153E+01   -2.144E+01   -2.135E+01
    -2.125E+01   -2.116E+01   -2.106E+01   -2.096E+01   -2.087E+01   -2.077E+01   -2.067E+01   -2.058E+01   -2.048E+01   -2.038E+01
    -2.028E+01   -2.018E+01   -2.007E+01   -1.997E+01   -1.987E+01   -1.976E+01   -1.966E+01   -1.955E+01   -1.944E+01   -1.933E+01
    -1.922E+01   -1.911E+01   -1.900E+01   -1.888E+01   -1.877E+01   -1.866E+01   -1.854E+01   -1.843E+01   -1.831E+01   -1.819E+01
    -1.808E+01   -1.796E+01   -1.785E+01   -1.773E+01   -1.761E+01   -1.750E+01   -1.738E+01   -1.727E+01   -1.715E+01   -1.704E+01
    -1.692E+01   -1.681E+01   -1.669E+01   -1.658E+01   -1.647E+01   -1.636E+01   -1.625E+01   -1.614E+01   -1.604E+01   -1.593E+01
    -1.582E+01   -1.572E+01   -1.562E+01   -1.552E+01   -1.542E+01   -1.532E+01   -1.522E+01   -1.513E+01   -1.504E+01   -1.495E+01
    -1.486E+01   -1.477E+01   -1.469E+01   -1.461E+01   -1.453E+01   -1.445E+01   -1.437E+01   -1.430E+01   -1.422E+01   -1.415E+01
    -1.408E+01   -1.401E+01   -1.394E+01   -1.388E+01   -1.381E+01   -1.375E+01   -1.369E+01   -1.363E+01   -1.357E+01   -1.351E+01
    -1.345E+01   -1.339E+01   -1.334E+01   -1.328E+01   -1.322E+01   -1.317E+01   -1.312E+01   -1.306E+01   -1.301E+01   -1.296E+01
    -1.291E+01   -1.285E+01   -1.280E+01   -1.275E+01   -1.270E+01   -1.265E+01   -1.259E+01   -1.254E+01   -1.249E+01   -1.244E+01
    -1.239E+01   -1.233E+01   -1.228E+01   -1.222E+01   -1.217E+01   -1.212E+01   -1.206E+01   -1.200E+01   -1.195E+01   -1.189E+01
    -1.183E+01   -1.177E+01   -1.171E+01   -1.165E+01   -1.158E+01   -1.152E+01   -1.145E+01   -1.139E+01   -1.132E+01   -1.125E+01
    -1.118E+01   -1.111E+01   -1.104E+01   -1.097E+01   -1.089E+01   -1.082E+01   -1.074E+01   -1.066E+01   -1.058E+01   -1.050E+01
    -1.041E+01   -1.033E+01   -1.024E+01   -1.015E+01   -1.006E+01   -9.972E+00   -9.878E+00   -9.782E+00   -9.685E+00   -9.586E+00
    -9.485E+00   -9.381E+00   -9.276E+00   -9.169E+00   -9.060E+00   -8.948E+00   -8.835E+00   -8.719E+00   -8.601E+00   -8.481E+00
    -8.358E+00   -8.233E+00   -8.106E+00   -7.977E+00   -7.845E+00   -7.712E+00   -7.578E+00   -7.441E+00   -7.304E+00   -7.165E+00
    -7.026E+00   -6.885E+00   -6.744E+00   -6.602E+00   -6.461E+00   -6.319E+00   -6.177E+00   -6.035E+00   -5.893E+00   -5.752E+00
    -5.612E+00   -5.473E+00   -5.334E+00   -5.197E+00   -5.061E+00   -4.927E+00   -4.794E+00   -4.663E+00   -4.535E+00   -4.408E+00
    -4.284E+00   -4.162E+00   -4.043E+00   -3.927E+00   -3.814E+00   -3.704E+00   -3.597E+00   -3.494E+00   -3.395E+00   -3.299E+00
    -3.207E+00   -3.120E+00   -3.037E+00   -2.958E+00   -2.885E+00   -2.816E+00   -2.752E+00   -2.693E+00   -2.639E+00   -2.591E+00
    -2.549E+00   -2.512E+00   -2.480E+00   -2.455E+00   -2.435E+00   -2.421E+00   -2.414E+00   -2.413E+00   -2.418E+00   -2.429E+00
    -2.447E+00   -2.472E+00   -2.504E+00   -2.542E+00   -2.587E+00   -2.639E+00   -2.699E+00   -2.766E+00   -2.840E+00   -2.922E+00
    -3.011E+00   -3.108E+00   -3.213E+00   -3.325E+00   -3.446E+00   -3.575E+00   -3.712E+00   -3.857E+00   -4.011E+00   -4.173E+00
    -4.344E+00   -4.524E+00   -4.712E+00   -4.910E+00   -5.117E+00   -5.332E+00   -5.557E+00   -5.792E+00   -6.036E+00   -6.289E+00
    -6.552E+00   -6.825E+00   -7.108E+00   -7.401E+00   -7.703E+00   -8.014E+00   -8.333E+00   -8.662E+00   -8.998E+00   -9.343E+00
    -9.695E+00   -1.005E+01   -1.042E+01   -1.080E+01   -1.118E+01   -1.156E+01   -1.195E+01   -1.235E+01   -1.276E+01   -1.317E+01
    -1.358E+01   -1.400E+01   -1.442E+01   -1.485E+01   -1.528E+01   -1.571E+01   -1.615E+01   -1.659E+01   -1.703E+01   -1.748E+01
    -1.793E+01   -1.838E+01   -1.883E+01   -1.928E+01   -1.973E+01   -2.019E+01   -2.064E+01   -2.109E+01   -2.155E+01   -2.200E+01
    -2.245E+01   -2.291E+01   -2.336E+01   -2.381E+01   -2.425E+01   -2.470E+01   -2.514E+01   -2.558E+01   -2.602E+01   -2.645E+01
    -2.688E+01   -2.731E+01   -2.773E+01   -2.815E+01   -2.856E+01   -2.897E+01   -2.937E+01   -2.976E+01   -3.015E+01   -3.053E+01
    -3.090E+01   -3.126E+01   -3.162E+01   -3.197E+01   -3.231E+01   -3.264E+01   -3.296E+01   -3.327E+01   -3.356E+01   -3.385E+01
    -3.413E+01   -3.440E+01   -3.465E+01   -3.489E+01   -3.512E+01   -3.534E+01   -3.554E+01   -3.573E+01   -3.590E+01   -3.606E+01
    -3.621E+01   -3.634E+01   -3.645E+01   -3.655E+01   -3.663E+01   -3.670E+01   -3.675E+01   -3.678E+01   -3.679E+01   -3.679E+01
    -3.676E+01   -3.672E+01   -3.666E+01   -3.657E+01   -3.647E+01   -3.636E+01   -3.622E+01   -3.607E+01   -3.590E+01   -3.571E+01
    -3.550E+01   -3.529E+01   -3.505E+01   -3.480E+01   -3.454E+01   -3.426E+01   -3.397E+01   -3.367E+01   -3.336E+01   -3.303E+01
    -3.269E+01   -3.234E+01   -3.198E+01   -3.161E+01   -3.123E+01   -3.085E+01   -3.045E+01   -3.004E+01   -2.963E+01   -2.921E+01
    -2.878E+01   -2.835E+01   -2.791E+01   -2.746E+01   -2.701E+01   -2.656E+01   -2.610E+01   -2.564E+01   -2.517E+01   -2.471E+01
    -2.424E+01   -2.377E+01   -2.329E+01   -2.282E+01   -2.234E+01   -2.187E+01   -2.140E+01   -2.092E+01   -2.045E+01   -1.998E+01
    -1.951E+01   -1.905E+01   -1.858E+01   -1.812E+01   -1.766E+01   -1.720E+01   -1.674E+01   -1.629E+01   -1.583E+01   -1.538E+01
    -1.494E+01   -1.449E+01   -1.405E+01   -1.361E+01   -1.318E+01   -1.274E+01   -1.231E+01   -1.189E+01   -1.147E+01   -1.105E+01
    -1.063E+01   -1.022E+01   -9.812E+00   -9.409E+00   -9.010E+00   -8.614E+00   -8.224E+00   -7.837E+00   -7.455E+00   -7.078E+00
    -6.706E+00   -6.338E+00   -5.976E+00   -5.618E+00   -5.266E+00   -4.919E+00   -4.577E+00   -4.241E+00   -3.911E+00   -3.586E+00
    -3.267E+00   -2.954E+00   -2.647E+00   -2.346E+00   -2.051E+00   -1.762E+00   -1.479E+00   -1.201E+00   -9.277E-01   -6.600E-01
    -3.972E-01   -1.392E-01    1.141E-01    3.630E-01    6.076E-01    8.481E-01    1.085E+00    1.317E+00    1.546E+00    1.772E+00
     1.994E+00    2.213E+00    2.430E+00    2.643E+00    2.854E+00    3.062E+00    3.268E+00    3.471E+00    3.673E+00    3.873E+00
     4.071E+00    4.268E+00    4.463E+00    4.657E+00    4.851E+00    5.043E+00    5.235E+00    5.426E+00    5.617E+00    5.807E+00
     5.998E+00    6.189E+00    6.380E+00    6.571E+00    6.763E+00    6.956E+00    7.150E+00    7.345E+00
 Asp      Conc. = 9.02E+01
