 LCModel (Version 6.3-1L) Copyright: S.W. Provencher.          Ref.: Magn. Reson. Med. 30:672-679 (1993).                
 Slice#2 Row#3 Col#12  PD_05_press_2_raw_act
 36 lines in following concentration table = NCONC+1
    Conc.  %SD /Cr+PCr  Metabolite                                         
    0.000 999%   0.000 Ala                                                 
    6.129 143%   0.325 Asp                                                 
   18.862 297%   1.000 Cr                                                  
    0.000 999%   0.000 PCr                                                 
    3.537 149%   0.187 GABA                                                
    3.614 146%   0.192 Glc                                                 
  223.906 116%  11.870 Gln                                                 
  228.457 126%  12.112 Glu                                                 
    0.000 999%   0.000 GPC                                                 
   33.718  65%   1.788 PCh                                                 
   49.058 178%   2.601 GSH                                                 
  516.870  50%  27.402 Ins                                                 
  287.297  50%  15.231 Lac                                                 
    0.000 999%   0.000 NAA                                                 
    0.000 999%   0.000 NAAG                                                
    1.250 141% 6.6E-02 Scyllo                                              
    6.126 143%   0.325 Tau                                                 
    4.218 480%   0.224 -CrCH2                                              
   33.718  65%   1.788 GPC+PCh                                             
    0.000 999%   0.000 NAA+NAAG                                            
   18.862 297%   1.000 Cr+PCr                                              
  452.363  87%  23.982 Glu+Gln                                             
    0.000 999%   0.000 Lip13a                                              
    0.000 999%   0.000 Lip13b                                              
 5.48E-04 999% 2.9E-05 Lip09                                               
  300.619  38%  15.937 MM09                                                
    0.000 999%   0.000 Lip20                                               
    0.000 999%   0.000 MM20                                                
    0.000 999%   0.000 MM12                                                
  403.821  53%  21.409 MM14                                                
    0.000 999%   0.000 MM17                                                
    0.000 999%   0.000 Lip13a+Lip13b                                       
  403.821  53%  21.409 MM14+Lip13a+Lip13b+MM12                             
  300.620  38%  15.937 MM09+Lip09                                          
    0.000 999%   0.000 MM20+Lip20                                          
   6 lines in following misc. output table
  FWHM = 0.061 ppm    S/N =   1                                            
  Data shift =-0.023 ppm                                                   
  Ph: -28 deg      55.7 deg/ppm                                            
  alphaB,S = 8.5E+01,   5.1E+01                                            
   14 spline knots.   Ns = 5(1)                                            
   2 inflections.     1 extrema                                            
  498 points on ppm-axis = NY
      4.000000     3.992357     3.984714     3.977070     3.969427     3.961784     3.954141     3.946497     3.938854     3.931211
      3.923568     3.915925     3.908281     3.900638     3.892995     3.885352     3.877708     3.870065     3.862422     3.854779
      3.847136     3.839492     3.831849     3.824206     3.816563     3.808919     3.801276     3.793633     3.785990     3.778347
      3.770703     3.763060     3.755417     3.747774     3.740130     3.732487     3.724844     3.717201     3.709558     3.701914
      3.694271     3.686628     3.678985     3.671341     3.663698     3.656055     3.648412     3.640769     3.633125     3.625482
      3.617839     3.610196     3.602552     3.594909     3.587266     3.579623     3.571980     3.564336     3.556693     3.549050
      3.541407     3.533763     3.526120     3.518477     3.510834     3.503191     3.495547     3.487904     3.480261     3.472618
      3.464974     3.457331     3.449688     3.442045     3.434402     3.426758     3.419115     3.411472     3.403829     3.396185
      3.388542     3.380899     3.373256     3.365613     3.357969     3.350326     3.342683     3.335040     3.327396     3.319753
      3.312110     3.304467     3.296824     3.289180     3.281537     3.273894     3.266251     3.258607     3.250964     3.243321
      3.235678     3.228034     3.220391     3.212748     3.205105     3.197462     3.189818     3.182175     3.174532     3.166889
      3.159245     3.151602     3.143959     3.136316     3.128673     3.121029     3.113386     3.105743     3.098100     3.090456
      3.082813     3.075170     3.067527     3.059884     3.052240     3.044597     3.036954     3.029311     3.021667     3.014024
      3.006381     2.998738     2.991095     2.983451     2.975808     2.968165     2.960522     2.952878     2.945235     2.937592
      2.929949     2.922306     2.914662     2.907019     2.899376     2.891733     2.884089     2.876446     2.868803     2.861160
      2.853517     2.845873     2.838230     2.830587     2.822944     2.815300     2.807657     2.800014     2.792371     2.784728
      2.777084     2.769441     2.761798     2.754155     2.746511     2.738868     2.731225     2.723582     2.715939     2.708295
      2.700652     2.693009     2.685366     2.677722     2.670079     2.662436     2.654793     2.647150     2.639506     2.631863
      2.624220     2.616577     2.608933     2.601290     2.593647     2.586004     2.578361     2.570717     2.563074     2.555431
      2.547788     2.540144     2.532501     2.524858     2.517215     2.509572     2.501928     2.494285     2.486642     2.478999
      2.471355     2.463712     2.456069     2.448426     2.440783     2.433139     2.425496     2.417853     2.410210     2.402566
      2.394923     2.387280     2.379637     2.371994     2.364350     2.356707     2.349064     2.341421     2.333777     2.326134
      2.318491     2.310848     2.303205     2.295561     2.287918     2.280275     2.272632     2.264988     2.257345     2.249702
      2.242059     2.234416     2.226772     2.219129     2.211486     2.203843     2.196199     2.188556     2.180913     2.173270
      2.165627     2.157983     2.150340     2.142697     2.135054     2.127410     2.119767     2.112124     2.104481     2.096838
      2.089194     2.081551     2.073908     2.066265     2.058621     2.050978     2.043335     2.035692     2.028049     2.020405
      2.012762     2.005119     1.997476     1.989833     1.982190     1.974546     1.966903     1.959260     1.951617     1.943974
      1.936331     1.928688     1.921045     1.913402     1.905759     1.898115     1.890472     1.882829     1.875186     1.867543
      1.859900     1.852257     1.844614     1.836971     1.829327     1.821684     1.814041     1.806398     1.798755     1.791112
      1.783469     1.775826     1.768183     1.760540     1.752896     1.745253     1.737610     1.729967     1.722324     1.714681
      1.707038     1.699395     1.691752     1.684108     1.676465     1.668822     1.661179     1.653536     1.645893     1.638250
      1.630607     1.622964     1.615321     1.607677     1.600034     1.592391     1.584748     1.577105     1.569462     1.561819
      1.554176     1.546533     1.538890     1.531246     1.523603     1.515960     1.508317     1.500674     1.493031     1.485388
      1.477745     1.470102     1.462458     1.454815     1.447172     1.439529     1.431886     1.424243     1.416600     1.408957
      1.401314     1.393671     1.386027     1.378384     1.370741     1.363098     1.355455     1.347812     1.340169     1.332526
      1.324883     1.317240     1.309596     1.301953     1.294310     1.286667     1.279024     1.271381     1.263738     1.256095
      1.248452     1.240808     1.233165     1.225522     1.217879     1.210236     1.202593     1.194950     1.187307     1.179664
      1.172021     1.164377     1.156734     1.149091     1.141448     1.133805     1.126162     1.118519     1.110876     1.103233
      1.095590     1.087946     1.080303     1.072660     1.065017     1.057374     1.049731     1.042088     1.034445     1.026802
      1.019158     1.011515     1.003872     0.996229     0.988586     0.980943     0.973300     0.965657     0.958014     0.950371
      0.942727     0.935084     0.927441     0.919798     0.912155     0.904512     0.896869     0.889226     0.881583     0.873940
      0.866296     0.858653     0.851010     0.843367     0.835724     0.828081     0.820438     0.812795     0.805152     0.797508
      0.789865     0.782222     0.774579     0.766936     0.759293     0.751650     0.744007     0.736364     0.728721     0.721077
      0.713434     0.705791     0.698148     0.690505     0.682862     0.675219     0.667576     0.659933     0.652290     0.644646
      0.637003     0.629360     0.621717     0.614074     0.606431     0.598788     0.591145     0.583502     0.575858     0.568215
      0.560572     0.552929     0.545286     0.537643     0.530000     0.522357     0.514714     0.507071     0.499427     0.491784
      0.484141     0.476498     0.468855     0.461212     0.453569     0.445925     0.438282     0.430639     0.422996     0.415353
      0.407710     0.400067     0.392424     0.384780     0.377137     0.369494     0.361851     0.354208     0.346565     0.338922
      0.331278     0.323635     0.315992     0.308349     0.300706     0.293063     0.285420     0.277777     0.270133     0.262490
      0.254847     0.247204     0.239561     0.231918     0.224275     0.216631     0.208988     0.201345
 NY phased data points follow
  -4.20474E+00 -6.33360E+00 -4.88982E-01 -6.16885E+00 -9.34249E+00 -1.67269E+01 -1.14248E+01 -5.07285E+00  4.81093E+00 -6.75019E+00
  -1.63205E+01 -1.47749E+01 -1.62983E+00 -1.13589E+00  6.65053E+00 -1.25259E+01 -1.46105E+00 -1.24998E+01 -1.07273E+01 -1.35791E+01
  -9.05851E+00  3.87738E+00  1.43885E-02 -2.10217E+00 -5.54797E+00 -1.84845E+00 -7.37604E+00 -5.33980E+00 -2.56416E-01 -3.65333E+00
   2.39418E-03 -3.07150E+00 -8.48932E+00 -1.08451E+01  9.44619E-01 -9.50513E+00 -3.17866E+00 -7.01312E+00 -1.16359E+01 -9.90418E+00
  -5.95911E+00 -1.85827E+00 -3.02817E+00 -7.15852E+00 -2.94182E+00 -1.66516E+00 -3.98056E+00 -8.06522E+00 -5.46432E+00  6.72248E+00
   1.33753E+00 -5.42085E+00 -3.90490E+00 -3.24808E+00 -5.76684E+00 -5.88126E+00  1.10095E+00 -4.23139E+00 -6.11779E+00 -3.98940E-01
   2.53624E+00 -3.32423E+00 -2.86300E+00 -5.04878E+00  1.65113E+00 -5.14397E+00 -1.02754E+00 -7.44166E+00 -2.85140E+00 -9.86179E+00
   8.84448E-01 -2.50395E+00 -2.18305E+00 -9.31214E+00 -5.09513E+00 -2.54907E+00 -2.38154E+00 -1.19387E+00 -5.40429E+00 -1.07293E+01
  -5.29700E+00 -4.90881E+00 -1.02708E+01 -1.09275E+01 -1.15669E+00 -3.88574E+00 -4.82055E-01 -5.05279E+00 -7.84427E+00  3.69267E+00
  -5.70982E+00 -7.92407E+00 -3.63983E+00 -8.69050E+00 -1.37413E+00 -4.42298E+00 -1.48318E+00 -5.06823E+00 -5.75414E+00 -3.96492E+00
  -9.14318E+00 -1.44978E-01 -3.12704E+00 -4.93859E+00 -9.58108E-01 -3.75545E+00  2.67246E+00 -6.11834E+00  5.43353E+00 -6.64540E+00
  -2.27683E+00 -8.26111E+00 -5.14349E+00 -4.93970E+00 -8.67919E+00 -7.68472E-01 -5.03523E+00 -5.21114E+00  6.56813E+00 -1.41577E+01
  -1.02656E+01 -2.56056E+00  4.26680E+00 -3.88110E+00 -1.19259E+01  4.72255E-01 -5.87521E+00 -6.74175E+00 -4.75144E+00 -1.29223E+00
  -1.27342E+00 -1.97058E+00 -2.74827E-01 -4.58095E+00 -6.22373E+00 -6.83313E+00 -9.44299E-01 -2.46300E-01  9.33408E-01 -1.32485E+00
  -1.63774E+00  2.49415E+00 -4.38378E+00 -6.43987E+00 -7.55983E+00  5.23665E+00  2.33686E+00 -5.80551E+00 -4.30389E+00 -7.01661E+00
  -8.23082E+00 -8.15713E+00 -9.83242E+00 -8.67778E+00 -2.18321E+00 -5.67529E+00 -3.37053E+00  3.62120E+00 -3.72132E-01 -3.21343E+00
  -3.80628E+00 -3.38528E+00 -7.45529E+00 -1.30149E+01 -2.57849E+00 -5.02360E+00  5.05729E-01 -1.04271E+01 -8.03943E-01  4.02993E+00
  -3.94194E+00 -1.52285E+00 -8.46605E+00 -3.09056E+00 -7.43036E+00  5.49296E+00 -6.47851E+00 -9.14293E+00 -9.77816E+00 -1.30838E+01
  -9.12677E+00 -3.98751E+00  6.42123E-01 -4.71847E-01 -5.92836E+00 -4.22486E+00 -2.61961E+00 -9.10365E+00  1.73577E+00 -7.31147E+00
  -1.08436E+01 -2.66318E+00 -1.77787E+00 -2.28489E+00 -1.80860E+00 -5.87698E-01 -7.41874E+00  8.83640E-03 -2.83088E+00 -8.26255E+00
  -8.52253E+00  6.15493E-01 -4.42417E+00  1.36775E+00 -6.49020E+00 -1.09464E+01 -3.02334E-01 -8.55343E+00 -7.57840E+00 -6.67690E+00
   2.52076E+00 -3.63448E+00 -1.37518E+00 -3.99448E+00  5.33497E+00 -7.75353E+00  3.47233E-01 -2.45196E+00 -3.26646E+00 -4.20580E+00
  -5.86305E-01 -1.30335E+00 -8.29582E+00 -8.07260E+00 -4.62742E-01 -2.20401E+00 -1.71626E+00 -1.91060E+00  3.70155E-01 -3.66641E+00
  -9.57308E-01  1.37182E-01  2.63914E+00 -9.62501E-01 -5.90951E+00 -3.00338E+00 -2.71477E+00 -4.89635E-01 -3.15746E+00 -5.05117E+00
  -1.64090E+00 -4.21247E+00  2.74813E+00 -1.83789E-02 -4.77130E+00  8.04112E-01 -6.91940E+00 -8.26706E+00 -2.68621E+00 -1.36297E+00
  -4.57375E+00  6.91703E-01  1.26697E+00 -5.29461E+00  4.31173E-01 -6.38196E+00 -5.02786E+00  2.22047E-01 -8.15730E+00 -6.89396E+00
   3.04166E+00 -7.09643E+00 -4.61846E+00 -1.36535E+00  1.36836E+00  7.61550E-02 -2.75735E+00  4.65639E+00  5.15385E+00 -2.15550E+00
   2.25061E+00  4.40123E-01 -5.01622E+00 -1.17685E+01  6.95887E+00  3.52130E-01  2.51337E+00  1.29040E+00 -5.04798E+00 -3.33016E+00
  -1.10335E+01  5.42562E+00  2.81875E+00 -4.06408E+00 -4.44968E+00  2.15315E+00 -5.69886E+00 -8.11407E+00 -8.91038E+00  1.54801E+00
  -5.89701E+00 -2.30501E+00 -1.71834E-02 -4.49982E+00 -9.69615E-01  4.34281E+00  1.17583E+00  5.85600E-01 -6.33204E+00 -6.27894E+00
   3.32139E+00  2.94824E+00  2.46368E+00 -8.16246E+00  1.10685E+00  4.11249E+00 -5.96055E+00 -1.23241E+00  3.62751E+00 -7.73649E+00
  -1.49975E+00 -1.65606E+00 -9.40587E+00 -7.67663E+00  1.84040E+00 -4.67530E+00 -6.74931E+00 -2.83037E+00 -6.25989E-01 -2.05248E+00
   5.39750E+00  1.61134E+00 -1.18103E-02 -7.49176E+00 -4.69526E+00 -5.42256E+00 -1.34667E+00 -7.90661E+00  3.18521E-01  3.54992E+00
   1.73572E+00  3.77319E+00  5.80407E+00  8.12400E+00  1.33949E+01  1.85375E+00  8.60922E+00  9.85288E+00  1.00459E+01  1.06562E+01
   8.23093E+00  9.63707E+00  1.10251E+01  6.03713E+00  1.68894E+00  4.49729E+00 -3.86451E+00  2.70984E+00 -6.54593E+00 -3.24890E+00
  -2.67344E+00  5.45635E+00 -8.91389E+00  3.13414E+00 -2.28168E+00  5.83683E+00  4.96391E-01  4.49005E+00  1.15490E+00  6.05895E+00
   1.37937E+00 -4.23571E+00 -6.24827E+00  2.72533E+00 -5.11422E+00  5.14635E+00  5.18082E-01 -1.02321E+01  3.43912E+00  3.01927E+00
  -1.21631E+00 -2.69293E+00 -4.05850E+00 -6.53627E+00  7.68922E+00 -7.79297E+00  3.89719E-01 -6.36581E+00 -5.08151E+00  1.08730E+00
  -5.76793E+00 -7.59673E+00  7.27076E-01 -9.06695E-01  9.77549E+00  3.69446E+00 -5.42489E+00  2.31754E+00  5.28864E+00  4.63225E+00
  -7.12351E-01 -7.85547E-01  1.03743E-01  4.32388E+00  5.97664E+00 -5.88699E+00  2.40682E+00  5.91601E+00  9.31879E-01  5.73899E+00
   4.36632E+00  1.05927E+01 -6.40140E-01  1.27460E-01  4.85579E+00  9.91005E+00  7.44477E+00  4.04956E+00 -2.86896E+00  7.00830E+00
   1.51179E+01  5.58205E+00  1.17393E+01  5.48333E+00  4.75902E+00  5.67001E+00  3.67320E+00  7.68627E+00  1.25237E+01  1.55057E+00
   5.54600E+00  1.36314E+01  1.14842E+01 -2.87605E+00 -5.75454E-01  8.56251E+00  8.41293E+00  1.20786E+00  3.04513E+00 -1.61421E+00
   3.31401E+00  7.26954E+00  4.87719E+00  6.05396E+00  9.43212E+00  7.03672E+00  5.13051E+00  7.02564E+00  2.92044E+00  4.68726E+00
   6.79848E+00  6.10721E+00  4.05275E-02 -3.01530E+00  9.33023E-01  4.72955E+00  5.70898E+00  1.24603E+01  6.50532E+00  8.60295E+00
   9.40810E+00  9.47082E-01  5.40155E+00  5.63898E+00  3.94626E+00  4.38128E+00  3.03552E+00  3.57645E+00  3.88086E+00  3.83578E+00
   7.64679E+00  1.01169E+01  7.26259E+00  6.79622E+00  3.04137E+00  4.75470E+00  1.58485E+00  7.18681E+00  2.14751E+00  4.90455E+00
   4.65274E+00  8.19190E-01 -1.80204E+00  1.80419E+00 -1.36294E+00  6.62178E+00  8.36516E+00  6.33949E+00  9.35544E+00  2.73682E+00
   6.06209E+00  2.64698E+00  8.14714E+00 -5.88980E+00  3.72351E+00  3.77848E+00  1.11949E+00 -4.97259E-01  5.66292E+00  4.75534E+00
   2.22648E+00 -5.57038E+00 -2.52402E+00  3.42937E+00  1.13610E+01  7.84730E+00  1.22104E+01  3.07239E+00
 NY points of the fit to the data follow
  -6.08861E+00 -6.30033E+00 -6.43074E+00 -6.47347E+00 -6.49278E+00 -6.50704E+00 -6.47343E+00 -6.38228E+00 -6.27021E+00 -6.16703E+00
  -6.08637E+00 -6.02978E+00 -5.99505E+00 -5.98186E+00 -5.99005E+00 -6.01583E+00 -6.04519E+00 -6.04886E+00 -6.00124E+00 -5.91455E+00
  -5.80509E+00 -5.70887E+00 -5.68169E+00 -5.75853E+00 -5.88054E+00 -5.89500E+00 -5.75035E+00 -5.42207E+00 -4.94588E+00 -4.43001E+00
  -3.98368E+00 -3.69389E+00 -3.58870E+00 -3.67936E+00 -3.96974E+00 -4.42002E+00 -4.91304E+00 -5.32845E+00 -5.62825E+00 -5.77720E+00
  -5.78982E+00 -5.67386E+00 -5.28886E+00 -4.50253E+00 -3.47957E+00 -2.57003E+00 -2.01487E+00 -1.86161E+00 -2.05497E+00 -2.53185E+00
  -3.22924E+00 -4.05118E+00 -4.87579E+00 -5.54927E+00 -5.83725E+00 -5.63700E+00 -5.13753E+00 -4.56763E+00 -4.09326E+00 -3.79445E+00
  -3.69459E+00 -3.78115E+00 -3.99322E+00 -4.25684E+00 -4.51768E+00 -4.73292E+00 -4.83816E+00 -4.75522E+00 -4.51784E+00 -4.21659E+00
  -3.95217E+00 -3.77625E+00 -3.70108E+00 -3.71717E+00 -3.79386E+00 -3.90464E+00 -4.03041E+00 -4.15589E+00 -4.26054E+00 -4.31633E+00
  -4.34134E+00 -4.36805E+00 -4.46511E+00 -4.67382E+00 -4.98692E+00 -5.33696E+00 -5.64769E+00 -5.86726E+00 -5.96511E+00 -5.92013E+00
  -5.73945E+00 -5.43881E+00 -5.05992E+00 -4.71014E+00 -4.49089E+00 -4.43038E+00 -4.49387E+00 -4.59406E+00 -4.52092E+00 -4.06950E+00
  -3.43306E+00 -2.82319E+00 -2.35927E+00 -2.07556E+00 -1.98762E+00 -2.12029E+00 -2.46137E+00 -2.96371E+00 -3.54655E+00 -4.08170E+00
  -4.40278E+00 -4.48102E+00 -4.48126E+00 -4.46535E+00 -4.45073E+00 -4.44387E+00 -4.44513E+00 -4.44962E+00 -4.45257E+00 -4.44809E+00
  -4.42859E+00 -4.38071E+00 -4.26246E+00 -4.07903E+00 -3.88638E+00 -3.72404E+00 -3.60800E+00 -3.53728E+00 -3.49622E+00 -3.47637E+00
  -3.50237E+00 -3.59124E+00 -3.72970E+00 -3.88289E+00 -4.00190E+00 -4.07555E+00 -4.11335E+00 -4.10657E+00 -4.06249E+00 -3.98870E+00
  -3.88966E+00 -3.78167E+00 -3.69455E+00 -3.64301E+00 -3.62583E+00 -3.63716E+00 -3.66248E+00 -3.68724E+00 -3.70342E+00 -3.70785E+00
  -3.70864E+00 -3.70642E+00 -3.69896E+00 -3.68606E+00 -3.66925E+00 -3.64992E+00 -3.62783E+00 -3.60411E+00 -3.57999E+00 -3.55666E+00
  -3.53542E+00 -3.51707E+00 -3.49967E+00 -3.47984E+00 -3.45660E+00 -3.43121E+00 -3.40518E+00 -3.37885E+00 -3.35112E+00 -3.32214E+00
  -3.29416E+00 -3.26980E+00 -3.25011E+00 -3.23463E+00 -3.22179E+00 -3.21050E+00 -3.20034E+00 -3.19038E+00 -3.17967E+00 -3.16521E+00
  -3.15061E+00 -3.13942E+00 -3.12931E+00 -3.11655E+00 -3.09625E+00 -3.05828E+00 -2.99450E+00 -2.90732E+00 -2.81666E+00 -2.75789E+00
  -2.74386E+00 -2.79088E+00 -2.91198E+00 -3.08719E+00 -3.26058E+00 -3.37877E+00 -3.38577E+00 -3.23866E+00 -2.95115E+00 -2.58624E+00
  -2.18594E+00 -1.80720E+00 -1.53663E+00 -1.44802E+00 -1.60225E+00 -2.07101E+00 -2.71779E+00 -3.30625E+00 -3.69162E+00 -3.81023E+00
  -3.64828E+00 -3.17386E+00 -2.48499E+00 -1.76201E+00 -1.15794E+00 -7.75725E-01 -7.17294E-01 -1.05862E+00 -1.66609E+00 -2.30369E+00
  -2.80768E+00 -3.10146E+00 -3.13783E+00 -2.92184E+00 -2.55625E+00 -2.13250E+00 -1.73526E+00 -1.44293E+00 -1.29514E+00 -1.29684E+00
  -1.41099E+00 -1.60298E+00 -1.78834E+00 -1.88427E+00 -1.86623E+00 -1.75560E+00 -1.56746E+00 -1.36086E+00 -1.26636E+00 -1.29417E+00
  -1.39162E+00 -1.53266E+00 -1.72227E+00 -1.93737E+00 -2.11167E+00 -2.21203E+00 -2.22972E+00 -2.15354E+00 -1.98014E+00 -1.76348E+00
  -1.56853E+00 -1.39844E+00 -1.26693E+00 -1.20190E+00 -1.20602E+00 -1.24167E+00 -1.28145E+00 -1.31243E+00 -1.31827E+00 -1.28285E+00
  -1.21159E+00 -1.12313E+00 -1.02629E+00 -9.39474E-01 -8.82550E-01 -8.69167E-01 -8.92407E-01 -9.29907E-01 -9.60340E-01 -9.69906E-01
  -9.53010E-01 -9.12565E-01 -8.62761E-01 -8.10819E-01 -7.56199E-01 -7.06366E-01 -6.68255E-01 -6.43616E-01 -6.31879E-01 -6.29523E-01
  -6.27856E-01 -6.20384E-01 -6.06586E-01 -5.87813E-01 -5.65087E-01 -5.39325E-01 -5.12310E-01 -4.86427E-01 -4.62372E-01 -4.39134E-01
  -4.16224E-01 -3.93336E-01 -3.70028E-01 -3.45954E-01 -3.21143E-01 -2.95841E-01 -2.69921E-01 -2.43110E-01 -2.15332E-01 -1.86528E-01
  -1.56621E-01 -1.25615E-01 -9.34220E-02 -5.98808E-02 -2.47978E-02  1.20043E-02  5.07234E-02  9.16212E-02  1.35065E-01  1.81528E-01
   2.31540E-01  2.85515E-01  3.43860E-01  4.07082E-01  4.75705E-01  5.50225E-01  6.31053E-01  7.18494E-01  8.12791E-01  9.14126E-01
   1.02257E+00  1.13797E+00  1.25995E+00  1.38787E+00  1.52097E+00  1.65832E+00  1.79883E+00  1.94115E+00  2.08379E+00  2.22525E+00
   2.36415E+00  2.49937E+00  2.63007E+00  2.75581E+00  2.87686E+00  2.99472E+00  3.11279E+00  3.23740E+00  3.38000E+00  3.56287E+00
   3.83776E+00  4.34117E+00  5.09046E+00  5.57311E+00  5.49148E+00  4.86294E+00  3.81701E+00  2.47406E+00  9.05554E-01 -5.74445E-01
  -1.40121E+00 -1.46172E+00 -8.60010E-01  2.60794E-01  1.60002E+00  2.73451E+00  3.53972E+00  3.98907E+00  4.05766E+00  3.74903E+00
   3.16452E+00  2.58787E+00  2.24535E+00  2.04586E+00  1.91526E+00  1.82487E+00  1.76102E+00  1.71601E+00  1.68503E+00  1.66479E+00
   1.65304E+00  1.64824E+00  1.64935E+00  1.65563E+00  1.66647E+00  1.68142E+00  1.70021E+00  1.72277E+00  1.74917E+00  1.77953E+00
   1.81403E+00  1.85292E+00  1.89659E+00  1.94556E+00  2.00042E+00  2.06177E+00  2.13019E+00  2.20631E+00  2.29073E+00  2.38404E+00
   2.48664E+00  2.59871E+00  2.72013E+00  2.85051E+00  2.98913E+00  3.13482E+00  3.28594E+00  3.44039E+00  3.59563E+00  3.74880E+00
   3.89680E+00  4.03634E+00  4.16410E+00  4.27691E+00  4.37189E+00  4.44669E+00  4.49955E+00  4.52938E+00  4.53583E+00  4.51936E+00
   4.48119E+00  4.42324E+00  4.34802E+00  4.25843E+00  4.15761E+00  4.04888E+00  3.93550E+00  3.82057E+00  3.70689E+00  3.59685E+00
   3.49240E+00  3.39506E+00  3.30593E+00  3.22570E+00  3.15463E+00  3.09268E+00  3.03957E+00  2.99484E+00  2.95791E+00  2.92812E+00
   2.90475E+00  2.88706E+00  2.87439E+00  2.86610E+00  2.86164E+00  2.86047E+00  2.86212E+00  2.86616E+00  2.87228E+00  2.88017E+00
   2.88962E+00  2.90038E+00  2.91226E+00  2.92512E+00  2.93882E+00  2.95328E+00  2.96841E+00  2.98412E+00  3.00032E+00  3.01696E+00
   3.03401E+00  3.05143E+00  3.06919E+00  3.08724E+00  3.10554E+00  3.12407E+00  3.14283E+00  3.16181E+00  3.18097E+00  3.20028E+00
   3.21974E+00  3.23935E+00  3.25909E+00  3.27897E+00  3.29896E+00  3.31904E+00  3.33920E+00  3.35947E+00  3.37984E+00  3.40028E+00
   3.42079E+00  3.44135E+00  3.46198E+00  3.48268E+00  3.50345E+00  3.52427E+00  3.54513E+00  3.56603E+00  3.58698E+00  3.60799E+00
   3.62904E+00  3.65013E+00  3.67123E+00  3.69237E+00  3.71356E+00  3.73479E+00  3.75605E+00  3.77732E+00  3.79862E+00  3.81995E+00
   3.84132E+00  3.86272E+00  3.88414E+00  3.90557E+00  3.92703E+00  3.94852E+00  3.97005E+00  3.99161E+00
 NY background values follow
    -6.991E+00   -6.969E+00   -6.947E+00   -6.925E+00   -6.903E+00   -6.881E+00   -6.859E+00   -6.837E+00   -6.815E+00   -6.793E+00
    -6.771E+00   -6.749E+00   -6.727E+00   -6.705E+00   -6.683E+00   -6.661E+00   -6.639E+00   -6.617E+00   -6.595E+00   -6.573E+00
    -6.551E+00   -6.529E+00   -6.507E+00   -6.485E+00   -6.463E+00   -6.441E+00   -6.419E+00   -6.397E+00   -6.375E+00   -6.352E+00
    -6.330E+00   -6.308E+00   -6.286E+00   -6.264E+00   -6.242E+00   -6.220E+00   -6.198E+00   -6.176E+00   -6.154E+00   -6.132E+00
    -6.110E+00   -6.088E+00   -6.066E+00   -6.044E+00   -6.022E+00   -6.000E+00   -5.978E+00   -5.956E+00   -5.934E+00   -5.912E+00
    -5.890E+00   -5.868E+00   -5.846E+00   -5.824E+00   -5.802E+00   -5.780E+00   -5.758E+00   -5.736E+00   -5.714E+00   -5.692E+00
    -5.670E+00   -5.647E+00   -5.625E+00   -5.603E+00   -5.581E+00   -5.559E+00   -5.537E+00   -5.515E+00   -5.493E+00   -5.471E+00
    -5.449E+00   -5.427E+00   -5.405E+00   -5.383E+00   -5.361E+00   -5.339E+00   -5.317E+00   -5.295E+00   -5.273E+00   -5.251E+00
    -5.229E+00   -5.207E+00   -5.185E+00   -5.163E+00   -5.141E+00   -5.119E+00   -5.097E+00   -5.075E+00   -5.053E+00   -5.031E+00
    -5.009E+00   -4.987E+00   -4.965E+00   -4.942E+00   -4.920E+00   -4.898E+00   -4.876E+00   -4.854E+00   -4.832E+00   -4.810E+00
    -4.788E+00   -4.766E+00   -4.744E+00   -4.722E+00   -4.700E+00   -4.678E+00   -4.656E+00   -4.634E+00   -4.612E+00   -4.590E+00
    -4.568E+00   -4.546E+00   -4.524E+00   -4.502E+00   -4.480E+00   -4.458E+00   -4.436E+00   -4.414E+00   -4.392E+00   -4.370E+00
    -4.348E+00   -4.326E+00   -4.304E+00   -4.282E+00   -4.260E+00   -4.237E+00   -4.215E+00   -4.193E+00   -4.171E+00   -4.149E+00
    -4.127E+00   -4.105E+00   -4.083E+00   -4.061E+00   -4.039E+00   -4.017E+00   -3.995E+00   -3.973E+00   -3.951E+00   -3.929E+00
    -3.907E+00   -3.885E+00   -3.863E+00   -3.841E+00   -3.819E+00   -3.797E+00   -3.775E+00   -3.753E+00   -3.731E+00   -3.709E+00
    -3.687E+00   -3.665E+00   -3.643E+00   -3.621E+00   -3.599E+00   -3.577E+00   -3.554E+00   -3.532E+00   -3.510E+00   -3.488E+00
    -3.466E+00   -3.444E+00   -3.422E+00   -3.400E+00   -3.378E+00   -3.356E+00   -3.334E+00   -3.312E+00   -3.290E+00   -3.268E+00
    -3.246E+00   -3.224E+00   -3.202E+00   -3.180E+00   -3.158E+00   -3.136E+00   -3.114E+00   -3.092E+00   -3.070E+00   -3.048E+00
    -3.026E+00   -3.004E+00   -2.982E+00   -2.960E+00   -2.938E+00   -2.916E+00   -2.894E+00   -2.872E+00   -2.849E+00   -2.827E+00
    -2.805E+00   -2.783E+00   -2.761E+00   -2.739E+00   -2.717E+00   -2.695E+00   -2.673E+00   -2.651E+00   -2.629E+00   -2.607E+00
    -2.585E+00   -2.563E+00   -2.541E+00   -2.519E+00   -2.497E+00   -2.475E+00   -2.453E+00   -2.431E+00   -2.409E+00   -2.387E+00
    -2.365E+00   -2.343E+00   -2.321E+00   -2.299E+00   -2.277E+00   -2.255E+00   -2.233E+00   -2.211E+00   -2.188E+00   -2.166E+00
    -2.144E+00   -2.122E+00   -2.100E+00   -2.078E+00   -2.056E+00   -2.034E+00   -2.012E+00   -1.990E+00   -1.968E+00   -1.946E+00
    -1.924E+00   -1.902E+00   -1.880E+00   -1.858E+00   -1.836E+00   -1.814E+00   -1.792E+00   -1.770E+00   -1.748E+00   -1.726E+00
    -1.704E+00   -1.682E+00   -1.660E+00   -1.638E+00   -1.616E+00   -1.594E+00   -1.572E+00   -1.550E+00   -1.528E+00   -1.505E+00
    -1.483E+00   -1.461E+00   -1.439E+00   -1.417E+00   -1.395E+00   -1.373E+00   -1.351E+00   -1.329E+00   -1.307E+00   -1.285E+00
    -1.263E+00   -1.241E+00   -1.219E+00   -1.197E+00   -1.175E+00   -1.153E+00   -1.131E+00   -1.109E+00   -1.087E+00   -1.065E+00
    -1.043E+00   -1.021E+00   -9.987E-01   -9.767E-01   -9.546E-01   -9.326E-01   -9.106E-01   -8.885E-01   -8.665E-01   -8.445E-01
    -8.224E-01   -8.004E-01   -7.784E-01   -7.563E-01   -7.343E-01   -7.123E-01   -6.902E-01   -6.682E-01   -6.462E-01   -6.241E-01
    -6.021E-01   -5.801E-01   -5.580E-01   -5.360E-01   -5.140E-01   -4.919E-01   -4.699E-01   -4.479E-01   -4.258E-01   -4.038E-01
    -3.818E-01   -3.597E-01   -3.377E-01   -3.157E-01   -2.936E-01   -2.716E-01   -2.496E-01   -2.275E-01   -2.055E-01   -1.835E-01
    -1.614E-01   -1.394E-01   -1.174E-01   -9.532E-02   -7.328E-02   -5.125E-02   -2.921E-02   -7.179E-03    1.485E-02    3.689E-02
     5.892E-02    8.096E-02    1.030E-01    1.250E-01    1.471E-01    1.691E-01    1.911E-01    2.132E-01    2.352E-01    2.572E-01
     2.793E-01    3.013E-01    3.233E-01    3.454E-01    3.674E-01    3.894E-01    4.115E-01    4.335E-01    4.555E-01    4.776E-01
     4.996E-01    5.216E-01    5.437E-01    5.657E-01    5.877E-01    6.098E-01    6.318E-01    6.539E-01    6.759E-01    6.979E-01
     7.200E-01    7.420E-01    7.640E-01    7.861E-01    8.081E-01    8.301E-01    8.522E-01    8.742E-01    8.962E-01    9.183E-01
     9.403E-01    9.623E-01    9.844E-01    1.006E+00    1.028E+00    1.050E+00    1.073E+00    1.095E+00    1.117E+00    1.139E+00
     1.161E+00    1.183E+00    1.205E+00    1.227E+00    1.249E+00    1.271E+00    1.293E+00    1.315E+00    1.337E+00    1.359E+00
     1.381E+00    1.403E+00    1.425E+00    1.447E+00    1.469E+00    1.491E+00    1.513E+00    1.535E+00    1.557E+00    1.579E+00
     1.601E+00    1.623E+00    1.645E+00    1.667E+00    1.689E+00    1.712E+00    1.734E+00    1.756E+00    1.778E+00    1.800E+00
     1.822E+00    1.844E+00    1.866E+00    1.888E+00    1.910E+00    1.932E+00    1.954E+00    1.976E+00    1.998E+00    2.020E+00
     2.042E+00    2.064E+00    2.086E+00    2.108E+00    2.130E+00    2.152E+00    2.174E+00    2.196E+00    2.218E+00    2.240E+00
     2.262E+00    2.284E+00    2.306E+00    2.329E+00    2.351E+00    2.373E+00    2.395E+00    2.417E+00    2.439E+00    2.461E+00
     2.483E+00    2.505E+00    2.527E+00    2.549E+00    2.571E+00    2.593E+00    2.615E+00    2.637E+00    2.659E+00    2.681E+00
     2.703E+00    2.725E+00    2.747E+00    2.769E+00    2.791E+00    2.813E+00    2.835E+00    2.857E+00    2.879E+00    2.901E+00
     2.923E+00    2.945E+00    2.968E+00    2.990E+00    3.012E+00    3.034E+00    3.056E+00    3.078E+00    3.100E+00    3.122E+00
     3.144E+00    3.166E+00    3.188E+00    3.210E+00    3.232E+00    3.254E+00    3.276E+00    3.298E+00    3.320E+00    3.342E+00
     3.364E+00    3.386E+00    3.408E+00    3.430E+00    3.452E+00    3.474E+00    3.496E+00    3.518E+00    3.540E+00    3.562E+00
     3.585E+00    3.607E+00    3.629E+00    3.651E+00    3.673E+00    3.695E+00    3.717E+00    3.739E+00    3.761E+00    3.783E+00
     3.805E+00    3.827E+00    3.849E+00    3.871E+00    3.893E+00    3.915E+00    3.937E+00    3.959E+00
 Asp      Conc. = 6.13E+00
