 LCModel (Version 6.3-1L) Copyright: S.W. Provencher.          Ref.: Magn. Reson. Med. 30:672-679 (1993).                
 Slice#2 Row#10 Col#9  PD_05_press_2_raw_act
 36 lines in following concentration table = NCONC+1
    Conc.  %SD /Cr+PCr  Metabolite                                         
  197.510  64%   0.155 Ala                                                 
   80.759 261% 6.3E-02 Asp                                                 
  598.394  43%   0.470 Cr                                                  
  674.118  39%   0.530 PCr                                                 
    0.000 999%   0.000 GABA                                                
    0.000 999%   0.000 Glc                                                 
  728.521  38%   0.573 Gln                                                 
 1.12E+03  27%   0.883 Glu                                                 
  302.450   7%   0.238 GPC                                                 
    0.000 999%   0.000 PCh                                                 
  286.093  27%   0.225 GSH                                                 
  550.315  43%   0.432 Ins                                                 
    0.000 999%   0.000 Lac                                                 
 2.24E+03   7%   1.763 NAA                                                 
  106.777 154% 8.4E-02 NAAG                                                
   18.917 138% 1.5E-02 Scyllo                                              
    0.000 999%   0.000 Tau                                                 
  399.072  26%   0.314 -CrCH2                                              
  302.450   7%   0.238 GPC+PCh                                             
 2.35E+03   4%   1.847 NAA+NAAG                                            
 1.27E+03   4%   1.000 Cr+PCr                                              
 1.85E+03  25%   1.456 Glu+Gln                                             
    0.000 999%   0.000 Lip13a                                              
    0.000 999%   0.000 Lip13b                                              
    0.000 999%   0.000 Lip09                                               
 1.31E+03  11%   1.031 MM09                                                
    6.529 707% 5.1E-03 Lip20                                               
 2.62E+03  12%   2.060 MM20                                                
  421.935  28%   0.332 MM12                                                
    0.000 999%   0.000 MM14                                                
  654.297  25%   0.514 MM17                                                
    0.000 999%   0.000 Lip13a+Lip13b                                       
  421.935  28%   0.332 MM14+Lip13a+Lip13b+MM12                             
 1.31E+03  11%   1.031 MM09+Lip09                                          
 2.63E+03  12%   2.065 MM20+Lip20                                          
   6 lines in following misc. output table
  FWHM = 0.054 ppm    S/N =  11                                            
  Data shift = 0.023 ppm                                                   
  Ph: -30 deg      -7.6 deg/ppm                                            
  alphaB,S = 8.5E+01,   2.9E+02                                            
   14 spline knots.   Ns = 8(1)                                            
   2 inflections.     1 extrema                                            
  498 points on ppm-axis = NY
      4.000000     3.992357     3.984714     3.977070     3.969427     3.961784     3.954141     3.946497     3.938854     3.931211
      3.923568     3.915925     3.908281     3.900638     3.892995     3.885352     3.877708     3.870065     3.862422     3.854779
      3.847136     3.839492     3.831849     3.824206     3.816563     3.808919     3.801276     3.793633     3.785990     3.778347
      3.770703     3.763060     3.755417     3.747774     3.740130     3.732487     3.724844     3.717201     3.709558     3.701914
      3.694271     3.686628     3.678985     3.671341     3.663698     3.656055     3.648412     3.640769     3.633125     3.625482
      3.617839     3.610196     3.602552     3.594909     3.587266     3.579623     3.571980     3.564336     3.556693     3.549050
      3.541407     3.533763     3.526120     3.518477     3.510834     3.503191     3.495547     3.487904     3.480261     3.472618
      3.464974     3.457331     3.449688     3.442045     3.434402     3.426758     3.419115     3.411472     3.403829     3.396185
      3.388542     3.380899     3.373256     3.365613     3.357969     3.350326     3.342683     3.335040     3.327396     3.319753
      3.312110     3.304467     3.296824     3.289180     3.281537     3.273894     3.266251     3.258607     3.250964     3.243321
      3.235678     3.228034     3.220391     3.212748     3.205105     3.197462     3.189818     3.182175     3.174532     3.166889
      3.159245     3.151602     3.143959     3.136316     3.128673     3.121029     3.113386     3.105743     3.098100     3.090456
      3.082813     3.075170     3.067527     3.059884     3.052240     3.044597     3.036954     3.029311     3.021667     3.014024
      3.006381     2.998738     2.991095     2.983451     2.975808     2.968165     2.960522     2.952878     2.945235     2.937592
      2.929949     2.922306     2.914662     2.907019     2.899376     2.891733     2.884089     2.876446     2.868803     2.861160
      2.853517     2.845873     2.838230     2.830587     2.822944     2.815300     2.807657     2.800014     2.792371     2.784728
      2.777084     2.769441     2.761798     2.754155     2.746511     2.738868     2.731225     2.723582     2.715939     2.708295
      2.700652     2.693009     2.685366     2.677722     2.670079     2.662436     2.654793     2.647150     2.639506     2.631863
      2.624220     2.616577     2.608933     2.601290     2.593647     2.586004     2.578361     2.570717     2.563074     2.555431
      2.547788     2.540144     2.532501     2.524858     2.517215     2.509572     2.501928     2.494285     2.486642     2.478999
      2.471355     2.463712     2.456069     2.448426     2.440783     2.433139     2.425496     2.417853     2.410210     2.402566
      2.394923     2.387280     2.379637     2.371994     2.364350     2.356707     2.349064     2.341421     2.333777     2.326134
      2.318491     2.310848     2.303205     2.295561     2.287918     2.280275     2.272632     2.264988     2.257345     2.249702
      2.242059     2.234416     2.226772     2.219129     2.211486     2.203843     2.196199     2.188556     2.180913     2.173270
      2.165627     2.157983     2.150340     2.142697     2.135054     2.127410     2.119767     2.112124     2.104481     2.096838
      2.089194     2.081551     2.073908     2.066265     2.058621     2.050978     2.043335     2.035692     2.028049     2.020405
      2.012762     2.005119     1.997476     1.989833     1.982190     1.974546     1.966903     1.959260     1.951617     1.943974
      1.936331     1.928688     1.921045     1.913402     1.905759     1.898115     1.890472     1.882829     1.875186     1.867543
      1.859900     1.852257     1.844614     1.836971     1.829327     1.821684     1.814041     1.806398     1.798755     1.791112
      1.783469     1.775826     1.768183     1.760540     1.752896     1.745253     1.737610     1.729967     1.722324     1.714681
      1.707038     1.699395     1.691752     1.684108     1.676465     1.668822     1.661179     1.653536     1.645893     1.638250
      1.630607     1.622964     1.615321     1.607677     1.600034     1.592391     1.584748     1.577105     1.569462     1.561819
      1.554176     1.546533     1.538890     1.531246     1.523603     1.515960     1.508317     1.500674     1.493031     1.485388
      1.477745     1.470102     1.462458     1.454815     1.447172     1.439529     1.431886     1.424243     1.416600     1.408957
      1.401314     1.393671     1.386027     1.378384     1.370741     1.363098     1.355455     1.347812     1.340169     1.332526
      1.324883     1.317240     1.309596     1.301953     1.294310     1.286667     1.279024     1.271381     1.263738     1.256095
      1.248452     1.240808     1.233165     1.225522     1.217879     1.210236     1.202593     1.194950     1.187307     1.179664
      1.172021     1.164377     1.156734     1.149091     1.141448     1.133805     1.126162     1.118519     1.110876     1.103233
      1.095590     1.087946     1.080303     1.072660     1.065017     1.057374     1.049731     1.042088     1.034445     1.026802
      1.019158     1.011515     1.003872     0.996229     0.988586     0.980943     0.973300     0.965657     0.958014     0.950371
      0.942727     0.935084     0.927441     0.919798     0.912155     0.904512     0.896869     0.889226     0.881583     0.873940
      0.866296     0.858653     0.851010     0.843367     0.835724     0.828081     0.820438     0.812795     0.805152     0.797508
      0.789865     0.782222     0.774579     0.766936     0.759293     0.751650     0.744007     0.736364     0.728721     0.721077
      0.713434     0.705791     0.698148     0.690505     0.682862     0.675219     0.667576     0.659933     0.652290     0.644646
      0.637003     0.629360     0.621717     0.614074     0.606431     0.598788     0.591145     0.583502     0.575858     0.568215
      0.560572     0.552929     0.545286     0.537643     0.530000     0.522357     0.514714     0.507071     0.499427     0.491784
      0.484141     0.476498     0.468855     0.461212     0.453569     0.445925     0.438282     0.430639     0.422996     0.415353
      0.407710     0.400067     0.392424     0.384780     0.377137     0.369494     0.361851     0.354208     0.346565     0.338922
      0.331278     0.323635     0.315992     0.308349     0.300706     0.293063     0.285420     0.277777     0.270133     0.262490
      0.254847     0.247204     0.239561     0.231918     0.224275     0.216631     0.208988     0.201345
 NY phased data points follow
  -7.50021E+00 -5.30564E+00 -3.81557E+00 -2.10529E+00 -5.02969E+00  2.24075E+00 -3.91037E-01  7.59342E+00  9.43187E+00  1.06270E+01
   7.69422E+00  1.32849E+01  1.01321E+01  1.56542E+01  7.67152E+00  9.88484E+00  1.36449E+00 -2.65827E+00 -3.69866E-03 -1.20567E+00
  -2.16071E+00 -4.72796E+00 -2.20723E+00 -5.27841E+00  1.42564E+00 -2.37885E+00 -2.74881E+00 -8.05067E-01  5.49086E-01  4.18975E+00
  -5.39884E-01  3.05767E+00 -1.57447E+00 -6.09937E-01  5.18273E-01  4.34650E-01 -1.32115E+00 -1.23099E+00 -3.74944E+00  5.80783E-01
  -1.06363E+00  3.49946E-01  6.12068E-01  1.87053E+00  1.74184E-01  5.01404E+00  8.06513E-01  5.39617E+00  6.93166E-01  2.86052E+00
   9.41415E-02  4.66823E+00 -4.19470E-01 -5.34324E+00  1.13634E+00 -1.43543E+00 -9.81195E-01 -4.95011E+00 -6.60872E-01  2.11964E+00
  -3.09623E+00 -6.81693E+00 -5.33643E+00 -5.75449E+00 -9.48820E+00 -6.16805E+00 -7.98976E+00 -7.26392E+00 -9.85295E+00 -5.32794E+00
  -5.47873E+00 -6.11101E+00 -5.93094E+00 -6.66503E+00 -7.62226E+00 -3.20872E+00 -2.07574E+00 -1.20507E+00 -5.51665E+00 -7.91467E+00
  -6.61145E+00 -6.96837E+00 -8.43034E+00 -2.57101E+00 -4.13873E+00 -6.02727E+00 -8.35649E+00 -4.26484E+00 -7.06245E+00 -2.41407E+00
  -1.24825E+00 -3.69359E+00 -7.62476E-01  1.51549E+00 -2.56991E+00  5.76083E+00  3.71427E+00  7.59478E+00  2.72529E+00  5.18084E+00
   9.82446E+00  1.48634E+01  2.04950E+01  2.18566E+01  2.00161E+01  1.68700E+01  1.56821E+01  6.13219E+00  5.23173E+00  4.44668E+00
   1.83510E+00  3.25533E+00 -5.43518E+00 -5.58339E-01 -2.10671E+00 -1.98316E+00 -2.77561E+00 -2.64739E+00  2.05243E-01  4.97976E-01
   6.26360E-01  8.98533E+00  6.43006E+00  1.39808E+01  2.14980E+01  2.85382E+01  3.25256E+01  3.81053E+01  3.43343E+01  3.05362E+01
   2.67569E+01  1.52347E+01  1.04557E+01  1.14103E+01  7.15320E+00  3.63405E+00  3.48803E+00  2.88951E+00  1.13089E+00  2.92081E+00
  -2.43592E+00  6.48166E-01  7.66536E-01 -6.44847E+00 -1.89736E+00  1.24394E+00 -2.40135E+00  1.80826E+00 -2.09451E+00 -1.08606E+00
  -1.22362E+00 -2.86735E+00 -3.93962E+00 -3.18952E+00 -4.51729E+00 -4.09093E+00 -1.68670E+00 -2.32774E+00 -5.24526E+00 -2.34826E+00
  -8.65069E+00 -4.12757E+00 -8.08077E+00 -7.42064E+00 -4.08360E+00  2.37582E-01 -5.36186E+00 -1.83173E+00 -8.65477E+00 -1.13488E+01
  -9.99898E+00 -2.45402E+00 -1.09062E+01 -6.03395E+00 -1.02502E+01 -1.11162E+01 -1.37106E+01 -1.44000E+01 -1.02277E+01 -5.05203E+00
  -1.56020E+01 -1.35405E+01 -6.62834E+00 -6.00024E+00 -4.60382E+00 -1.23170E+00 -6.86427E+00 -6.71288E+00 -5.86905E+00  8.62842E-01
  -4.01119E+00  3.57762E+00  3.61317E+00  6.67966E-01 -1.88987E+00 -4.52162E+00 -4.90931E+00 -4.69042E-01 -4.02919E+00 -1.00497E-01
  -1.97008E-01 -8.53125E-01 -6.99863E+00  6.44110E+00  8.87770E-01 -1.22265E+00 -1.56987E+00 -8.34291E-01 -2.64445E+00 -3.84125E+00
  -1.99445E+00  5.87364E-01 -1.84093E-02  6.35890E-01  3.72628E+00  6.48266E+00  7.79205E+00  8.00938E+00  5.03092E+00  7.35200E+00
  -6.85834E+00 -3.87278E-01 -6.84567E+00  5.26583E-01 -4.06932E+00  3.36820E+00  5.79672E+00  2.52885E+00  1.81711E+00  6.98650E+00
   4.61034E+00  2.52759E+00  2.70723E+00  1.06258E+00  5.16561E+00  7.73785E-01  6.48960E-01  7.78638E-01  6.27130E+00  4.19290E+00
   4.33827E+00  3.72375E+00  1.16912E-01  2.34803E+00 -1.78973E-02  8.15866E+00  6.43991E+00  1.43147E+00  1.08896E+01  1.01180E+01
   1.07764E+01  1.79460E+01  2.08795E+01  2.19070E+01  3.15458E+01  2.95350E+01  3.56409E+01  5.03557E+01  5.83984E+01  6.52244E+01
   7.54317E+01  7.63159E+01  6.77848E+01  5.50981E+01  3.51949E+01  3.03685E+01  1.52914E+01  1.55769E+01  1.03402E+01  8.50303E+00
   6.85412E+00  3.26034E+00  1.17645E+00  4.78466E+00  3.19470E+00  4.47260E+00  7.34912E-01 -9.56154E-01 -9.45033E-01 -6.36708E+00
  -4.73525E-01 -1.14131E+00 -7.07200E+00 -1.20671E+00  2.65155E+00 -1.00913E-01 -4.82914E+00 -7.56303E-01  6.74346E-01  3.22916E+00
   1.29242E+00  2.51244E+00 -1.80244E+00  2.41480E-01 -9.04860E-01 -5.83630E-01 -1.03570E+00 -6.95240E-02  8.08022E-01  3.06790E+00
  -3.75254E+00 -2.38760E+00  6.36997E+00  1.45669E+00  3.98110E+00  7.97296E+00 -1.31056E+00  2.73194E+00  4.37037E+00  1.29470E+00
   3.74036E+00  7.44539E+00 -2.85745E+00  1.87576E+00 -1.30833E+00  2.68928E+00  2.00150E+00  3.99315E+00  7.97503E-02  1.80762E+00
  -3.04305E+00  1.60117E+00 -2.36414E+00 -1.96358E+00 -4.94875E+00 -8.30176E-01 -4.85969E+00  1.64905E-01 -3.38534E+00 -3.47574E+00
  -1.19086E+01 -6.20634E+00 -1.05201E+01 -1.16432E+01 -1.19620E+01 -7.29197E+00 -8.63995E+00 -3.40298E+00 -8.06890E+00 -5.13889E+00
  -6.97214E+00 -1.27658E+00 -4.97097E+00 -5.97006E-01 -3.48185E+00 -3.50152E+00 -2.71708E-01 -2.35931E+00 -8.42454E+00 -5.32155E+00
  -5.82387E+00 -2.50470E+00  3.69409E-01 -1.19066E+00 -3.28863E+00  2.03284E+00  1.75934E+00  9.35024E-01 -4.09116E-01 -2.32661E-02
   3.66617E+00  9.09891E-01  1.98960E+00  6.18172E+00  5.86424E+00  7.30234E+00 -1.05736E-02  2.13116E+00  2.22196E+00  3.07361E+00
  -6.02009E-01  1.12455E+00  1.72675E+00 -1.59287E+00 -6.25692E-01  1.38216E+00  3.36403E+00 -4.23870E-01 -9.17612E-01  1.20133E+00
  -6.29475E-01  1.43325E+00  3.05849E+00 -6.61163E-01  1.96592E+00 -6.23239E-01 -1.07858E+00 -2.25554E+00 -3.04179E+00 -1.46898E+00
   4.49939E+00  6.80776E+00  1.07903E+00  2.45474E+00  4.92491E+00  3.46408E+00  3.15473E+00  4.54649E+00  4.23192E+00  8.80138E+00
   6.67276E+00  3.52654E+00  2.84898E+00  1.14531E+01  9.56205E+00  6.80425E+00  6.81344E+00  8.93056E+00  8.28921E+00  1.36022E+01
   1.07792E+01  9.86775E+00  6.45013E+00  9.14685E+00 -2.51081E+00  5.05580E+00  7.06266E+00  9.45408E+00  5.39626E+00  7.93931E+00
   7.36316E+00  4.70218E+00 -5.05220E-01 -2.44719E+00 -1.93063E-01  2.61573E+00  5.93175E-01 -6.00461E-01  2.72174E+00 -3.31032E+00
  -1.33904E+00 -2.64966E-01 -3.23646E+00  1.31929E-01 -4.79977E-01  4.14123E-01 -2.05705E-01 -3.81422E+00  3.42682E+00 -2.73816E+00
  -3.39835E+00 -1.06890E+00 -3.97972E-01  3.35659E+00  2.14872E-01  9.89503E-01  3.11221E+00 -1.71963E+00 -1.48865E+00 -8.59827E-01
  -1.92455E+00 -8.10778E-01 -1.08575E+00  6.13350E+00 -2.39435E+00 -5.39609E+00 -2.40348E+00 -2.47280E+00  2.52344E+00 -9.46283E+00
   1.46624E-01  1.11688E+00 -3.18227E+00  5.14187E-01 -6.40528E+00 -9.21092E-01  3.79474E+00 -4.94969E-01  2.83752E-01 -4.02589E-01
  -4.99692E-01  5.98910E+00  2.04753E+00  1.88014E+00 -1.88818E-01 -3.35470E+00 -2.77940E+00  3.20514E+00  1.82821E+00  2.32474E+00
  -3.08996E+00 -5.31897E+00 -4.72387E+00 -1.98607E+00  2.29017E+00 -4.14974E+00 -4.71396E-01 -1.27386E+00  5.06774E+00  3.89472E+00
  -3.22697E+00 -5.23798E+00 -1.69181E-01 -9.19234E-01 -6.18758E-01  2.49566E+00 -4.69043E+00  4.12012E+00
 NY points of the fit to the data follow
  -4.46915E+00 -4.37714E+00 -3.93502E+00 -2.98896E+00 -1.49683E+00  3.73855E-01  2.55391E+00  5.02077E+00  7.65018E+00  1.01195E+01
   1.19770E+01  1.28198E+01  1.24473E+01  1.09589E+01  8.72633E+00  6.23541E+00  3.89801E+00  1.94399E+00  4.01805E-01 -7.61500E-01
  -1.64666E+00 -2.19685E+00 -2.34421E+00 -2.30139E+00 -2.18311E+00 -1.98291E+00 -1.57558E+00 -8.63146E-01  1.28269E-01  1.29350E+00
   2.42413E+00  3.23453E+00  3.48788E+00  3.07037E+00  2.08431E+00  8.05180E-01 -5.05273E-01 -1.64330E+00 -2.45910E+00 -2.81081E+00
  -2.67533E+00 -2.24970E+00 -1.68759E+00 -1.07248E+00 -4.40455E-01  1.33988E-01  5.40212E-01  6.92261E-01  5.33702E-01  6.33304E-02
  -6.35129E-01 -1.41715E+00 -2.12293E+00 -2.65525E+00 -3.01357E+00 -3.22794E+00 -3.30375E+00 -3.25612E+00 -3.14550E+00 -3.04969E+00
  -3.02762E+00 -3.11230E+00 -3.30490E+00 -3.56208E+00 -3.80776E+00 -3.98314E+00 -4.06158E+00 -4.04885E+00 -3.96655E+00 -3.83829E+00
  -3.70020E+00 -3.58706E+00 -3.52437E+00 -3.52616E+00 -3.58616E+00 -3.68529E+00 -3.79745E+00 -3.89456E+00 -3.95504E+00 -3.98605E+00
  -4.02124E+00 -4.06493E+00 -4.10344E+00 -4.14262E+00 -4.20013E+00 -4.29092E+00 -4.41668E+00 -4.56611E+00 -4.70263E+00 -4.78738E+00
  -4.79364E+00 -4.71008E+00 -4.54163E+00 -4.27611E+00 -3.66894E+00 -2.20622E+00 -1.20948E-01  2.28387E+00  5.09609E+00  8.51879E+00
   1.24410E+01  1.63350E+01  1.94151E+01  2.08792E+01  2.02545E+01  1.76651E+01  1.37977E+01  9.58058E+00  5.77670E+00  2.72605E+00
   3.85339E-01 -1.38901E+00 -2.53391E+00 -2.93317E+00 -2.98170E+00 -2.92413E+00 -2.79408E+00 -2.54865E+00 -1.89482E+00 -2.70241E-02
   2.95237E+00  6.51110E+00  1.06568E+01  1.56515E+01  2.14031E+01  2.72439E+01  3.20964E+01  3.47598E+01  3.44299E+01  3.11365E+01
   2.57391E+01  1.95466E+01  1.37203E+01  8.84197E+00  4.92100E+00  1.76013E+00 -5.50119E-01 -1.67835E+00 -2.01147E+00 -2.02026E+00
  -1.87970E+00 -1.71123E+00 -1.60196E+00 -1.58430E+00 -1.65977E+00 -1.82347E+00 -2.04779E+00 -2.30293E+00 -2.56523E+00 -2.81080E+00
  -3.02544E+00 -3.20077E+00 -3.34856E+00 -3.52584E+00 -3.72754E+00 -3.92017E+00 -4.09310E+00 -4.24819E+00 -4.44094E+00 -4.68668E+00
  -4.92631E+00 -5.07849E+00 -5.10231E+00 -5.02389E+00 -4.92758E+00 -4.91979E+00 -5.07140E+00 -5.38899E+00 -5.83208E+00 -6.30254E+00
  -6.69587E+00 -7.02926E+00 -7.34360E+00 -7.67456E+00 -7.96409E+00 -8.10963E+00 -8.09779E+00 -7.96894E+00 -7.79121E+00 -7.65370E+00
  -7.55527E+00 -7.43290E+00 -7.23935E+00 -6.93919E+00 -6.51188E+00 -5.97442E+00 -5.34910E+00 -4.60176E+00 -3.71952E+00 -2.79473E+00
  -2.03385E+00 -1.58785E+00 -1.46290E+00 -1.55940E+00 -1.75814E+00 -1.93333E+00 -1.94573E+00 -1.73835E+00 -1.28390E+00 -6.15569E-01
   1.64608E-01  8.77924E-01  1.29806E+00  1.33877E+00  9.12971E-01 -5.86444E-02 -1.44999E+00 -2.94871E+00 -4.16975E+00 -4.85273E+00
  -4.87018E+00 -4.16985E+00 -2.85679E+00 -1.20607E+00  3.78640E-01  1.50695E+00  1.97908E+00  1.73450E+00  8.00812E-01 -6.15569E-01
  -2.11927E+00 -3.21604E+00 -3.62658E+00 -3.32260E+00 -2.39044E+00 -1.01207E+00  5.36211E-01  1.86198E+00  2.73568E+00  3.22583E+00
   3.47093E+00  3.56656E+00  3.59223E+00  3.67493E+00  3.90096E+00  4.25917E+00  4.69754E+00  5.14418E+00  5.48211E+00  5.60060E+00
   5.48814E+00  5.21950E+00  4.96036E+00  4.90240E+00  5.14348E+00  5.67361E+00  6.42135E+00  7.32804E+00  8.34885E+00  9.42473E+00
   1.05674E+01  1.21198E+01  1.53855E+01  2.08106E+01  2.72018E+01  3.41769E+01  4.21122E+01  5.10681E+01  6.01466E+01  6.77059E+01
   7.18174E+01  7.09505E+01  6.48081E+01  5.46293E+01  4.26693E+01  3.12391E+01  2.17578E+01  1.44166E+01  8.74556E+00  4.55122E+00
   2.27030E+00  1.49931E+00  1.14404E+00  9.15110E-01  7.46734E-01  5.90514E-01  4.14365E-01  2.17770E-01  6.21740E-03 -2.05556E-01
  -4.02129E-01 -5.73810E-01 -7.16791E-01 -8.25680E-01 -8.97328E-01 -9.36166E-01 -9.48007E-01 -9.34068E-01 -8.90705E-01 -8.13606E-01
  -7.01654E-01 -5.55417E-01 -3.74024E-01 -1.59078E-01  8.47504E-02  3.51499E-01  6.35382E-01  9.30315E-01  1.22934E+00  1.52485E+00
   1.80813E+00  2.06966E+00  2.29995E+00  2.48946E+00  2.62961E+00  2.71398E+00  2.73864E+00  2.70260E+00  2.60740E+00  2.45712E+00
   2.25837E+00  2.01956E+00  1.75022E+00  1.46116E+00  1.16370E+00  8.69597E-01  5.91012E-01  3.41557E-01  1.39932E-01  1.77374E-02
  -3.41820E-02 -8.92917E-02 -1.61551E-01 -2.42193E-01 -3.54654E-01 -5.63310E-01 -9.39998E-01 -1.49558E+00 -2.13577E+00 -2.78086E+00
  -3.33764E+00 -3.68711E+00 -3.73096E+00 -3.44881E+00 -2.90507E+00 -2.21475E+00 -1.50595E+00 -8.90325E-01 -4.68010E-01 -2.92070E-01
  -3.01198E-01 -4.04627E-01 -5.35004E-01 -6.65200E-01 -7.91862E-01 -8.90480E-01 -9.20682E-01 -9.02610E-01 -8.57021E-01 -7.92400E-01
  -7.13300E-01 -6.22678E-01 -5.22915E-01 -4.16009E-01 -3.03967E-01 -1.88773E-01 -7.26219E-02  4.22914E-02  1.53672E-01  2.59362E-01
   3.57197E-01  4.45232E-01  5.21651E-01  5.85069E-01  6.34450E-01  6.69334E-01  6.89650E-01  6.95892E-01  6.88958E-01  6.70332E-01
   6.41867E-01  6.05866E-01  5.64794E-01  5.21364E-01  4.78319E-01  4.38563E-01  4.04911E-01  3.80186E-01  3.66986E-01  3.67870E-01
   3.85218E-01  4.21438E-01  4.78790E-01  5.59556E-01  6.65871E-01  7.99939E-01  9.63873E-01  1.15982E+00  1.38970E+00  1.65521E+00
   1.95756E+00  2.29745E+00  2.67475E+00  3.08841E+00  3.53605E+00  4.01391E+00  4.51654E+00  5.03694E+00  5.56636E+00  6.09459E+00
   6.60995E+00  7.09986E+00  7.55109E+00  7.95060E+00  8.28589E+00  8.54582E+00  8.72100E+00  8.80456E+00  8.79238E+00  8.68355E+00
   8.48027E+00  8.18791E+00  7.81451E+00  7.37059E+00  6.86840E+00  6.32150E+00  5.74382E+00  5.14923E+00  4.55078E+00  3.96039E+00
   3.38831E+00  2.84308E+00  2.33120E+00  1.85729E+00  1.42409E+00  1.03281E+00  6.83214E-01  3.74025E-01  1.03015E-01 -1.32562E-01
  -3.35885E-01 -5.10179E-01 -6.58748E-01 -7.84708E-01 -8.91081E-01 -9.80555E-01 -1.05560E+00 -1.11830E+00 -1.17054E+00 -1.21387E+00
  -1.24972E+00 -1.27922E+00 -1.30337E+00 -1.32291E+00 -1.33856E+00 -1.35086E+00 -1.36034E+00 -1.36737E+00 -1.37230E+00 -1.37534E+00
  -1.37679E+00 -1.37680E+00 -1.37562E+00 -1.37334E+00 -1.37010E+00 -1.36596E+00 -1.36106E+00 -1.35546E+00 -1.34928E+00 -1.34254E+00
  -1.33529E+00 -1.32756E+00 -1.31943E+00 -1.31092E+00 -1.30211E+00 -1.29295E+00 -1.28351E+00 -1.27377E+00 -1.26381E+00 -1.25362E+00
  -1.24325E+00 -1.23265E+00 -1.22186E+00 -1.21087E+00 -1.19974E+00 -1.18845E+00 -1.17703E+00 -1.16542E+00 -1.15368E+00 -1.14178E+00
  -1.12979E+00 -1.11766E+00 -1.10540E+00 -1.09296E+00 -1.08041E+00 -1.06771E+00 -1.05490E+00 -1.04193E+00 -1.02881E+00 -1.01549E+00
  -1.00202E+00 -9.88374E-01 -9.74561E-01 -9.60506E-01 -9.46221E-01 -9.31650E-01 -9.16831E-01 -9.01694E-01
 NY background values follow
    -5.912E+00   -5.901E+00   -5.890E+00   -5.879E+00   -5.869E+00   -5.858E+00   -5.847E+00   -5.836E+00   -5.826E+00   -5.815E+00
    -5.804E+00   -5.793E+00   -5.783E+00   -5.772E+00   -5.761E+00   -5.750E+00   -5.740E+00   -5.729E+00   -5.718E+00   -5.707E+00
    -5.696E+00   -5.686E+00   -5.675E+00   -5.664E+00   -5.653E+00   -5.642E+00   -5.632E+00   -5.621E+00   -5.610E+00   -5.599E+00
    -5.588E+00   -5.578E+00   -5.567E+00   -5.556E+00   -5.545E+00   -5.534E+00   -5.523E+00   -5.513E+00   -5.502E+00   -5.491E+00
    -5.480E+00   -5.469E+00   -5.458E+00   -5.448E+00   -5.437E+00   -5.426E+00   -5.415E+00   -5.404E+00   -5.393E+00   -5.382E+00
    -5.372E+00   -5.361E+00   -5.350E+00   -5.339E+00   -5.328E+00   -5.317E+00   -5.306E+00   -5.295E+00   -5.284E+00   -5.274E+00
    -5.263E+00   -5.252E+00   -5.241E+00   -5.230E+00   -5.219E+00   -5.208E+00   -5.197E+00   -5.186E+00   -5.175E+00   -5.165E+00
    -5.154E+00   -5.143E+00   -5.132E+00   -5.121E+00   -5.110E+00   -5.099E+00   -5.088E+00   -5.077E+00   -5.066E+00   -5.055E+00
    -5.044E+00   -5.033E+00   -5.022E+00   -5.011E+00   -5.000E+00   -4.989E+00   -4.979E+00   -4.968E+00   -4.957E+00   -4.946E+00
    -4.935E+00   -4.924E+00   -4.913E+00   -4.902E+00   -4.891E+00   -4.880E+00   -4.869E+00   -4.858E+00   -4.847E+00   -4.836E+00
    -4.825E+00   -4.814E+00   -4.803E+00   -4.792E+00   -4.781E+00   -4.770E+00   -4.759E+00   -4.748E+00   -4.737E+00   -4.726E+00
    -4.715E+00   -4.704E+00   -4.693E+00   -4.682E+00   -4.671E+00   -4.660E+00   -4.649E+00   -4.638E+00   -4.627E+00   -4.616E+00
    -4.605E+00   -4.594E+00   -4.583E+00   -4.572E+00   -4.561E+00   -4.550E+00   -4.539E+00   -4.528E+00   -4.516E+00   -4.505E+00
    -4.494E+00   -4.483E+00   -4.472E+00   -4.461E+00   -4.450E+00   -4.439E+00   -4.428E+00   -4.417E+00   -4.406E+00   -4.395E+00
    -4.384E+00   -4.373E+00   -4.362E+00   -4.351E+00   -4.340E+00   -4.329E+00   -4.317E+00   -4.306E+00   -4.295E+00   -4.284E+00
    -4.273E+00   -4.262E+00   -4.251E+00   -4.240E+00   -4.229E+00   -4.218E+00   -4.207E+00   -4.196E+00   -4.185E+00   -4.173E+00
    -4.162E+00   -4.151E+00   -4.140E+00   -4.129E+00   -4.118E+00   -4.107E+00   -4.096E+00   -4.085E+00   -4.074E+00   -4.063E+00
    -4.051E+00   -4.040E+00   -4.029E+00   -4.018E+00   -4.007E+00   -3.996E+00   -3.985E+00   -3.974E+00   -3.963E+00   -3.951E+00
    -3.940E+00   -3.929E+00   -3.918E+00   -3.907E+00   -3.896E+00   -3.885E+00   -3.874E+00   -3.863E+00   -3.851E+00   -3.840E+00
    -3.829E+00   -3.818E+00   -3.807E+00   -3.796E+00   -3.785E+00   -3.774E+00   -3.762E+00   -3.751E+00   -3.740E+00   -3.729E+00
    -3.718E+00   -3.707E+00   -3.696E+00   -3.684E+00   -3.673E+00   -3.662E+00   -3.651E+00   -3.640E+00   -3.629E+00   -3.618E+00
    -3.606E+00   -3.595E+00   -3.584E+00   -3.573E+00   -3.562E+00   -3.551E+00   -3.540E+00   -3.528E+00   -3.517E+00   -3.506E+00
    -3.495E+00   -3.484E+00   -3.473E+00   -3.462E+00   -3.450E+00   -3.439E+00   -3.428E+00   -3.417E+00   -3.406E+00   -3.395E+00
    -3.384E+00   -3.372E+00   -3.361E+00   -3.350E+00   -3.339E+00   -3.328E+00   -3.317E+00   -3.305E+00   -3.294E+00   -3.283E+00
    -3.272E+00   -3.261E+00   -3.250E+00   -3.239E+00   -3.227E+00   -3.216E+00   -3.205E+00   -3.194E+00   -3.183E+00   -3.172E+00
    -3.160E+00   -3.149E+00   -3.138E+00   -3.127E+00   -3.116E+00   -3.105E+00   -3.093E+00   -3.082E+00   -3.071E+00   -3.060E+00
    -3.049E+00   -3.038E+00   -3.026E+00   -3.015E+00   -3.004E+00   -2.993E+00   -2.982E+00   -2.971E+00   -2.959E+00   -2.948E+00
    -2.937E+00   -2.926E+00   -2.915E+00   -2.904E+00   -2.892E+00   -2.881E+00   -2.870E+00   -2.859E+00   -2.848E+00   -2.837E+00
    -2.826E+00   -2.814E+00   -2.803E+00   -2.792E+00   -2.781E+00   -2.770E+00   -2.759E+00   -2.747E+00   -2.736E+00   -2.725E+00
    -2.714E+00   -2.703E+00   -2.692E+00   -2.680E+00   -2.669E+00   -2.658E+00   -2.647E+00   -2.636E+00   -2.625E+00   -2.613E+00
    -2.602E+00   -2.591E+00   -2.580E+00   -2.569E+00   -2.558E+00   -2.546E+00   -2.535E+00   -2.524E+00   -2.513E+00   -2.502E+00
    -2.491E+00   -2.480E+00   -2.468E+00   -2.457E+00   -2.446E+00   -2.435E+00   -2.424E+00   -2.413E+00   -2.401E+00   -2.390E+00
    -2.379E+00   -2.368E+00   -2.357E+00   -2.346E+00   -2.335E+00   -2.323E+00   -2.312E+00   -2.301E+00   -2.290E+00   -2.279E+00
    -2.268E+00   -2.256E+00   -2.245E+00   -2.234E+00   -2.223E+00   -2.212E+00   -2.201E+00   -2.190E+00   -2.178E+00   -2.167E+00
    -2.156E+00   -2.145E+00   -2.134E+00   -2.123E+00   -2.112E+00   -2.101E+00   -2.089E+00   -2.078E+00   -2.067E+00   -2.056E+00
    -2.045E+00   -2.034E+00   -2.023E+00   -2.011E+00   -2.000E+00   -1.989E+00   -1.978E+00   -1.967E+00   -1.956E+00   -1.945E+00
    -1.934E+00   -1.922E+00   -1.911E+00   -1.900E+00   -1.889E+00   -1.878E+00   -1.867E+00   -1.856E+00   -1.845E+00   -1.834E+00
    -1.822E+00   -1.811E+00   -1.800E+00   -1.789E+00   -1.778E+00   -1.767E+00   -1.756E+00   -1.745E+00   -1.734E+00   -1.722E+00
    -1.711E+00   -1.700E+00   -1.689E+00   -1.678E+00   -1.667E+00   -1.656E+00   -1.645E+00   -1.634E+00   -1.623E+00   -1.612E+00
    -1.600E+00   -1.589E+00   -1.578E+00   -1.567E+00   -1.556E+00   -1.545E+00   -1.534E+00   -1.523E+00   -1.512E+00   -1.501E+00
    -1.490E+00   -1.479E+00   -1.468E+00   -1.456E+00   -1.445E+00   -1.434E+00   -1.423E+00   -1.412E+00   -1.401E+00   -1.390E+00
    -1.379E+00   -1.368E+00   -1.357E+00   -1.346E+00   -1.335E+00   -1.324E+00   -1.313E+00   -1.302E+00   -1.291E+00   -1.280E+00
    -1.269E+00   -1.258E+00   -1.247E+00   -1.235E+00   -1.224E+00   -1.213E+00   -1.202E+00   -1.191E+00   -1.180E+00   -1.169E+00
    -1.158E+00   -1.147E+00   -1.136E+00   -1.125E+00   -1.114E+00   -1.103E+00   -1.092E+00   -1.081E+00   -1.070E+00   -1.059E+00
    -1.048E+00   -1.037E+00   -1.026E+00   -1.015E+00   -1.004E+00   -9.932E-01   -9.823E-01   -9.713E-01   -9.603E-01   -9.493E-01
    -9.383E-01   -9.273E-01   -9.164E-01   -9.054E-01   -8.944E-01   -8.835E-01   -8.725E-01   -8.615E-01   -8.506E-01   -8.396E-01
    -8.286E-01   -8.177E-01   -8.067E-01   -7.958E-01   -7.848E-01   -7.739E-01   -7.629E-01   -7.520E-01   -7.411E-01   -7.301E-01
    -7.192E-01   -7.082E-01   -6.973E-01   -6.864E-01   -6.755E-01   -6.645E-01   -6.536E-01   -6.427E-01   -6.318E-01   -6.209E-01
    -6.100E-01   -5.991E-01   -5.881E-01   -5.772E-01   -5.663E-01   -5.554E-01   -5.445E-01   -5.337E-01   -5.228E-01   -5.119E-01
    -5.010E-01   -4.901E-01   -4.792E-01   -4.684E-01   -4.575E-01   -4.466E-01   -4.357E-01   -4.249E-01
 Ala      Conc. = 1.98E+02
