 LCModel (Version 6.3-1L) Copyright: S.W. Provencher.          Ref.: Magn. Reson. Med. 30:672-679 (1993).                
 Slice#3 Row#8 Col#7  PD_05_press_2_raw_act
 36 lines in following concentration table = NCONC+1
    Conc.  %SD /Cr+PCr  Metabolite                                         
    0.000 999%   0.000 Ala                                                 
    0.000 999%   0.000 Asp                                                 
 1.30E+03  40%   0.362 Cr                                                  
 2.29E+03  23%   0.638 PCr                                                 
  105.745 302% 3.0E-02 GABA                                                
    0.000 999%   0.000 Glc                                                 
 2.08E+03  26%   0.580 Gln                                                 
 3.79E+03  17%   1.058 Glu                                                 
  773.185   6%   0.216 GPC                                                 
    0.000 999%   0.000 PCh                                                 
 1.44E+03  11%   0.403 GSH                                                 
 2.47E+03  22%   0.688 Ins                                                 
  263.979 108% 7.4E-02 Lac                                                 
 4.48E+03   3%   1.249 NAA                                                 
    0.000 999%   0.000 NAAG                                                
  119.008  46% 3.3E-02 Scyllo                                              
    0.000 999%   0.000 Tau                                                 
    0.000 999%   0.000 -CrCH2                                              
  773.185   6%   0.216 GPC+PCh                                             
 4.48E+03   3%   1.249 NAA+NAAG                                            
 3.58E+03   3%   1.000 Cr+PCr                                              
 5.87E+03  16%   1.638 Glu+Gln                                             
 4.89E+03  20%   1.364 Lip13a                                              
    0.000 999%   0.000 Lip13b                                              
    0.000 999%   0.000 Lip09                                               
 2.42E+03  16%   0.676 MM09                                                
  445.119  92%   0.124 Lip20                                               
 4.40E+03  16%   1.228 MM20                                                
  839.895  30%   0.234 MM12                                                
 6.82E+03   6%   1.903+MM14                                                
 2.01E+03  23%   0.560 MM17                                                
 4.89E+03  20%   1.364 Lip13a+Lip13b                                       
 1.25E+04   7%   3.501 MM14+Lip13a+Lip13b+MM12                             
 2.42E+03  16%   0.676 MM09+Lip09                                          
 4.85E+03  15%   1.352 MM20+Lip20                                          
   6 lines in following misc. output table
  FWHM = 0.054 ppm    S/N =  10                                            
  Data shift = 0.000 ppm                                                   
  Ph:  -6 deg      -3.7 deg/ppm                                            
  alphaB,S = 1.4E+00,   1.8E+02                                            
   14 spline knots.   Ns = 7(1)                                            
  (13) 4 infls.   (11) 1 extrs.                                            
  498 points on ppm-axis = NY
      4.000000     3.992357     3.984714     3.977070     3.969427     3.961784     3.954141     3.946497     3.938854     3.931211
      3.923568     3.915925     3.908281     3.900638     3.892995     3.885352     3.877708     3.870065     3.862422     3.854779
      3.847136     3.839492     3.831849     3.824206     3.816563     3.808919     3.801276     3.793633     3.785990     3.778347
      3.770703     3.763060     3.755417     3.747774     3.740130     3.732487     3.724844     3.717201     3.709558     3.701914
      3.694271     3.686628     3.678985     3.671341     3.663698     3.656055     3.648412     3.640769     3.633125     3.625482
      3.617839     3.610196     3.602552     3.594909     3.587266     3.579623     3.571980     3.564336     3.556693     3.549050
      3.541407     3.533763     3.526120     3.518477     3.510834     3.503191     3.495547     3.487904     3.480261     3.472618
      3.464974     3.457331     3.449688     3.442045     3.434402     3.426758     3.419115     3.411472     3.403829     3.396185
      3.388542     3.380899     3.373256     3.365613     3.357969     3.350326     3.342683     3.335040     3.327396     3.319753
      3.312110     3.304467     3.296824     3.289180     3.281537     3.273894     3.266251     3.258607     3.250964     3.243321
      3.235678     3.228034     3.220391     3.212748     3.205105     3.197462     3.189818     3.182175     3.174532     3.166889
      3.159245     3.151602     3.143959     3.136316     3.128673     3.121029     3.113386     3.105743     3.098100     3.090456
      3.082813     3.075170     3.067527     3.059884     3.052240     3.044597     3.036954     3.029311     3.021667     3.014024
      3.006381     2.998738     2.991095     2.983451     2.975808     2.968165     2.960522     2.952878     2.945235     2.937592
      2.929949     2.922306     2.914662     2.907019     2.899376     2.891733     2.884089     2.876446     2.868803     2.861160
      2.853517     2.845873     2.838230     2.830587     2.822944     2.815300     2.807657     2.800014     2.792371     2.784728
      2.777084     2.769441     2.761798     2.754155     2.746511     2.738868     2.731225     2.723582     2.715939     2.708295
      2.700652     2.693009     2.685366     2.677722     2.670079     2.662436     2.654793     2.647150     2.639506     2.631863
      2.624220     2.616577     2.608933     2.601290     2.593647     2.586004     2.578361     2.570717     2.563074     2.555431
      2.547788     2.540144     2.532501     2.524858     2.517215     2.509572     2.501928     2.494285     2.486642     2.478999
      2.471355     2.463712     2.456069     2.448426     2.440783     2.433139     2.425496     2.417853     2.410210     2.402566
      2.394923     2.387280     2.379637     2.371994     2.364350     2.356707     2.349064     2.341421     2.333777     2.326134
      2.318491     2.310848     2.303205     2.295561     2.287918     2.280275     2.272632     2.264988     2.257345     2.249702
      2.242059     2.234416     2.226772     2.219129     2.211486     2.203843     2.196199     2.188556     2.180913     2.173270
      2.165627     2.157983     2.150340     2.142697     2.135054     2.127410     2.119767     2.112124     2.104481     2.096838
      2.089194     2.081551     2.073908     2.066265     2.058621     2.050978     2.043335     2.035692     2.028049     2.020405
      2.012762     2.005119     1.997476     1.989833     1.982190     1.974546     1.966903     1.959260     1.951617     1.943974
      1.936331     1.928688     1.921045     1.913402     1.905759     1.898115     1.890472     1.882829     1.875186     1.867543
      1.859900     1.852257     1.844614     1.836971     1.829327     1.821684     1.814041     1.806398     1.798755     1.791112
      1.783469     1.775826     1.768183     1.760540     1.752896     1.745253     1.737610     1.729967     1.722324     1.714681
      1.707038     1.699395     1.691752     1.684108     1.676465     1.668822     1.661179     1.653536     1.645893     1.638250
      1.630607     1.622964     1.615321     1.607677     1.600034     1.592391     1.584748     1.577105     1.569462     1.561819
      1.554176     1.546533     1.538890     1.531246     1.523603     1.515960     1.508317     1.500674     1.493031     1.485388
      1.477745     1.470102     1.462458     1.454815     1.447172     1.439529     1.431886     1.424243     1.416600     1.408957
      1.401314     1.393671     1.386027     1.378384     1.370741     1.363098     1.355455     1.347812     1.340169     1.332526
      1.324883     1.317240     1.309596     1.301953     1.294310     1.286667     1.279024     1.271381     1.263738     1.256095
      1.248452     1.240808     1.233165     1.225522     1.217879     1.210236     1.202593     1.194950     1.187307     1.179664
      1.172021     1.164377     1.156734     1.149091     1.141448     1.133805     1.126162     1.118519     1.110876     1.103233
      1.095590     1.087946     1.080303     1.072660     1.065017     1.057374     1.049731     1.042088     1.034445     1.026802
      1.019158     1.011515     1.003872     0.996229     0.988586     0.980943     0.973300     0.965657     0.958014     0.950371
      0.942727     0.935084     0.927441     0.919798     0.912155     0.904512     0.896869     0.889226     0.881583     0.873940
      0.866296     0.858653     0.851010     0.843367     0.835724     0.828081     0.820438     0.812795     0.805152     0.797508
      0.789865     0.782222     0.774579     0.766936     0.759293     0.751650     0.744007     0.736364     0.728721     0.721077
      0.713434     0.705791     0.698148     0.690505     0.682862     0.675219     0.667576     0.659933     0.652290     0.644646
      0.637003     0.629360     0.621717     0.614074     0.606431     0.598788     0.591145     0.583502     0.575858     0.568215
      0.560572     0.552929     0.545286     0.537643     0.530000     0.522357     0.514714     0.507071     0.499427     0.491784
      0.484141     0.476498     0.468855     0.461212     0.453569     0.445925     0.438282     0.430639     0.422996     0.415353
      0.407710     0.400067     0.392424     0.384780     0.377137     0.369494     0.361851     0.354208     0.346565     0.338922
      0.331278     0.323635     0.315992     0.308349     0.300706     0.293063     0.285420     0.277777     0.270133     0.262490
      0.254847     0.247204     0.239561     0.231918     0.224275     0.216631     0.208988     0.201345
 NY phased data points follow
   4.99968E+01  4.49566E+01  3.62932E+01  4.86538E+01  6.07944E+01  7.51642E+01  7.86775E+01  8.52958E+01  1.12372E+02  1.18810E+02
   1.24282E+02  1.31452E+02  1.02783E+02  1.09849E+02  9.78126E+01  7.88545E+01  7.14884E+01  7.06503E+01  6.19254E+01  6.26803E+01
   5.12697E+01  7.57125E+01  4.82999E+01  6.23122E+01  6.09685E+01  5.86275E+01  5.93700E+01  5.95392E+01  6.40589E+01  7.47015E+01
   6.84453E+01  8.00755E+01  6.34630E+01  7.13834E+01  6.57974E+01  5.05853E+01  5.93534E+01  5.80932E+01  4.64217E+01  6.41170E+01
   4.73648E+01  5.41155E+01  4.91372E+01  4.70970E+01  4.50934E+01  5.98721E+01  6.32356E+01  6.26875E+01  5.96327E+01  6.23630E+01
   4.73706E+01  5.64881E+01  4.09150E+01  4.91782E+01  4.44033E+01  5.05392E+01  5.55521E+01  4.18028E+01  4.39039E+01  4.15974E+01
   4.24208E+01  2.96300E+01  3.59029E+01  2.88681E+01  2.05927E+01  3.78131E+01  2.14760E+01  2.59020E+01  1.83421E+01  2.10585E+01
   1.98059E+01  2.55025E+01  2.50988E+01  3.26477E+01  1.98495E+01  2.59128E+01  2.64415E+01  3.11083E+01  3.38437E+01  2.17079E+01
   1.87798E+01  2.60812E+01  1.93619E+01  2.48512E+01  2.28534E+01  2.81853E+01  3.08910E+01  3.55844E+01  2.51360E+01  2.98928E+01
   2.03445E+01  2.24569E+01  2.79642E+01  3.03709E+01  2.29198E+01  2.57737E+01  2.39577E+01  2.49301E+01  3.05975E+01  4.89884E+01
   5.55351E+01  6.91667E+01  8.04635E+01  8.48916E+01  8.38542E+01  8.45336E+01  6.53247E+01  6.13131E+01  5.03033E+01  3.96249E+01
   3.79611E+01  2.85075E+01  3.44563E+01  3.96693E+01  2.72506E+01  2.20290E+01  2.45881E+01  3.32968E+01  1.74978E+01  2.02335E+01
   2.17869E+01  3.09450E+01  4.24477E+01  5.90470E+01  8.06731E+01  1.07617E+02  1.13804E+02  1.30178E+02  1.28331E+02  1.22727E+02
   1.00535E+02  8.11893E+01  7.39387E+01  5.61171E+01  4.58506E+01  4.10681E+01  2.47670E+01  2.88150E+01  1.52922E+01  1.47136E+01
   1.52190E+01  1.95030E+01  9.74391E+00  1.87591E+01  1.81812E+01  2.32063E+01  1.44103E+01  2.35560E+01  1.84540E+01  8.89192E+00
   1.52157E+01  1.34893E+01  9.22965E+00  1.47234E+01  9.91749E+00  1.53200E+01  9.06436E+00  7.44335E+00  5.20679E+00  5.28944E+00
   1.31412E+01  7.43063E+00  8.09631E+00  5.38766E+00  2.88550E+00  2.21121E+00  8.51468E+00  1.93818E+01 -4.94504E+00  7.83218E+00
   1.16173E+01 -6.90370E+00 -1.53168E+01 -4.43893E+00 -1.19334E+01 -1.54504E+01 -1.11580E+01 -4.56133E+00 -1.45191E+01 -1.07575E+01
  -1.24835E+01 -2.20827E+01 -1.87202E+01 -1.19271E+01 -1.71461E+01 -7.23651E+00 -5.85085E+00 -4.85965E+00  8.90061E+00  1.66595E+01
   1.12505E+01  1.84204E+01  1.72416E+01  1.99847E+01  2.19372E+01  1.41013E+01  5.94826E+00  2.87235E+00 -1.68659E+00  6.50566E+00
   4.76887E+00  1.56160E+01  2.24559E+01  1.22930E+01  2.42368E+01  1.90077E+01  7.54844E+00  8.91988E+00  1.31804E+00  4.44709E+00
  -3.85616E+00 -2.07359E+00  4.78936E+00 -1.66190E+00  2.76934E+01  2.59392E+01  3.31014E+01  1.65173E+01  2.21066E+01  1.33788E+01
  -7.88987E-01  8.79727E+00  2.91235E+00  7.68515E+00  4.17842E+00  1.62428E+01  1.11812E+01  1.60130E+01  1.81417E+01  2.20993E+01
   2.45535E+01  1.58632E+01  2.00725E+01  1.72698E+01  2.39817E+01  1.91106E+01  2.03773E+01  1.43860E+01  2.10494E+01  1.68948E+01
   7.64216E+00  1.75558E+01  2.71774E+00  9.78454E+00  1.19389E+01  2.79501E+01  1.25908E+01  2.38468E+01  2.50319E+01  3.62904E+01
   3.48506E+01  3.10646E+01  3.05337E+01  3.28033E+01  3.68377E+01  5.44625E+01  6.26658E+01  8.26517E+01  1.22309E+02  1.57609E+02
   1.75577E+02  1.63221E+02  1.33527E+02  1.18144E+02  9.49906E+01  6.97701E+01  5.92181E+01  4.08564E+01  3.11695E+01  2.77187E+01
   2.42011E+01  2.08745E+01  1.61903E+01  1.93192E+01  1.08943E+01  2.32905E+01  1.58201E+01  1.51624E+01  2.07886E+01  1.72586E+01
   9.24587E+00  1.01075E+01  1.44376E+01  1.73313E+01  8.01723E+00  1.27821E+01 -2.95208E+00  2.15010E+01  1.06061E+01  7.82665E+00
   1.84608E+01  8.57035E+00  5.87771E+00  1.15330E+01  7.94318E+00  1.46968E+01  2.86562E+01  1.97787E+01  8.30542E+00  9.80980E+00
   9.85495E+00  1.67363E+01  1.21566E+01  2.37733E+01  8.48758E+00  2.06310E+01  1.66156E+01  1.82813E+01  2.54262E+01  2.32638E+01
   2.13981E+01  2.95980E+01  2.02815E+01  2.01849E+01  2.95246E+01  3.01669E+01  2.86989E+01  2.74190E+01  3.03731E+01  2.79529E+01
   3.04089E+01  3.23775E+01  2.88213E+01  4.12168E+01  5.00521E+01  4.70680E+01  5.79252E+01  5.78576E+01  5.86693E+01  7.38882E+01
   6.43157E+01  7.69427E+01  6.90501E+01  7.23749E+01  6.07268E+01  5.64704E+01  6.13397E+01  6.13680E+01  4.76709E+01  4.76200E+01
   4.93923E+01  3.83507E+01  4.13298E+01  3.87254E+01  4.45034E+01  3.14145E+01  3.64608E+01  3.59896E+01  2.39479E+01  3.10995E+01
   3.07195E+01  2.47419E+01  1.95918E+01  2.72176E+01  2.77714E+01  3.17343E+01  2.71590E+01  3.96757E+01  2.24572E+01  3.30942E+01
   2.50550E+01  2.29911E+01  1.84050E+01  2.16818E+01  2.28506E+01  2.77605E+01  2.05206E+01  2.45666E+01  2.58227E+01  2.28268E+01
   2.33548E+01  2.11285E+01  2.64593E+01  1.97650E+01  2.33900E+01  1.37584E+01  1.85846E+01  1.55349E+01  2.49794E+01  1.57799E+01
   1.63394E+01  1.48516E+01  6.23362E+00  7.97577E+00  7.25124E+00  5.57543E+00  5.49466E+00  1.11933E+01  1.50501E+01  6.31325E+00
   1.31496E+01  8.05282E+00  6.67128E+00  1.23398E+01  2.05841E+01  2.15729E+01  1.64323E+01  5.40586E+00  1.01688E+01  9.64041E+00
   1.15527E+01  1.26254E+01  6.22306E+00  1.98964E+01  1.71866E+01  1.00667E+01  1.27156E+01  1.16923E+01  1.02613E+01  1.43515E+01
   1.95629E+01  1.97434E+01  9.34793E+00  4.74476E+00  1.10357E+01  1.57388E+01  1.34517E+01  1.20050E+01  8.66275E+00  6.19748E+00
   8.90709E+00  6.15896E+00  1.83580E+01  9.56127E+00  4.99299E+00  1.32541E+01  4.11878E+00  6.78986E+00  1.83096E+00  1.08636E+01
   8.98356E+00  7.76151E+00  3.63070E+00  1.01926E+01  1.36353E+01  9.66059E+00 -8.37804E+00  1.48145E+01  3.95303E+00  7.58313E+00
   1.11469E+00 -2.62017E+00  9.61551E+00  5.19900E+00  4.06072E+00 -3.22742E+00  3.73592E+00 -1.41597E+00  2.88395E+00  5.81616E-01
  -2.51479E+00 -1.07832E+01  4.61610E+00  7.25477E+00  8.65665E-01  6.00178E+00 -2.18083E+00  2.78879E+00  9.85664E+00 -4.49010E-01
   1.13440E+01 -1.59650E+00  5.53014E+00  3.08102E+00 -3.22007E+00  1.67325E+00  3.95463E+00  5.13454E+00  5.45130E-01  4.32935E+00
   1.74687E+00  6.47679E+00  2.08982E+00  3.75686E+00  8.57009E+00  1.52483E+00 -2.90081E+00  5.50016E+00  6.50439E-01  8.19295E+00
   1.09090E+00  3.69835E+00  6.30549E+00  6.92805E+00  3.30100E+00  3.85060E+00  3.07985E+00  4.64982E+00  3.06271E+00  9.44323E+00
   5.90189E+00  1.29304E+01  8.50595E+00  3.03202E+00  8.63285E+00  1.20697E+01  5.28930E-01  1.17434E+01
 NY points of the fit to the data follow
   4.99882E+01  4.89723E+01  4.92606E+01  5.16963E+01  5.68763E+01  6.53085E+01  7.68344E+01  9.05513E+01  1.04322E+02  1.15036E+02
   1.19991E+02  1.18337E+02  1.11361E+02  1.01547E+02  9.11969E+01  8.15924E+01  7.28979E+01  6.48545E+01  5.81265E+01  5.38533E+01
   5.14553E+01  5.01001E+01  4.90302E+01  4.86323E+01  4.91286E+01  5.08183E+01  5.42936E+01  5.97604E+01  6.64876E+01  7.28305E+01
   7.71301E+01  7.83916E+01  7.64306E+01  7.18252E+01  6.57113E+01  5.91718E+01  5.29474E+01  4.74153E+01  4.33589E+01  4.17045E+01
   4.16395E+01  4.27169E+01  4.48751E+01  4.77822E+01  5.11771E+01  5.44376E+01  5.68210E+01  5.74152E+01  5.58504E+01  5.27614E+01
   4.89940E+01  4.52387E+01  4.20852E+01  3.97402E+01  3.79959E+01  3.68569E+01  3.66659E+01  3.73901E+01  3.83915E+01  3.90330E+01
   3.90140E+01  3.82511E+01  3.69147E+01  3.53386E+01  3.39172E+01  3.29680E+01  3.25110E+01  3.23968E+01  3.25702E+01  3.29666E+01
   3.34212E+01  3.37672E+01  3.38132E+01  3.35155E+01  3.29418E+01  3.22118E+01  3.14656E+01  3.07776E+01  3.01775E+01  2.97068E+01
   2.94391E+01  2.93992E+01  2.94805E+01  2.95765E+01  2.95180E+01  2.90718E+01  2.81072E+01  2.67596E+01  2.53862E+01  2.43631E+01
   2.38685E+01  2.38141E+01  2.39657E+01  2.40848E+01  2.40782E+01  2.42214E+01  2.55084E+01  2.91264E+01  3.53939E+01  4.46026E+01
   5.66913E+01  7.02103E+01  8.19610E+01  8.84141E+01  8.78445E+01  8.13102E+01  7.15300E+01  6.11266E+01  5.16050E+01  4.32366E+01
   3.55302E+01  2.83970E+01  2.35223E+01  2.18676E+01  2.13271E+01  2.10594E+01  2.08944E+01  2.08259E+01  2.09718E+01  2.17796E+01
   2.49719E+01  3.24775E+01  4.45337E+01  6.11757E+01  8.19041E+01  1.04115E+02  1.22770E+02  1.32659E+02  1.31500E+02  1.21153E+02
   1.05864E+02  8.94089E+01  7.36249E+01  5.86451E+01  4.39880E+01  3.04282E+01  2.15107E+01  1.85987E+01  1.84441E+01  1.93942E+01
   2.05669E+01  2.14238E+01  2.18992E+01  2.20309E+01  2.17118E+01  2.10402E+01  2.01319E+01  1.90063E+01  1.77875E+01  1.65888E+01
   1.55383E+01  1.47429E+01  1.41346E+01  1.36870E+01  1.33078E+01  1.28957E+01  1.23808E+01  1.17211E+01  1.09709E+01  1.02093E+01
   9.60384E+00  9.35623E+00  9.48219E+00  9.72222E+00  9.70779E+00  9.25154E+00  8.41761E+00  7.43509E+00  6.52497E+00  5.68908E+00
   4.69289E+00  3.53474E+00  2.31518E+00  1.16576E+00  3.04737E-01 -2.05869E-01 -3.56887E-01 -2.41129E-01 -1.44488E-01 -2.75542E-01
  -6.51820E-01 -1.09269E+00 -1.36464E+00 -1.34308E+00 -9.42284E-01 -3.19003E-02  1.64388E+00  4.30623E+00  7.58611E+00  1.07080E+01
   1.27611E+01  1.32634E+01  1.24008E+01  1.06185E+01  8.43260E+00  6.42326E+00  5.08062E+00  4.95989E+00  6.40436E+00  9.24476E+00
   1.29483E+01  1.67638E+01  1.98641E+01  2.13134E+01  2.06321E+01  1.78748E+01  1.32811E+01  7.53637E+00  2.08148E+00 -1.48312E+00
  -2.10053E+00  3.47996E-01  5.29010E+00  1.16610E+01  1.79028E+01  2.22304E+01  2.32464E+01  2.08407E+01  1.59510E+01  9.46127E+00
   3.02132E+00 -1.50807E+00 -3.28593E+00 -2.19707E+00  1.14062E+00  5.81472E+00  1.05228E+01  1.40835E+01  1.62913E+01  1.74031E+01
   1.79320E+01  1.81685E+01  1.82226E+01  1.85187E+01  1.93516E+01  2.04462E+01  2.12918E+01  2.15204E+01  2.10333E+01  1.99168E+01
   1.82169E+01  1.63380E+01  1.50705E+01  1.48949E+01  1.56816E+01  1.68694E+01  1.82293E+01  1.96385E+01  2.08223E+01  2.18673E+01
   2.31258E+01  2.48009E+01  2.67730E+01  3.10190E+01  4.02427E+01  5.46475E+01  7.43309E+01  9.92220E+01  1.26482E+02  1.49505E+02
   1.61181E+02  1.58330E+02  1.43424E+02  1.22209E+02  1.00092E+02  7.99848E+01  6.22399E+01  4.56833E+01  3.02052E+01  1.97060E+01
   1.59800E+01  1.45057E+01  1.37625E+01  1.34602E+01  1.33474E+01  1.31578E+01  1.28713E+01  1.24845E+01  1.20126E+01  1.15007E+01
   1.10002E+01  1.05276E+01  1.01277E+01  9.85702E+00  9.71696E+00  9.67879E+00  9.72316E+00  9.83845E+00  1.00200E+01  1.02583E+01
   1.05347E+01  1.08552E+01  1.12240E+01  1.16372E+01  1.20913E+01  1.25828E+01  1.31035E+01  1.36410E+01  1.41830E+01  1.47211E+01
   1.52445E+01  1.57433E+01  1.62127E+01  1.66489E+01  1.70519E+01  1.74273E+01  1.77868E+01  1.81484E+01  1.85350E+01  1.89739E+01
   1.94953E+01  2.01321E+01  2.09191E+01  2.18909E+01  2.30774E+01  2.45038E+01  2.61873E+01  2.81356E+01  3.03458E+01  3.28023E+01
   3.54759E+01  3.83238E+01  4.12902E+01  4.43084E+01  4.73033E+01  5.01938E+01  5.28966E+01  5.53300E+01  5.74184E+01  5.90965E+01
   6.03126E+01  6.10317E+01  6.12371E+01  6.09316E+01  6.01378E+01  5.88975E+01  5.72695E+01  5.53274E+01  5.31586E+01  5.08685E+01
   4.85867E+01  4.63794E+01  4.42497E+01  4.22002E+01  4.01885E+01  3.81031E+01  3.58265E+01  3.33592E+01  3.09253E+01  2.88207E+01
   2.72554E+01  2.63344E+01  2.60624E+01  2.63236E+01  2.68888E+01  2.75219E+01  2.80735E+01  2.83572E+01  2.82874E+01  2.79665E+01
   2.74825E+01  2.68622E+01  2.60781E+01  2.51372E+01  2.41990E+01  2.33137E+01  2.24322E+01  2.15402E+01  2.06394E+01  1.97371E+01
   1.88427E+01  1.79662E+01  1.71175E+01  1.63059E+01  1.55399E+01  1.48270E+01  1.41733E+01  1.35838E+01  1.30623E+01  1.26119E+01
   1.22346E+01  1.19318E+01  1.17040E+01  1.15509E+01  1.14718E+01  1.14656E+01  1.15305E+01  1.16640E+01  1.18630E+01  1.21233E+01
   1.24400E+01  1.28075E+01  1.32186E+01  1.36654E+01  1.41384E+01  1.46271E+01  1.51204E+01  1.56063E+01  1.60722E+01  1.65053E+01
   1.68930E+01  1.72237E+01  1.74866E+01  1.76726E+01  1.77746E+01  1.77872E+01  1.77078E+01  1.75362E+01  1.72749E+01  1.69286E+01
   1.65041E+01  1.60100E+01  1.54562E+01  1.48540E+01  1.42149E+01  1.35506E+01  1.28721E+01  1.21901E+01  1.15141E+01  1.08526E+01
   1.02127E+01  9.60007E+00  9.01891E+00  8.47222E+00  7.96191E+00  7.48885E+00  7.05295E+00  6.65331E+00  6.28849E+00  5.95675E+00
   5.65611E+00  5.38444E+00  5.13942E+00  4.91869E+00  4.72002E+00  4.54140E+00  4.38093E+00  4.23685E+00  4.10742E+00  3.99107E+00
   3.88647E+00  3.79250E+00  3.70814E+00  3.63240E+00  3.56436E+00  3.50322E+00  3.44833E+00  3.39920E+00  3.35533E+00  3.31617E+00
   3.28126E+00  3.25020E+00  3.22274E+00  3.19867E+00  3.17772E+00  3.15955E+00  3.14390E+00  3.13062E+00  3.11959E+00  3.11070E+00
   3.10375E+00  3.09853E+00  3.09493E+00  3.09288E+00  3.09235E+00  3.09326E+00  3.09545E+00  3.09877E+00  3.10318E+00  3.10869E+00
   3.11528E+00  3.12286E+00  3.13132E+00  3.14056E+00  3.15062E+00  3.16151E+00  3.17320E+00  3.18561E+00  3.19862E+00  3.21222E+00
   3.22644E+00  3.24133E+00  3.25683E+00  3.27283E+00  3.28930E+00  3.30625E+00  3.32375E+00  3.34180E+00  3.36035E+00  3.37930E+00
   3.39865E+00  3.41847E+00  3.43881E+00  3.45968E+00  3.48100E+00  3.50274E+00  3.52494E+00  3.54772E+00
 NY background values follow
     4.321E+01    4.297E+01    4.273E+01    4.249E+01    4.225E+01    4.201E+01    4.177E+01    4.153E+01    4.129E+01    4.105E+01
     4.081E+01    4.057E+01    4.033E+01    4.009E+01    3.985E+01    3.961E+01    3.937E+01    3.913E+01    3.889E+01    3.865E+01
     3.841E+01    3.817E+01    3.793E+01    3.769E+01    3.745E+01    3.721E+01    3.697E+01    3.674E+01    3.650E+01    3.626E+01
     3.602E+01    3.578E+01    3.554E+01    3.530E+01    3.506E+01    3.482E+01    3.459E+01    3.435E+01    3.411E+01    3.387E+01
     3.363E+01    3.340E+01    3.316E+01    3.292E+01    3.269E+01    3.245E+01    3.221E+01    3.198E+01    3.174E+01    3.151E+01
     3.127E+01    3.103E+01    3.080E+01    3.057E+01    3.033E+01    3.010E+01    2.986E+01    2.963E+01    2.940E+01    2.917E+01
     2.894E+01    2.870E+01    2.847E+01    2.824E+01    2.801E+01    2.778E+01    2.755E+01    2.733E+01    2.710E+01    2.687E+01
     2.664E+01    2.642E+01    2.619E+01    2.597E+01    2.574E+01    2.552E+01    2.530E+01    2.507E+01    2.485E+01    2.463E+01
     2.441E+01    2.419E+01    2.397E+01    2.376E+01    2.354E+01    2.332E+01    2.311E+01    2.289E+01    2.268E+01    2.246E+01
     2.225E+01    2.204E+01    2.183E+01    2.162E+01    2.141E+01    2.120E+01    2.100E+01    2.079E+01    2.059E+01    2.038E+01
     2.018E+01    1.998E+01    1.977E+01    1.957E+01    1.937E+01    1.918E+01    1.898E+01    1.878E+01    1.859E+01    1.839E+01
     1.820E+01    1.801E+01    1.781E+01    1.762E+01    1.744E+01    1.725E+01    1.706E+01    1.687E+01    1.669E+01    1.650E+01
     1.632E+01    1.614E+01    1.596E+01    1.578E+01    1.560E+01    1.543E+01    1.525E+01    1.507E+01    1.490E+01    1.473E+01
     1.456E+01    1.439E+01    1.422E+01    1.405E+01    1.388E+01    1.372E+01    1.355E+01    1.339E+01    1.323E+01    1.307E+01
     1.291E+01    1.275E+01    1.259E+01    1.244E+01    1.229E+01    1.213E+01    1.198E+01    1.183E+01    1.168E+01    1.153E+01
     1.139E+01    1.124E+01    1.110E+01    1.096E+01    1.081E+01    1.067E+01    1.054E+01    1.040E+01    1.026E+01    1.013E+01
     9.994E+00    9.862E+00    9.732E+00    9.602E+00    9.474E+00    9.348E+00    9.222E+00    9.099E+00    8.976E+00    8.855E+00
     8.735E+00    8.617E+00    8.500E+00    8.384E+00    8.270E+00    8.157E+00    8.045E+00    7.935E+00    7.827E+00    7.719E+00
     7.614E+00    7.509E+00    7.406E+00    7.305E+00    7.205E+00    7.106E+00    7.008E+00    6.912E+00    6.818E+00    6.724E+00
     6.632E+00    6.541E+00    6.452E+00    6.364E+00    6.277E+00    6.191E+00    6.107E+00    6.023E+00    5.941E+00    5.860E+00
     5.781E+00    5.702E+00    5.625E+00    5.549E+00    5.473E+00    5.399E+00    5.327E+00    5.255E+00    5.184E+00    5.114E+00
     5.046E+00    4.978E+00    4.911E+00    4.846E+00    4.781E+00    4.717E+00    4.655E+00    4.593E+00    4.532E+00    4.472E+00
     4.413E+00    4.355E+00    4.298E+00    4.241E+00    4.186E+00    4.131E+00    4.077E+00    4.024E+00    3.972E+00    3.920E+00
     3.869E+00    3.820E+00    3.770E+00    3.722E+00    3.674E+00    3.627E+00    3.581E+00    3.536E+00    3.491E+00    3.447E+00
     3.404E+00    3.361E+00    3.319E+00    3.278E+00    3.237E+00    3.197E+00    3.158E+00    3.119E+00    3.081E+00    3.044E+00
     3.007E+00    2.971E+00    2.935E+00    2.900E+00    2.866E+00    2.832E+00    2.799E+00    2.766E+00    2.734E+00    2.702E+00
     2.671E+00    2.641E+00    2.611E+00    2.581E+00    2.552E+00    2.523E+00    2.495E+00    2.468E+00    2.441E+00    2.414E+00
     2.388E+00    2.362E+00    2.337E+00    2.312E+00    2.288E+00    2.264E+00    2.240E+00    2.217E+00    2.194E+00    2.172E+00
     2.150E+00    2.128E+00    2.107E+00    2.086E+00    2.065E+00    2.045E+00    2.026E+00    2.006E+00    1.987E+00    1.969E+00
     1.950E+00    1.932E+00    1.915E+00    1.898E+00    1.881E+00    1.864E+00    1.848E+00    1.832E+00    1.816E+00    1.801E+00
     1.786E+00    1.771E+00    1.756E+00    1.742E+00    1.728E+00    1.715E+00    1.701E+00    1.688E+00    1.676E+00    1.663E+00
     1.651E+00    1.639E+00    1.627E+00    1.615E+00    1.604E+00    1.593E+00    1.582E+00    1.572E+00    1.561E+00    1.551E+00
     1.541E+00    1.531E+00    1.522E+00    1.512E+00    1.503E+00    1.495E+00    1.486E+00    1.477E+00    1.469E+00    1.461E+00
     1.454E+00    1.446E+00    1.439E+00    1.432E+00    1.425E+00    1.418E+00    1.412E+00    1.405E+00    1.400E+00    1.394E+00
     1.388E+00    1.383E+00    1.378E+00    1.373E+00    1.368E+00    1.364E+00    1.360E+00    1.356E+00    1.352E+00    1.348E+00
     1.345E+00    1.342E+00    1.339E+00    1.336E+00    1.334E+00    1.331E+00    1.329E+00    1.328E+00    1.326E+00    1.325E+00
     1.324E+00    1.323E+00    1.322E+00    1.321E+00    1.321E+00    1.321E+00    1.321E+00    1.322E+00    1.322E+00    1.323E+00
     1.324E+00    1.326E+00    1.327E+00    1.329E+00    1.331E+00    1.334E+00    1.336E+00    1.339E+00    1.342E+00    1.346E+00
     1.349E+00    1.353E+00    1.357E+00    1.362E+00    1.367E+00    1.372E+00    1.377E+00    1.382E+00    1.388E+00    1.394E+00
     1.401E+00    1.407E+00    1.414E+00    1.422E+00    1.429E+00    1.437E+00    1.445E+00    1.454E+00    1.463E+00    1.472E+00
     1.481E+00    1.491E+00    1.501E+00    1.511E+00    1.522E+00    1.533E+00    1.545E+00    1.556E+00    1.568E+00    1.581E+00
     1.593E+00    1.606E+00    1.620E+00    1.633E+00    1.647E+00    1.661E+00    1.676E+00    1.691E+00    1.706E+00    1.721E+00
     1.737E+00    1.753E+00    1.769E+00    1.786E+00    1.803E+00    1.820E+00    1.837E+00    1.855E+00    1.873E+00    1.891E+00
     1.909E+00    1.928E+00    1.947E+00    1.966E+00    1.985E+00    2.005E+00    2.025E+00    2.045E+00    2.065E+00    2.085E+00
     2.106E+00    2.127E+00    2.148E+00    2.169E+00    2.191E+00    2.213E+00    2.235E+00    2.257E+00    2.279E+00    2.302E+00
     2.324E+00    2.347E+00    2.370E+00    2.393E+00    2.417E+00    2.440E+00    2.464E+00    2.488E+00    2.512E+00    2.536E+00
     2.560E+00    2.584E+00    2.609E+00    2.634E+00    2.658E+00    2.683E+00    2.708E+00    2.733E+00    2.759E+00    2.784E+00
     2.809E+00    2.835E+00    2.861E+00    2.886E+00    2.912E+00    2.938E+00    2.964E+00    2.990E+00    3.016E+00    3.042E+00
     3.068E+00    3.095E+00    3.121E+00    3.147E+00    3.174E+00    3.200E+00    3.226E+00    3.253E+00    3.279E+00    3.306E+00
     3.333E+00    3.359E+00    3.386E+00    3.412E+00    3.439E+00    3.465E+00    3.492E+00    3.518E+00
 Cr       Conc. = 1.30E+03
