 LCModel (Version 6.3-1L) Copyright: S.W. Provencher.          Ref.: Magn. Reson. Med. 30:672-679 (1993).                
 Slice#2 Row#5 Col#11  PD_05_press_2_raw_act
 36 lines in following concentration table = NCONC+1
    Conc.  %SD /Cr+PCr  Metabolite                                         
 1.14E+03  31%   1.019 Ala                                                 
  227.640  37%   0.203 Asp                                                 
   69.849 679% 6.2E-02 Cr                                                  
 1.05E+03  46%   0.938 PCr                                                 
  145.420  35%   0.129 GABA                                                
  141.861  36%   0.126 Glc                                                 
    0.000 999%   0.000 Gln                                                 
 2.26E+03  31%   2.017 Glu                                                 
    0.000 999%   0.000 GPC                                                 
  280.877  15%   0.250 PCh                                                 
  417.226  38%   0.372 GSH                                                 
 2.38E+03  21%   2.121 Ins                                                 
   45.508 773% 4.1E-02 Lac                                                 
 1.67E+03  18%   1.488 NAA                                                 
 1.17E+03  24%   1.044 NAAG                                                
   55.817  30% 5.0E-02 Scyllo                                              
  217.751  38%   0.194 Tau                                                 
  151.552  46%   0.135 -CrCH2                                              
  280.877  15%   0.250 GPC+PCh                                             
 2.84E+03   7%   2.532 NAA+NAAG                                            
 1.12E+03  11%   1.000 Cr+PCr                                              
 2.26E+03  31%   2.017 Glu+Gln                                             
 2.99E+04   5%  26.622 Lip13a                                              
    0.000 999%   0.000 Lip13b                                              
 6.08E+03  10%   5.414 Lip09                                               
   36.424 675% 3.2E-02 MM09                                                
 4.13E+03  11%   3.678 Lip20                                               
    0.000 999%   0.000 MM20                                                
   23.252 562% 2.1E-02 MM12                                                
 1.84E+03  23%   1.641+MM14                                                
  185.269 152%   0.165 MM17                                                
 2.99E+04   5%  26.622 Lip13a+Lip13b                                       
 3.18E+04   4%  28.283 MM14+Lip13a+Lip13b+MM12                             
 6.12E+03  10%   5.447 MM09+Lip09                                          
 4.13E+03  11%   3.678 MM20+Lip20                                          
   6 lines in following misc. output table
  FWHM = 0.076 ppm    S/N =   8                                            
  Data shift = 0.000 ppm                                                   
  Ph:  43 deg      11.9 deg/ppm                                            
  alphaB,S = 1.9E+00,   4.0E+01                                            
   14 spline knots.   Ns = 9(2)                                            
  ( 3) 3 infls.   ( 3) 1 extrs.                                            
  498 points on ppm-axis = NY
      4.000000     3.992357     3.984714     3.977070     3.969427     3.961784     3.954141     3.946497     3.938854     3.931211
      3.923568     3.915925     3.908281     3.900638     3.892995     3.885352     3.877708     3.870065     3.862422     3.854779
      3.847136     3.839492     3.831849     3.824206     3.816563     3.808919     3.801276     3.793633     3.785990     3.778347
      3.770703     3.763060     3.755417     3.747774     3.740130     3.732487     3.724844     3.717201     3.709558     3.701914
      3.694271     3.686628     3.678985     3.671341     3.663698     3.656055     3.648412     3.640769     3.633125     3.625482
      3.617839     3.610196     3.602552     3.594909     3.587266     3.579623     3.571980     3.564336     3.556693     3.549050
      3.541407     3.533763     3.526120     3.518477     3.510834     3.503191     3.495547     3.487904     3.480261     3.472618
      3.464974     3.457331     3.449688     3.442045     3.434402     3.426758     3.419115     3.411472     3.403829     3.396185
      3.388542     3.380899     3.373256     3.365613     3.357969     3.350326     3.342683     3.335040     3.327396     3.319753
      3.312110     3.304467     3.296824     3.289180     3.281537     3.273894     3.266251     3.258607     3.250964     3.243321
      3.235678     3.228034     3.220391     3.212748     3.205105     3.197462     3.189818     3.182175     3.174532     3.166889
      3.159245     3.151602     3.143959     3.136316     3.128673     3.121029     3.113386     3.105743     3.098100     3.090456
      3.082813     3.075170     3.067527     3.059884     3.052240     3.044597     3.036954     3.029311     3.021667     3.014024
      3.006381     2.998738     2.991095     2.983451     2.975808     2.968165     2.960522     2.952878     2.945235     2.937592
      2.929949     2.922306     2.914662     2.907019     2.899376     2.891733     2.884089     2.876446     2.868803     2.861160
      2.853517     2.845873     2.838230     2.830587     2.822944     2.815300     2.807657     2.800014     2.792371     2.784728
      2.777084     2.769441     2.761798     2.754155     2.746511     2.738868     2.731225     2.723582     2.715939     2.708295
      2.700652     2.693009     2.685366     2.677722     2.670079     2.662436     2.654793     2.647150     2.639506     2.631863
      2.624220     2.616577     2.608933     2.601290     2.593647     2.586004     2.578361     2.570717     2.563074     2.555431
      2.547788     2.540144     2.532501     2.524858     2.517215     2.509572     2.501928     2.494285     2.486642     2.478999
      2.471355     2.463712     2.456069     2.448426     2.440783     2.433139     2.425496     2.417853     2.410210     2.402566
      2.394923     2.387280     2.379637     2.371994     2.364350     2.356707     2.349064     2.341421     2.333777     2.326134
      2.318491     2.310848     2.303205     2.295561     2.287918     2.280275     2.272632     2.264988     2.257345     2.249702
      2.242059     2.234416     2.226772     2.219129     2.211486     2.203843     2.196199     2.188556     2.180913     2.173270
      2.165627     2.157983     2.150340     2.142697     2.135054     2.127410     2.119767     2.112124     2.104481     2.096838
      2.089194     2.081551     2.073908     2.066265     2.058621     2.050978     2.043335     2.035692     2.028049     2.020405
      2.012762     2.005119     1.997476     1.989833     1.982190     1.974546     1.966903     1.959260     1.951617     1.943974
      1.936331     1.928688     1.921045     1.913402     1.905759     1.898115     1.890472     1.882829     1.875186     1.867543
      1.859900     1.852257     1.844614     1.836971     1.829327     1.821684     1.814041     1.806398     1.798755     1.791112
      1.783469     1.775826     1.768183     1.760540     1.752896     1.745253     1.737610     1.729967     1.722324     1.714681
      1.707038     1.699395     1.691752     1.684108     1.676465     1.668822     1.661179     1.653536     1.645893     1.638250
      1.630607     1.622964     1.615321     1.607677     1.600034     1.592391     1.584748     1.577105     1.569462     1.561819
      1.554176     1.546533     1.538890     1.531246     1.523603     1.515960     1.508317     1.500674     1.493031     1.485388
      1.477745     1.470102     1.462458     1.454815     1.447172     1.439529     1.431886     1.424243     1.416600     1.408957
      1.401314     1.393671     1.386027     1.378384     1.370741     1.363098     1.355455     1.347812     1.340169     1.332526
      1.324883     1.317240     1.309596     1.301953     1.294310     1.286667     1.279024     1.271381     1.263738     1.256095
      1.248452     1.240808     1.233165     1.225522     1.217879     1.210236     1.202593     1.194950     1.187307     1.179664
      1.172021     1.164377     1.156734     1.149091     1.141448     1.133805     1.126162     1.118519     1.110876     1.103233
      1.095590     1.087946     1.080303     1.072660     1.065017     1.057374     1.049731     1.042088     1.034445     1.026802
      1.019158     1.011515     1.003872     0.996229     0.988586     0.980943     0.973300     0.965657     0.958014     0.950371
      0.942727     0.935084     0.927441     0.919798     0.912155     0.904512     0.896869     0.889226     0.881583     0.873940
      0.866296     0.858653     0.851010     0.843367     0.835724     0.828081     0.820438     0.812795     0.805152     0.797508
      0.789865     0.782222     0.774579     0.766936     0.759293     0.751650     0.744007     0.736364     0.728721     0.721077
      0.713434     0.705791     0.698148     0.690505     0.682862     0.675219     0.667576     0.659933     0.652290     0.644646
      0.637003     0.629360     0.621717     0.614074     0.606431     0.598788     0.591145     0.583502     0.575858     0.568215
      0.560572     0.552929     0.545286     0.537643     0.530000     0.522357     0.514714     0.507071     0.499427     0.491784
      0.484141     0.476498     0.468855     0.461212     0.453569     0.445925     0.438282     0.430639     0.422996     0.415353
      0.407710     0.400067     0.392424     0.384780     0.377137     0.369494     0.361851     0.354208     0.346565     0.338922
      0.331278     0.323635     0.315992     0.308349     0.300706     0.293063     0.285420     0.277777     0.270133     0.262490
      0.254847     0.247204     0.239561     0.231918     0.224275     0.216631     0.208988     0.201345
 NY phased data points follow
  -1.95753E-01 -8.31618E+00 -2.73134E+00 -7.78577E+00 -6.47895E+00 -1.16777E+00 -8.21834E+00 -1.38017E+01 -1.19342E+01 -1.19314E+01
  -8.08155E+00 -1.47603E-01 -6.26252E+00 -1.00777E+00 -2.76250E+00 -1.02181E+01 -8.89453E+00  8.46233E-01 -2.57925E+00 -2.71269E+00
  -6.90096E+00 -1.09666E+01 -1.85096E+01 -9.16168E+00 -2.34604E+01 -8.54974E+00 -4.82612E+00 -8.76942E+00 -5.87830E+00 -6.20032E+00
  -5.98744E+00 -1.63286E+00 -1.75954E+01 -8.42450E+00 -5.86904E+00 -7.71510E+00 -8.92398E+00 -1.22342E+01 -3.70243E+00  2.96845E-01
  -2.00220E+00 -1.35373E+01 -1.55773E+01 -7.84416E+00 -1.28824E+01 -5.81008E+00 -8.83222E+00 -6.04950E+00 -8.10870E+00 -1.00426E+01
  -1.01595E+01 -1.98731E+00 -6.11417E+00 -4.80960E+00 -6.88958E+00 -2.23388E+00 -3.48612E+00 -4.92239E+00 -2.47437E-01 -6.33098E+00
  -8.08492E+00 -2.88444E+00 -2.77221E+00 -2.85246E+00 -8.16871E+00 -9.69806E+00 -5.53019E+00 -1.22273E+01 -7.66549E+00 -1.00261E+01
  -8.20578E+00 -1.49462E+01 -1.51114E+01 -1.06733E+01 -1.58278E+01 -3.46194E+00 -1.37974E+01 -1.21929E+01 -1.25389E+01 -9.57969E+00
  -1.42636E+01 -1.58704E+01 -1.66046E+01 -1.06785E-01 -1.29441E+01 -8.17080E+00 -1.38993E+01 -6.36599E+00 -1.04594E+01 -8.87564E+00
  -1.37139E+01 -1.88974E+01 -2.23164E+01 -1.53993E+01 -6.67306E+00 -8.32955E+00 -7.01145E+00 -1.63616E+01 -1.71527E+01 -1.21529E+01
  -1.50463E+01 -1.22556E+01 -1.05789E+01 -3.37719E+00  8.03344E+00 -2.10569E+00  8.64511E+00  7.47067E+00  4.32720E+00 -6.11426E+00
  -1.23514E+01 -6.29893E+00 -1.21238E+01 -1.36639E+01 -1.06080E+01 -1.32269E+01 -1.80403E+01 -1.75922E+01 -1.43241E+01 -1.73464E+01
  -1.78467E+01 -1.03574E+01 -1.67698E+01 -1.08136E+01 -1.93605E+01 -9.71016E+00 -7.56228E+00 -6.29357E+00  1.62228E+01  1.48565E+01
   2.14170E+01  8.65187E+00  7.53587E+00  6.07361E+00  3.11524E+00  4.98052E+00  2.32898E+00  1.31370E+01 -8.51904E+00 -2.37307E+00
  -6.63369E+00 -7.51519E+00 -1.24161E+00  6.40885E+00 -6.52150E+00 -1.02610E+00  2.80124E+00  4.52883E-01  7.03536E-01 -4.68099E+00
  -7.61097E-01 -3.16780E+00 -2.22993E+00 -8.47354E+00 -2.21452E-01 -2.91242E-01  3.37557E+00 -8.06713E+00 -8.35222E+00  2.57158E-01
   2.63668E+00 -5.95431E+00  9.57075E+00 -6.43138E-02 -6.20243E+00 -1.51656E+00 -8.22055E+00  2.04089E+00 -4.14219E+00 -3.77001E+00
  -4.77130E+00 -1.12324E+01 -1.04617E+01 -1.14073E+01 -1.37746E+01 -1.09361E+01 -1.72695E+01 -1.85177E+01 -2.06589E+01 -1.91654E+01
  -1.87666E+01 -2.11241E+01 -1.61844E+01 -1.78015E+01 -1.42419E+01 -9.02995E+00 -1.97542E+01 -1.41301E+01 -1.74864E+01 -2.33182E+01
  -2.26290E+01 -2.14144E+01 -1.93703E+01 -1.07477E+01 -1.36379E+01 -1.94818E+01 -1.40695E+01 -1.33172E+01 -1.87249E+01 -1.43766E+01
  -2.06834E+01 -1.55951E+01 -2.32775E+01 -4.04085E+00 -1.55386E+01 -1.90962E+01 -1.76534E+01 -1.54852E+01 -8.03345E+00 -1.43033E+01
  -1.22033E+01 -1.58640E+01 -1.74087E+01  1.60893E+00 -4.13591E+00 -1.48267E+00 -2.52203E-01 -7.54632E+00  3.88013E+00 -2.81078E+00
  -3.20117E+00 -1.01467E+01 -1.10086E+01 -6.52004E+00 -1.42908E+01 -8.16558E+00 -1.64086E+01  8.14136E-02 -4.12430E+00 -3.46094E+00
  -3.46917E+00  9.90412E-02 -4.53855E+00 -1.23324E+00 -2.29401E+00  5.43433E+00 -1.95400E+00 -7.86430E+00 -6.51344E+00 -1.80048E+00
  -3.05022E+00  1.54496E+00  3.36654E+00 -5.80873E+00 -4.99312E+00 -1.42764E+00 -1.30429E+00  1.11293E+00  6.09854E+00  1.22760E+01
   8.06847E+00  1.84313E+01  1.88622E+01  2.41267E+01  3.67181E+01  4.41390E+01  5.76199E+01  5.79825E+01  6.74696E+01  6.60773E+01
   7.35416E+01  8.36313E+01  7.94225E+01  7.70856E+01  6.74457E+01  4.45650E+01  2.33852E+01  2.79941E+01  1.05124E+01  1.66204E+01
   9.34801E+00  1.57423E+00  7.08773E+00  1.44278E+01  4.19290E+00  6.01297E+00  6.49702E+00  7.00995E+00  3.91470E+00  9.69138E+00
   3.37476E+00  6.82429E+00 -8.17258E+00  3.79853E+00  4.82937E+00 -6.14757E+00 -8.54143E+00 -3.86975E+00 -7.62174E+00 -9.45228E+00
   1.27431E-01 -5.36390E+00  2.72801E+00 -5.63237E+00  2.14525E+00  9.10202E+00  3.10682E+00  1.55645E+01  2.48253E+00  1.18483E+01
   3.71587E-01  7.02441E+00  1.41632E+01  1.31287E+01  1.37501E+01  1.30645E+01  2.44511E+01  1.12884E+01  1.92815E+01  1.66035E+01
   1.67051E+01  1.64955E+01  2.73156E+01  3.36189E+01  3.20717E+01  2.92558E+01  3.27753E+01  3.56000E+01  3.55522E+01  3.54448E+01
   4.13402E+01  4.08396E+01  4.97241E+01  5.81446E+01  5.92094E+01  6.24870E+01  6.06181E+01  6.71860E+01  7.34866E+01  7.71997E+01
   6.66169E+01  7.97678E+01  6.50323E+01  6.90174E+01  7.43094E+01  7.39116E+01  8.20655E+01  8.60327E+01  8.92934E+01  8.48456E+01
   9.72951E+01  8.63900E+01  9.53417E+01  1.10129E+02  9.42535E+01  9.74367E+01  1.07995E+02  9.41018E+01  9.59826E+01  8.90790E+01
   9.24072E+01  9.01203E+01  8.62474E+01  8.12006E+01  7.94687E+01  7.87079E+01  7.02267E+01  6.82155E+01  6.40140E+01  6.90926E+01
   6.09839E+01  6.43393E+01  5.07847E+01  3.93364E+01  3.86122E+01  4.41637E+01  4.46487E+01  3.41184E+01  3.62520E+01  3.76933E+01
   4.48393E+01  3.83636E+01  3.50627E+01  2.89453E+01  1.86285E+01  1.87198E+01  2.86358E+01  2.29365E+01  2.22088E+01  1.88530E+01
   2.29791E+01  1.77950E+01  8.39000E+00  1.09090E+01  1.49566E+01  1.21123E+01  8.96928E+00  1.82538E+01  8.18653E+00  1.43270E+01
   6.38642E+00  3.97421E+00  8.81065E+00  2.14767E+01  1.24087E+01  1.81188E+01  8.40956E+00  6.64039E+00  1.06505E+01  1.44205E+01
   1.47856E+01  1.45599E+01  2.18432E+01  1.25572E+01  1.24280E+01  5.40803E+00  1.33130E+01  8.57086E+00  1.71605E+00  2.32104E+00
   2.74929E+00  6.55070E+00  1.34087E+00  1.00798E+00  1.11039E+01  7.30986E+00 -6.77425E+00  5.31740E+00  4.96742E+00  3.53083E+00
  -5.62535E+00  6.98814E-01 -1.05759E+01 -3.72876E+00 -6.83263E+00 -9.73343E+00 -6.61247E+00 -7.29067E+00 -9.69604E+00 -5.19921E+00
  -1.30958E+01 -2.91555E+00 -1.11517E+01 -3.32902E+00 -6.65195E+00 -1.10892E+01  6.18840E+00 -3.24343E+00 -4.44391E+00 -5.23317E+00
  -7.85829E+00 -5.48296E+00 -2.47053E-02 -1.52870E+01  2.13912E+00 -1.70095E+01  2.50277E-01 -6.57622E+00 -5.99469E+00 -6.69226E+00
  -4.51489E+00 -2.09030E+00 -2.86312E+00 -8.23569E+00 -7.22801E+00 -3.15047E+00 -9.36607E+00  1.31685E+00 -3.80311E+00 -5.03645E+00
  -1.48056E+01 -5.03506E+00 -4.97738E+00 -6.47122E+00 -1.30643E+01 -1.52346E+01 -5.26071E-01 -6.33122E+00 -1.70118E+01  1.45374E+00
  -6.02758E+00 -2.53807E+00 -5.14768E+00 -8.65565E+00 -8.67067E+00 -1.60787E+00 -4.89160E+00 -8.20544E+00 -1.54910E+01 -8.05298E+00
  -1.48240E+01 -1.07701E+01 -2.04865E+00 -1.28645E+01 -4.99087E+00 -5.56653E+00 -7.75556E+00 -1.18217E-01 -1.10098E+01 -9.90127E+00
  -7.83853E+00 -1.02301E+01 -3.67657E+00 -3.73284E+00 -1.62132E+01 -9.68683E+00 -9.92946E+00 -3.63094E+00
 NY points of the fit to the data follow
  -9.34381E+00 -1.02323E+01 -1.09147E+01 -1.23955E+01 -1.29778E+01 -1.41785E+01 -1.35635E+01 -1.42247E+01 -1.15765E+01 -1.12127E+01
  -6.38684E+00 -4.85309E+00 -1.47445E+00 -6.07992E-01 -5.21247E-01 -9.73263E-01 -2.47817E+00 -3.89824E+00 -5.86225E+00 -7.17213E+00
  -9.56525E+00 -1.05816E+01 -1.18934E+01 -1.18619E+01 -1.17576E+01 -1.07244E+01 -1.04128E+01 -8.99740E+00 -9.54573E+00 -8.13335E+00
  -9.69582E+00 -8.37954E+00 -9.31636E+00 -6.73305E+00 -7.87139E+00 -5.02957E+00 -7.04141E+00 -5.17616E+00 -7.07753E+00 -6.23389E+00
  -8.36319E+00 -8.51537E+00 -1.03705E+01 -1.07195E+01 -1.16049E+01 -1.14116E+01 -1.04072E+01 -8.70648E+00 -5.91185E+00 -3.52210E+00
  -2.14279E+00 -1.59653E+00 -2.12268E+00 -3.34843E+00 -5.03155E+00 -6.74467E+00 -8.02352E+00 -9.16170E+00 -1.01320E+01 -1.06977E+01
  -1.04423E+01 -9.76573E+00 -8.72624E+00 -7.70396E+00 -7.36207E+00 -7.09137E+00 -7.64600E+00 -8.19515E+00 -9.27824E+00 -9.95360E+00
  -1.02249E+01 -9.98268E+00 -9.68369E+00 -8.95944E+00 -8.55878E+00 -7.72755E+00 -7.41518E+00 -7.04710E+00 -7.14698E+00 -7.37791E+00
  -7.92630E+00 -8.39415E+00 -8.85381E+00 -9.20633E+00 -9.48154E+00 -1.01280E+01 -1.12724E+01 -1.13784E+01 -1.31852E+01 -1.31638E+01
  -1.51491E+01 -1.51484E+01 -1.67369E+01 -1.63376E+01 -1.71956E+01 -1.64776E+01 -1.71356E+01 -1.59581E+01 -1.57909E+01 -1.41008E+01
  -1.27742E+01 -1.04623E+01 -7.20096E+00 -4.80547E+00  2.73223E-01 -2.39773E-01  3.84195E+00  1.42454E-01  2.07471E+00 -2.46963E+00
  -3.08355E+00 -6.75123E+00 -7.79226E+00 -1.09061E+01 -1.23450E+01 -1.38498E+01 -1.48787E+01 -1.51065E+01 -1.49998E+01 -1.50226E+01
  -1.43896E+01 -1.47624E+01 -1.34221E+01 -1.41039E+01 -1.12108E+01 -1.00767E+01 -3.12983E+00 -1.61893E+00  8.36575E+00  7.59423E+00
   1.50623E+01  1.12587E+01  1.37524E+01  8.78750E+00  8.49729E+00  3.73826E+00  2.30303E+00 -1.91705E+00 -4.49698E+00 -6.68966E+00
  -7.14742E+00 -7.57245E+00 -5.86140E+00 -5.73161E+00 -3.53994E+00 -3.71871E+00 -2.42650E+00 -3.23564E+00 -3.60338E+00 -3.75509E+00
  -3.47572E+00 -3.49677E+00 -3.35980E+00 -3.42678E+00 -3.34881E+00 -3.37626E+00 -3.10865E+00 -3.12288E+00 -2.79846E+00 -3.00720E+00
  -3.21440E+00 -3.75857E+00 -4.30562E+00 -4.74727E+00 -5.36893E+00 -5.60616E+00 -6.58771E+00 -7.03211E+00 -8.14270E+00 -8.84414E+00
  -9.82864E+00 -1.05588E+01 -1.12961E+01 -1.21319E+01 -1.28162E+01 -1.37752E+01 -1.44481E+01 -1.53726E+01 -1.56390E+01 -1.64342E+01
  -1.61991E+01 -1.70203E+01 -1.67628E+01 -1.75396E+01 -1.69838E+01 -1.73500E+01 -1.63858E+01 -1.62931E+01 -1.52982E+01 -1.46609E+01
  -1.35801E+01 -1.26608E+01 -1.19481E+01 -1.13377E+01 -1.13950E+01 -1.11291E+01 -1.17642E+01 -1.16622E+01 -1.27611E+01 -1.23676E+01
  -1.26174E+01 -1.19493E+01 -1.14130E+01 -1.08187E+01 -9.86418E+00 -9.63085E+00 -9.14468E+00 -9.76297E+00 -1.00991E+01 -1.10625E+01
  -1.15770E+01 -1.19500E+01 -1.13886E+01 -1.09451E+01 -8.35790E+00 -7.78024E+00 -4.47963E+00 -5.09867E+00 -3.47643E+00 -5.52920E+00
  -6.11717E+00 -8.33540E+00 -9.38531E+00 -1.00813E+01 -9.97602E+00 -8.38330E+00 -7.49613E+00 -4.60004E+00 -3.23692E+00 -8.46690E-01
   4.16130E-01  1.66939E+00  2.48151E+00  3.04477E+00  2.59250E+00  2.38598E+00  1.15597E+00  5.21897E-01 -1.32615E+00 -1.93991E+00
  -2.61281E+00 -2.93465E+00 -3.21365E+00 -3.64323E+00 -1.74973E+00 -1.26753E+00  2.69119E+00  3.97955E+00  7.81255E+00  9.55836E+00
   1.44914E+01  1.72170E+01  2.36507E+01  2.74653E+01  3.72910E+01  4.16658E+01  5.42821E+01  5.75654E+01  6.82829E+01  7.02708E+01
   7.61375E+01  7.65544E+01  7.28247E+01  6.97384E+01  5.78766E+01  5.18289E+01  3.79466E+01  3.27643E+01  2.29166E+01  1.93264E+01
   1.22491E+01  9.80434E+00  7.68860E+00  6.63605E+00  6.70921E+00  6.19002E+00  5.29477E+00  5.11790E+00  4.29679E+00  3.51651E+00
   9.91058E-01  1.80632E-01  2.48318E-01  1.90420E-01  4.52476E-01  5.69263E-01  1.03571E+00  1.23727E+00  1.80966E+00  2.11128E+00
   2.74085E+00  3.08615E+00  3.73856E+00  4.10192E+00  4.72656E+00  5.17364E+00  5.82058E+00  6.36769E+00  7.06443E+00  7.65631E+00
   8.42453E+00  9.12484E+00  9.93926E+00  1.07437E+01  1.16441E+01  1.25902E+01  1.36142E+01  1.46943E+01  1.58524E+01  1.70274E+01
   1.82190E+01  1.99924E+01  2.18653E+01  2.38942E+01  2.61078E+01  2.82941E+01  3.07168E+01  3.33168E+01  3.57930E+01  3.82691E+01
   4.12634E+01  4.42391E+01  4.79797E+01  5.13055E+01  5.53238E+01  5.83245E+01  6.23280E+01  6.41990E+01  6.69852E+01  6.68039E+01
   6.74584E+01  6.70699E+01  6.72548E+01  6.87157E+01  7.06634E+01  7.45964E+01  7.83213E+01  8.42427E+01  8.71864E+01  9.33034E+01
   9.49046E+01  9.87733E+01  9.90137E+01  1.00506E+02  9.95953E+01  9.93794E+01  9.70477E+01  9.53552E+01  9.29831E+01  9.15421E+01
   8.99893E+01  8.83003E+01  8.63326E+01  8.43741E+01  8.16592E+01  7.91062E+01  7.53482E+01  7.18240E+01  6.82559E+01  6.47527E+01
   6.11502E+01  5.76183E+01  5.40654E+01  5.06302E+01  4.72545E+01  4.40112E+01  4.09296E+01  3.80291E+01  3.53444E+01  3.28710E+01
   3.05675E+01  2.84822E+01  2.65565E+01  2.48301E+01  2.32573E+01  2.18442E+01  2.06019E+01  1.95218E+01  1.85814E+01  1.77785E+01
   1.70928E+01  1.65223E+01  1.60472E+01  1.56655E+01  1.53575E+01  1.51214E+01  1.49381E+01  1.48059E+01  1.47059E+01  1.46371E+01
   1.45808E+01  1.45365E+01  1.44864E+01  1.44305E+01  1.43523E+01  1.42527E+01  1.41164E+01  1.39459E+01  1.37278E+01  1.34664E+01
   1.31502E+01  1.27857E+01  1.23637E+01  1.18929E+01  1.13664E+01  1.07948E+01  1.01735E+01  9.51474E+00  8.81537E+00  8.08887E+00
   7.33321E+00  6.56241E+00  5.77477E+00  4.98423E+00  4.18893E+00  3.40225E+00  2.62167E+00  1.85960E+00  1.11252E+00  3.91650E-01
  -3.07576E-01 -9.75145E-01 -1.61668E+00 -2.22334E+00 -2.80170E+00 -3.34390E+00 -3.85726E+00 -4.33466E+00 -4.78397E+00 -5.19871E+00
  -5.58710E+00 -5.94305E+00 -6.27491E+00 -6.57684E+00 -6.85726E+00 -7.11051E+00 -7.34494E+00 -7.55489E+00 -7.74861E+00 -7.92042E+00
  -8.07844E+00 -8.21697E+00 -8.34394E+00 -8.45355E+00 -8.55358E+00 -8.63817E+00 -8.71493E+00 -8.77797E+00 -8.83469E+00 -8.87915E+00
  -8.91858E+00 -8.94702E+00 -8.97158E+00 -8.98627E+00 -8.99803E+00 -9.00082E+00 -9.00149E+00 -8.99403E+00 -8.98516E+00 -8.96885E+00
  -8.95173E+00 -8.92774E+00 -8.90344E+00 -8.87282E+00 -8.84231E+00 -8.80594E+00 -8.77002E+00 -8.72862E+00 -8.68797E+00 -8.64219E+00
  -8.59743E+00 -8.54783E+00 -8.49944E+00 -8.44645E+00 -8.39486E+00 -8.33892E+00 -8.28454E+00 -8.22597E+00 -8.16907E+00 -8.10814E+00
  -8.04901E+00 -7.98600E+00 -7.92486E+00 -7.85995E+00 -7.79695E+00 -7.73028E+00 -7.66559E+00 -7.59732E+00 -7.53102E+00 -7.46120E+00
  -7.39336E+00 -7.32206E+00 -7.25274E+00 -7.18002E+00 -7.10928E+00 -7.03516E+00 -6.96305E+00 -6.88770E+00
 NY background values follow
    -4.938E+00   -4.972E+00   -5.007E+00   -5.041E+00   -5.076E+00   -5.110E+00   -5.145E+00   -5.180E+00   -5.215E+00   -5.249E+00
    -5.284E+00   -5.319E+00   -5.354E+00   -5.389E+00   -5.425E+00   -5.460E+00   -5.495E+00   -5.530E+00   -5.566E+00   -5.601E+00
    -5.636E+00   -5.672E+00   -5.707E+00   -5.743E+00   -5.778E+00   -5.814E+00   -5.850E+00   -5.885E+00   -5.921E+00   -5.957E+00
    -5.992E+00   -6.028E+00   -6.064E+00   -6.100E+00   -6.136E+00   -6.172E+00   -6.207E+00   -6.243E+00   -6.279E+00   -6.315E+00
    -6.351E+00   -6.387E+00   -6.423E+00   -6.459E+00   -6.495E+00   -6.531E+00   -6.567E+00   -6.603E+00   -6.638E+00   -6.674E+00
    -6.710E+00   -6.746E+00   -6.782E+00   -6.818E+00   -6.854E+00   -6.889E+00   -6.925E+00   -6.961E+00   -6.997E+00   -7.032E+00
    -7.068E+00   -7.104E+00   -7.139E+00   -7.175E+00   -7.210E+00   -7.246E+00   -7.281E+00   -7.316E+00   -7.352E+00   -7.387E+00
    -7.422E+00   -7.457E+00   -7.492E+00   -7.527E+00   -7.562E+00   -7.597E+00   -7.632E+00   -7.666E+00   -7.701E+00   -7.735E+00
    -7.770E+00   -7.804E+00   -7.839E+00   -7.873E+00   -7.907E+00   -7.941E+00   -7.975E+00   -8.009E+00   -8.042E+00   -8.076E+00
    -8.109E+00   -8.143E+00   -8.176E+00   -8.209E+00   -8.242E+00   -8.275E+00   -8.308E+00   -8.340E+00   -8.373E+00   -8.405E+00
    -8.438E+00   -8.470E+00   -8.502E+00   -8.534E+00   -8.565E+00   -8.597E+00   -8.629E+00   -8.660E+00   -8.691E+00   -8.722E+00
    -8.753E+00   -8.784E+00   -8.814E+00   -8.845E+00   -8.875E+00   -8.905E+00   -8.935E+00   -8.965E+00   -8.994E+00   -9.024E+00
    -9.053E+00   -9.082E+00   -9.111E+00   -9.140E+00   -9.168E+00   -9.197E+00   -9.225E+00   -9.253E+00   -9.281E+00   -9.308E+00
    -9.336E+00   -9.363E+00   -9.390E+00   -9.417E+00   -9.444E+00   -9.470E+00   -9.496E+00   -9.522E+00   -9.548E+00   -9.574E+00
    -9.599E+00   -9.625E+00   -9.649E+00   -9.674E+00   -9.699E+00   -9.723E+00   -9.747E+00   -9.771E+00   -9.794E+00   -9.817E+00
    -9.840E+00   -9.863E+00   -9.886E+00   -9.908E+00   -9.930E+00   -9.951E+00   -9.973E+00   -9.994E+00   -1.001E+01   -1.003E+01
    -1.005E+01   -1.007E+01   -1.009E+01   -1.011E+01   -1.013E+01   -1.015E+01   -1.017E+01   -1.019E+01   -1.020E+01   -1.022E+01
    -1.024E+01   -1.025E+01   -1.027E+01   -1.029E+01   -1.030E+01   -1.032E+01   -1.033E+01   -1.034E+01   -1.036E+01   -1.037E+01
    -1.039E+01   -1.040E+01   -1.041E+01   -1.042E+01   -1.043E+01   -1.044E+01   -1.045E+01   -1.046E+01   -1.047E+01   -1.048E+01
    -1.049E+01   -1.050E+01   -1.051E+01   -1.052E+01   -1.052E+01   -1.053E+01   -1.054E+01   -1.054E+01   -1.055E+01   -1.055E+01
    -1.056E+01   -1.056E+01   -1.056E+01   -1.057E+01   -1.057E+01   -1.057E+01   -1.057E+01   -1.057E+01   -1.057E+01   -1.057E+01
    -1.057E+01   -1.057E+01   -1.057E+01   -1.057E+01   -1.057E+01   -1.057E+01   -1.056E+01   -1.056E+01   -1.055E+01   -1.055E+01
    -1.054E+01   -1.054E+01   -1.053E+01   -1.052E+01   -1.052E+01   -1.051E+01   -1.050E+01   -1.049E+01   -1.048E+01   -1.047E+01
    -1.046E+01   -1.045E+01   -1.044E+01   -1.043E+01   -1.041E+01   -1.040E+01   -1.039E+01   -1.037E+01   -1.036E+01   -1.034E+01
    -1.033E+01   -1.031E+01   -1.029E+01   -1.028E+01   -1.026E+01   -1.024E+01   -1.022E+01   -1.020E+01   -1.018E+01   -1.016E+01
    -1.014E+01   -1.012E+01   -1.010E+01   -1.007E+01   -1.005E+01   -1.003E+01   -1.000E+01   -9.979E+00   -9.954E+00   -9.928E+00
    -9.902E+00   -9.876E+00   -9.849E+00   -9.821E+00   -9.794E+00   -9.765E+00   -9.736E+00   -9.707E+00   -9.677E+00   -9.647E+00
    -9.616E+00   -9.585E+00   -9.553E+00   -9.521E+00   -9.488E+00   -9.455E+00   -9.421E+00   -9.387E+00   -9.353E+00   -9.318E+00
    -9.282E+00   -9.247E+00   -9.210E+00   -9.174E+00   -9.137E+00   -9.099E+00   -9.061E+00   -9.023E+00   -8.984E+00   -8.945E+00
    -8.905E+00   -8.865E+00   -8.825E+00   -8.784E+00   -8.743E+00   -8.702E+00   -8.660E+00   -8.618E+00   -8.575E+00   -8.533E+00
    -8.489E+00   -8.446E+00   -8.402E+00   -8.358E+00   -8.313E+00   -8.268E+00   -8.223E+00   -8.178E+00   -8.132E+00   -8.086E+00
    -8.039E+00   -7.992E+00   -7.945E+00   -7.898E+00   -7.851E+00   -7.803E+00   -7.755E+00   -7.706E+00   -7.658E+00   -7.609E+00
    -7.560E+00   -7.510E+00   -7.461E+00   -7.411E+00   -7.361E+00   -7.310E+00   -7.260E+00   -7.209E+00   -7.158E+00   -7.106E+00
    -7.055E+00   -7.003E+00   -6.951E+00   -6.899E+00   -6.847E+00   -6.794E+00   -6.741E+00   -6.688E+00   -6.635E+00   -6.582E+00
    -6.528E+00   -6.474E+00   -6.420E+00   -6.366E+00   -6.312E+00   -6.258E+00   -6.203E+00   -6.148E+00   -6.093E+00   -6.038E+00
    -5.983E+00   -5.927E+00   -5.872E+00   -5.816E+00   -5.760E+00   -5.704E+00   -5.648E+00   -5.592E+00   -5.535E+00   -5.479E+00
    -5.422E+00   -5.365E+00   -5.308E+00   -5.252E+00   -5.194E+00   -5.137E+00   -5.080E+00   -5.022E+00   -4.965E+00   -4.907E+00
    -4.850E+00   -4.792E+00   -4.734E+00   -4.676E+00   -4.618E+00   -4.560E+00   -4.502E+00   -4.443E+00   -4.385E+00   -4.326E+00
    -4.268E+00   -4.209E+00   -4.151E+00   -4.092E+00   -4.033E+00   -3.975E+00   -3.916E+00   -3.857E+00   -3.798E+00   -3.739E+00
    -3.680E+00   -3.621E+00   -3.562E+00   -3.503E+00   -3.444E+00   -3.385E+00   -3.325E+00   -3.266E+00   -3.207E+00   -3.148E+00
    -3.088E+00   -3.029E+00   -2.970E+00   -2.911E+00   -2.851E+00   -2.792E+00   -2.733E+00   -2.674E+00   -2.615E+00   -2.555E+00
    -2.496E+00   -2.437E+00   -2.378E+00   -2.319E+00   -2.260E+00   -2.201E+00   -2.142E+00   -2.083E+00   -2.024E+00   -1.965E+00
    -1.907E+00   -1.848E+00   -1.789E+00   -1.731E+00   -1.672E+00   -1.614E+00   -1.556E+00   -1.498E+00   -1.440E+00   -1.382E+00
    -1.324E+00   -1.266E+00   -1.209E+00   -1.152E+00   -1.094E+00   -1.037E+00   -9.800E-01   -9.232E-01   -8.664E-01   -8.099E-01
    -7.535E-01   -6.972E-01   -6.411E-01   -5.852E-01   -5.294E-01   -4.739E-01   -4.185E-01   -3.632E-01   -3.082E-01   -2.534E-01
    -1.988E-01   -1.443E-01   -9.012E-02   -3.611E-02    1.770E-02    7.129E-02    1.247E-01    1.778E-01    2.308E-01    2.835E-01
     3.360E-01    3.883E-01    4.404E-01    4.922E-01    5.438E-01    5.952E-01    6.464E-01    6.973E-01    7.480E-01    7.985E-01
     8.487E-01    8.987E-01    9.485E-01    9.980E-01    1.047E+00    1.096E+00    1.145E+00    1.194E+00    1.242E+00    1.290E+00
     1.338E+00    1.385E+00    1.433E+00    1.480E+00    1.526E+00    1.573E+00    1.619E+00    1.665E+00    1.711E+00    1.757E+00
     1.802E+00    1.847E+00    1.891E+00    1.936E+00    1.980E+00    2.024E+00    2.067E+00    2.111E+00
 Ala      Conc. = 1.14E+03
