 LCModel (Version 6.3-1L) Copyright: S.W. Provencher.          Ref.: Magn. Reson. Med. 30:672-679 (1993).                
 Slice#2 Row#1 Col#11  PD_05_press_2_raw_act
 36 lines in following concentration table = NCONC+1
    Conc.  %SD /Cr+PCr  Metabolite                                         
    0.000 999%   0.000 Ala                                                 
   14.267  64% 7.6E-02 Asp                                                 
  187.362 127%   1.000 Cr                                                  
    0.000 999%   0.000 PCr                                                 
    8.614  64% 4.6E-02 GABA                                                
    8.604  64% 4.6E-02 Glc                                                 
  168.360 180%   0.899 Gln                                                 
  309.634 108%   1.653 Glu                                                 
    0.000 999%   0.000 GPC                                                 
    8.744 316% 4.7E-02 PCh                                                 
    0.000 999%   0.000 GSH                                                 
    0.000 999%   0.000 Ins                                                 
  207.852  84%   1.109 Lac                                                 
   73.300 129%   0.391 NAA                                                 
    0.000 999%   0.000 NAAG                                                
    2.821  65% 1.5E-02 Scyllo                                              
   14.274  64% 7.6E-02 Tau                                                 
   19.555  76%   0.104 -CrCH2                                              
    8.744 316% 4.7E-02 GPC+PCh                                             
   73.300 131%   0.391 NAA+NAAG                                            
  187.362  41%   1.000 Cr+PCr                                              
  477.994  91%   2.551 Glu+Gln                                             
 1.10E+03  62%   5.897 Lip13a                                              
   72.000 659%   0.384 Lip13b                                              
    0.000 999%   0.000 Lip09                                               
    0.000 999%   0.000 MM09                                                
  188.142  71%   1.004 Lip20                                               
    0.000 999%   0.000 MM20                                                
 1.49E-04 999% 7.9E-07 MM12                                                
    0.000 999%   0.000 MM14                                                
 6.50E-03 999% 3.5E-05 MM17                                                
 1.18E+03  29%   6.281 Lip13a+Lip13b                                       
 1.18E+03  29%   6.281 MM14+Lip13a+Lip13b+MM12                             
    0.000 999%   0.000 MM09+Lip09                                          
  188.142  71%   1.004 MM20+Lip20                                          
   6 lines in following misc. output table
  FWHM = 0.046 ppm    S/N =   1                                            
  Data shift = 0.138 ppm                                                   
  Ph:  62 deg     -16.8 deg/ppm                                            
  alphaB,S = 8.5E+01,   2.6E+01                                            
   14 spline knots.   Ns = 5(1)                                            
   2 inflections.     1 extrema                                            
  498 points on ppm-axis = NY
      4.000000     3.992357     3.984714     3.977070     3.969427     3.961784     3.954141     3.946497     3.938854     3.931211
      3.923568     3.915925     3.908281     3.900638     3.892995     3.885352     3.877708     3.870065     3.862422     3.854779
      3.847136     3.839492     3.831849     3.824206     3.816563     3.808919     3.801276     3.793633     3.785990     3.778347
      3.770703     3.763060     3.755417     3.747774     3.740130     3.732487     3.724844     3.717201     3.709558     3.701914
      3.694271     3.686628     3.678985     3.671341     3.663698     3.656055     3.648412     3.640769     3.633125     3.625482
      3.617839     3.610196     3.602552     3.594909     3.587266     3.579623     3.571980     3.564336     3.556693     3.549050
      3.541407     3.533763     3.526120     3.518477     3.510834     3.503191     3.495547     3.487904     3.480261     3.472618
      3.464974     3.457331     3.449688     3.442045     3.434402     3.426758     3.419115     3.411472     3.403829     3.396185
      3.388542     3.380899     3.373256     3.365613     3.357969     3.350326     3.342683     3.335040     3.327396     3.319753
      3.312110     3.304467     3.296824     3.289180     3.281537     3.273894     3.266251     3.258607     3.250964     3.243321
      3.235678     3.228034     3.220391     3.212748     3.205105     3.197462     3.189818     3.182175     3.174532     3.166889
      3.159245     3.151602     3.143959     3.136316     3.128673     3.121029     3.113386     3.105743     3.098100     3.090456
      3.082813     3.075170     3.067527     3.059884     3.052240     3.044597     3.036954     3.029311     3.021667     3.014024
      3.006381     2.998738     2.991095     2.983451     2.975808     2.968165     2.960522     2.952878     2.945235     2.937592
      2.929949     2.922306     2.914662     2.907019     2.899376     2.891733     2.884089     2.876446     2.868803     2.861160
      2.853517     2.845873     2.838230     2.830587     2.822944     2.815300     2.807657     2.800014     2.792371     2.784728
      2.777084     2.769441     2.761798     2.754155     2.746511     2.738868     2.731225     2.723582     2.715939     2.708295
      2.700652     2.693009     2.685366     2.677722     2.670079     2.662436     2.654793     2.647150     2.639506     2.631863
      2.624220     2.616577     2.608933     2.601290     2.593647     2.586004     2.578361     2.570717     2.563074     2.555431
      2.547788     2.540144     2.532501     2.524858     2.517215     2.509572     2.501928     2.494285     2.486642     2.478999
      2.471355     2.463712     2.456069     2.448426     2.440783     2.433139     2.425496     2.417853     2.410210     2.402566
      2.394923     2.387280     2.379637     2.371994     2.364350     2.356707     2.349064     2.341421     2.333777     2.326134
      2.318491     2.310848     2.303205     2.295561     2.287918     2.280275     2.272632     2.264988     2.257345     2.249702
      2.242059     2.234416     2.226772     2.219129     2.211486     2.203843     2.196199     2.188556     2.180913     2.173270
      2.165627     2.157983     2.150340     2.142697     2.135054     2.127410     2.119767     2.112124     2.104481     2.096838
      2.089194     2.081551     2.073908     2.066265     2.058621     2.050978     2.043335     2.035692     2.028049     2.020405
      2.012762     2.005119     1.997476     1.989833     1.982190     1.974546     1.966903     1.959260     1.951617     1.943974
      1.936331     1.928688     1.921045     1.913402     1.905759     1.898115     1.890472     1.882829     1.875186     1.867543
      1.859900     1.852257     1.844614     1.836971     1.829327     1.821684     1.814041     1.806398     1.798755     1.791112
      1.783469     1.775826     1.768183     1.760540     1.752896     1.745253     1.737610     1.729967     1.722324     1.714681
      1.707038     1.699395     1.691752     1.684108     1.676465     1.668822     1.661179     1.653536     1.645893     1.638250
      1.630607     1.622964     1.615321     1.607677     1.600034     1.592391     1.584748     1.577105     1.569462     1.561819
      1.554176     1.546533     1.538890     1.531246     1.523603     1.515960     1.508317     1.500674     1.493031     1.485388
      1.477745     1.470102     1.462458     1.454815     1.447172     1.439529     1.431886     1.424243     1.416600     1.408957
      1.401314     1.393671     1.386027     1.378384     1.370741     1.363098     1.355455     1.347812     1.340169     1.332526
      1.324883     1.317240     1.309596     1.301953     1.294310     1.286667     1.279024     1.271381     1.263738     1.256095
      1.248452     1.240808     1.233165     1.225522     1.217879     1.210236     1.202593     1.194950     1.187307     1.179664
      1.172021     1.164377     1.156734     1.149091     1.141448     1.133805     1.126162     1.118519     1.110876     1.103233
      1.095590     1.087946     1.080303     1.072660     1.065017     1.057374     1.049731     1.042088     1.034445     1.026802
      1.019158     1.011515     1.003872     0.996229     0.988586     0.980943     0.973300     0.965657     0.958014     0.950371
      0.942727     0.935084     0.927441     0.919798     0.912155     0.904512     0.896869     0.889226     0.881583     0.873940
      0.866296     0.858653     0.851010     0.843367     0.835724     0.828081     0.820438     0.812795     0.805152     0.797508
      0.789865     0.782222     0.774579     0.766936     0.759293     0.751650     0.744007     0.736364     0.728721     0.721077
      0.713434     0.705791     0.698148     0.690505     0.682862     0.675219     0.667576     0.659933     0.652290     0.644646
      0.637003     0.629360     0.621717     0.614074     0.606431     0.598788     0.591145     0.583502     0.575858     0.568215
      0.560572     0.552929     0.545286     0.537643     0.530000     0.522357     0.514714     0.507071     0.499427     0.491784
      0.484141     0.476498     0.468855     0.461212     0.453569     0.445925     0.438282     0.430639     0.422996     0.415353
      0.407710     0.400067     0.392424     0.384780     0.377137     0.369494     0.361851     0.354208     0.346565     0.338922
      0.331278     0.323635     0.315992     0.308349     0.300706     0.293063     0.285420     0.277777     0.270133     0.262490
      0.254847     0.247204     0.239561     0.231918     0.224275     0.216631     0.208988     0.201345
 NY phased data points follow
  -6.53018E+00 -1.22317E+01 -7.92222E+00  9.78962E+00 -3.48761E+00  6.22740E+00 -4.12542E-01 -9.77519E+00 -9.90284E+00  2.97126E+00
  -1.08942E+01  3.20907E+00  4.91909E-01  5.76995E+00 -7.89325E+00 -2.31468E+00 -7.41743E+00 -1.84400E+01 -1.05815E+01 -8.49923E+00
  -5.28630E+00  4.66214E+00  8.41357E+00  6.83094E+00  5.78371E-01 -4.85595E+00 -1.00801E+01 -8.06245E+00 -1.38230E+01 -2.78673E-01
  -7.51652E+00 -7.29366E+00 -1.30700E+01  3.18146E-01 -3.49327E+00 -8.99094E+00  4.72689E+00 -4.08365E+00 -1.26785E+01  6.38671E+00
  -1.59369E+01 -4.23361E+00 -1.18551E+01 -3.76924E+00 -5.79705E+00 -1.65322E+00 -8.74086E+00 -1.57148E+00 -4.91702E+00  9.62202E-01
  -6.21166E+00 -8.93043E+00 -5.63707E+00 -1.27083E+01 -1.41034E+01 -6.06266E+00 -5.46254E+00 -9.73324E-01 -8.40266E+00 -3.40207E+00
  -7.68948E+00 -7.16895E+00  6.71209E+00 -8.44775E+00 -3.33618E-01 -5.32619E+00 -5.23957E+00 -2.68329E-01 -2.04562E+01 -1.07254E+01
  -1.06906E+01 -7.67572E+00  1.20746E+00 -4.27770E+00  2.66582E+00  4.04753E+00  1.70766E+00 -1.11712E+00 -1.32789E+00  1.99932E+00
  -4.45138E+00 -6.62738E+00 -3.03473E+00 -4.71338E+00 -1.11324E+01 -9.43657E+00 -4.24154E+00 -1.42599E+01  1.63479E+00 -1.14494E+01
  -8.43432E+00 -1.38170E+01 -7.26673E-01 -1.80386E+01  4.84101E+00 -1.95467E+00 -8.45094E+00 -6.27126E+00 -9.30594E+00 -8.14528E-01
  -1.24232E+01 -1.15494E+01  3.02434E+00  8.23176E+00 -1.31913E-01 -1.01682E+01 -2.85219E+00 -3.55508E+00 -7.57418E+00 -2.99262E+00
  -2.13333E+00  5.79065E+00  2.19524E+00  8.21136E+00 -4.51582E+00 -1.30066E+00 -1.02001E+01  2.08422E-01 -8.49101E+00 -4.72696E+00
  -4.95757E-02  3.37025E+00 -9.64396E+00 -1.48120E+01  7.28265E-01 -6.19255E+00 -5.00597E-01  3.67658E+00  7.50411E+00  7.16454E+00
   1.21826E+01 -7.45552E-01  5.84447E+00 -8.48415E+00  4.02147E+00  6.17031E-01 -4.76514E+00 -1.34156E+01  3.20634E-03 -1.55659E+00
  -5.93379E+00  6.14552E+00 -1.87844E+00  5.48119E+00 -8.66940E-02  3.00525E+00 -1.11882E+01  5.49630E+00 -1.34118E+00 -2.91044E-01
  -1.42233E+00  9.99965E-01  4.48349E+00  8.02202E-01 -1.00290E+01 -2.77442E+00  7.97914E+00 -4.38046E+00  4.91400E+00 -4.96968E+00
  -1.16469E+00 -1.39306E+01 -2.17827E+00 -7.29682E+00  1.06233E+01 -5.16786E-01  6.27640E+00 -4.89860E+00 -4.55855E+00  3.00925E+00
  -7.70081E+00 -4.70445E+00  9.23720E-02 -8.65685E+00 -5.17044E+00 -7.12216E+00  5.14753E+00  3.12275E+00 -1.66466E-01  5.09358E+00
  -9.16494E+00  7.32216E+00 -4.95307E+00 -3.92883E+00  4.09508E+00 -9.50698E+00 -1.34854E+01 -4.69406E+00 -7.51368E+00  6.48421E+00
  -1.88635E+00 -1.04111E+01 -8.66132E+00 -5.63298E+00  1.34741E+00  6.94898E+00  5.21535E+00 -8.60139E+00  8.31727E+00  2.12554E+00
  -5.65899E+00  6.03432E+00  6.31227E+00  9.39195E+00  3.94057E+00 -2.12678E-01 -7.62927E+00 -3.98030E+00 -9.07847E+00 -1.39650E+01
   1.09464E+00 -1.15527E+01 -1.18313E+01 -1.32159E+01 -3.92612E+00 -1.17749E+01 -6.00665E+00 -5.59706E+00 -6.76822E+00  3.44995E+00
  -7.89862E+00 -1.31421E+01  3.73759E-01 -9.44241E+00 -6.94872E-01  2.08762E+00 -3.79433E+00  3.95981E-01 -2.67339E+00 -1.90572E+00
   5.07481E+00  5.18763E+00  8.70656E+00 -7.22262E+00  2.76514E+00 -1.77885E+00 -5.00160E+00 -6.46881E+00  4.87793E+00  3.49645E+00
  -6.21169E+00 -1.89249E+01 -1.50356E+01 -9.75767E+00 -1.00623E+01 -5.01110E-01 -3.94709E+00  6.04251E+00 -3.65846E-01 -8.24058E-01
   2.10581E-01 -2.08638E+00  1.92856E+00  1.25371E-01 -3.07430E+00 -2.34606E+00  7.10568E-01 -1.68972E+00 -3.70911E+00  1.86704E+00
  -1.51228E+00  1.13428E+01  2.49231E+00 -3.43022E+00 -2.78218E+00 -6.09130E+00 -8.28201E+00 -3.71833E+00 -6.07171E+00 -3.12734E-01
   2.38229E+00  4.06798E+00  5.33530E-03 -9.91733E-01 -2.82925E-01  2.50208E+00 -1.67976E+00  9.27729E+00  3.69805E+00 -5.88898E+00
   1.73997E+01  5.25194E-01 -2.45081E+00  7.41000E+00  9.61361E+00 -6.65026E+00  2.58153E+00  1.03628E+00  3.13393E+00  1.81391E+01
   7.56619E-01 -9.99620E+00 -1.69669E+00 -2.66593E+00  2.91406E+00  3.04048E-01  4.89027E+00  4.34345E+00  2.30742E+00 -1.78671E+00
  -2.58680E+00  2.00800E+00  1.70229E-01  1.02744E+01  6.59140E-01  1.37463E+01 -6.20141E+00 -2.85859E+00 -5.58602E+00  2.45523E-01
   3.25145E+00  5.72262E+00  3.18204E+00 -7.46206E+00  1.17099E+01 -6.43193E+00  5.58017E+00 -2.29874E+00 -1.12312E+00 -5.34547E+00
   1.13908E+01 -5.57154E-01  5.27566E-02 -1.10483E+01 -8.32828E+00 -1.63853E+01 -4.67438E+00 -2.19909E+00 -5.24847E+00  3.25457E+00
  -4.22206E+00 -8.47612E-01 -1.68147E+00 -5.60455E+00 -1.12919E+01 -6.27938E+00  2.12545E+00 -5.27113E+00 -1.07681E+01  2.82640E+00
  -1.00762E+01  1.05598E+01  2.61705E+00  1.22320E+01  6.23669E+00  9.08149E+00  5.98420E+00  1.05265E+01  4.50695E+00 -5.38574E+00
   1.30403E+01  1.83888E+00  4.19533E+00  8.69656E+00  1.48117E+00  4.49691E+00  2.68858E+00  4.91279E+00  1.02897E+01  6.15235E+00
   1.20281E+01  2.91861E+00  1.48524E+01  3.33947E+00  4.59954E+00 -7.36665E+00  7.38088E+00  1.33274E+01  4.92359E+00  1.18089E+01
   1.47305E+01 -2.00980E+00  1.06019E+01 -3.19955E+00 -2.41310E+00 -5.40696E+00 -4.23321E-01 -5.54893E+00  1.24413E+01 -4.38682E+00
   9.06555E+00 -1.17535E+00 -1.45281E+01 -2.72692E+00 -1.06126E+01 -9.07870E+00 -7.08427E+00  4.68625E+00 -1.13660E+01 -8.71524E+00
  -8.23317E+00  9.41447E+00  6.91850E+00 -4.64783E+00 -1.09361E+01  1.13283E+00  5.24747E+00  4.24376E+00 -6.54974E+00 -9.75571E+00
  -7.04229E+00 -4.22828E+00 -5.52804E+00  3.11706E+00 -5.39136E-01 -2.88867E+00 -2.09835E-01 -8.12385E+00 -1.19063E+01 -2.68007E+00
  -1.78516E+00  1.52434E+00 -2.79400E+00  3.92488E+00  1.15564E+00  1.99103E+00 -7.03709E+00  5.65027E-01 -1.57541E+01 -8.78609E+00
  -4.71754E+00 -3.57836E+00  2.13459E+00 -8.94712E+00 -1.55425E+01 -3.18446E+00 -2.47808E+00  1.60216E+00 -6.88131E+00 -7.51823E+00
   7.43721E+00 -8.98309E+00  5.25697E+00 -4.91595E+00  2.34538E+00  1.60248E+01 -5.39467E+00 -2.51330E+00  5.18296E+00 -2.75975E-01
  -1.03896E+01  8.40234E+00  4.74577E+00 -2.47212E+00 -3.65307E+00 -5.22118E+00 -4.20806E+00 -2.13933E+00  6.19307E-01  2.27206E+00
   1.20681E+00 -4.02628E+00 -2.36651E+00 -2.72567E-01 -1.29420E+01 -3.12062E+00 -9.17815E+00 -6.01326E-01 -3.69480E+00 -2.79098E+00
   1.38957E+00 -4.58961E+00  7.32640E+00  1.80470E-01  4.04817E+00 -6.56346E+00  1.81318E+00  3.21159E+00  9.18144E+00 -5.89594E+00
  -1.53651E+00 -2.41811E+00  9.70761E+00  3.71667E+00  1.21542E+01 -3.42037E+00 -4.11877E+00 -5.45825E-01 -3.82074E+00 -1.82216E+00
   4.12902E+00 -3.45702E-01 -5.05714E+00  4.92882E+00 -7.33908E+00 -8.98439E-01  2.01921E+00  3.19852E+00  7.21366E+00 -7.04924E+00
  -1.03470E+01 -7.84463E+00  4.94987E+00  4.59263E+00  5.01262E+00 -2.62783E+00 -5.61122E+00 -4.03867E+00
 NY points of the fit to the data follow
  -4.41465E+00 -4.38370E+00 -4.31696E+00 -4.24219E+00 -4.19570E+00 -4.20409E+00 -4.21026E+00 -4.02298E+00 -3.43477E+00 -2.44955E+00
  -1.27170E+00 -1.98750E-01  4.77410E-01  5.82047E-01  1.11604E-01 -7.90228E-01 -1.86177E+00 -2.77274E+00 -3.28034E+00 -3.43007E+00
  -3.44350E+00 -3.38935E+00 -3.29388E+00 -3.20578E+00 -3.19934E+00 -3.32993E+00 -3.59801E+00 -3.93190E+00 -4.18502E+00 -4.20819E+00
  -3.93691E+00 -3.42518E+00 -2.83996E+00 -2.40956E+00 -2.32012E+00 -2.61690E+00 -3.16293E+00 -3.74073E+00 -4.14293E+00 -4.24497E+00
  -4.07875E+00 -3.77382E+00 -3.46878E+00 -3.26759E+00 -3.20611E+00 -3.25841E+00 -3.35164E+00 -3.42610E+00 -3.47495E+00 -3.50709E+00
  -3.52858E+00 -3.54245E+00 -3.55104E+00 -3.55634E+00 -3.56017E+00 -3.56396E+00 -3.56805E+00 -3.57216E+00 -3.57587E+00 -3.57774E+00
  -3.57671E+00 -3.57259E+00 -3.56495E+00 -3.55403E+00 -3.54188E+00 -3.53046E+00 -3.52166E+00 -3.51748E+00 -3.51826E+00 -3.52249E+00
  -3.52689E+00 -3.52500E+00 -3.50998E+00 -3.48151E+00 -3.44673E+00 -3.41651E+00 -3.39998E+00 -3.40283E+00 -3.42173E+00 -3.44705E+00
  -3.46846E+00 -3.47492E+00 -3.45380E+00 -3.40331E+00 -3.33762E+00 -3.27397E+00 -3.22747E+00 -3.20764E+00 -3.21468E+00 -3.24282E+00
  -3.28588E+00 -3.33562E+00 -3.38104E+00 -3.41276E+00 -3.43003E+00 -3.43295E+00 -3.41906E+00 -3.38851E+00 -3.33607E+00 -3.23782E+00
  -3.06844E+00 -2.84054E+00 -2.59940E+00 -2.40201E+00 -2.29819E+00 -2.31221E+00 -2.43692E+00 -2.64052E+00 -2.86863E+00 -3.05920E+00
  -3.16888E+00 -3.20847E+00 -3.22526E+00 -3.23515E+00 -3.24100E+00 -3.24340E+00 -3.24452E+00 -3.24520E+00 -3.24466E+00 -3.24138E+00
  -3.23064E+00 -3.19145E+00 -3.02109E+00 -2.45163E+00 -1.26609E+00  4.11610E-01  2.19880E+00  3.63067E+00  4.31071E+00  4.06453E+00
   2.98880E+00  1.38679E+00 -3.07689E-01 -1.64366E+00 -2.34352E+00 -2.57455E+00 -2.66647E+00 -2.71093E+00 -2.73140E+00 -2.73985E+00
  -2.74263E+00 -2.74187E+00 -2.73670E+00 -2.72600E+00 -2.71150E+00 -2.69535E+00 -2.67922E+00 -2.66553E+00 -2.65591E+00 -2.65032E+00
  -2.64626E+00 -2.64060E+00 -2.63191E+00 -2.62048E+00 -2.60865E+00 -2.59885E+00 -2.59361E+00 -2.59684E+00 -2.61025E+00 -2.63068E+00
  -2.65099E+00 -2.66235E+00 -2.65984E+00 -2.64460E+00 -2.62205E+00 -2.60001E+00 -2.58649E+00 -2.58680E+00 -2.60080E+00 -2.62195E+00
  -2.64334E+00 -2.66201E+00 -2.67957E+00 -2.70032E+00 -2.72130E+00 -2.73656E+00 -2.74326E+00 -2.74317E+00 -2.74011E+00 -2.73620E+00
  -2.73119E+00 -2.72396E+00 -2.71553E+00 -2.70869E+00 -2.70072E+00 -2.68559E+00 -2.66375E+00 -2.63773E+00 -2.61052E+00 -2.58559E+00
  -2.57108E+00 -2.57645E+00 -2.61036E+00 -2.67495E+00 -2.75745E+00 -2.83414E+00 -2.88008E+00 -2.86671E+00 -2.76581E+00 -2.56944E+00
  -2.29715E+00 -1.98391E+00 -1.67840E+00 -1.45422E+00 -1.38002E+00 -1.51596E+00 -1.91111E+00 -2.52191E+00 -3.19599E+00 -3.75390E+00
  -4.03390E+00 -3.90801E+00 -3.32022E+00 -2.38071E+00 -1.34173E+00 -4.84805E-01 -4.98749E-02 -1.66312E-01 -7.84779E-01 -1.76300E+00
  -2.86844E+00 -3.78998E+00 -4.27579E+00 -4.22401E+00 -3.74281E+00 -3.00765E+00 -2.20184E+00 -1.51544E+00 -1.09762E+00 -9.91501E-01
  -1.10221E+00 -1.29450E+00 -1.50717E+00 -1.71818E+00 -1.87969E+00 -1.95144E+00 -1.91338E+00 -1.77114E+00 -1.57212E+00 -1.39754E+00
  -1.30985E+00 -1.34125E+00 -1.49549E+00 -1.72911E+00 -1.94487E+00 -2.07921E+00 -2.12277E+00 -2.09521E+00 -2.02497E+00 -1.94229E+00
  -1.85557E+00 -1.72524E+00 -1.55437E+00 -1.38048E+00 -1.24213E+00 -1.13550E+00 -9.73400E-01 -6.37388E-01 -1.08009E-01  5.26394E-01
   1.11619E+00  1.48772E+00  1.52052E+00  1.20031E+00  6.09036E-01 -9.92306E-02 -7.25353E-01 -1.12123E+00 -1.32052E+00 -1.44940E+00
  -1.53343E+00 -1.57114E+00 -1.57186E+00 -1.54315E+00 -1.49106E+00 -1.43582E+00 -1.39714E+00 -1.38793E+00 -1.41018E+00 -1.45483E+00
  -1.50442E+00 -1.54535E+00 -1.57306E+00 -1.58706E+00 -1.58917E+00 -1.58356E+00 -1.57499E+00 -1.56771E+00 -1.56342E+00 -1.56086E+00
  -1.55933E+00 -1.55829E+00 -1.55687E+00 -1.55446E+00 -1.55110E+00 -1.54692E+00 -1.54166E+00 -1.53517E+00 -1.52775E+00 -1.51957E+00
  -1.51050E+00 -1.50068E+00 -1.49012E+00 -1.47889E+00 -1.46714E+00 -1.45497E+00 -1.44247E+00 -1.42962E+00 -1.41632E+00 -1.40241E+00
  -1.38766E+00 -1.37199E+00 -1.35534E+00 -1.33762E+00 -1.31874E+00 -1.29860E+00 -1.27706E+00 -1.25395E+00 -1.22906E+00 -1.20216E+00
  -1.17297E+00 -1.14117E+00 -1.10635E+00 -1.06802E+00 -1.02559E+00 -9.78383E-01 -9.25588E-01 -8.66255E-01 -7.99245E-01 -7.23224E-01
  -6.36641E-01 -5.37735E-01 -4.24491E-01 -2.94612E-01 -1.45466E-01  2.59644E-02  2.23171E-01  4.50322E-01  7.12726E-01  1.01783E+00
   1.37759E+00  1.81540E+00  2.38310E+00  3.14507E+00  4.03873E+00  4.82696E+00  5.26193E+00  5.19721E+00  4.62482E+00  3.68159E+00
   2.63129E+00  1.87152E+00  1.78860E+00  2.53101E+00  3.92459E+00  5.50179E+00  6.81793E+00  7.66367E+00  7.94057E+00  7.66131E+00
   6.96657E+00  6.10836E+00  5.35690E+00  4.75753E+00  4.22920E+00  3.74094E+00  3.28380E+00  2.85530E+00  2.45504E+00  2.08322E+00
   1.74006E+00  1.42555E+00  1.13942E+00  8.81071E-01  6.49599E-01  4.43791E-01  2.62145E-01  1.02914E-01 -3.57978E-02 -1.55958E-01
  -2.59526E-01 -3.48410E-01 -4.24425E-01 -4.89269E-01 -5.44479E-01 -5.91422E-01 -6.31290E-01 -6.65122E-01 -6.93820E-01 -7.18159E-01
  -7.38790E-01 -7.56257E-01 -7.71008E-01 -7.83427E-01 -7.93837E-01 -8.02517E-01 -8.09691E-01 -8.15545E-01 -8.20233E-01 -8.23893E-01
  -8.26645E-01 -8.28595E-01 -8.29823E-01 -8.30402E-01 -8.30390E-01 -8.29849E-01 -8.28831E-01 -8.27383E-01 -8.25537E-01 -8.23326E-01
  -8.20777E-01 -8.17924E-01 -8.14792E-01 -8.11405E-01 -8.07777E-01 -8.03925E-01 -7.99865E-01 -7.95618E-01 -7.91196E-01 -7.86611E-01
  -7.81869E-01 -7.76980E-01 -7.71955E-01 -7.66808E-01 -7.61544E-01 -7.56169E-01 -7.50687E-01 -7.45106E-01 -7.39435E-01 -7.33681E-01
  -7.27846E-01 -7.21932E-01 -7.15942E-01 -7.09882E-01 -7.03758E-01 -6.97575E-01 -6.91332E-01 -6.85033E-01 -6.78679E-01 -6.72278E-01
  -6.65830E-01 -6.59337E-01 -6.52797E-01 -6.46214E-01 -6.39588E-01 -6.32927E-01 -6.26231E-01 -6.19502E-01 -6.12738E-01 -6.05942E-01
  -5.99117E-01 -5.92266E-01 -5.85388E-01 -5.78482E-01 -5.71547E-01 -5.64587E-01 -5.57603E-01 -5.50599E-01 -5.43573E-01 -5.36525E-01
  -5.29455E-01 -5.22368E-01 -5.15262E-01 -5.08139E-01 -5.00994E-01 -4.93831E-01 -4.86649E-01 -4.79453E-01 -4.72242E-01 -4.65019E-01
  -4.57778E-01 -4.50522E-01 -4.43251E-01 -4.35967E-01 -4.28668E-01 -4.21355E-01 -4.14025E-01 -4.06682E-01 -3.99326E-01 -3.91960E-01
  -3.84581E-01 -3.77188E-01 -3.69781E-01 -3.62361E-01 -3.54928E-01 -3.47484E-01 -3.40024E-01 -3.32550E-01 -3.25060E-01 -3.17557E-01
  -3.10040E-01 -3.02507E-01 -2.94956E-01 -2.87386E-01 -2.79797E-01 -2.72190E-01 -2.64562E-01 -2.56909E-01
 NY background values follow
    -4.040E+00   -4.033E+00   -4.025E+00   -4.018E+00   -4.011E+00   -4.003E+00   -3.996E+00   -3.989E+00   -3.981E+00   -3.974E+00
    -3.966E+00   -3.959E+00   -3.952E+00   -3.944E+00   -3.937E+00   -3.930E+00   -3.922E+00   -3.915E+00   -3.907E+00   -3.900E+00
    -3.893E+00   -3.885E+00   -3.878E+00   -3.870E+00   -3.863E+00   -3.856E+00   -3.848E+00   -3.841E+00   -3.833E+00   -3.826E+00
    -3.819E+00   -3.811E+00   -3.804E+00   -3.796E+00   -3.789E+00   -3.781E+00   -3.774E+00   -3.767E+00   -3.759E+00   -3.752E+00
    -3.744E+00   -3.737E+00   -3.729E+00   -3.722E+00   -3.715E+00   -3.707E+00   -3.700E+00   -3.692E+00   -3.685E+00   -3.677E+00
    -3.670E+00   -3.662E+00   -3.655E+00   -3.648E+00   -3.640E+00   -3.633E+00   -3.625E+00   -3.618E+00   -3.610E+00   -3.603E+00
    -3.595E+00   -3.588E+00   -3.580E+00   -3.573E+00   -3.565E+00   -3.558E+00   -3.551E+00   -3.543E+00   -3.536E+00   -3.528E+00
    -3.521E+00   -3.513E+00   -3.506E+00   -3.498E+00   -3.491E+00   -3.483E+00   -3.476E+00   -3.468E+00   -3.461E+00   -3.453E+00
    -3.446E+00   -3.438E+00   -3.431E+00   -3.423E+00   -3.416E+00   -3.408E+00   -3.401E+00   -3.393E+00   -3.386E+00   -3.378E+00
    -3.371E+00   -3.363E+00   -3.356E+00   -3.348E+00   -3.341E+00   -3.333E+00   -3.326E+00   -3.318E+00   -3.311E+00   -3.303E+00
    -3.295E+00   -3.288E+00   -3.280E+00   -3.273E+00   -3.265E+00   -3.258E+00   -3.250E+00   -3.243E+00   -3.235E+00   -3.228E+00
    -3.220E+00   -3.213E+00   -3.205E+00   -3.197E+00   -3.190E+00   -3.182E+00   -3.175E+00   -3.167E+00   -3.160E+00   -3.152E+00
    -3.145E+00   -3.137E+00   -3.130E+00   -3.122E+00   -3.114E+00   -3.107E+00   -3.099E+00   -3.092E+00   -3.084E+00   -3.077E+00
    -3.069E+00   -3.061E+00   -3.054E+00   -3.046E+00   -3.039E+00   -3.031E+00   -3.024E+00   -3.016E+00   -3.008E+00   -3.001E+00
    -2.993E+00   -2.986E+00   -2.978E+00   -2.971E+00   -2.963E+00   -2.955E+00   -2.948E+00   -2.940E+00   -2.933E+00   -2.925E+00
    -2.917E+00   -2.910E+00   -2.902E+00   -2.895E+00   -2.887E+00   -2.879E+00   -2.872E+00   -2.864E+00   -2.857E+00   -2.849E+00
    -2.841E+00   -2.834E+00   -2.826E+00   -2.819E+00   -2.811E+00   -2.803E+00   -2.796E+00   -2.788E+00   -2.781E+00   -2.773E+00
    -2.765E+00   -2.758E+00   -2.750E+00   -2.743E+00   -2.735E+00   -2.727E+00   -2.720E+00   -2.712E+00   -2.704E+00   -2.697E+00
    -2.689E+00   -2.682E+00   -2.674E+00   -2.666E+00   -2.659E+00   -2.651E+00   -2.643E+00   -2.636E+00   -2.628E+00   -2.621E+00
    -2.613E+00   -2.605E+00   -2.598E+00   -2.590E+00   -2.582E+00   -2.575E+00   -2.567E+00   -2.559E+00   -2.552E+00   -2.544E+00
    -2.536E+00   -2.529E+00   -2.521E+00   -2.514E+00   -2.506E+00   -2.498E+00   -2.491E+00   -2.483E+00   -2.475E+00   -2.468E+00
    -2.460E+00   -2.452E+00   -2.445E+00   -2.437E+00   -2.429E+00   -2.422E+00   -2.414E+00   -2.406E+00   -2.399E+00   -2.391E+00
    -2.383E+00   -2.376E+00   -2.368E+00   -2.360E+00   -2.353E+00   -2.345E+00   -2.337E+00   -2.330E+00   -2.322E+00   -2.314E+00
    -2.307E+00   -2.299E+00   -2.291E+00   -2.284E+00   -2.276E+00   -2.268E+00   -2.261E+00   -2.253E+00   -2.245E+00   -2.238E+00
    -2.230E+00   -2.222E+00   -2.215E+00   -2.207E+00   -2.199E+00   -2.192E+00   -2.184E+00   -2.176E+00   -2.169E+00   -2.161E+00
    -2.153E+00   -2.145E+00   -2.138E+00   -2.130E+00   -2.122E+00   -2.115E+00   -2.107E+00   -2.099E+00   -2.092E+00   -2.084E+00
    -2.076E+00   -2.069E+00   -2.061E+00   -2.053E+00   -2.046E+00   -2.038E+00   -2.030E+00   -2.022E+00   -2.015E+00   -2.007E+00
    -1.999E+00   -1.992E+00   -1.984E+00   -1.976E+00   -1.969E+00   -1.961E+00   -1.953E+00   -1.945E+00   -1.938E+00   -1.930E+00
    -1.922E+00   -1.915E+00   -1.907E+00   -1.899E+00   -1.891E+00   -1.884E+00   -1.876E+00   -1.868E+00   -1.861E+00   -1.853E+00
    -1.845E+00   -1.838E+00   -1.830E+00   -1.822E+00   -1.814E+00   -1.807E+00   -1.799E+00   -1.791E+00   -1.784E+00   -1.776E+00
    -1.768E+00   -1.760E+00   -1.753E+00   -1.745E+00   -1.737E+00   -1.730E+00   -1.722E+00   -1.714E+00   -1.706E+00   -1.699E+00
    -1.691E+00   -1.683E+00   -1.676E+00   -1.668E+00   -1.660E+00   -1.652E+00   -1.645E+00   -1.637E+00   -1.629E+00   -1.621E+00
    -1.614E+00   -1.606E+00   -1.598E+00   -1.591E+00   -1.583E+00   -1.575E+00   -1.567E+00   -1.560E+00   -1.552E+00   -1.544E+00
    -1.537E+00   -1.529E+00   -1.521E+00   -1.513E+00   -1.506E+00   -1.498E+00   -1.490E+00   -1.482E+00   -1.475E+00   -1.467E+00
    -1.459E+00   -1.452E+00   -1.444E+00   -1.436E+00   -1.428E+00   -1.421E+00   -1.413E+00   -1.405E+00   -1.397E+00   -1.390E+00
    -1.382E+00   -1.374E+00   -1.366E+00   -1.359E+00   -1.351E+00   -1.343E+00   -1.336E+00   -1.328E+00   -1.320E+00   -1.312E+00
    -1.305E+00   -1.297E+00   -1.289E+00   -1.281E+00   -1.274E+00   -1.266E+00   -1.258E+00   -1.250E+00   -1.243E+00   -1.235E+00
    -1.227E+00   -1.220E+00   -1.212E+00   -1.204E+00   -1.196E+00   -1.189E+00   -1.181E+00   -1.173E+00   -1.165E+00   -1.158E+00
    -1.150E+00   -1.142E+00   -1.134E+00   -1.127E+00   -1.119E+00   -1.111E+00   -1.104E+00   -1.096E+00   -1.088E+00   -1.080E+00
    -1.073E+00   -1.065E+00   -1.057E+00   -1.049E+00   -1.042E+00   -1.034E+00   -1.026E+00   -1.018E+00   -1.011E+00   -1.003E+00
    -9.952E-01   -9.875E-01   -9.798E-01   -9.720E-01   -9.643E-01   -9.565E-01   -9.488E-01   -9.411E-01   -9.333E-01   -9.256E-01
    -9.179E-01   -9.101E-01   -9.024E-01   -8.947E-01   -8.869E-01   -8.792E-01   -8.715E-01   -8.637E-01   -8.560E-01   -8.483E-01
    -8.405E-01   -8.328E-01   -8.251E-01   -8.173E-01   -8.096E-01   -8.019E-01   -7.941E-01   -7.864E-01   -7.787E-01   -7.709E-01
    -7.632E-01   -7.555E-01   -7.477E-01   -7.400E-01   -7.323E-01   -7.245E-01   -7.168E-01   -7.091E-01   -7.013E-01   -6.936E-01
    -6.859E-01   -6.781E-01   -6.704E-01   -6.627E-01   -6.549E-01   -6.472E-01   -6.395E-01   -6.318E-01   -6.240E-01   -6.163E-01
    -6.086E-01   -6.008E-01   -5.931E-01   -5.854E-01   -5.777E-01   -5.699E-01   -5.622E-01   -5.545E-01   -5.468E-01   -5.390E-01
    -5.313E-01   -5.236E-01   -5.159E-01   -5.081E-01   -5.004E-01   -4.927E-01   -4.850E-01   -4.772E-01   -4.695E-01   -4.618E-01
    -4.541E-01   -4.463E-01   -4.386E-01   -4.309E-01   -4.232E-01   -4.155E-01   -4.077E-01   -4.000E-01   -3.923E-01   -3.846E-01
    -3.769E-01   -3.691E-01   -3.614E-01   -3.537E-01   -3.460E-01   -3.383E-01   -3.306E-01   -3.228E-01   -3.151E-01   -3.074E-01
    -2.997E-01   -2.920E-01   -2.843E-01   -2.766E-01   -2.689E-01   -2.611E-01   -2.534E-01   -2.457E-01
 Asp      Conc. = 1.43E+01
