 LCModel (Version 6.3-1L) Copyright: S.W. Provencher.          Ref.: Magn. Reson. Med. 30:672-679 (1993).                
 Slice#2 Row#8 Col#6  PD_05_press_2_raw_act
 36 lines in following concentration table = NCONC+1
    Conc.  %SD /Cr+PCr  Metabolite                                         
  420.077  54%   0.115 Ala                                                 
    0.000 999%   0.000 Asp                                                 
 2.34E+03  16%   0.637 Cr                                                  
 1.33E+03  29%   0.363 PCr                                                 
    0.000 999%   0.000 GABA                                                
    0.000 999%   0.000 Glc                                                 
 2.20E+03  21%   0.601 Gln                                                 
 3.85E+03  13%   1.049 Glu                                                 
  939.843   5%   0.256 GPC                                                 
    0.000 999%   0.000 PCh                                                 
 1.28E+03  12%   0.350 GSH                                                 
 3.51E+03  15%   0.956 Ins                                                 
  516.975  51%   0.141 Lac                                                 
 5.92E+03   4%   1.614 NAA                                                 
  530.306  49%   0.145 NAAG                                                
  104.498  53% 2.8E-02 Scyllo                                              
    0.000 999%   0.000 Tau                                                 
    0.000 999%   0.000 -CrCH2                                              
  939.843   5%   0.256 GPC+PCh                                             
 6.45E+03   3%   1.759 NAA+NAAG                                            
 3.67E+03   3%   1.000 Cr+PCr                                              
 6.05E+03  12%   1.650 Glu+Gln                                             
    0.000 999%   0.000 Lip13a                                              
 2.95E+03  29%   0.805 Lip13b                                              
    0.000 999%   0.000 Lip09                                               
 4.42E+03  11%   1.205 MM09                                                
  372.380 106%   0.102 Lip20                                               
 9.83E+03   9%   2.682 MM20                                                
 1.60E+03  24%   0.437 MM12                                                
 5.87E+03  16%   1.601 MM14                                                
 2.62E+03  25%   0.714 MM17                                                
 2.95E+03  29%   0.805 Lip13a+Lip13b                                       
 1.04E+04   9%   2.843 MM14+Lip13a+Lip13b+MM12                             
 4.42E+03  11%   1.205 MM09+Lip09                                          
 1.02E+04   9%   2.783 MM20+Lip20                                          
   6 lines in following misc. output table
  FWHM = 0.046 ppm    S/N =  16                                            
  Data shift = 0.000 ppm                                                   
  Ph:  -2 deg       1.6 deg/ppm                                            
  alphaB,S = 2.2E+00,   5.1E+01                                            
   14 spline knots.   Ns = 6(1)                                            
  (11) 4 infls.   (13) 1 extrs.                                            
  498 points on ppm-axis = NY
      4.000000     3.992357     3.984714     3.977070     3.969427     3.961784     3.954141     3.946497     3.938854     3.931211
      3.923568     3.915925     3.908281     3.900638     3.892995     3.885352     3.877708     3.870065     3.862422     3.854779
      3.847136     3.839492     3.831849     3.824206     3.816563     3.808919     3.801276     3.793633     3.785990     3.778347
      3.770703     3.763060     3.755417     3.747774     3.740130     3.732487     3.724844     3.717201     3.709558     3.701914
      3.694271     3.686628     3.678985     3.671341     3.663698     3.656055     3.648412     3.640769     3.633125     3.625482
      3.617839     3.610196     3.602552     3.594909     3.587266     3.579623     3.571980     3.564336     3.556693     3.549050
      3.541407     3.533763     3.526120     3.518477     3.510834     3.503191     3.495547     3.487904     3.480261     3.472618
      3.464974     3.457331     3.449688     3.442045     3.434402     3.426758     3.419115     3.411472     3.403829     3.396185
      3.388542     3.380899     3.373256     3.365613     3.357969     3.350326     3.342683     3.335040     3.327396     3.319753
      3.312110     3.304467     3.296824     3.289180     3.281537     3.273894     3.266251     3.258607     3.250964     3.243321
      3.235678     3.228034     3.220391     3.212748     3.205105     3.197462     3.189818     3.182175     3.174532     3.166889
      3.159245     3.151602     3.143959     3.136316     3.128673     3.121029     3.113386     3.105743     3.098100     3.090456
      3.082813     3.075170     3.067527     3.059884     3.052240     3.044597     3.036954     3.029311     3.021667     3.014024
      3.006381     2.998738     2.991095     2.983451     2.975808     2.968165     2.960522     2.952878     2.945235     2.937592
      2.929949     2.922306     2.914662     2.907019     2.899376     2.891733     2.884089     2.876446     2.868803     2.861160
      2.853517     2.845873     2.838230     2.830587     2.822944     2.815300     2.807657     2.800014     2.792371     2.784728
      2.777084     2.769441     2.761798     2.754155     2.746511     2.738868     2.731225     2.723582     2.715939     2.708295
      2.700652     2.693009     2.685366     2.677722     2.670079     2.662436     2.654793     2.647150     2.639506     2.631863
      2.624220     2.616577     2.608933     2.601290     2.593647     2.586004     2.578361     2.570717     2.563074     2.555431
      2.547788     2.540144     2.532501     2.524858     2.517215     2.509572     2.501928     2.494285     2.486642     2.478999
      2.471355     2.463712     2.456069     2.448426     2.440783     2.433139     2.425496     2.417853     2.410210     2.402566
      2.394923     2.387280     2.379637     2.371994     2.364350     2.356707     2.349064     2.341421     2.333777     2.326134
      2.318491     2.310848     2.303205     2.295561     2.287918     2.280275     2.272632     2.264988     2.257345     2.249702
      2.242059     2.234416     2.226772     2.219129     2.211486     2.203843     2.196199     2.188556     2.180913     2.173270
      2.165627     2.157983     2.150340     2.142697     2.135054     2.127410     2.119767     2.112124     2.104481     2.096838
      2.089194     2.081551     2.073908     2.066265     2.058621     2.050978     2.043335     2.035692     2.028049     2.020405
      2.012762     2.005119     1.997476     1.989833     1.982190     1.974546     1.966903     1.959260     1.951617     1.943974
      1.936331     1.928688     1.921045     1.913402     1.905759     1.898115     1.890472     1.882829     1.875186     1.867543
      1.859900     1.852257     1.844614     1.836971     1.829327     1.821684     1.814041     1.806398     1.798755     1.791112
      1.783469     1.775826     1.768183     1.760540     1.752896     1.745253     1.737610     1.729967     1.722324     1.714681
      1.707038     1.699395     1.691752     1.684108     1.676465     1.668822     1.661179     1.653536     1.645893     1.638250
      1.630607     1.622964     1.615321     1.607677     1.600034     1.592391     1.584748     1.577105     1.569462     1.561819
      1.554176     1.546533     1.538890     1.531246     1.523603     1.515960     1.508317     1.500674     1.493031     1.485388
      1.477745     1.470102     1.462458     1.454815     1.447172     1.439529     1.431886     1.424243     1.416600     1.408957
      1.401314     1.393671     1.386027     1.378384     1.370741     1.363098     1.355455     1.347812     1.340169     1.332526
      1.324883     1.317240     1.309596     1.301953     1.294310     1.286667     1.279024     1.271381     1.263738     1.256095
      1.248452     1.240808     1.233165     1.225522     1.217879     1.210236     1.202593     1.194950     1.187307     1.179664
      1.172021     1.164377     1.156734     1.149091     1.141448     1.133805     1.126162     1.118519     1.110876     1.103233
      1.095590     1.087946     1.080303     1.072660     1.065017     1.057374     1.049731     1.042088     1.034445     1.026802
      1.019158     1.011515     1.003872     0.996229     0.988586     0.980943     0.973300     0.965657     0.958014     0.950371
      0.942727     0.935084     0.927441     0.919798     0.912155     0.904512     0.896869     0.889226     0.881583     0.873940
      0.866296     0.858653     0.851010     0.843367     0.835724     0.828081     0.820438     0.812795     0.805152     0.797508
      0.789865     0.782222     0.774579     0.766936     0.759293     0.751650     0.744007     0.736364     0.728721     0.721077
      0.713434     0.705791     0.698148     0.690505     0.682862     0.675219     0.667576     0.659933     0.652290     0.644646
      0.637003     0.629360     0.621717     0.614074     0.606431     0.598788     0.591145     0.583502     0.575858     0.568215
      0.560572     0.552929     0.545286     0.537643     0.530000     0.522357     0.514714     0.507071     0.499427     0.491784
      0.484141     0.476498     0.468855     0.461212     0.453569     0.445925     0.438282     0.430639     0.422996     0.415353
      0.407710     0.400067     0.392424     0.384780     0.377137     0.369494     0.361851     0.354208     0.346565     0.338922
      0.331278     0.323635     0.315992     0.308349     0.300706     0.293063     0.285420     0.277777     0.270133     0.262490
      0.254847     0.247204     0.239561     0.231918     0.224275     0.216631     0.208988     0.201345
 NY phased data points follow
   5.86051E+01  4.44282E+01  6.51434E+01  5.60704E+01  6.06279E+01  5.94254E+01  9.10594E+01  9.93698E+01  1.18368E+02  1.18658E+02
   1.38809E+02  1.24791E+02  1.42122E+02  1.17458E+02  1.23914E+02  9.37013E+01  8.63876E+01  6.95844E+01  6.46231E+01  6.09418E+01
   7.02137E+01  7.70343E+01  6.70523E+01  5.62905E+01  6.71705E+01  4.89714E+01  6.41871E+01  6.07496E+01  7.16399E+01  7.05223E+01
   9.17271E+01  7.39136E+01  8.94776E+01  6.15987E+01  7.40282E+01  6.06777E+01  7.26684E+01  5.88433E+01  6.61038E+01  5.46117E+01
   6.00282E+01  5.86837E+01  5.64444E+01  4.97051E+01  6.03597E+01  5.71045E+01  7.28931E+01  7.45677E+01  7.56147E+01  6.96519E+01
   7.80011E+01  6.25615E+01  5.57175E+01  4.21265E+01  6.73849E+01  4.71843E+01  5.72962E+01  5.33099E+01  6.34036E+01  4.57449E+01
   4.84253E+01  4.68496E+01  4.16813E+01  3.79552E+01  3.31964E+01  3.07185E+01  2.94593E+01  2.27932E+01  2.87408E+01  2.28563E+01
   4.20102E+01  3.59967E+01  3.86053E+01  3.82008E+01  4.43434E+01  2.47030E+01  3.06191E+01  3.40002E+01  1.90365E+01  3.35596E+01
   3.78898E+01  2.95210E+01  3.32115E+01  2.82827E+01  3.62814E+01  2.95033E+01  3.82022E+01  2.09265E+01  3.73421E+01  2.55030E+01
   3.22027E+01  2.47420E+01  3.37639E+01  2.86299E+01  4.25184E+01  2.54610E+01  3.52706E+01  3.59963E+01  4.17513E+01  5.02086E+01
   7.52926E+01  8.75136E+01  9.82250E+01  1.13550E+02  1.21357E+02  1.01334E+02  9.41361E+01  5.84411E+01  6.19430E+01  5.31077E+01
   4.39949E+01  3.22949E+01  3.97546E+01  2.72754E+01  3.72280E+01  2.87112E+01  3.37784E+01  3.40113E+01  3.86865E+01  2.10650E+01
   3.04792E+01  2.39768E+01  4.70715E+01  5.45335E+01  8.20040E+01  1.16928E+02  1.43924E+02  1.54080E+02  1.60457E+02  1.34657E+02
   1.17256E+02  8.60074E+01  7.77867E+01  5.98592E+01  5.29978E+01  4.15246E+01  2.90057E+01  3.02658E+01  2.63196E+01  1.88182E+01
   2.67399E+01  2.33080E+01  3.26331E+01  1.58302E+01  3.17695E+01  2.18298E+01  1.99547E+01  2.07319E+01  2.21258E+01  1.57583E+01
   2.30909E+01  1.02113E+01  2.73882E+01  1.85026E+01  2.35138E+01  1.48892E+01  1.32597E+01  1.27498E+01  5.82464E+00  1.62434E+01
   1.45630E+01  1.02433E+01  4.28724E+00  1.57627E+01  1.57623E+01  1.96883E+01  2.55601E+01  3.92946E+00  7.91360E+00 -2.92398E+00
  -1.65780E+00 -7.79735E+00 -1.28730E+01 -2.15633E+01 -8.23617E+00 -1.52274E+01 -1.94473E+01 -1.84570E+01 -4.94090E+00 -5.69290E+00
  -1.55126E+01 -2.36367E+01 -1.43376E+01 -1.06140E+01 -2.66702E+00 -7.17806E+00 -2.38408E+00 -3.99445E+00 -2.54843E+00  1.01672E+01
   2.37225E+01  1.96438E+01  1.12565E+01  1.27641E+01  1.53017E+01  1.29643E+01  8.75027E-02 -1.98316E+00  7.53934E+00 -7.92767E+00
   1.53632E+01  1.25015E+01  2.47074E+01  1.66314E+01  2.29765E+01  7.62626E+00  2.46763E+01  2.84132E+00  3.69209E+00 -1.99930E+00
   1.46197E+00  1.41143E+01  1.45431E+01  2.44989E+01  2.76796E+01  4.55567E+01  6.02829E+01  4.53461E+01  3.58412E+01  1.88123E+01
   1.55995E+01  7.71942E+00  8.86453E+00  3.18245E+00  1.44528E+01  1.77320E+01  2.21977E+01  3.15564E+01  3.72195E+01  2.33328E+01
   3.22354E+01  2.80038E+01  2.64106E+01  2.50010E+01  2.46406E+01  2.64920E+01  3.50006E+01  3.10350E+01  4.03796E+01  2.83526E+01
   2.54723E+01  1.95272E+01  3.88809E+01  2.27659E+01  3.99831E+01  3.98597E+01  4.64160E+01  4.55739E+01  5.09700E+01  5.06938E+01
   6.75703E+01  6.58430E+01  6.29347E+01  6.20082E+01  9.10639E+01  9.13218E+01  1.08038E+02  1.42564E+02  1.91339E+02  2.24667E+02
   2.70619E+02  2.71339E+02  2.26423E+02  1.75266E+02  1.30721E+02  9.49920E+01  7.20263E+01  6.22888E+01  5.20595E+01  4.28974E+01
   3.77853E+01  2.84504E+01  2.29677E+01  2.65983E+01  2.24293E+01  1.37110E+01  2.04710E+01  1.27914E+01  1.47161E+01  2.31835E+01
   1.56393E+01  1.33152E+01  1.68992E+01  5.42659E+00  1.89044E+01  5.27915E+00  1.84897E+01  1.32091E+01  1.60151E+01  7.43827E+00
   1.83142E+01  1.83534E+01  1.25498E+01  2.06231E+00  1.76299E+01  1.51232E+01  1.77737E+01  8.14772E+00  1.67898E+01  1.64349E+01
   1.85171E+01  1.30804E+01  2.18765E+01  2.34432E+01  1.40884E+01  1.35623E+01  2.70003E+01  2.79026E+01  2.35925E+01  2.83885E+01
   3.37281E+01  2.52138E+01  3.13844E+01  2.54618E+01  3.86504E+01  2.07623E+01  3.45385E+01  3.02856E+01  3.51369E+01  2.48950E+01
   3.14641E+01  3.85738E+01  3.59753E+01  2.61372E+01  4.60835E+01  3.84951E+01  3.88603E+01  3.72516E+01  4.17249E+01  2.93262E+01
   3.67128E+01  3.72564E+01  3.20628E+01  4.82883E+01  3.37419E+01  3.92534E+01  5.00811E+01  4.42067E+01  4.79429E+01  2.85327E+01
   3.64756E+01  3.52479E+01  4.26147E+01  2.44154E+01  3.12661E+01  2.81699E+01  3.23504E+01  3.09438E+01  2.99731E+01  1.72709E+01
   2.94677E+01  1.20000E+01  2.12071E+01  3.67765E+01  3.09371E+01  3.30116E+01  4.79239E+01  4.45370E+01  3.43502E+01  4.10332E+01
   3.58318E+01  3.63298E+01  3.61539E+01  3.63005E+01  3.09401E+01  3.82132E+01  4.40918E+01  2.57344E+01  2.74779E+01  3.12278E+01
   2.47142E+01  2.90018E+01  2.49982E+01  2.45383E+01  2.14398E+01  1.59582E+01  1.39928E+01  1.32191E+01  1.37780E+01  1.69587E+01
   1.33948E+01  1.42103E+01  1.35093E+01  1.20985E+01  1.57213E+01  1.78971E+01  2.35873E+01  1.40775E+01  2.00878E+01  1.68512E+01
   2.28870E+01  1.36776E+01  2.34989E+01  2.84685E+01  2.88094E+01  2.35623E+01  3.57438E+01  2.36884E+01  2.36034E+01  2.78779E+01
   3.01934E+01  3.07758E+01  2.09573E+01  2.43866E+01  3.18592E+01  3.04973E+01  2.89775E+01  3.16936E+01  2.53602E+01  2.82051E+01
   2.87689E+01  1.91018E+01  2.85632E+01  1.75007E+01  2.07045E+01  2.17223E+01  1.70579E+01  1.41707E+01  1.73217E+01  1.44314E+01
   9.53758E+00  1.37370E+01  1.79694E+01  1.36550E+01  7.59224E+00  1.17583E+01  9.17470E+00 -6.48318E+00  1.25458E+01  4.42114E+00
   3.23938E+00  6.70382E+00  3.82171E+00  6.19159E+00  1.91992E+01  5.07351E+00 -2.11511E+00  4.16573E+00  4.51972E+00  1.10759E+01
   4.37794E+00  1.24204E+01  1.11668E+01  2.76527E+00  2.50516E+00  3.52046E+00  4.31886E+00  1.18634E+01  8.72541E+00  1.31254E+01
   5.43161E+00  3.39384E+00  5.19124E+00  6.43919E+00  1.42226E+01  8.18389E+00  1.37100E+01  2.48793E+00  1.56488E+01  2.83581E-01
   2.64721E+00  1.22378E+01  3.79007E+00  4.22986E+00  8.86044E+00  2.07240E+01 -4.85688E+00  3.01887E-01 -1.08302E+00  1.74191E+01
   8.77635E+00  6.24384E+00  2.05068E+01 -5.26053E-01  4.31016E+00  2.45462E+00  2.30274E+00 -7.74350E+00 -3.02526E+00 -1.75056E+00
   7.43037E+00  5.74410E+00  1.22328E-01  1.02846E+01  2.59118E+00  5.03372E+00  7.38000E+00  2.41990E+00  8.74466E+00 -5.66642E-01
   2.63799E+00 -4.22987E+00  2.50161E+00 -3.25617E-01  2.31202E-01  6.19827E+00  1.10126E+01  1.01655E+01
 NY points of the fit to the data follow
   5.91945E+01  5.75512E+01  5.75638E+01  5.92417E+01  6.24509E+01  6.85614E+01  7.92277E+01  9.20997E+01  1.06334E+02  1.20322E+02
   1.29854E+02  1.33397E+02  1.30269E+02  1.20011E+02  1.05725E+02  9.13315E+01  7.94822E+01  7.26716E+01  6.80955E+01  6.23753E+01
   5.88596E+01  5.76896E+01  5.64278E+01  5.48370E+01  5.39615E+01  5.36908E+01  5.55178E+01  6.08374E+01  6.89304E+01  7.82638E+01
   8.55877E+01  8.77521E+01  8.44320E+01  7.76185E+01  6.99558E+01  6.35383E+01  5.76396E+01  5.19364E+01  4.89066E+01  4.80807E+01
   4.81184E+01  4.87384E+01  5.04549E+01  5.37656E+01  5.81518E+01  6.33495E+01  6.89663E+01  7.32509E+01  7.39097E+01  6.98576E+01
   6.21940E+01  5.41044E+01  4.82809E+01  4.49908E+01  4.29989E+01  4.15637E+01  4.15861E+01  4.32036E+01  4.55181E+01  4.77873E+01
   4.91603E+01  4.89102E+01  4.69018E+01  4.36875E+01  4.05568E+01  3.85503E+01  3.78592E+01  3.80442E+01  3.88788E+01  4.00028E+01
   4.11820E+01  4.21473E+01  4.26500E+01  4.24555E+01  4.15149E+01  4.01434E+01  3.88719E+01  3.79197E+01  3.72902E+01  3.66219E+01
   3.61660E+01  3.60050E+01  3.59132E+01  3.59434E+01  3.57590E+01  3.49042E+01  3.30609E+01  3.01914E+01  2.70945E+01  2.50489E+01
   2.47879E+01  2.61098E+01  2.78838E+01  2.92162E+01  3.02506E+01  3.12212E+01  3.21144E+01  3.48701E+01  4.08967E+01  5.00631E+01
   6.58885E+01  8.68681E+01  1.07569E+02  1.21661E+02  1.21718E+02  1.07074E+02  8.59785E+01  6.73845E+01  5.56385E+01  4.84273E+01
   4.00508E+01  3.16480E+01  2.88155E+01  2.81849E+01  2.80379E+01  2.80689E+01  2.81704E+01  2.83247E+01  2.86115E+01  2.92593E+01
   3.11733E+01  3.68712E+01  4.76251E+01  6.32633E+01  8.62975E+01  1.14964E+02  1.42616E+02  1.61071E+02  1.61716E+02  1.43527E+02
   1.16575E+02  9.22832E+01  7.56585E+01  6.35519E+01  4.93634E+01  3.47186E+01  2.67269E+01  2.40631E+01  2.43073E+01  2.61516E+01
   2.80212E+01  2.91554E+01  2.95513E+01  2.89578E+01  2.76890E+01  2.63507E+01  2.50681E+01  2.38342E+01  2.26043E+01  2.12697E+01
   2.01291E+01  1.90867E+01  1.81724E+01  1.74966E+01  1.70719E+01  1.67160E+01  1.63631E+01  1.58159E+01  1.46911E+01  1.31840E+01
   1.15823E+01  1.05550E+01  1.08308E+01  1.19579E+01  1.29351E+01  1.28087E+01  1.11391E+01  8.79352E+00  7.07483E+00  6.04124E+00
   5.16725E+00  4.08337E+00  2.61980E+00  9.89744E-01 -4.25317E-01 -1.51297E+00 -1.79363E+00 -9.76240E-01  1.84013E-01  6.42348E-01
   1.37906E-01 -9.17700E-01 -1.39720E+00 -7.53182E-01  7.66899E-02  5.53627E-01  1.79250E+00  4.62579E+00  9.37106E+00  1.45977E+01
   1.80924E+01  1.91340E+01  1.77163E+01  1.49520E+01  1.22043E+01  9.95521E+00  8.60400E+00  8.87994E+00  1.10434E+01  1.47600E+01
   1.94492E+01  2.39960E+01  2.69849E+01  2.77988E+01  2.60124E+01  2.18912E+01  1.50103E+01  6.66724E+00 -3.58959E-01 -3.90605E+00
  -3.04839E+00  1.37045E+00  7.97947E+00  1.61702E+01  2.47469E+01  3.21142E+01  3.59544E+01  3.38489E+01  2.57918E+01  1.55828E+01
   6.36808E+00 -1.35472E-01 -3.05663E+00 -1.87448E+00  3.95162E+00  1.28864E+01  2.07354E+01  2.56770E+01  2.77133E+01  2.80994E+01
   2.78990E+01  2.69810E+01  2.60474E+01  2.67849E+01  2.93569E+01  3.28777E+01  3.65462E+01  3.94639E+01  4.05261E+01  3.89977E+01
   3.52702E+01  3.12452E+01  2.91955E+01  2.97695E+01  3.25361E+01  3.69781E+01  4.17405E+01  4.53565E+01  4.77681E+01  4.99408E+01
   5.25506E+01  5.54164E+01  5.92196E+01  6.50822E+01  7.67269E+01  9.56107E+01  1.17204E+02  1.49031E+02  1.90701E+02  2.32767E+02
   2.62940E+02  2.63800E+02  2.29689E+02  1.78375E+02  1.32493E+02  1.03053E+02  8.48918E+01  6.40196E+01  4.13652E+01  3.20448E+01
   2.83139E+01  2.58718E+01  2.42067E+01  2.32607E+01  2.24568E+01  2.15503E+01  2.04567E+01  1.92078E+01  1.79483E+01  1.68437E+01
   1.58664E+01  1.49503E+01  1.41819E+01  1.36242E+01  1.31974E+01  1.28090E+01  1.24546E+01  1.21831E+01  1.20441E+01  1.20101E+01
   1.20847E+01  1.23008E+01  1.26458E+01  1.30717E+01  1.35606E+01  1.41077E+01  1.47219E+01  1.54099E+01  1.61630E+01  1.69734E+01
   1.78499E+01  1.87753E+01  1.97227E+01  2.06642E+01  2.15774E+01  2.24508E+01  2.32765E+01  2.40401E+01  2.47443E+01  2.53940E+01
   2.59921E+01  2.65470E+01  2.70749E+01  2.75944E+01  2.81251E+01  2.86871E+01  2.93011E+01  2.99893E+01  3.07771E+01  3.16979E+01
   3.28170E+01  3.42194E+01  3.57056E+01  3.72710E+01  3.88246E+01  3.98708E+01  4.00374E+01  3.90792E+01  3.70942E+01  3.50508E+01
   3.37529E+01  3.33803E+01  3.39730E+01  3.51632E+01  3.67112E+01  3.87539E+01  4.03704E+01  4.06546E+01  3.98309E+01  3.85626E+01
   3.75165E+01  3.69436E+01  3.62378E+01  3.54916E+01  3.51785E+01  3.46707E+01  3.34464E+01  3.12004E+01  2.80233E+01  2.51216E+01
   2.35055E+01  2.36526E+01  2.56102E+01  2.87001E+01  3.23493E+01  3.64304E+01  3.98388E+01  4.14882E+01  4.16605E+01  4.10698E+01
   4.02624E+01  3.91636E+01  3.72668E+01  3.50393E+01  3.29059E+01  3.08065E+01  2.87555E+01  2.67979E+01  2.49757E+01  2.33182E+01
   2.18406E+01  2.05461E+01  1.94297E+01  1.84819E+01  1.76915E+01  1.70471E+01  1.65379E+01  1.61556E+01  1.58946E+01  1.57518E+01
   1.57256E+01  1.58151E+01  1.60190E+01  1.63365E+01  1.67665E+01  1.73074E+01  1.79558E+01  1.87056E+01  1.95487E+01  2.04746E+01
   2.14709E+01  2.25228E+01  2.36118E+01  2.47171E+01  2.58154E+01  2.68828E+01  2.78945E+01  2.88256E+01  2.96514E+01  3.03488E+01
   3.08973E+01  3.12809E+01  3.14875E+01  3.15097E+01  3.13445E+01  3.09940E+01  3.04660E+01  2.97731E+01  2.89318E+01  2.79612E+01
   2.68826E+01  2.57188E+01  2.44933E+01  2.32298E+01  2.19500E+01  2.06735E+01  1.94174E+01  1.81967E+01  1.70239E+01  1.59086E+01
   1.48575E+01  1.38742E+01  1.29607E+01  1.21172E+01  1.13430E+01  1.06357E+01  9.99178E+00  9.40677E+00  8.87638E+00  8.39656E+00
   7.96328E+00  7.57227E+00  7.21907E+00  6.89956E+00  6.61037E+00  6.34873E+00  6.11199E+00  5.89732E+00  5.70201E+00  5.52388E+00
   5.36140E+00  5.21335E+00  5.07833E+00  4.95475E+00  4.84114E+00  4.73658E+00  4.64058E+00  4.55262E+00  4.47185E+00  4.39726E+00
   4.32812E+00  4.26419E+00  4.20542E+00  4.15148E+00  4.10175E+00  4.05555E+00  4.01261E+00  3.97301E+00  3.93680E+00  3.90365E+00
   3.87299E+00  3.84444E+00  3.81804E+00  3.79399E+00  3.77231E+00  3.75258E+00  3.73436E+00  3.71747E+00  3.70214E+00  3.68857E+00
   3.67665E+00  3.66595E+00  3.65616E+00  3.64734E+00  3.63979E+00  3.63364E+00  3.62861E+00  3.62429E+00  3.62054E+00  3.61759E+00
   3.61572E+00  3.61491E+00  3.61479E+00  3.61505E+00  3.61575E+00  3.61721E+00  3.61961E+00  3.62276E+00  3.62629E+00  3.63004E+00
   3.63421E+00  3.63913E+00  3.64485E+00  3.65106E+00  3.65744E+00  3.66402E+00  3.67112E+00  3.67900E+00
 NY background values follow
     4.841E+01    4.816E+01    4.792E+01    4.767E+01    4.742E+01    4.717E+01    4.693E+01    4.668E+01    4.643E+01    4.618E+01
     4.594E+01    4.569E+01    4.544E+01    4.519E+01    4.495E+01    4.470E+01    4.445E+01    4.420E+01    4.396E+01    4.371E+01
     4.346E+01    4.321E+01    4.297E+01    4.272E+01    4.247E+01    4.222E+01    4.198E+01    4.173E+01    4.148E+01    4.124E+01
     4.099E+01    4.074E+01    4.050E+01    4.025E+01    4.000E+01    3.976E+01    3.951E+01    3.926E+01    3.902E+01    3.877E+01
     3.853E+01    3.828E+01    3.804E+01    3.779E+01    3.755E+01    3.730E+01    3.706E+01    3.681E+01    3.657E+01    3.633E+01
     3.608E+01    3.584E+01    3.560E+01    3.535E+01    3.511E+01    3.487E+01    3.463E+01    3.438E+01    3.414E+01    3.390E+01
     3.366E+01    3.342E+01    3.318E+01    3.294E+01    3.270E+01    3.246E+01    3.222E+01    3.198E+01    3.175E+01    3.151E+01
     3.127E+01    3.104E+01    3.080E+01    3.057E+01    3.033E+01    3.010E+01    2.986E+01    2.963E+01    2.940E+01    2.916E+01
     2.893E+01    2.870E+01    2.847E+01    2.824E+01    2.801E+01    2.778E+01    2.756E+01    2.733E+01    2.710E+01    2.688E+01
     2.665E+01    2.643E+01    2.620E+01    2.598E+01    2.576E+01    2.554E+01    2.532E+01    2.509E+01    2.488E+01    2.466E+01
     2.444E+01    2.422E+01    2.401E+01    2.379E+01    2.358E+01    2.336E+01    2.315E+01    2.294E+01    2.273E+01    2.251E+01
     2.230E+01    2.210E+01    2.189E+01    2.168E+01    2.147E+01    2.127E+01    2.106E+01    2.086E+01    2.066E+01    2.046E+01
     2.026E+01    2.006E+01    1.986E+01    1.966E+01    1.946E+01    1.927E+01    1.907E+01    1.888E+01    1.868E+01    1.849E+01
     1.830E+01    1.811E+01    1.792E+01    1.773E+01    1.755E+01    1.736E+01    1.717E+01    1.699E+01    1.681E+01    1.663E+01
     1.645E+01    1.627E+01    1.609E+01    1.591E+01    1.573E+01    1.556E+01    1.538E+01    1.521E+01    1.504E+01    1.487E+01
     1.470E+01    1.453E+01    1.436E+01    1.420E+01    1.403E+01    1.387E+01    1.371E+01    1.354E+01    1.338E+01    1.322E+01
     1.307E+01    1.291E+01    1.275E+01    1.260E+01    1.245E+01    1.229E+01    1.214E+01    1.199E+01    1.185E+01    1.170E+01
     1.155E+01    1.141E+01    1.127E+01    1.112E+01    1.098E+01    1.084E+01    1.071E+01    1.057E+01    1.043E+01    1.030E+01
     1.017E+01    1.004E+01    9.905E+00    9.776E+00    9.648E+00    9.522E+00    9.397E+00    9.273E+00    9.151E+00    9.030E+00
     8.910E+00    8.791E+00    8.673E+00    8.557E+00    8.442E+00    8.328E+00    8.215E+00    8.104E+00    7.993E+00    7.884E+00
     7.776E+00    7.668E+00    7.563E+00    7.458E+00    7.354E+00    7.251E+00    7.150E+00    7.049E+00    6.950E+00    6.851E+00
     6.754E+00    6.657E+00    6.562E+00    6.467E+00    6.374E+00    6.281E+00    6.190E+00    6.099E+00    6.010E+00    5.921E+00
     5.833E+00    5.746E+00    5.661E+00    5.575E+00    5.491E+00    5.408E+00    5.326E+00    5.244E+00    5.163E+00    5.083E+00
     5.004E+00    4.926E+00    4.848E+00    4.772E+00    4.696E+00    4.621E+00    4.547E+00    4.474E+00    4.401E+00    4.329E+00
     4.259E+00    4.188E+00    4.119E+00    4.051E+00    3.983E+00    3.916E+00    3.850E+00    3.784E+00    3.719E+00    3.656E+00
     3.592E+00    3.530E+00    3.468E+00    3.408E+00    3.347E+00    3.288E+00    3.229E+00    3.171E+00    3.114E+00    3.058E+00
     3.002E+00    2.947E+00    2.893E+00    2.839E+00    2.786E+00    2.734E+00    2.683E+00    2.632E+00    2.582E+00    2.532E+00
     2.484E+00    2.436E+00    2.388E+00    2.342E+00    2.296E+00    2.250E+00    2.206E+00    2.162E+00    2.118E+00    2.076E+00
     2.034E+00    1.992E+00    1.952E+00    1.911E+00    1.872E+00    1.833E+00    1.795E+00    1.757E+00    1.720E+00    1.684E+00
     1.648E+00    1.613E+00    1.578E+00    1.544E+00    1.511E+00    1.478E+00    1.446E+00    1.415E+00    1.384E+00    1.353E+00
     1.323E+00    1.294E+00    1.265E+00    1.237E+00    1.210E+00    1.183E+00    1.156E+00    1.130E+00    1.105E+00    1.080E+00
     1.056E+00    1.032E+00    1.009E+00    9.859E-01    9.637E-01    9.421E-01    9.209E-01    9.002E-01    8.801E-01    8.605E-01
     8.413E-01    8.227E-01    8.046E-01    7.869E-01    7.698E-01    7.531E-01    7.369E-01    7.212E-01    7.060E-01    6.912E-01
     6.769E-01    6.631E-01    6.497E-01    6.369E-01    6.244E-01    6.124E-01    6.009E-01    5.898E-01    5.792E-01    5.690E-01
     5.593E-01    5.500E-01    5.411E-01    5.326E-01    5.246E-01    5.170E-01    5.099E-01    5.031E-01    4.968E-01    4.908E-01
     4.853E-01    4.802E-01    4.755E-01    4.712E-01    4.673E-01    4.637E-01    4.606E-01    4.579E-01    4.555E-01    4.535E-01
     4.519E-01    4.507E-01    4.498E-01    4.493E-01    4.492E-01    4.495E-01    4.501E-01    4.510E-01    4.524E-01    4.541E-01
     4.561E-01    4.585E-01    4.613E-01    4.644E-01    4.678E-01    4.716E-01    4.758E-01    4.803E-01    4.851E-01    4.903E-01
     4.958E-01    5.017E-01    5.079E-01    5.144E-01    5.213E-01    5.285E-01    5.360E-01    5.439E-01    5.520E-01    5.605E-01
     5.694E-01    5.785E-01    5.880E-01    5.978E-01    6.078E-01    6.183E-01    6.290E-01    6.400E-01    6.514E-01    6.630E-01
     6.750E-01    6.872E-01    6.998E-01    7.126E-01    7.258E-01    7.392E-01    7.530E-01    7.670E-01    7.813E-01    7.960E-01
     8.108E-01    8.260E-01    8.414E-01    8.571E-01    8.731E-01    8.893E-01    9.057E-01    9.224E-01    9.393E-01    9.564E-01
     9.738E-01    9.914E-01    1.009E+00    1.027E+00    1.045E+00    1.064E+00    1.082E+00    1.101E+00    1.120E+00    1.139E+00
     1.158E+00    1.178E+00    1.197E+00    1.217E+00    1.237E+00    1.257E+00    1.277E+00    1.297E+00    1.318E+00    1.338E+00
     1.359E+00    1.379E+00    1.400E+00    1.421E+00    1.442E+00    1.463E+00    1.484E+00    1.505E+00    1.527E+00    1.548E+00
     1.569E+00    1.591E+00    1.612E+00    1.634E+00    1.655E+00    1.677E+00    1.698E+00    1.720E+00    1.742E+00    1.763E+00
     1.785E+00    1.807E+00    1.828E+00    1.850E+00    1.872E+00    1.894E+00    1.916E+00    1.937E+00    1.959E+00    1.981E+00
     2.003E+00    2.025E+00    2.047E+00    2.069E+00    2.091E+00    2.113E+00    2.135E+00    2.157E+00    2.179E+00    2.201E+00
     2.223E+00    2.245E+00    2.267E+00    2.289E+00    2.311E+00    2.333E+00    2.355E+00    2.377E+00    2.399E+00    2.421E+00
     2.443E+00    2.465E+00    2.488E+00    2.510E+00    2.532E+00    2.554E+00    2.576E+00    2.598E+00
 Ala      Conc. = 4.20E+02
