 LCModel (Version 6.3-1L) Copyright: S.W. Provencher.          Ref.: Magn. Reson. Med. 30:672-679 (1993).                
 Slice#1 Row#9 Col#11  PD_05_press_2_raw_act
 36 lines in following concentration table = NCONC+1
    Conc.  %SD /Cr+PCr  Metabolite                                         
    0.000 999%   0.000 Ala                                                 
   56.518 197%   0.119 Asp                                                 
  322.601  45%   0.679 Cr                                                  
  152.779  99%   0.321 PCr                                                 
   29.060 240% 6.1E-02 GABA                                                
   85.727  80%   0.180 Glc                                                 
  487.058  47%   1.025 Gln                                                 
  669.130  38%   1.408 Glu                                                 
  144.836  12%   0.305 GPC                                                 
    0.000 999%   0.000 PCh                                                 
  211.951  31%   0.446 GSH                                                 
  898.600  22%   1.890 Ins                                                 
    0.000 999%   0.000 Lac                                                 
 1.17E+03   5%   2.469 NAA                                                 
    0.000 999%   0.000 NAAG                                                
   45.414  38% 9.6E-02 Scyllo                                              
  222.542  47%   0.468 Tau                                                 
  278.415  28%   0.586 -CrCH2                                              
  144.836  12%   0.305 GPC+PCh                                             
 1.17E+03   5%   2.469 NAA+NAAG                                            
  475.380  10%   1.000 Cr+PCr                                              
 1.16E+03  32%   2.432 Glu+Gln                                             
    0.000 999%   0.000 Lip13a                                              
    0.000 999%   0.000 Lip13b                                              
 2.70E-03 999% 5.7E-06 Lip09                                               
  530.608  21%   1.116 MM09                                                
    0.000 999%   0.000 Lip20                                               
  879.203  24%   1.849 MM20                                                
  133.713  60%   0.281 MM12                                                
    0.000 999%   0.000 MM14                                                
   16.927 757% 3.6E-02 MM17                                                
    0.000 999%   0.000 Lip13a+Lip13b                                       
  133.713  60%   0.281 MM14+Lip13a+Lip13b+MM12                             
  530.611  21%   1.116 MM09+Lip09                                          
  879.203  24%   1.849 MM20+Lip20                                          
   6 lines in following misc. output table
  FWHM = 0.069 ppm    S/N =   6                                            
  Data shift = 0.015 ppm                                                   
  Ph: -36 deg      -5.5 deg/ppm                                            
  alphaB,S = 8.5E+01,   1.5E+02                                            
   14 spline knots.   Ns = 7(1)                                            
   4 inflections.     1 extrema                                            
  498 points on ppm-axis = NY
      4.000000     3.992357     3.984714     3.977070     3.969427     3.961784     3.954141     3.946497     3.938854     3.931211
      3.923568     3.915925     3.908281     3.900638     3.892995     3.885352     3.877708     3.870065     3.862422     3.854779
      3.847136     3.839492     3.831849     3.824206     3.816563     3.808919     3.801276     3.793633     3.785990     3.778347
      3.770703     3.763060     3.755417     3.747774     3.740130     3.732487     3.724844     3.717201     3.709558     3.701914
      3.694271     3.686628     3.678985     3.671341     3.663698     3.656055     3.648412     3.640769     3.633125     3.625482
      3.617839     3.610196     3.602552     3.594909     3.587266     3.579623     3.571980     3.564336     3.556693     3.549050
      3.541407     3.533763     3.526120     3.518477     3.510834     3.503191     3.495547     3.487904     3.480261     3.472618
      3.464974     3.457331     3.449688     3.442045     3.434402     3.426758     3.419115     3.411472     3.403829     3.396185
      3.388542     3.380899     3.373256     3.365613     3.357969     3.350326     3.342683     3.335040     3.327396     3.319753
      3.312110     3.304467     3.296824     3.289180     3.281537     3.273894     3.266251     3.258607     3.250964     3.243321
      3.235678     3.228034     3.220391     3.212748     3.205105     3.197462     3.189818     3.182175     3.174532     3.166889
      3.159245     3.151602     3.143959     3.136316     3.128673     3.121029     3.113386     3.105743     3.098100     3.090456
      3.082813     3.075170     3.067527     3.059884     3.052240     3.044597     3.036954     3.029311     3.021667     3.014024
      3.006381     2.998738     2.991095     2.983451     2.975808     2.968165     2.960522     2.952878     2.945235     2.937592
      2.929949     2.922306     2.914662     2.907019     2.899376     2.891733     2.884089     2.876446     2.868803     2.861160
      2.853517     2.845873     2.838230     2.830587     2.822944     2.815300     2.807657     2.800014     2.792371     2.784728
      2.777084     2.769441     2.761798     2.754155     2.746511     2.738868     2.731225     2.723582     2.715939     2.708295
      2.700652     2.693009     2.685366     2.677722     2.670079     2.662436     2.654793     2.647150     2.639506     2.631863
      2.624220     2.616577     2.608933     2.601290     2.593647     2.586004     2.578361     2.570717     2.563074     2.555431
      2.547788     2.540144     2.532501     2.524858     2.517215     2.509572     2.501928     2.494285     2.486642     2.478999
      2.471355     2.463712     2.456069     2.448426     2.440783     2.433139     2.425496     2.417853     2.410210     2.402566
      2.394923     2.387280     2.379637     2.371994     2.364350     2.356707     2.349064     2.341421     2.333777     2.326134
      2.318491     2.310848     2.303205     2.295561     2.287918     2.280275     2.272632     2.264988     2.257345     2.249702
      2.242059     2.234416     2.226772     2.219129     2.211486     2.203843     2.196199     2.188556     2.180913     2.173270
      2.165627     2.157983     2.150340     2.142697     2.135054     2.127410     2.119767     2.112124     2.104481     2.096838
      2.089194     2.081551     2.073908     2.066265     2.058621     2.050978     2.043335     2.035692     2.028049     2.020405
      2.012762     2.005119     1.997476     1.989833     1.982190     1.974546     1.966903     1.959260     1.951617     1.943974
      1.936331     1.928688     1.921045     1.913402     1.905759     1.898115     1.890472     1.882829     1.875186     1.867543
      1.859900     1.852257     1.844614     1.836971     1.829327     1.821684     1.814041     1.806398     1.798755     1.791112
      1.783469     1.775826     1.768183     1.760540     1.752896     1.745253     1.737610     1.729967     1.722324     1.714681
      1.707038     1.699395     1.691752     1.684108     1.676465     1.668822     1.661179     1.653536     1.645893     1.638250
      1.630607     1.622964     1.615321     1.607677     1.600034     1.592391     1.584748     1.577105     1.569462     1.561819
      1.554176     1.546533     1.538890     1.531246     1.523603     1.515960     1.508317     1.500674     1.493031     1.485388
      1.477745     1.470102     1.462458     1.454815     1.447172     1.439529     1.431886     1.424243     1.416600     1.408957
      1.401314     1.393671     1.386027     1.378384     1.370741     1.363098     1.355455     1.347812     1.340169     1.332526
      1.324883     1.317240     1.309596     1.301953     1.294310     1.286667     1.279024     1.271381     1.263738     1.256095
      1.248452     1.240808     1.233165     1.225522     1.217879     1.210236     1.202593     1.194950     1.187307     1.179664
      1.172021     1.164377     1.156734     1.149091     1.141448     1.133805     1.126162     1.118519     1.110876     1.103233
      1.095590     1.087946     1.080303     1.072660     1.065017     1.057374     1.049731     1.042088     1.034445     1.026802
      1.019158     1.011515     1.003872     0.996229     0.988586     0.980943     0.973300     0.965657     0.958014     0.950371
      0.942727     0.935084     0.927441     0.919798     0.912155     0.904512     0.896869     0.889226     0.881583     0.873940
      0.866296     0.858653     0.851010     0.843367     0.835724     0.828081     0.820438     0.812795     0.805152     0.797508
      0.789865     0.782222     0.774579     0.766936     0.759293     0.751650     0.744007     0.736364     0.728721     0.721077
      0.713434     0.705791     0.698148     0.690505     0.682862     0.675219     0.667576     0.659933     0.652290     0.644646
      0.637003     0.629360     0.621717     0.614074     0.606431     0.598788     0.591145     0.583502     0.575858     0.568215
      0.560572     0.552929     0.545286     0.537643     0.530000     0.522357     0.514714     0.507071     0.499427     0.491784
      0.484141     0.476498     0.468855     0.461212     0.453569     0.445925     0.438282     0.430639     0.422996     0.415353
      0.407710     0.400067     0.392424     0.384780     0.377137     0.369494     0.361851     0.354208     0.346565     0.338922
      0.331278     0.323635     0.315992     0.308349     0.300706     0.293063     0.285420     0.277777     0.270133     0.262490
      0.254847     0.247204     0.239561     0.231918     0.224275     0.216631     0.208988     0.201345
 NY phased data points follow
   4.93868E+00  3.45518E+00  2.01727E+00  3.14619E+00  3.11129E+00  1.88372E+00  3.21564E+00  6.26520E+00 -6.36916E-02  5.19199E+00
   1.74211E+00  5.07950E+00  7.61513E+00  2.49472E+00  3.86023E+00  8.38945E+00  5.77734E+00  3.15894E+00  5.92373E+00  3.45952E+00
   4.01812E+00  7.40853E+00  5.73056E+00  6.18646E+00  1.55262E+00  5.03985E+00  2.74757E+00  4.85171E+00  6.94821E+00  9.45164E+00
   6.50033E+00  2.57114E+00  9.37887E+00  5.74999E+00  4.04437E+00  7.25775E+00  7.02233E+00  6.14298E+00  4.69851E+00  8.01575E+00
   6.01809E+00  3.50736E+00  5.18250E+00  1.12544E+00  9.24197E+00  8.98999E+00  8.65553E+00  8.84360E+00  5.10932E+00  2.45743E+00
   6.22456E+00  5.91311E+00  3.25352E+00  6.46245E+00  8.24048E+00  3.28273E+00  3.57216E+00  8.43595E+00  2.46466E+00  8.97965E+00
  -1.29044E+00  1.12669E+00  6.93307E-01  7.38202E+00  3.32204E+00  1.17971E+00  4.99429E+00  4.29848E+00  4.04970E+00  5.37507E+00
   4.73083E+00  8.04652E-01  4.12132E+00  4.56887E+00  1.80764E+00  6.39794E+00  3.83432E+00  6.72554E+00  3.20429E+00  5.25707E+00
   3.11730E+00  5.36237E+00  4.12359E+00  6.33761E+00  4.59561E+00  3.11590E+00  1.67668E+00  6.45658E+00  3.69265E-01  4.90185E+00
   1.53865E+00  7.52651E+00  3.16011E+00  5.09534E+00  3.44720E+00  7.54515E+00  7.54453E+00  5.58229E+00  2.78765E+00  1.34159E+01
   1.37917E+01  1.53396E+01  8.33391E+00  1.24649E+01  1.00828E+01  1.07053E+01  9.43397E+00  5.91794E+00  6.64422E+00  5.67547E+00
   1.01733E+01  3.06932E+00  3.08314E+00  4.68171E+00  2.56720E+00  7.17246E+00  3.73171E+00  4.02836E+00  9.87240E-01  2.97095E+00
  -2.16281E+00  5.94672E+00  3.47098E+00  6.51240E+00  9.31412E+00  1.49240E+01  1.47860E+01  1.13345E+01  1.72925E+01  1.91610E+01
   1.21814E+01  1.53125E+01  9.76443E+00  7.98416E+00  8.78719E+00  7.06704E+00  8.57770E+00  7.71259E+00  6.25528E-01  7.10998E+00
   2.18568E+00  3.45354E+00  3.88148E+00 -1.45237E+00  2.19162E+00 -4.20492E-01  1.50040E+00  1.55771E+00  2.30528E+00  1.33193E-01
  -6.47391E-01  4.44042E+00 -1.73300E+00  8.57725E-01 -6.04920E-01  3.32163E+00  1.25424E+00 -8.56558E-01  2.08169E+00  3.16752E+00
   2.81357E+00  1.89387E+00 -2.01250E+00  4.07498E+00  3.12120E+00  5.02081E+00  1.52810E-01 -1.40220E+00  1.93162E-01  4.95296E+00
  -2.17222E+00  1.67971E-01 -1.57453E+00 -3.92719E+00 -4.75531E+00 -1.40623E+00 -7.25775E+00 -6.46644E-01 -7.15191E+00 -5.51005E+00
  -1.38880E+00 -1.90709E+00 -1.84493E+00 -1.13771E+00 -1.10242E-01 -3.02370E+00  1.19886E+00  2.78014E+00  1.47450E+00 -2.17932E-01
   4.74092E+00 -1.64938E+00 -1.72796E+00 -2.55655E+00  2.40468E+00 -7.61303E-01 -2.29534E+00 -2.55419E+00 -6.60057E+00 -1.78242E+00
  -1.46509E+00  2.72831E-01 -1.62561E+00  1.64293E+00  3.15690E+00  1.74050E+00  1.10760E+00  1.95843E+00  1.63432E+00  2.18734E+00
  -4.77400E+00  6.31876E-02  2.46214E+00  6.79574E+00  3.97194E+00  9.57351E+00  9.53753E+00  1.04221E+01  5.36096E+00  7.71062E+00
  -1.96858E+00 -7.64257E-01  3.37018E+00  1.24679E+00 -7.28639E-01  2.92493E+00  4.02977E+00  3.17971E+00  4.15315E+00  2.40635E+00
   5.94824E-01 -6.46648E-01  3.59242E+00  5.92284E+00  3.60313E+00  3.53654E+00  1.49131E+00  1.52937E+00  3.09466E+00  3.44813E+00
   3.77280E+00  2.63032E+00  6.27884E+00  2.44774E+00  1.64975E+00  4.09512E+00  1.83086E+00  2.96576E+00  8.18370E+00  1.03486E+01
   8.13867E+00  6.96915E+00  7.42581E+00  1.04925E+01  1.07186E+01  1.22093E+01  1.52193E+01  2.37713E+01  3.28887E+01  3.90657E+01
   4.61449E+01  4.22092E+01  3.48034E+01  2.21478E+01  2.73456E+01  2.24656E+01  1.11174E+01  1.26976E+01  5.77631E+00  1.13620E+01
   7.25738E+00  2.21818E+00  1.33074E+00  4.90855E+00  1.73481E+00  7.35223E-01 -4.88769E-01  2.06808E+00 -2.14478E+00 -3.58365E-01
   7.35984E-01  2.47211E+00 -8.13217E-01 -1.27263E+00  1.41436E+00  4.60470E+00  5.18880E-01 -6.63581E-01  9.52504E-01  3.92251E-01
   1.97247E+00  8.62381E+00  1.34966E+00  3.42160E+00 -3.02817E-01 -2.48650E+00  5.47524E-01  2.46491E+00  3.59991E-01 -3.01366E+00
   4.18630E+00 -7.08132E-01  2.65584E+00 -4.68769E-01  3.08869E+00 -4.11630E+00  8.70957E-01  6.24325E+00  1.64740E+00  4.97638E+00
   3.15079E+00  9.40878E+00  9.67889E+00  5.33334E+00  8.49317E+00  6.69456E+00  3.03386E+00 -1.02143E+00 -1.21555E-01  1.22087E+00
   3.69718E+00  1.68957E+00 -4.36367E+00 -2.29077E-01 -4.62156E+00 -2.95140E+00 -2.07113E+00 -7.59180E+00 -6.05928E+00  5.42108E-01
  -1.39431E+00 -1.13112E+00 -1.68765E+00 -1.85815E+00 -9.28076E-02 -3.33857E+00 -9.97249E-02 -1.25568E+00  7.67114E-01  3.63843E-02
   1.49668E+00 -1.82872E+00 -6.01751E+00  2.58172E+00  2.34334E+00  4.27627E+00 -1.02193E+00 -7.95863E-01  5.00070E+00  3.37147E+00
   3.31561E+00  3.73191E+00  2.49443E+00  5.00205E+00  1.55761E+00  2.48528E+00  4.53757E+00 -4.75401E-01 -3.05358E+00  6.46324E+00
  -4.67818E+00  3.40651E+00  7.48070E+00 -2.00267E+00 -2.04847E-02  4.67562E+00  2.14798E+00  2.69680E+00  6.30079E+00  2.06861E+00
   4.09331E+00  3.69525E+00 -1.17889E+00  2.43406E+00  4.23488E-01  2.17902E+00  8.91754E+00  1.97840E+00  4.33845E+00  1.74806E+00
   3.81109E+00  7.26414E+00  3.12245E+00  3.96423E+00  4.91286E+00  4.27551E+00  3.61337E+00  6.95469E+00  6.58122E-01 -8.34248E-01
   4.10270E+00  2.43448E+00  2.79658E+00  4.80325E+00  2.21169E+00  6.35517E+00  6.25335E+00  2.76452E+00  1.08102E+01  5.04576E+00
   6.92597E+00  2.01950E+00  4.85242E+00  5.12284E+00  8.09723E+00  5.41424E+00  5.31472E+00  4.80785E+00  6.54071E+00  7.64551E+00
   5.71460E+00  4.17758E+00  5.12837E-01  4.36736E+00  6.69371E+00  9.29011E+00  3.28923E+00  6.63793E+00  5.61717E+00  5.20216E+00
   3.12007E+00  5.11718E+00  4.71821E+00  5.11628E+00  2.90426E+00  2.91599E+00  3.04712E+00  5.18509E+00  1.73395E+00  5.69627E+00
   5.41773E+00  7.91282E+00  1.12447E+00  3.99051E+00  1.68261E+00  6.49611E+00  1.18778E+00  3.26501E+00  2.27921E+00  5.06691E+00
   7.36476E+00  5.74281E+00  4.34966E+00  2.96400E+00  2.07478E+00  2.70796E+00  2.45885E+00  6.81298E+00 -7.88615E-01  3.21083E+00
   1.65556E+00 -9.15298E-01  3.58332E+00  5.65288E+00  4.60280E+00  3.53231E+00  6.11182E+00  1.97759E+00 -1.90512E+00  2.99208E+00
   4.72631E+00  2.91387E+00  8.44416E+00  4.57966E+00  4.64580E+00  6.36876E+00  3.42942E+00  5.57359E+00  5.71898E+00  2.91108E+00
   2.44527E+00  3.46566E+00  6.77934E+00  1.02915E+00  2.45396E+00  2.61506E+00 -5.13031E-01  3.95254E+00  1.77393E+00  5.81651E+00
   3.32945E+00  2.73140E+00  2.41830E+00  3.64240E+00  1.58570E+00  3.82626E+00 -1.57483E+00 -4.32097E-01  1.49428E+00  2.95409E+00
   5.63377E+00 -8.99802E-01  4.94398E+00  8.46449E-01  2.95142E+00  3.24071E+00  5.60651E+00  2.31492E+00
 NY points of the fit to the data follow
   3.20107E+00  2.81660E+00  2.54792E+00  2.27395E+00  2.02977E+00  1.96341E+00  2.10521E+00  2.51456E+00  3.28424E+00  4.36712E+00
   5.53202E+00  6.47272E+00  6.94853E+00  6.91936E+00  6.55428E+00  6.07937E+00  5.59082E+00  5.08195E+00  4.48059E+00  3.81917E+00
   3.29102E+00  3.04783E+00  2.96139E+00  2.96831E+00  3.11167E+00  3.48182E+00  4.16918E+00  5.14577E+00  6.27660E+00  7.32605E+00
   8.07137E+00  8.36543E+00  8.18657E+00  7.62511E+00  6.82158E+00  5.87773E+00  4.90227E+00  3.95087E+00  3.16106E+00  2.74372E+00
   2.72441E+00  3.12619E+00  3.92029E+00  5.00520E+00  6.23426E+00  7.34023E+00  8.06393E+00  8.21966E+00  7.77132E+00  6.89127E+00
   5.85195E+00  4.86044E+00  4.02483E+00  3.35689E+00  2.88370E+00  2.69119E+00  2.86231E+00  3.32851E+00  3.85545E+00  4.22785E+00
   4.36107E+00  4.26570E+00  4.03569E+00  3.77331E+00  3.55959E+00  3.44661E+00  3.41410E+00  3.43313E+00  3.55135E+00  3.79183E+00
   4.10922E+00  4.44194E+00  4.71500E+00  4.86439E+00  4.85282E+00  4.69397E+00  4.42738E+00  4.09421E+00  3.79367E+00  3.60643E+00
   3.55783E+00  3.62586E+00  3.73602E+00  3.80141E+00  3.77533E+00  3.63765E+00  3.36768E+00  3.01239E+00  2.66619E+00  2.40472E+00
   2.23230E+00  2.12098E+00  2.05928E+00  2.04419E+00  2.14552E+00  2.61341E+00  3.62016E+00  5.05519E+00  6.91388E+00  9.10272E+00
   1.12594E+01  1.29068E+01  1.36606E+01  1.33879E+01  1.22948E+01  1.08104E+01  9.24115E+00  7.67065E+00  6.11838E+00  4.59647E+00
   3.22902E+00  2.35803E+00  2.08436E+00  1.98537E+00  1.92260E+00  1.87715E+00  1.83953E+00  1.82990E+00  1.86478E+00  2.00657E+00
   2.45825E+00  3.47609E+00  5.11717E+00  7.35632E+00  1.00357E+01  1.27333E+01  1.48903E+01  1.60578E+01  1.60573E+01  1.50610E+01
   1.34736E+01  1.16231E+01  9.62065E+00  7.50263E+00  5.37760E+00  3.49051E+00  2.23375E+00  1.77083E+00  1.73642E+00  1.84066E+00
   1.97639E+00  2.09420E+00  2.19500E+00  2.27626E+00  2.30003E+00  2.25597E+00  2.14987E+00  1.98844E+00  1.80387E+00  1.62952E+00
   1.48443E+00  1.38202E+00  1.30945E+00  1.25681E+00  1.19641E+00  1.11026E+00  9.86614E-01  8.22729E-01  6.55269E-01  5.20045E-01
   4.53547E-01  4.77131E-01  5.64710E-01  6.48664E-01  6.65947E-01  6.01482E-01  4.83115E-01  3.51009E-01  2.26773E-01  7.70074E-02
  -1.51327E-01 -4.24932E-01 -6.95190E-01 -9.13122E-01 -1.03381E+00 -1.07098E+00 -1.04703E+00 -9.90010E-01 -9.40685E-01 -9.21273E-01
  -9.27584E-01 -9.21271E-01 -8.69958E-01 -7.72149E-01 -6.16755E-01 -3.74973E-01  4.83545E-03  5.49250E-01  1.17135E+00  1.72441E+00
   2.07768E+00  2.19534E+00  2.13759E+00  1.96826E+00  1.74805E+00  1.53928E+00  1.40664E+00  1.46325E+00  1.78637E+00  2.34849E+00
   3.05083E+00  3.73846E+00  4.23501E+00  4.35374E+00  4.04732E+00  3.34759E+00  2.33518E+00  1.18420E+00  1.80252E-01 -4.19013E-01
  -4.68568E-01  1.43404E-02  9.16989E-01  2.05084E+00  3.16751E+00  3.99311E+00  4.30552E+00  4.05986E+00  3.37103E+00  2.38513E+00
   1.42552E+00  7.50564E-01  4.42776E-01  5.42617E-01  9.95337E-01  1.67521E+00  2.40271E+00  3.00256E+00  3.43694E+00  3.70206E+00
   3.84058E+00  3.87189E+00  3.82239E+00  3.81760E+00  3.96179E+00  4.21724E+00  4.48927E+00  4.70050E+00  4.77086E+00  4.65745E+00
   4.37916E+00  4.03674E+00  3.76866E+00  3.65293E+00  3.67634E+00  3.77326E+00  3.95367E+00  4.21906E+00  4.53904E+00  4.91123E+00
   5.34554E+00  5.81647E+00  6.35974E+00  7.61412E+00  1.02560E+01  1.43117E+01  1.98212E+01  2.63923E+01  3.28369E+01  3.76309E+01
   3.96614E+01  3.86384E+01  3.52524E+01  3.07392E+01  2.59831E+01  2.11864E+01  1.63673E+01  1.16594E+01  7.48664E+00  4.89560E+00
   4.01811E+00  3.67174E+00  3.48791E+00  3.39236E+00  3.33767E+00  3.27659E+00  3.20471E+00  3.12058E+00  3.02271E+00  2.91384E+00
   2.80040E+00  2.68534E+00  2.57775E+00  2.48866E+00  2.41936E+00  2.36564E+00  2.32444E+00  2.29177E+00  2.26499E+00  2.24134E+00
   2.21699E+00  2.19241E+00  2.16905E+00  2.14715E+00  2.12768E+00  2.11133E+00  2.09816E+00  2.08741E+00  2.07875E+00  2.07213E+00
   2.06717E+00  2.06311E+00  2.05992E+00  2.05689E+00  2.05375E+00  2.05009E+00  2.04596E+00  2.04131E+00  2.03635E+00  2.03100E+00
   2.02536E+00  2.01933E+00  2.01326E+00  2.00729E+00  2.00167E+00  1.99632E+00  1.99140E+00  1.98681E+00  1.98277E+00  1.97928E+00
   1.97652E+00  1.97435E+00  1.97289E+00  1.97201E+00  1.97189E+00  1.97243E+00  1.97375E+00  1.97568E+00  1.97831E+00  1.98155E+00
   1.98557E+00  1.99026E+00  1.99575E+00  2.00191E+00  2.00889E+00  2.01664E+00  2.02538E+00  2.03504E+00  2.04579E+00  2.05757E+00
   2.07059E+00  2.08485E+00  2.10058E+00  2.11774E+00  2.13649E+00  2.15677E+00  2.17877E+00  2.20243E+00  2.22786E+00  2.25489E+00
   2.28350E+00  2.31345E+00  2.34470E+00  2.37690E+00  2.40986E+00  2.44309E+00  2.47631E+00  2.50900E+00  2.54087E+00  2.57136E+00
   2.60014E+00  2.62670E+00  2.65079E+00  2.67207E+00  2.69048E+00  2.70583E+00  2.71822E+00  2.72767E+00  2.73456E+00  2.73917E+00
   2.74210E+00  2.74378E+00  2.74498E+00  2.74630E+00  2.74867E+00  2.75284E+00  2.75980E+00  2.77036E+00  2.78555E+00  2.80624E+00
   2.83355E+00  2.86840E+00  2.91190E+00  2.96495E+00  3.02864E+00  3.10383E+00  3.19152E+00  3.29236E+00  3.40698E+00  3.53558E+00
   3.67827E+00  3.83455E+00  4.00367E+00  4.18412E+00  4.37404E+00  4.57074E+00  4.77121E+00  4.97170E+00  5.16821E+00  5.35620E+00
   5.53117E+00  5.68845E+00  5.82382E+00  5.93331E+00  6.01374E+00  6.06255E+00  6.07829E+00  6.06038E+00  6.00947E+00  5.92702E+00
   5.81561E+00  5.67839E+00  5.51935E+00  5.34270E+00  5.15308E+00  4.95490E+00  4.75261E+00  4.55009E+00  4.35100E+00  4.15825E+00
   3.97439E+00  3.80112E+00  3.63978E+00  3.49101E+00  3.35519E+00  3.23212E+00  3.12148E+00  3.02254E+00  2.93457E+00  2.85660E+00
   2.78781E+00  2.72717E+00  2.67389E+00  2.62700E+00  2.58582E+00  2.54955E+00  2.51767E+00  2.48953E+00  2.46472E+00  2.44272E+00
   2.42325E+00  2.40592E+00  2.39056E+00  2.37684E+00  2.36464E+00  2.35368E+00  2.34391E+00  2.33514E+00  2.32734E+00  2.32031E+00
   2.31406E+00  2.30841E+00  2.30342E+00  2.29893E+00  2.29499E+00  2.29146E+00  2.28837E+00  2.28561E+00  2.28325E+00  2.28117E+00
   2.27943E+00  2.27791E+00  2.27667E+00  2.27562E+00  2.27484E+00  2.27423E+00  2.27385E+00  2.27358E+00  2.27351E+00  2.27355E+00
   2.27379E+00  2.27412E+00  2.27462E+00  2.27518E+00  2.27589E+00  2.27667E+00  2.27761E+00  2.27859E+00  2.27970E+00  2.28084E+00
   2.28211E+00  2.28342E+00  2.28485E+00  2.28630E+00  2.28785E+00  2.28942E+00  2.29110E+00  2.29281E+00  2.29462E+00  2.29643E+00
   2.29833E+00  2.30025E+00  2.30227E+00  2.30431E+00  2.30645E+00  2.30859E+00  2.31082E+00  2.31307E+00
 NY background values follow
     5.496E-01    5.529E-01    5.563E-01    5.596E-01    5.630E-01    5.663E-01    5.697E-01    5.731E-01    5.764E-01    5.798E-01
     5.831E-01    5.865E-01    5.898E-01    5.932E-01    5.965E-01    5.999E-01    6.032E-01    6.066E-01    6.099E-01    6.133E-01
     6.166E-01    6.200E-01    6.234E-01    6.267E-01    6.301E-01    6.334E-01    6.368E-01    6.401E-01    6.435E-01    6.468E-01
     6.502E-01    6.535E-01    6.569E-01    6.602E-01    6.636E-01    6.669E-01    6.703E-01    6.737E-01    6.770E-01    6.804E-01
     6.837E-01    6.871E-01    6.904E-01    6.938E-01    6.971E-01    7.005E-01    7.038E-01    7.072E-01    7.105E-01    7.139E-01
     7.172E-01    7.206E-01    7.240E-01    7.273E-01    7.307E-01    7.340E-01    7.374E-01    7.407E-01    7.441E-01    7.474E-01
     7.508E-01    7.541E-01    7.575E-01    7.608E-01    7.642E-01    7.676E-01    7.709E-01    7.743E-01    7.776E-01    7.810E-01
     7.843E-01    7.877E-01    7.910E-01    7.944E-01    7.977E-01    8.011E-01    8.044E-01    8.078E-01    8.112E-01    8.145E-01
     8.179E-01    8.212E-01    8.246E-01    8.279E-01    8.313E-01    8.346E-01    8.380E-01    8.413E-01    8.447E-01    8.480E-01
     8.514E-01    8.548E-01    8.581E-01    8.615E-01    8.648E-01    8.682E-01    8.715E-01    8.749E-01    8.782E-01    8.816E-01
     8.849E-01    8.883E-01    8.916E-01    8.950E-01    8.984E-01    9.017E-01    9.051E-01    9.084E-01    9.118E-01    9.151E-01
     9.185E-01    9.218E-01    9.252E-01    9.285E-01    9.319E-01    9.353E-01    9.386E-01    9.420E-01    9.453E-01    9.487E-01
     9.520E-01    9.554E-01    9.587E-01    9.621E-01    9.654E-01    9.688E-01    9.721E-01    9.755E-01    9.789E-01    9.822E-01
     9.856E-01    9.889E-01    9.923E-01    9.956E-01    9.990E-01    1.002E+00    1.006E+00    1.009E+00    1.012E+00    1.016E+00
     1.019E+00    1.022E+00    1.026E+00    1.029E+00    1.033E+00    1.036E+00    1.039E+00    1.043E+00    1.046E+00    1.049E+00
     1.053E+00    1.056E+00    1.059E+00    1.063E+00    1.066E+00    1.069E+00    1.073E+00    1.076E+00    1.079E+00    1.083E+00
     1.086E+00    1.090E+00    1.093E+00    1.096E+00    1.100E+00    1.103E+00    1.106E+00    1.110E+00    1.113E+00    1.116E+00
     1.120E+00    1.123E+00    1.126E+00    1.130E+00    1.133E+00    1.137E+00    1.140E+00    1.143E+00    1.147E+00    1.150E+00
     1.153E+00    1.157E+00    1.160E+00    1.163E+00    1.167E+00    1.170E+00    1.173E+00    1.177E+00    1.180E+00    1.184E+00
     1.187E+00    1.190E+00    1.194E+00    1.197E+00    1.200E+00    1.204E+00    1.207E+00    1.210E+00    1.214E+00    1.217E+00
     1.220E+00    1.224E+00    1.227E+00    1.230E+00    1.234E+00    1.237E+00    1.241E+00    1.244E+00    1.247E+00    1.251E+00
     1.254E+00    1.257E+00    1.261E+00    1.264E+00    1.267E+00    1.271E+00    1.274E+00    1.277E+00    1.281E+00    1.284E+00
     1.288E+00    1.291E+00    1.294E+00    1.298E+00    1.301E+00    1.304E+00    1.308E+00    1.311E+00    1.314E+00    1.318E+00
     1.321E+00    1.324E+00    1.328E+00    1.331E+00    1.335E+00    1.338E+00    1.341E+00    1.345E+00    1.348E+00    1.351E+00
     1.355E+00    1.358E+00    1.361E+00    1.365E+00    1.368E+00    1.371E+00    1.375E+00    1.378E+00    1.382E+00    1.385E+00
     1.388E+00    1.392E+00    1.395E+00    1.398E+00    1.402E+00    1.405E+00    1.408E+00    1.412E+00    1.415E+00    1.418E+00
     1.422E+00    1.425E+00    1.429E+00    1.432E+00    1.435E+00    1.439E+00    1.442E+00    1.445E+00    1.449E+00    1.452E+00
     1.455E+00    1.459E+00    1.462E+00    1.466E+00    1.469E+00    1.472E+00    1.476E+00    1.479E+00    1.482E+00    1.486E+00
     1.489E+00    1.492E+00    1.496E+00    1.499E+00    1.502E+00    1.506E+00    1.509E+00    1.513E+00    1.516E+00    1.519E+00
     1.523E+00    1.526E+00    1.529E+00    1.533E+00    1.536E+00    1.539E+00    1.543E+00    1.546E+00    1.549E+00    1.553E+00
     1.556E+00    1.560E+00    1.563E+00    1.566E+00    1.570E+00    1.573E+00    1.576E+00    1.580E+00    1.583E+00    1.586E+00
     1.590E+00    1.593E+00    1.597E+00    1.600E+00    1.603E+00    1.607E+00    1.610E+00    1.613E+00    1.617E+00    1.620E+00
     1.623E+00    1.627E+00    1.630E+00    1.633E+00    1.637E+00    1.640E+00    1.644E+00    1.647E+00    1.650E+00    1.654E+00
     1.657E+00    1.660E+00    1.664E+00    1.667E+00    1.670E+00    1.674E+00    1.677E+00    1.681E+00    1.684E+00    1.687E+00
     1.691E+00    1.694E+00    1.697E+00    1.701E+00    1.704E+00    1.707E+00    1.711E+00    1.714E+00    1.717E+00    1.721E+00
     1.724E+00    1.728E+00    1.731E+00    1.734E+00    1.738E+00    1.741E+00    1.744E+00    1.748E+00    1.751E+00    1.754E+00
     1.758E+00    1.761E+00    1.765E+00    1.768E+00    1.771E+00    1.775E+00    1.778E+00    1.781E+00    1.785E+00    1.788E+00
     1.791E+00    1.795E+00    1.798E+00    1.802E+00    1.805E+00    1.808E+00    1.812E+00    1.815E+00    1.818E+00    1.822E+00
     1.825E+00    1.828E+00    1.832E+00    1.835E+00    1.838E+00    1.842E+00    1.845E+00    1.849E+00    1.852E+00    1.855E+00
     1.859E+00    1.862E+00    1.865E+00    1.869E+00    1.872E+00    1.875E+00    1.879E+00    1.882E+00    1.886E+00    1.889E+00
     1.892E+00    1.896E+00    1.899E+00    1.902E+00    1.906E+00    1.909E+00    1.912E+00    1.916E+00    1.919E+00    1.923E+00
     1.926E+00    1.929E+00    1.933E+00    1.936E+00    1.939E+00    1.943E+00    1.946E+00    1.949E+00    1.953E+00    1.956E+00
     1.960E+00    1.963E+00    1.966E+00    1.970E+00    1.973E+00    1.976E+00    1.980E+00    1.983E+00    1.986E+00    1.990E+00
     1.993E+00    1.996E+00    2.000E+00    2.003E+00    2.007E+00    2.010E+00    2.013E+00    2.017E+00    2.020E+00    2.023E+00
     2.027E+00    2.030E+00    2.033E+00    2.037E+00    2.040E+00    2.044E+00    2.047E+00    2.050E+00    2.054E+00    2.057E+00
     2.060E+00    2.064E+00    2.067E+00    2.070E+00    2.074E+00    2.077E+00    2.081E+00    2.084E+00    2.087E+00    2.091E+00
     2.094E+00    2.097E+00    2.101E+00    2.104E+00    2.107E+00    2.111E+00    2.114E+00    2.118E+00    2.121E+00    2.124E+00
     2.128E+00    2.131E+00    2.134E+00    2.138E+00    2.141E+00    2.144E+00    2.148E+00    2.151E+00    2.154E+00    2.158E+00
     2.161E+00    2.165E+00    2.168E+00    2.171E+00    2.175E+00    2.178E+00    2.181E+00    2.185E+00    2.188E+00    2.191E+00
     2.195E+00    2.198E+00    2.202E+00    2.205E+00    2.208E+00    2.212E+00    2.215E+00    2.218E+00
 Asp      Conc. = 5.65E+01
