 LCModel (Version 6.3-1L) Copyright: S.W. Provencher.          Ref.: Magn. Reson. Med. 30:672-679 (1993).                
 Slice#1 Row#9 Col#6  PD_05_press_2_raw_act
 36 lines in following concentration table = NCONC+1
    Conc.  %SD /Cr+PCr  Metabolite                                         
  269.362  85%   0.144 Ala                                                 
    0.000 999%   0.000 Asp                                                 
  837.987  49%   0.447 Cr                                                  
 1.04E+03  40%   0.553 PCr                                                 
    0.000 999%   0.000 GABA                                                
   10.895 999% 5.8E-03 Glc                                                 
 2.81E+03  17%   1.501 Gln                                                 
 3.20E+03  16%   1.708 Glu                                                 
  468.538   8%   0.250 GPC                                                 
    0.000 999%   0.000 PCh                                                 
  838.133  16%   0.447 GSH                                                 
 2.01E+03  22%   1.071 Ins                                                 
  192.954 130%   0.103 Lac                                                 
 4.64E+03   3%   2.477 NAA                                                 
    0.000 999%   0.000 NAAG                                                
   74.070  61% 4.0E-02 Scyllo                                              
  305.517 106%   0.163 Tau                                                 
    0.000 999%   0.000 -CrCH2                                              
  468.538   8%   0.250 GPC+PCh                                             
 4.64E+03   3%   2.477 NAA+NAAG                                            
 1.87E+03   5%   1.000 Cr+PCr                                              
 6.01E+03  13%   3.208 Glu+Gln                                             
 3.87E+03  25%   2.063 Lip13a                                              
    0.000 999%   0.000 Lip13b                                              
  200.029 262%   0.107 Lip09                                               
 2.48E+03  22%   1.325 MM09                                                
  594.893  66%   0.317 Lip20                                               
 4.70E+03  14%   2.506 MM20                                                
 1.00E+03  34%   0.536 MM12                                                
 1.17E+03  50%   0.626 MM14                                                
 1.89E+03  19%   1.009 MM17                                                
 3.87E+03  25%   2.063 Lip13a+Lip13b                                       
 6.04E+03  11%   3.225 MM14+Lip13a+Lip13b+MM12                             
 2.68E+03  12%   1.432 MM09+Lip09                                          
 5.29E+03  11%   2.823 MM20+Lip20                                          
   6 lines in following misc. output table
  FWHM = 0.054 ppm    S/N =  13                                            
  Data shift = 0.000 ppm                                                   
  Ph:  -8 deg       6.1 deg/ppm                                            
  alphaB,S = 4.1E+00,   1.9E+02                                            
   14 spline knots.   Ns = 8(1)                                            
  (13) 4 infls.   ( 5) 1 extrs.                                            
  498 points on ppm-axis = NY
      4.000000     3.992357     3.984714     3.977070     3.969427     3.961784     3.954141     3.946497     3.938854     3.931211
      3.923568     3.915925     3.908281     3.900638     3.892995     3.885352     3.877708     3.870065     3.862422     3.854779
      3.847136     3.839492     3.831849     3.824206     3.816563     3.808919     3.801276     3.793633     3.785990     3.778347
      3.770703     3.763060     3.755417     3.747774     3.740130     3.732487     3.724844     3.717201     3.709558     3.701914
      3.694271     3.686628     3.678985     3.671341     3.663698     3.656055     3.648412     3.640769     3.633125     3.625482
      3.617839     3.610196     3.602552     3.594909     3.587266     3.579623     3.571980     3.564336     3.556693     3.549050
      3.541407     3.533763     3.526120     3.518477     3.510834     3.503191     3.495547     3.487904     3.480261     3.472618
      3.464974     3.457331     3.449688     3.442045     3.434402     3.426758     3.419115     3.411472     3.403829     3.396185
      3.388542     3.380899     3.373256     3.365613     3.357969     3.350326     3.342683     3.335040     3.327396     3.319753
      3.312110     3.304467     3.296824     3.289180     3.281537     3.273894     3.266251     3.258607     3.250964     3.243321
      3.235678     3.228034     3.220391     3.212748     3.205105     3.197462     3.189818     3.182175     3.174532     3.166889
      3.159245     3.151602     3.143959     3.136316     3.128673     3.121029     3.113386     3.105743     3.098100     3.090456
      3.082813     3.075170     3.067527     3.059884     3.052240     3.044597     3.036954     3.029311     3.021667     3.014024
      3.006381     2.998738     2.991095     2.983451     2.975808     2.968165     2.960522     2.952878     2.945235     2.937592
      2.929949     2.922306     2.914662     2.907019     2.899376     2.891733     2.884089     2.876446     2.868803     2.861160
      2.853517     2.845873     2.838230     2.830587     2.822944     2.815300     2.807657     2.800014     2.792371     2.784728
      2.777084     2.769441     2.761798     2.754155     2.746511     2.738868     2.731225     2.723582     2.715939     2.708295
      2.700652     2.693009     2.685366     2.677722     2.670079     2.662436     2.654793     2.647150     2.639506     2.631863
      2.624220     2.616577     2.608933     2.601290     2.593647     2.586004     2.578361     2.570717     2.563074     2.555431
      2.547788     2.540144     2.532501     2.524858     2.517215     2.509572     2.501928     2.494285     2.486642     2.478999
      2.471355     2.463712     2.456069     2.448426     2.440783     2.433139     2.425496     2.417853     2.410210     2.402566
      2.394923     2.387280     2.379637     2.371994     2.364350     2.356707     2.349064     2.341421     2.333777     2.326134
      2.318491     2.310848     2.303205     2.295561     2.287918     2.280275     2.272632     2.264988     2.257345     2.249702
      2.242059     2.234416     2.226772     2.219129     2.211486     2.203843     2.196199     2.188556     2.180913     2.173270
      2.165627     2.157983     2.150340     2.142697     2.135054     2.127410     2.119767     2.112124     2.104481     2.096838
      2.089194     2.081551     2.073908     2.066265     2.058621     2.050978     2.043335     2.035692     2.028049     2.020405
      2.012762     2.005119     1.997476     1.989833     1.982190     1.974546     1.966903     1.959260     1.951617     1.943974
      1.936331     1.928688     1.921045     1.913402     1.905759     1.898115     1.890472     1.882829     1.875186     1.867543
      1.859900     1.852257     1.844614     1.836971     1.829327     1.821684     1.814041     1.806398     1.798755     1.791112
      1.783469     1.775826     1.768183     1.760540     1.752896     1.745253     1.737610     1.729967     1.722324     1.714681
      1.707038     1.699395     1.691752     1.684108     1.676465     1.668822     1.661179     1.653536     1.645893     1.638250
      1.630607     1.622964     1.615321     1.607677     1.600034     1.592391     1.584748     1.577105     1.569462     1.561819
      1.554176     1.546533     1.538890     1.531246     1.523603     1.515960     1.508317     1.500674     1.493031     1.485388
      1.477745     1.470102     1.462458     1.454815     1.447172     1.439529     1.431886     1.424243     1.416600     1.408957
      1.401314     1.393671     1.386027     1.378384     1.370741     1.363098     1.355455     1.347812     1.340169     1.332526
      1.324883     1.317240     1.309596     1.301953     1.294310     1.286667     1.279024     1.271381     1.263738     1.256095
      1.248452     1.240808     1.233165     1.225522     1.217879     1.210236     1.202593     1.194950     1.187307     1.179664
      1.172021     1.164377     1.156734     1.149091     1.141448     1.133805     1.126162     1.118519     1.110876     1.103233
      1.095590     1.087946     1.080303     1.072660     1.065017     1.057374     1.049731     1.042088     1.034445     1.026802
      1.019158     1.011515     1.003872     0.996229     0.988586     0.980943     0.973300     0.965657     0.958014     0.950371
      0.942727     0.935084     0.927441     0.919798     0.912155     0.904512     0.896869     0.889226     0.881583     0.873940
      0.866296     0.858653     0.851010     0.843367     0.835724     0.828081     0.820438     0.812795     0.805152     0.797508
      0.789865     0.782222     0.774579     0.766936     0.759293     0.751650     0.744007     0.736364     0.728721     0.721077
      0.713434     0.705791     0.698148     0.690505     0.682862     0.675219     0.667576     0.659933     0.652290     0.644646
      0.637003     0.629360     0.621717     0.614074     0.606431     0.598788     0.591145     0.583502     0.575858     0.568215
      0.560572     0.552929     0.545286     0.537643     0.530000     0.522357     0.514714     0.507071     0.499427     0.491784
      0.484141     0.476498     0.468855     0.461212     0.453569     0.445925     0.438282     0.430639     0.422996     0.415353
      0.407710     0.400067     0.392424     0.384780     0.377137     0.369494     0.361851     0.354208     0.346565     0.338922
      0.331278     0.323635     0.315992     0.308349     0.300706     0.293063     0.285420     0.277777     0.270133     0.262490
      0.254847     0.247204     0.239561     0.231918     0.224275     0.216631     0.208988     0.201345
 NY phased data points follow
   2.80464E+01  3.07494E+01  2.60264E+01  3.17603E+01  3.03765E+01  3.56431E+01  4.73606E+01  4.91305E+01  4.76401E+01  5.85808E+01
   6.05466E+01  6.96321E+01  5.80779E+01  5.34081E+01  4.32250E+01  4.72669E+01  4.23870E+01  4.17866E+01  4.94403E+01  4.36615E+01
   3.11832E+01  3.52066E+01  3.14983E+01  3.97607E+01  3.27459E+01  3.64612E+01  3.21216E+01  3.66700E+01  3.95188E+01  4.15976E+01
   4.01494E+01  4.66118E+01  3.58540E+01  3.53243E+01  3.59024E+01  2.65959E+01  3.93326E+01  3.47896E+01  2.65206E+01  3.77956E+01
   3.22268E+01  3.40448E+01  3.07601E+01  2.53591E+01  2.91325E+01  3.30533E+01  3.33221E+01  3.75383E+01  3.83614E+01  3.70520E+01
   3.91065E+01  3.36776E+01  2.09009E+01  2.83780E+01  2.83307E+01  3.04186E+01  3.16805E+01  3.28930E+01  2.82154E+01  2.85581E+01
   2.62203E+01  2.35051E+01  1.96225E+01  2.10187E+01  2.13033E+01  2.45367E+01  1.83681E+01  2.79362E+01  1.90660E+01  1.55291E+01
   2.63354E+01  2.26677E+01  2.21008E+01  1.81521E+01  2.36045E+01  1.93376E+01  1.91295E+01  1.32138E+01  1.82310E+01  2.18481E+01
   2.13740E+01  2.02761E+01  1.92200E+01  2.04030E+01  1.32032E+01  2.19603E+01  1.41967E+01  1.77792E+01  1.57366E+01  1.89188E+01
   2.28925E+01  2.27571E+01  1.89734E+01  2.37303E+01  1.34911E+01  2.14585E+01  1.44612E+01  2.13774E+01  2.47520E+01  3.76388E+01
   3.42244E+01  4.46397E+01  4.64954E+01  5.39451E+01  5.11043E+01  4.72908E+01  4.07268E+01  4.01693E+01  3.65231E+01  3.36027E+01
   3.38474E+01  2.89527E+01  2.73855E+01  2.28538E+01  2.32761E+01  2.81756E+01  2.14850E+01  2.64887E+01  2.84341E+01  1.90348E+01
   1.69136E+01  1.97979E+01  2.43288E+01  4.12725E+01  4.27475E+01  5.26918E+01  6.32183E+01  7.47405E+01  7.42446E+01  7.39038E+01
   5.68513E+01  5.34873E+01  4.38433E+01  4.07001E+01  3.47077E+01  2.90121E+01  2.88684E+01  2.79980E+01  2.58167E+01  1.89513E+01
   2.21639E+01  2.57176E+01  1.54807E+01  1.66239E+01  1.61157E+01  1.50189E+01  2.03546E+01  1.36866E+01  1.06165E+01  9.14501E+00
   2.09166E+00  5.38822E+00  2.07738E+01  1.87231E+01  8.49789E+00  1.47028E+01  1.70765E+01  1.57220E+01  1.54001E+01  1.46343E+01
   7.72076E+00  1.12019E+01  1.23737E+01  1.62054E+01  2.29737E+01  1.37806E+01  1.22210E+01  1.68949E+01  6.37166E+00  1.22001E+01
   3.81415E+00 -3.11774E+00 -7.42371E+00 -3.81532E+00 -7.30975E+00 -4.17061E+00 -4.65373E+00 -1.08400E+01 -1.08734E+01 -7.20618E+00
  -1.61054E+01 -4.19665E+00 -5.37715E+00 -6.89462E+00 -4.26867E+00 -1.79487E+00  2.45297E+00  4.36044E+00  8.20935E+00  9.53946E+00
   5.67293E+00  5.57753E+00 -1.22445E+00  7.53221E+00  6.23326E+00 -1.63763E+00 -4.88676E+00 -5.68140E+00 -2.50974E+00  6.16505E+00
   1.07747E+00  5.70104E+00  1.16060E+01  4.38383E+00  1.30695E+01  8.35422E+00  9.50302E+00  6.96564E+00 -4.81711E-01  5.91803E+00
   1.61048E+00  9.07255E+00  1.64543E+01  2.19069E+01  1.94900E+01  2.82893E+01  3.79175E+01  3.29519E+01  2.80123E+01  2.14197E+01
   9.35104E+00  1.19988E+01  7.53432E+00  2.20101E+00  8.43578E+00  1.17111E+01  1.78034E+01  2.15781E+01  1.88959E+01  2.14927E+01
   2.49728E+01  1.41880E+01  1.49055E+01  2.00200E+01  2.23292E+01  2.02988E+01  1.99034E+01  2.65390E+01  2.48588E+01  1.74265E+01
   1.30195E+01  1.73815E+01  1.79905E+01  1.13892E+01  1.64388E+01  1.59381E+01  2.45421E+01  2.85433E+01  2.07229E+01  2.73835E+01
   3.29536E+01  3.02590E+01  2.74844E+01  4.92709E+01  4.92813E+01  5.06725E+01  6.62956E+01  8.90718E+01  1.13398E+02  1.43079E+02
   1.58176E+02  1.65584E+02  1.60897E+02  1.35793E+02  1.12431E+02  8.81164E+01  6.65128E+01  5.67918E+01  4.33605E+01  3.93999E+01
   2.56638E+01  2.49587E+01  2.15568E+01  2.04884E+01  1.15214E+01  8.75469E+00  1.36246E+01  1.32978E+01  5.27964E+00  1.10397E+01
   6.44591E+00  9.45695E+00  7.67328E+00  5.29189E+00  1.25014E+00  9.21318E+00  1.13298E+01  1.02595E+01  5.40103E-01  8.44601E+00
   1.94387E+01  9.89748E+00  1.93226E+00  1.32077E+01  8.98475E+00  1.30629E+01  1.39065E+01  1.04620E+01  1.51576E+01  1.13546E+01
   7.64547E+00  2.55589E+01  1.82916E+01  1.65092E+01  2.00370E+01  1.14131E+01  1.32510E+01  1.93955E+01  1.57187E+01  2.11858E+01
   2.11724E+01  2.84085E+01  2.48910E+01  2.17933E+01  2.53436E+01  2.33598E+01  3.29263E+01  2.27797E+01  1.49870E+01  1.56883E+01
   1.75310E+01  1.88623E+01  9.47031E+00  1.27964E+01  1.53058E+01  1.28075E+01  7.98644E+00  1.80114E+01  1.11922E+01  9.66948E+00
   1.27915E+01  1.34643E+01  8.63340E+00  1.29134E+01  1.25485E+01  2.14648E+01  1.27452E+01  1.33283E+01  1.59686E+01  1.88889E+01
   2.67559E+01  3.33626E+01  2.09888E+01  1.14241E+01  1.16908E+01  2.53501E+01  1.86703E+01  1.84600E+01  1.91164E+01  1.76291E+01
   1.75581E+01  2.18052E+01  2.19085E+01  1.92546E+01  1.83387E+01  2.83351E+01  2.90148E+01  1.84220E+01  2.13051E+01  2.60496E+01
   2.45779E+01  2.06038E+01  2.66876E+01  2.17763E+01  2.48327E+01  1.81074E+01  2.80371E+01  2.87483E+01  2.54676E+01  2.22029E+01
   2.77856E+01  2.08618E+01  2.11637E+01  2.82856E+01  2.13825E+01  1.64751E+01  1.59197E+01  1.04171E+01  1.46512E+01  1.43383E+01
   1.22002E+01  1.24560E+01  1.29054E+01  9.32756E+00  9.71627E+00  6.18971E+00  5.78718E+00  1.16617E+01  2.40114E+01  1.14476E+01
   1.48247E+01  1.45455E+01  1.75145E+01  1.47176E+01  1.65849E+01  1.80390E+01  2.64092E+01  1.77317E+01  2.03516E+01  1.32934E+01
   2.30097E+01  1.96487E+01  2.47139E+01  2.24857E+01  2.77408E+01  1.76300E+01  1.98707E+01  2.94870E+01  2.54160E+01  2.25184E+01
   2.10141E+01  1.60531E+01  1.82417E+01  1.78049E+01  1.84530E+01  1.82467E+01  1.53609E+01  1.18468E+01  7.60882E+00  6.79448E+00
   5.52492E+00  6.82293E+00  6.99987E+00  9.70895E-01  1.84421E+00  3.12262E+00  3.67581E-01  4.16545E+00  3.50743E+00  5.53965E+00
  -1.73517E-01  4.82451E+00 -6.86173E+00  1.31267E+00  3.33523E+00 -1.26372E+00  2.31028E+00  9.11942E-03  1.57106E+00  1.83837E+00
  -9.52729E-03  3.41211E-01  4.51214E-01  8.13910E-01  6.11898E+00 -3.68767E+00  3.28983E-01  2.08811E+00 -1.00407E+01  6.28173E+00
  -7.61980E-01 -4.08358E+00 -1.22255E+00  8.25101E-01  8.69301E-01 -1.28164E-01 -6.43043E+00  5.83380E+00  1.56231E+00 -4.37632E+00
   6.22891E+00  5.37012E+00  3.05525E+00 -3.46856E+00  5.80332E+00  8.44000E+00 -2.39879E+00  1.22868E+00  8.17926E+00  9.36334E+00
   2.15348E+00  5.68471E+00  1.06868E+00 -2.61839E+00  2.57637E+00  3.16231E+00 -4.26959E+00  3.85887E+00  5.80768E-01 -2.29746E+00
  -5.25450E-01 -3.83136E+00  3.09830E+00  2.16683E+00  7.73012E+00  2.87209E+00  2.10725E+00  7.86640E+00  2.09204E+00  5.90581E+00
  -3.94027E+00 -7.01373E+00  5.14113E+00 -5.45767E+00  3.93264E+00  1.04718E+00  6.02148E+00  3.53770E+00
 NY points of the fit to the data follow
   2.84845E+01  2.79476E+01  2.82695E+01  2.95364E+01  3.18928E+01  3.53744E+01  4.00650E+01  4.57575E+01  5.17724E+01  5.70573E+01
   6.04910E+01  6.13039E+01  5.94510E+01  5.56384E+01  5.09425E+01  4.63641E+01  4.24623E+01  3.91546E+01  3.61663E+01  3.36515E+01
   3.17658E+01  3.04151E+01  2.98946E+01  2.97998E+01  3.00576E+01  3.10532E+01  3.31696E+01  3.63980E+01  4.01453E+01  4.35746E+01
   4.58832E+01  4.63506E+01  4.48906E+01  4.20269E+01  3.84911E+01  3.48683E+01  3.16003E+01  2.89382E+01  2.68713E+01  2.59032E+01
   2.61447E+01  2.71093E+01  2.84396E+01  3.01358E+01  3.22792E+01  3.45898E+01  3.64018E+01  3.72188E+01  3.68188E+01  3.50524E+01
   3.23417E+01  2.94786E+01  2.70766E+01  2.54394E+01  2.45156E+01  2.39697E+01  2.36529E+01  2.37616E+01  2.43484E+01  2.50425E+01
   2.54175E+01  2.53081E+01  2.47350E+01  2.38793E+01  2.30451E+01  2.24635E+01  2.22211E+01  2.22734E+01  2.24826E+01  2.27619E+01
   2.30874E+01  2.34032E+01  2.36616E+01  2.37555E+01  2.36281E+01  2.32673E+01  2.27102E+01  2.20674E+01  2.14913E+01  2.10655E+01
   2.07404E+01  2.05190E+01  2.04726E+01  2.04662E+01  2.02915E+01  1.98562E+01  1.91709E+01  1.82948E+01  1.74125E+01  1.67435E+01
   1.64036E+01  1.64026E+01  1.66172E+01  1.68803E+01  1.71733E+01  1.80206E+01  1.99432E+01  2.25328E+01  2.58971E+01  3.05543E+01
   3.65934E+01  4.33412E+01  4.95006E+01  5.35129E+01  5.42168E+01  5.14277E+01  4.61720E+01  4.01379E+01  3.46954E+01  3.04262E+01
   2.70228E+01  2.37911E+01  2.05006E+01  1.81067E+01  1.72681E+01  1.69883E+01  1.68787E+01  1.68821E+01  1.71421E+01  1.83421E+01
   2.11417E+01  2.49820E+01  3.00782E+01  3.71516E+01  4.62458E+01  5.63859E+01  6.56821E+01  7.19481E+01  7.36094E+01  7.03200E+01
   6.32839E+01  5.47154E+01  4.64571E+01  3.93744E+01  3.33132E+01  2.76405E+01  2.22808E+01  1.86529E+01  1.78247E+01  1.81561E+01
   1.86190E+01  1.88163E+01  1.87031E+01  1.84361E+01  1.80609E+01  1.75905E+01  1.70756E+01  1.65031E+01  1.58684E+01  1.52323E+01
   1.46210E+01  1.41501E+01  1.38088E+01  1.35044E+01  1.31840E+01  1.28762E+01  1.25291E+01  1.20965E+01  1.15379E+01  1.08338E+01
   1.01632E+01  9.74785E+00  9.68038E+00  9.87335E+00  1.00718E+01  9.98614E+00  9.45610E+00  8.51684E+00  7.37196E+00  6.26490E+00
   5.41655E+00  4.64513E+00  3.69403E+00  2.57617E+00  1.46877E+00  7.77842E-01  5.91546E-01  6.80435E-01  8.93450E-01  1.01066E+00
   9.09551E-01  7.61555E-01  7.21598E-01  9.27171E-01  1.49446E+00  2.42849E+00  3.68928E+00  5.16220E+00  6.88655E+00  8.63718E+00
   9.92901E+00  1.02643E+01  9.65164E+00  8.67665E+00  7.88731E+00  7.75323E+00  8.68566E+00  1.05048E+01  1.28383E+01  1.55163E+01
   1.80368E+01  1.98180E+01  2.05339E+01  1.99209E+01  1.77120E+01  1.38139E+01  8.79373E+00  3.86200E+00  3.00303E-01 -1.06881E+00
  -4.92588E-02  3.15642E+00  7.77223E+00  1.27997E+01  1.75310E+01  2.10734E+01  2.28020E+01  2.24165E+01  1.96123E+01  1.47782E+01
   9.50343E+00  5.50814E+00  3.60803E+00  3.76408E+00  5.59272E+00  8.58391E+00  1.20225E+01  1.49981E+01  1.68577E+01  1.78125E+01
   1.82292E+01  1.85237E+01  1.89093E+01  1.93055E+01  1.99477E+01  2.11750E+01  2.27163E+01  2.40156E+01  2.44971E+01  2.37717E+01
   2.19540E+01  1.96179E+01  1.76546E+01  1.68115E+01  1.71815E+01  1.83339E+01  2.00277E+01  2.19575E+01  2.37006E+01  2.52360E+01
   2.67593E+01  2.83604E+01  3.13157E+01  3.78636E+01  4.63846E+01  5.71767E+01  7.25484E+01  9.32083E+01  1.17167E+02  1.40241E+02
   1.56830E+02  1.62009E+02  1.54026E+02  1.35650E+02  1.12942E+02  9.15312E+01  7.42330E+01  6.06771E+01  4.82811E+01  3.52978E+01
   2.43781E+01  1.97849E+01  1.80085E+01  1.69332E+01  1.62098E+01  1.56641E+01  1.50785E+01  1.44349E+01  1.37591E+01  1.30832E+01
   1.24477E+01  1.18734E+01  1.13422E+01  1.08554E+01  1.04428E+01  1.01127E+01  9.84754E+00  9.63784E+00  9.48908E+00  9.41301E+00
   9.41348E+00  9.48271E+00  9.63062E+00  9.86910E+00  1.02039E+01  1.06390E+01  1.11770E+01  1.18175E+01  1.25547E+01  1.33774E+01
   1.42724E+01  1.52228E+01  1.62055E+01  1.71934E+01  1.81564E+01  1.90629E+01  1.98818E+01  2.05856E+01  2.11507E+01  2.15589E+01
   2.17978E+01  2.18623E+01  2.17555E+01  2.14890E+01  2.10829E+01  2.05630E+01  1.99608E+01  1.93153E+01  1.86781E+01  1.81141E+01
   1.76063E+01  1.71345E+01  1.67422E+01  1.64209E+01  1.60830E+01  1.56058E+01  1.48839E+01  1.39436E+01  1.29153E+01  1.19345E+01
   1.12109E+01  1.09445E+01  1.12120E+01  1.19552E+01  1.30160E+01  1.42017E+01  1.53707E+01  1.64540E+01  1.73305E+01  1.79941E+01
   1.85524E+01  1.90860E+01  1.96521E+01  2.01940E+01  2.05845E+01  2.08163E+01  2.09208E+01  2.08805E+01  2.07280E+01  2.05484E+01
   2.05051E+01  2.07457E+01  2.13148E+01  2.21472E+01  2.30987E+01  2.40050E+01  2.47560E+01  2.53198E+01  2.56333E+01  2.56760E+01
   2.55364E+01  2.52820E+01  2.49227E+01  2.44211E+01  2.37629E+01  2.30514E+01  2.23329E+01  2.15855E+01  2.08063E+01  2.00019E+01
   1.91823E+01  1.83588E+01  1.75431E+01  1.67471E+01  1.59825E+01  1.52600E+01  1.45897E+01  1.39806E+01  1.34409E+01  1.29785E+01
   1.26001E+01  1.23120E+01  1.21197E+01  1.20276E+01  1.20398E+01  1.21594E+01  1.23885E+01  1.27273E+01  1.31742E+01  1.37256E+01
   1.43751E+01  1.51136E+01  1.59285E+01  1.68040E+01  1.77205E+01  1.86559E+01  1.95855E+01  2.04826E+01  2.13197E+01  2.20693E+01
   2.27056E+01  2.32052E+01  2.35488E+01  2.37217E+01  2.37149E+01  2.35249E+01  2.31549E+01  2.26138E+01  2.19158E+01  2.10797E+01
   2.01276E+01  1.90837E+01  1.79736E+01  1.68224E+01  1.56543E+01  1.44914E+01  1.33525E+01  1.22537E+01  1.12077E+01  1.02238E+01
   9.30808E+00  8.46370E+00  7.69123E+00  6.98937E+00  6.35531E+00  5.78512E+00  5.27399E+00  4.81668E+00  4.40784E+00  4.04233E+00
   3.71531E+00  3.42221E+00  3.15876E+00  2.92112E+00  2.70592E+00  2.51034E+00  2.33189E+00  2.16839E+00  2.01783E+00  1.87855E+00
   1.74919E+00  1.62866E+00  1.51599E+00  1.41024E+00  1.31057E+00  1.21631E+00  1.12696E+00  1.04212E+00  9.61342E-01  8.84189E-01
   8.10262E-01  7.39292E-01  6.71111E-01  6.05550E-01  5.42362E-01  4.81277E-01  4.22101E-01  3.64741E-01  3.09147E-01  2.55209E-01
   2.02750E-01  1.51599E-01  1.01676E-01  5.29789E-02  5.49111E-03 -4.08903E-02 -8.63190E-02 -1.30897E-01 -1.74631E-01 -2.17489E-01
  -2.59491E-01 -3.00741E-01 -3.41355E-01 -3.81372E-01 -4.20751E-01 -4.59459E-01 -4.97545E-01 -5.35119E-01 -5.72261E-01 -6.08961E-01
  -6.45161E-01 -6.80848E-01 -7.16092E-01 -7.50995E-01 -7.85590E-01 -8.19827E-01 -8.53650E-01 -8.87078E-01 -9.20202E-01 -9.53094E-01
  -9.85744E-01 -1.01808E+00 -1.05007E+00 -1.08176E+00 -1.11324E+00 -1.14455E+00 -1.17563E+00 -1.20640E+00
 NY background values follow
     2.217E+01    2.209E+01    2.202E+01    2.194E+01    2.186E+01    2.179E+01    2.171E+01    2.163E+01    2.156E+01    2.148E+01
     2.141E+01    2.133E+01    2.125E+01    2.118E+01    2.110E+01    2.102E+01    2.095E+01    2.087E+01    2.080E+01    2.072E+01
     2.064E+01    2.057E+01    2.049E+01    2.042E+01    2.034E+01    2.026E+01    2.019E+01    2.011E+01    2.003E+01    1.996E+01
     1.988E+01    1.981E+01    1.973E+01    1.965E+01    1.958E+01    1.950E+01    1.943E+01    1.935E+01    1.927E+01    1.920E+01
     1.912E+01    1.905E+01    1.897E+01    1.889E+01    1.882E+01    1.874E+01    1.867E+01    1.859E+01    1.851E+01    1.844E+01
     1.836E+01    1.829E+01    1.821E+01    1.814E+01    1.806E+01    1.798E+01    1.791E+01    1.783E+01    1.776E+01    1.768E+01
     1.761E+01    1.753E+01    1.746E+01    1.738E+01    1.731E+01    1.723E+01    1.716E+01    1.708E+01    1.700E+01    1.693E+01
     1.685E+01    1.678E+01    1.670E+01    1.663E+01    1.656E+01    1.648E+01    1.641E+01    1.633E+01    1.626E+01    1.618E+01
     1.611E+01    1.603E+01    1.596E+01    1.588E+01    1.581E+01    1.574E+01    1.566E+01    1.559E+01    1.551E+01    1.544E+01
     1.537E+01    1.529E+01    1.522E+01    1.514E+01    1.507E+01    1.500E+01    1.492E+01    1.485E+01    1.478E+01    1.470E+01
     1.463E+01    1.456E+01    1.448E+01    1.441E+01    1.434E+01    1.427E+01    1.419E+01    1.412E+01    1.405E+01    1.398E+01
     1.390E+01    1.383E+01    1.376E+01    1.369E+01    1.362E+01    1.354E+01    1.347E+01    1.340E+01    1.333E+01    1.326E+01
     1.319E+01    1.312E+01    1.304E+01    1.297E+01    1.290E+01    1.283E+01    1.276E+01    1.269E+01    1.262E+01    1.255E+01
     1.248E+01    1.241E+01    1.234E+01    1.227E+01    1.220E+01    1.213E+01    1.206E+01    1.199E+01    1.192E+01    1.185E+01
     1.179E+01    1.172E+01    1.165E+01    1.158E+01    1.151E+01    1.144E+01    1.137E+01    1.131E+01    1.124E+01    1.117E+01
     1.110E+01    1.104E+01    1.097E+01    1.090E+01    1.084E+01    1.077E+01    1.070E+01    1.064E+01    1.057E+01    1.050E+01
     1.044E+01    1.037E+01    1.031E+01    1.024E+01    1.018E+01    1.011E+01    1.005E+01    9.982E+00    9.918E+00    9.853E+00
     9.789E+00    9.726E+00    9.662E+00    9.599E+00    9.536E+00    9.473E+00    9.410E+00    9.347E+00    9.285E+00    9.223E+00
     9.161E+00    9.100E+00    9.038E+00    8.977E+00    8.916E+00    8.855E+00    8.795E+00    8.735E+00    8.675E+00    8.615E+00
     8.555E+00    8.496E+00    8.436E+00    8.378E+00    8.319E+00    8.260E+00    8.202E+00    8.144E+00    8.086E+00    8.028E+00
     7.971E+00    7.914E+00    7.856E+00    7.800E+00    7.743E+00    7.687E+00    7.630E+00    7.574E+00    7.519E+00    7.463E+00
     7.408E+00    7.353E+00    7.298E+00    7.243E+00    7.188E+00    7.134E+00    7.080E+00    7.026E+00    6.972E+00    6.919E+00
     6.865E+00    6.812E+00    6.759E+00    6.706E+00    6.654E+00    6.602E+00    6.549E+00    6.497E+00    6.446E+00    6.394E+00
     6.343E+00    6.292E+00    6.241E+00    6.190E+00    6.139E+00    6.089E+00    6.039E+00    5.989E+00    5.939E+00    5.889E+00
     5.840E+00    5.791E+00    5.742E+00    5.693E+00    5.644E+00    5.596E+00    5.548E+00    5.500E+00    5.452E+00    5.404E+00
     5.357E+00    5.309E+00    5.262E+00    5.215E+00    5.169E+00    5.122E+00    5.076E+00    5.030E+00    4.984E+00    4.938E+00
     4.893E+00    4.847E+00    4.802E+00    4.757E+00    4.712E+00    4.668E+00    4.623E+00    4.579E+00    4.535E+00    4.491E+00
     4.448E+00    4.404E+00    4.361E+00    4.318E+00    4.275E+00    4.233E+00    4.190E+00    4.148E+00    4.106E+00    4.064E+00
     4.022E+00    3.981E+00    3.939E+00    3.898E+00    3.857E+00    3.816E+00    3.776E+00    3.735E+00    3.695E+00    3.655E+00
     3.615E+00    3.575E+00    3.536E+00    3.497E+00    3.457E+00    3.418E+00    3.379E+00    3.341E+00    3.302E+00    3.264E+00
     3.226E+00    3.188E+00    3.150E+00    3.112E+00    3.075E+00    3.038E+00    3.001E+00    2.964E+00    2.927E+00    2.890E+00
     2.854E+00    2.817E+00    2.781E+00    2.745E+00    2.709E+00    2.674E+00    2.638E+00    2.603E+00    2.568E+00    2.533E+00
     2.498E+00    2.463E+00    2.429E+00    2.394E+00    2.360E+00    2.326E+00    2.292E+00    2.258E+00    2.225E+00    2.191E+00
     2.158E+00    2.125E+00    2.091E+00    2.059E+00    2.026E+00    1.993E+00    1.961E+00    1.928E+00    1.896E+00    1.864E+00
     1.832E+00    1.800E+00    1.769E+00    1.737E+00    1.706E+00    1.675E+00    1.643E+00    1.612E+00    1.582E+00    1.551E+00
     1.520E+00    1.490E+00    1.459E+00    1.429E+00    1.399E+00    1.369E+00    1.339E+00    1.310E+00    1.280E+00    1.250E+00
     1.221E+00    1.192E+00    1.163E+00    1.134E+00    1.105E+00    1.076E+00    1.047E+00    1.019E+00    9.903E-01    9.620E-01
     9.338E-01    9.057E-01    8.777E-01    8.498E-01    8.220E-01    7.943E-01    7.668E-01    7.393E-01    7.120E-01    6.847E-01
     6.576E-01    6.306E-01    6.036E-01    5.768E-01    5.501E-01    5.235E-01    4.970E-01    4.706E-01    4.443E-01    4.181E-01
     3.920E-01    3.660E-01    3.402E-01    3.144E-01    2.887E-01    2.631E-01    2.376E-01    2.122E-01    1.869E-01    1.617E-01
     1.366E-01    1.116E-01    8.664E-02    6.181E-02    3.708E-02    1.244E-02   -1.210E-02   -3.655E-02   -6.091E-02   -8.518E-02
    -1.094E-01   -1.335E-01   -1.575E-01   -1.814E-01   -2.052E-01   -2.290E-01   -2.526E-01   -2.762E-01   -2.997E-01   -3.232E-01
    -3.465E-01   -3.698E-01   -3.930E-01   -4.161E-01   -4.391E-01   -4.621E-01   -4.850E-01   -5.078E-01   -5.306E-01   -5.533E-01
    -5.759E-01   -5.985E-01   -6.210E-01   -6.434E-01   -6.657E-01   -6.880E-01   -7.103E-01   -7.325E-01   -7.546E-01   -7.767E-01
    -7.987E-01   -8.206E-01   -8.425E-01   -8.643E-01   -8.861E-01   -9.079E-01   -9.296E-01   -9.512E-01   -9.728E-01   -9.943E-01
    -1.016E+00   -1.037E+00   -1.059E+00   -1.080E+00   -1.101E+00   -1.123E+00   -1.144E+00   -1.165E+00   -1.186E+00   -1.207E+00
    -1.229E+00   -1.250E+00   -1.271E+00   -1.292E+00   -1.313E+00   -1.334E+00   -1.354E+00   -1.375E+00   -1.396E+00   -1.417E+00
    -1.438E+00   -1.459E+00   -1.479E+00   -1.500E+00   -1.521E+00   -1.542E+00   -1.562E+00   -1.583E+00   -1.604E+00   -1.624E+00
    -1.645E+00   -1.666E+00   -1.686E+00   -1.707E+00   -1.728E+00   -1.748E+00   -1.769E+00   -1.789E+00   -1.810E+00   -1.831E+00
    -1.851E+00   -1.872E+00   -1.893E+00   -1.913E+00   -1.934E+00   -1.954E+00   -1.975E+00   -1.996E+00
 Ala      Conc. = 2.69E+02
