 LCModel (Version 6.3-1L) Copyright: S.W. Provencher.          Ref.: Magn. Reson. Med. 30:672-679 (1993).                
 Slice#2 Row#1 Col#3  PD_05_press_2_raw_act
 36 lines in following concentration table = NCONC+1
    Conc.  %SD /Cr+PCr  Metabolite                                         
    0.000 999%   0.000 Ala                                                 
   22.402 101%   0.000 Asp                                                 
    0.000 999%   0.000 Cr                                                  
    0.000 999%   0.000 PCr                                                 
   13.339 102%   0.000 GABA                                                
   13.713  99%   0.000 Glc                                                 
    0.000 999%   0.000 Gln                                                 
   11.264 999%   0.000 Glu                                                 
    0.000 999%   0.000 GPC                                                 
   53.528  61%   0.000 PCh                                                 
    0.000 999%   0.000 GSH                                                 
    0.000 999%   0.000 Ins                                                 
    0.000 999%   0.000 Lac                                                 
  301.556  37%   0.000 NAA                                                 
    0.000 999%   0.000 NAAG                                                
    5.020  90%   0.000 Scyllo                                              
   24.725  91%   0.000 Tau                                                 
   23.497 130%   0.000 -CrCH2                                              
   53.528  61%   0.000 GPC+PCh                                             
  301.556  37%   0.000 NAA+NAAG                                            
    0.000 999%   0.000 Cr+PCr                                              
   11.264 999%   0.000 Glu+Gln                                             
 6.31E+03  10%   0.000 Lip13a                                              
    0.000 999%   0.000 Lip13b                                              
    0.000 999%   0.000 Lip09                                               
    0.000 999%   0.000 MM09                                                
 1.53E+03  27%   0.000 Lip20                                               
    0.000 999%   0.000 MM20                                                
 5.84E-03 999%   0.000 MM12                                                
 1.05E-02 999%   0.000 MM14                                                
 1.83E-02 999%   0.000 MM17                                                
 6.31E+03  10%   0.000 Lip13a+Lip13b                                       
 6.31E+03  10%   0.000 MM14+Lip13a+Lip13b+MM12                             
    0.000 999%   0.000 MM09+Lip09                                          
 1.53E+03  27%   0.000 MM20+Lip20                                          
   6 lines in following misc. output table
  FWHM = 0.038 ppm    S/N =   1                                            
  Data shift =-0.038 ppm                                                   
  Ph:  66 deg      42.4 deg/ppm                                            
  alphaB,S = 1.5E+00,   1.3E+01                                            
   14 spline knots.   Ns = 6(1)                                            
  ( 9) 3 infls.   ( 8) 2 extrs.                                            
  498 points on ppm-axis = NY
      4.000000     3.992357     3.984714     3.977070     3.969427     3.961784     3.954141     3.946497     3.938854     3.931211
      3.923568     3.915925     3.908281     3.900638     3.892995     3.885352     3.877708     3.870065     3.862422     3.854779
      3.847136     3.839492     3.831849     3.824206     3.816563     3.808919     3.801276     3.793633     3.785990     3.778347
      3.770703     3.763060     3.755417     3.747774     3.740130     3.732487     3.724844     3.717201     3.709558     3.701914
      3.694271     3.686628     3.678985     3.671341     3.663698     3.656055     3.648412     3.640769     3.633125     3.625482
      3.617839     3.610196     3.602552     3.594909     3.587266     3.579623     3.571980     3.564336     3.556693     3.549050
      3.541407     3.533763     3.526120     3.518477     3.510834     3.503191     3.495547     3.487904     3.480261     3.472618
      3.464974     3.457331     3.449688     3.442045     3.434402     3.426758     3.419115     3.411472     3.403829     3.396185
      3.388542     3.380899     3.373256     3.365613     3.357969     3.350326     3.342683     3.335040     3.327396     3.319753
      3.312110     3.304467     3.296824     3.289180     3.281537     3.273894     3.266251     3.258607     3.250964     3.243321
      3.235678     3.228034     3.220391     3.212748     3.205105     3.197462     3.189818     3.182175     3.174532     3.166889
      3.159245     3.151602     3.143959     3.136316     3.128673     3.121029     3.113386     3.105743     3.098100     3.090456
      3.082813     3.075170     3.067527     3.059884     3.052240     3.044597     3.036954     3.029311     3.021667     3.014024
      3.006381     2.998738     2.991095     2.983451     2.975808     2.968165     2.960522     2.952878     2.945235     2.937592
      2.929949     2.922306     2.914662     2.907019     2.899376     2.891733     2.884089     2.876446     2.868803     2.861160
      2.853517     2.845873     2.838230     2.830587     2.822944     2.815300     2.807657     2.800014     2.792371     2.784728
      2.777084     2.769441     2.761798     2.754155     2.746511     2.738868     2.731225     2.723582     2.715939     2.708295
      2.700652     2.693009     2.685366     2.677722     2.670079     2.662436     2.654793     2.647150     2.639506     2.631863
      2.624220     2.616577     2.608933     2.601290     2.593647     2.586004     2.578361     2.570717     2.563074     2.555431
      2.547788     2.540144     2.532501     2.524858     2.517215     2.509572     2.501928     2.494285     2.486642     2.478999
      2.471355     2.463712     2.456069     2.448426     2.440783     2.433139     2.425496     2.417853     2.410210     2.402566
      2.394923     2.387280     2.379637     2.371994     2.364350     2.356707     2.349064     2.341421     2.333777     2.326134
      2.318491     2.310848     2.303205     2.295561     2.287918     2.280275     2.272632     2.264988     2.257345     2.249702
      2.242059     2.234416     2.226772     2.219129     2.211486     2.203843     2.196199     2.188556     2.180913     2.173270
      2.165627     2.157983     2.150340     2.142697     2.135054     2.127410     2.119767     2.112124     2.104481     2.096838
      2.089194     2.081551     2.073908     2.066265     2.058621     2.050978     2.043335     2.035692     2.028049     2.020405
      2.012762     2.005119     1.997476     1.989833     1.982190     1.974546     1.966903     1.959260     1.951617     1.943974
      1.936331     1.928688     1.921045     1.913402     1.905759     1.898115     1.890472     1.882829     1.875186     1.867543
      1.859900     1.852257     1.844614     1.836971     1.829327     1.821684     1.814041     1.806398     1.798755     1.791112
      1.783469     1.775826     1.768183     1.760540     1.752896     1.745253     1.737610     1.729967     1.722324     1.714681
      1.707038     1.699395     1.691752     1.684108     1.676465     1.668822     1.661179     1.653536     1.645893     1.638250
      1.630607     1.622964     1.615321     1.607677     1.600034     1.592391     1.584748     1.577105     1.569462     1.561819
      1.554176     1.546533     1.538890     1.531246     1.523603     1.515960     1.508317     1.500674     1.493031     1.485388
      1.477745     1.470102     1.462458     1.454815     1.447172     1.439529     1.431886     1.424243     1.416600     1.408957
      1.401314     1.393671     1.386027     1.378384     1.370741     1.363098     1.355455     1.347812     1.340169     1.332526
      1.324883     1.317240     1.309596     1.301953     1.294310     1.286667     1.279024     1.271381     1.263738     1.256095
      1.248452     1.240808     1.233165     1.225522     1.217879     1.210236     1.202593     1.194950     1.187307     1.179664
      1.172021     1.164377     1.156734     1.149091     1.141448     1.133805     1.126162     1.118519     1.110876     1.103233
      1.095590     1.087946     1.080303     1.072660     1.065017     1.057374     1.049731     1.042088     1.034445     1.026802
      1.019158     1.011515     1.003872     0.996229     0.988586     0.980943     0.973300     0.965657     0.958014     0.950371
      0.942727     0.935084     0.927441     0.919798     0.912155     0.904512     0.896869     0.889226     0.881583     0.873940
      0.866296     0.858653     0.851010     0.843367     0.835724     0.828081     0.820438     0.812795     0.805152     0.797508
      0.789865     0.782222     0.774579     0.766936     0.759293     0.751650     0.744007     0.736364     0.728721     0.721077
      0.713434     0.705791     0.698148     0.690505     0.682862     0.675219     0.667576     0.659933     0.652290     0.644646
      0.637003     0.629360     0.621717     0.614074     0.606431     0.598788     0.591145     0.583502     0.575858     0.568215
      0.560572     0.552929     0.545286     0.537643     0.530000     0.522357     0.514714     0.507071     0.499427     0.491784
      0.484141     0.476498     0.468855     0.461212     0.453569     0.445925     0.438282     0.430639     0.422996     0.415353
      0.407710     0.400067     0.392424     0.384780     0.377137     0.369494     0.361851     0.354208     0.346565     0.338922
      0.331278     0.323635     0.315992     0.308349     0.300706     0.293063     0.285420     0.277777     0.270133     0.262490
      0.254847     0.247204     0.239561     0.231918     0.224275     0.216631     0.208988     0.201345
 NY phased data points follow
  -2.77340E+01 -8.30771E+00 -2.52201E+01 -4.77546E+01 -4.28458E+01 -3.32373E+01 -3.69951E+01 -2.50575E+01 -4.47020E+01 -2.67695E+01
  -2.36407E+01 -2.22063E+01 -3.98288E+01 -4.21321E+01 -2.82677E+01 -2.38382E+01 -2.51980E+01 -2.72055E+01 -2.66474E+01 -4.34543E+01
  -2.37691E+01 -1.35010E+01 -1.36153E+01 -3.71616E+01 -6.85550E+00 -3.08696E+01 -2.34715E+01 -2.65487E+01 -2.34139E+01 -1.81291E+01
  -2.10038E+01 -1.98671E+01 -2.30459E+01 -1.89351E+01 -1.26851E+01 -1.22832E+01 -2.19065E+01 -2.40440E+01 -6.06773E+00 -2.40755E+01
  -1.10215E+01 -7.14918E+00 -2.26936E+01 -1.38899E+01 -3.09178E+01 -1.69481E+01 -2.52719E+01 -1.65000E+01 -1.80615E+01 -9.96964E+00
  -2.34793E+01 -2.01942E+01 -8.57659E+00 -1.07730E+01 -2.49708E+01 -2.39221E+01 -2.22899E+01 -2.33201E+01 -1.45233E+01 -1.51898E+01
  -8.21894E+00 -2.08056E+01 -1.11511E+01 -4.48356E+00 -3.46895E+00 -9.27602E+00 -1.49680E+01 -1.65168E+01 -1.06537E+01 -2.48720E+01
  -1.55355E+01 -1.03803E+01 -1.60695E+01 -2.82358E+00 -1.80607E+01 -1.07141E+01 -1.54869E+01 -1.05860E+01 -1.51393E+01 -1.15712E+01
  -1.30060E+01 -5.58859E+00 -1.89580E+01 -1.16457E+01 -1.41268E+01 -3.06056E+00 -1.04564E+01 -7.41171E+00 -5.37828E+00 -2.23117E+01
  -8.41140E+00 -1.37103E+01 -1.66931E+01 -5.85249E+00 -1.37832E+01 -9.90571E+00  5.86694E+00 -1.73550E+01 -4.69479E+00 -1.20271E+01
  -9.11997E+00 -7.32500E+00 -8.09104E+00 -8.60313E-01 -8.78855E+00 -2.33149E+00 -9.67340E+00 -8.58315E+00 -1.30543E+01 -1.35001E+01
  -7.15654E+00 -6.36866E+00 -8.64563E+00 -2.58508E+01 -1.73975E+01 -1.06592E+01 -1.03482E+01 -1.17681E+01 -7.85978E+00 -1.15526E+01
  -2.31369E+00 -1.95531E+01  1.69251E+00 -7.36944E+00 -1.98603E+01 -1.01262E+01 -5.50927E+00 -3.59030E+00 -7.54569E+00 -8.56607E+00
   9.90472E-01 -3.85036E+00 -3.47136E+00 -1.01203E+01 -8.12637E+00 -3.33645E+00 -7.55561E+00 -1.76291E+01 -4.61345E+00 -1.02714E+01
  -6.41834E+00 -1.24247E+01 -7.42622E+00  3.59841E+00 -6.03796E-01 -1.61893E+01 -9.82892E+00 -3.63710E+00 -3.99681E+00 -1.58064E+01
  -7.01205E+00  1.35851E+00 -9.66288E+00 -1.04619E+00  1.52613E+00  9.50907E-01 -1.04720E+00  8.22125E+00  1.04671E+01 -6.68585E+00
  -6.87897E+00  1.44364E+00 -1.51834E+00  5.68184E+00 -9.32505E-01 -5.86138E+00 -3.62427E+00  1.15206E+01 -1.34364E+01 -8.11157E+00
  -1.05265E+00  1.64263E+00 -9.80735E-01  8.76057E+00  1.16071E+01 -9.77255E+00 -7.49809E+00 -6.83507E+00 -1.70219E+01 -1.55524E+01
   1.71993E+00 -1.69676E+00  8.03030E+00 -5.75747E+00  2.05614E+00 -2.22794E+01 -8.90001E+00  2.02045E+00  9.08376E+00 -2.45449E+00
  -7.51082E+00 -1.19173E+01  9.01120E+00 -2.00011E+00 -5.24060E+00 -1.84314E+00 -4.31212E+00 -8.56550E+00  5.05833E+00  6.69684E+00
   1.00946E+01 -1.82324E+00 -1.50078E+01 -6.90042E+00  1.06199E+01  3.50467E+00  4.62311E+00  2.06261E+00  5.02965E+00  2.50152E-01
   1.68144E+00  9.91931E+00  8.28946E+00 -2.21011E+00 -1.40234E+01  1.18755E+01 -3.01970E+00  1.20944E+01 -7.18634E+00  9.37660E+00
   2.50015E-01  2.29208E+00 -2.91981E+00 -3.63201E+00 -3.53453E+00 -2.77088E+00  2.00898E+01 -2.24905E+00  1.42002E+00  1.48717E+01
  -4.56790E+00  1.28519E+01 -8.99014E+00  7.23337E+00 -2.45623E+00 -2.77248E+00  8.31551E+00  5.20104E+00 -9.25042E+00 -2.59329E+00
   1.78452E+00  6.35411E+00 -5.21164E+00 -1.25086E+01  3.77249E+00  9.01177E+00 -5.05016E+00 -5.79289E+00  2.71964E+00 -1.53127E-01
   9.32643E+00 -5.87935E+00 -6.46382E-01  2.86925E+00  7.32386E+00  1.18725E+01  7.88970E-01  1.01056E+01  7.26972E+00  2.16832E+01
   1.75375E+01  1.19897E+01  1.37815E+01 -3.60911E+00  5.84208E+00  1.30102E+00 -1.55681E+01 -7.48145E+00 -5.64298E+00 -7.65861E+00
  -8.81725E+00 -1.12214E+01 -2.71822E+00 -6.20476E+00 -8.50284E+00 -4.59698E+00 -5.89213E+00 -3.03004E+00 -4.04423E+00  2.80332E+00
   1.84482E+00  3.14127E+00 -1.83185E+00  1.07020E+01 -5.22847E+00  3.09646E+00 -2.71079E+00 -1.07716E+01 -3.47971E+00  1.13824E+00
   4.32998E+00  1.09943E+00  4.40170E-01 -1.38738E+00 -8.62836E+00 -4.07823E+00  2.75423E+00 -6.40393E-01 -7.85241E+00  5.23215E-01
   5.27357E+00 -1.71789E+01 -6.68645E+00  1.65877E+01 -1.01572E+01  8.56023E+00  1.99498E+00  4.41560E+00 -6.24090E+00  1.65279E+01
  -1.69047E+00  6.17126E+00  9.75417E+00 -4.71358E+00  5.58340E+00  1.37139E+00 -5.36028E+00  1.00784E+01  1.00773E+01  1.61959E+01
   2.43259E+01  5.28851E+00  4.99083E+00  4.98601E-01  8.83182E+00  1.32128E+01  2.30239E+01  1.84952E+01  8.18509E+00  6.51472E+00
   2.28645E+01  1.11669E+01  3.60388E+00  2.88761E+00  6.44295E+00  8.96042E-01  4.35765E+00  1.10593E+01  6.88308E+00  3.87211E+00
   1.02769E+01  2.48056E+00  2.75363E+00  5.03064E+00  1.33631E+01  1.45893E+01  3.28807E+00  1.21591E+01  1.04984E+00  1.46399E+01
   7.54774E+00  1.51086E+01  1.14310E+01  1.68229E+01  1.44695E+01  1.14829E+01  1.14523E+01  1.87928E+01  1.74564E+01  2.06800E+01
   2.87244E+01  2.16926E+01  2.76157E+01  3.03213E+01  4.05747E+01  1.26452E+01  1.89356E+01  3.08384E+01  1.62135E+01  2.43876E+01
   2.23734E+01  2.43124E+01  2.11492E+01  2.71576E+01  1.88686E+01  1.75910E+01  2.84986E+01  2.22184E+01  3.33957E+01  2.19322E+01
   2.93747E+01  2.28712E+01  2.04341E+01  2.62707E+01  1.26071E+01  2.43548E+01 -2.27835E+00  2.79661E+01  8.39945E-01  1.24458E+01
   1.02024E+00 -8.60088E-02 -2.39915E+00 -5.71217E+00 -1.16005E+01 -5.66402E+00 -2.49893E+01 -6.95126E+00  2.94950E+00 -4.02409E+00
  -2.04712E+00 -5.61907E-01 -8.67965E+00 -4.42084E+00 -9.35841E+00  4.17519E+00 -1.09981E+01 -5.08281E+00  1.15780E+01  1.17645E+00
   1.16452E+01  3.87215E+00 -5.95844E+00  1.73728E+01  1.62838E+01  2.33743E+00  3.17593E+00  3.41833E+00  2.47715E+00  3.25744E+00
   8.55151E+00  3.07809E+00 -7.51735E+00 -1.40839E+01  4.07569E+00 -3.26573E+00  1.90132E+00 -5.48964E+00  2.41027E+00 -3.97412E+00
   2.60974E+00  9.77854E+00  1.89673E+00  1.35336E+00  1.01880E+01  5.65994E+00 -4.83037E+00  4.42005E-01  7.71966E+00  1.14841E+00
   4.42810E+00  4.46339E+00  4.38761E+00 -2.71895E+00  1.08989E+01 -5.35806E-01  7.71725E+00  4.72979E+00  6.39745E+00  8.07994E+00
  -3.18578E+00 -8.90189E-01  3.27842E+00 -8.95853E+00 -3.90718E+00  9.23131E+00  1.77292E+00  4.53491E+00 -9.55379E-01 -3.04181E+00
   1.26253E+01 -7.12443E-01 -1.31563E+01  1.15926E+01  1.07136E+01 -1.34239E+01  1.29477E+01  7.40572E+00  6.07605E+00 -2.04738E+00
  -6.68629E+00  1.03375E+00  2.76804E+00 -7.81137E+00  1.91988E+00 -3.48007E+00 -3.05543E+00  3.09608E+00  1.18153E+01  5.57816E+00
   9.24686E+00  4.30419E-01  9.07030E+00 -2.66336E+00 -6.35573E+00 -1.38801E-01  1.49020E+00 -4.35872E+00 -1.96894E+00 -6.30988E+00
  -2.65274E+00  9.72269E+00 -5.07836E+00  1.84197E-02  3.27968E+00 -5.68861E+00  1.40089E+01 -4.17875E+00
 NY points of the fit to the data follow
  -2.08743E+01 -2.07843E+01 -2.07144E+01 -2.06990E+01 -2.07228E+01 -2.07736E+01 -2.08546E+01 -2.09422E+01 -2.09719E+01 -2.08850E+01
  -2.06739E+01 -2.03781E+01 -2.00587E+01 -1.97722E+01 -1.95775E+01 -1.95119E+01 -1.95236E+01 -1.94999E+01 -1.94278E+01 -1.93301E+01
  -1.92169E+01 -1.90909E+01 -1.89591E+01 -1.88313E+01 -1.87214E+01 -1.86352E+01 -1.85673E+01 -1.85032E+01 -1.84281E+01 -1.83452E+01
  -1.82599E+01 -1.81702E+01 -1.80757E+01 -1.79812E+01 -1.78912E+01 -1.78055E+01 -1.77188E+01 -1.76357E+01 -1.75498E+01 -1.74632E+01
  -1.73866E+01 -1.73237E+01 -1.72742E+01 -1.72296E+01 -1.71728E+01 -1.70989E+01 -1.70053E+01 -1.68878E+01 -1.67637E+01 -1.66524E+01
  -1.65496E+01 -1.64379E+01 -1.63276E+01 -1.62204E+01 -1.61209E+01 -1.60429E+01 -1.59823E+01 -1.59288E+01 -1.58747E+01 -1.57989E+01
  -1.57015E+01 -1.55992E+01 -1.54979E+01 -1.53957E+01 -1.52991E+01 -1.52125E+01 -1.51332E+01 -1.50606E+01 -1.49948E+01 -1.49223E+01
  -1.48281E+01 -1.47160E+01 -1.45866E+01 -1.44450E+01 -1.43156E+01 -1.42218E+01 -1.41665E+01 -1.41489E+01 -1.41424E+01 -1.41115E+01
  -1.40208E+01 -1.38618E+01 -1.36519E+01 -1.34283E+01 -1.32307E+01 -1.30819E+01 -1.30044E+01 -1.30001E+01 -1.30418E+01 -1.30944E+01
  -1.31381E+01 -1.31532E+01 -1.31035E+01 -1.29805E+01 -1.28390E+01 -1.26792E+01 -1.24188E+01 -1.18032E+01 -1.07053E+01 -9.42735E+00
  -7.99174E+00 -6.43326E+00 -5.13803E+00 -4.68467E+00 -5.34071E+00 -6.90640E+00 -8.94304E+00 -1.09468E+01 -1.24379E+01 -1.29368E+01
  -1.23684E+01 -1.15945E+01 -1.13165E+01 -1.12054E+01 -1.11165E+01 -1.10281E+01 -1.09438E+01 -1.08635E+01 -1.07843E+01 -1.07027E+01
  -1.06156E+01 -1.05209E+01 -1.04172E+01 -1.03032E+01 -1.01770E+01 -1.00417E+01 -9.90582E+00 -9.77482E+00 -9.64910E+00 -9.53413E+00
  -9.43087E+00 -9.33380E+00 -9.23560E+00 -9.12570E+00 -8.99914E+00 -8.85715E+00 -8.70227E+00 -8.53436E+00 -8.35981E+00 -8.18786E+00
  -8.02019E+00 -7.85510E+00 -7.68624E+00 -7.50979E+00 -7.33320E+00 -7.15993E+00 -6.99305E+00 -6.83855E+00 -6.69804E+00 -6.56757E+00
  -6.43631E+00 -6.29943E+00 -6.15986E+00 -6.02568E+00 -5.91418E+00 -5.84647E+00 -5.81541E+00 -5.80944E+00 -5.82549E+00 -5.83998E+00
  -5.83578E+00 -5.78843E+00 -5.68366E+00 -5.54941E+00 -5.44207E+00 -5.40729E+00 -5.46224E+00 -5.60638E+00 -5.79728E+00 -5.95443E+00
  -6.05815E+00 -6.11626E+00 -6.13755E+00 -6.18245E+00 -6.23701E+00 -6.26514E+00 -6.24039E+00 -6.16291E+00 -6.07808E+00 -6.02171E+00
  -6.00208E+00 -6.01379E+00 -6.03588E+00 -6.03640E+00 -5.97609E+00 -5.84479E+00 -5.69095E+00 -5.53444E+00 -5.37979E+00 -5.20679E+00
  -5.03039E+00 -4.88360E+00 -4.79782E+00 -4.77994E+00 -4.77783E+00 -4.73360E+00 -4.68732E+00 -4.68862E+00 -4.70249E+00 -4.70653E+00
  -4.66453E+00 -4.54258E+00 -4.34546E+00 -4.11649E+00 -3.93495E+00 -3.86325E+00 -3.87691E+00 -3.94480E+00 -4.02356E+00 -4.05827E+00
  -4.01461E+00 -3.90787E+00 -3.76865E+00 -3.56703E+00 -3.30153E+00 -3.00472E+00 -2.71776E+00 -2.46558E+00 -2.26034E+00 -2.11322E+00
  -1.99465E+00 -1.82997E+00 -1.61612E+00 -1.39875E+00 -1.21158E+00 -1.06450E+00 -9.51143E-01 -8.64184E-01 -7.93725E-01 -7.18881E-01
  -6.14542E-01 -4.77439E-01 -3.28238E-01 -1.85870E-01 -5.73372E-02  5.23461E-02  1.41706E-01  2.15715E-01  2.92503E-01  3.89273E-01
   5.05994E-01  6.37160E-01  7.83708E-01  9.44795E-01  1.11625E+00  1.29373E+00  1.47405E+00  1.65506E+00  1.83669E+00  2.02083E+00
   2.21273E+00  2.42366E+00  2.67504E+00  3.07662E+00  4.14022E+00  6.06920E+00  8.31313E+00  1.08696E+01  1.36136E+01  1.57160E+01
   1.60821E+01  1.42843E+01  1.07842E+01  6.50761E+00  2.45844E+00 -4.89952E-01 -1.48764E+00 -5.28848E-01  6.38337E-01  8.26408E-01
   7.39946E-01  6.32342E-01  5.31267E-01  4.40072E-01  3.58005E-01  2.78447E-01  1.95562E-01  1.11428E-01  3.21873E-02 -3.81896E-02
  -9.47056E-02 -1.34447E-01 -1.56304E-01 -1.59544E-01 -1.48737E-01 -1.30212E-01 -1.06189E-01 -7.83875E-02 -4.95164E-02 -1.97653E-02
   1.12716E-02  4.50131E-02  8.37903E-02  1.27676E-01  1.75521E-01  2.27611E-01  2.84518E-01  3.45453E-01  4.09600E-01  4.77010E-01
   5.47374E-01  6.20189E-01  6.95994E-01  7.75012E-01  8.57379E-01  9.43237E-01  1.03272E+00  1.12596E+00  1.22314E+00  1.32451E+00
   1.43039E+00  1.54104E+00  1.65676E+00  1.77786E+00  1.90476E+00  2.03796E+00  2.17801E+00  2.32544E+00  2.48083E+00  2.64484E+00
   2.81826E+00  3.00198E+00  3.19695E+00  3.40418E+00  3.62480E+00  3.86004E+00  4.11131E+00  4.38010E+00  4.66801E+00  4.97673E+00
   5.30808E+00  5.66397E+00  6.04645E+00  6.45753E+00  6.89921E+00  7.37340E+00  7.88191E+00  8.42633E+00  9.00795E+00  9.62760E+00
   1.02855E+01  1.09812E+01  1.17135E+01  1.24802E+01  1.32779E+01  1.41022E+01  1.49474E+01  1.58064E+01  1.66709E+01  1.75316E+01
   1.83778E+01  1.91981E+01  1.99803E+01  2.07121E+01  2.13810E+01  2.19751E+01  2.24830E+01  2.28948E+01  2.32019E+01  2.33977E+01
   2.34778E+01  2.34400E+01  2.32846E+01  2.30144E+01  2.26344E+01  2.21519E+01  2.15760E+01  2.09174E+01  2.01880E+01  1.94004E+01
   1.85678E+01  1.77030E+01  1.68188E+01  1.59271E+01  1.50387E+01  1.41635E+01  1.33099E+01  1.24850E+01  1.16946E+01  1.09428E+01
   1.02328E+01  9.56652E+00  8.94475E+00  8.36750E+00  7.83401E+00  7.34293E+00  6.89244E+00  6.48045E+00  6.10465E+00  5.76258E+00
   5.45175E+00  5.16968E+00  4.91399E+00  4.68240E+00  4.47278E+00  4.28311E+00  4.11150E+00  3.95625E+00  3.81582E+00  3.68878E+00
   3.57389E+00  3.46996E+00  3.37594E+00  3.29091E+00  3.21403E+00  3.14458E+00  3.08187E+00  3.02528E+00  2.97427E+00  2.92836E+00
   2.88711E+00  2.85015E+00  2.81710E+00  2.78764E+00  2.76147E+00  2.73834E+00  2.71802E+00  2.70031E+00  2.68498E+00  2.67186E+00
   2.66077E+00  2.65160E+00  2.64420E+00  2.63845E+00  2.63423E+00  2.63141E+00  2.62993E+00  2.62969E+00  2.63063E+00  2.63264E+00
   2.63566E+00  2.63962E+00  2.64448E+00  2.65019E+00  2.65669E+00  2.66392E+00  2.67183E+00  2.68040E+00  2.68960E+00  2.69939E+00
   2.70972E+00  2.72057E+00  2.73190E+00  2.74369E+00  2.75593E+00  2.76860E+00  2.78165E+00  2.79507E+00  2.80883E+00  2.82294E+00
   2.83738E+00  2.85212E+00  2.86714E+00  2.88243E+00  2.89798E+00  2.91379E+00  2.92985E+00  2.94613E+00  2.96261E+00  2.97929E+00
   2.99618E+00  3.01326E+00  3.03052E+00  3.04795E+00  3.06553E+00  3.08326E+00  3.10116E+00  3.11921E+00  3.13739E+00  3.15569E+00
   3.17412E+00  3.19267E+00  3.21135E+00  3.23014E+00  3.24904E+00  3.26802E+00  3.28711E+00  3.30631E+00  3.32560E+00  3.34499E+00
   3.36445E+00  3.38399E+00  3.40362E+00  3.42334E+00  3.44314E+00  3.46301E+00  3.48294E+00  3.50294E+00  3.52302E+00  3.54318E+00
   3.56341E+00  3.58369E+00  3.60404E+00  3.62445E+00  3.64494E+00  3.66549E+00  3.68611E+00  3.70679E+00
 NY background values follow
    -2.084E+01   -2.076E+01   -2.067E+01   -2.059E+01   -2.050E+01   -2.042E+01   -2.033E+01   -2.025E+01   -2.016E+01   -2.008E+01
    -1.999E+01   -1.991E+01   -1.982E+01   -1.974E+01   -1.965E+01   -1.957E+01   -1.948E+01   -1.940E+01   -1.932E+01   -1.923E+01
    -1.915E+01   -1.906E+01   -1.898E+01   -1.889E+01   -1.881E+01   -1.872E+01   -1.864E+01   -1.855E+01   -1.847E+01   -1.838E+01
    -1.830E+01   -1.821E+01   -1.813E+01   -1.804E+01   -1.796E+01   -1.788E+01   -1.779E+01   -1.771E+01   -1.762E+01   -1.754E+01
    -1.745E+01   -1.737E+01   -1.729E+01   -1.720E+01   -1.712E+01   -1.703E+01   -1.695E+01   -1.687E+01   -1.678E+01   -1.670E+01
    -1.661E+01   -1.653E+01   -1.645E+01   -1.636E+01   -1.628E+01   -1.620E+01   -1.611E+01   -1.603E+01   -1.595E+01   -1.586E+01
    -1.578E+01   -1.570E+01   -1.562E+01   -1.553E+01   -1.545E+01   -1.537E+01   -1.528E+01   -1.520E+01   -1.512E+01   -1.504E+01
    -1.496E+01   -1.487E+01   -1.479E+01   -1.471E+01   -1.463E+01   -1.455E+01   -1.447E+01   -1.439E+01   -1.430E+01   -1.422E+01
    -1.414E+01   -1.406E+01   -1.398E+01   -1.390E+01   -1.382E+01   -1.374E+01   -1.366E+01   -1.358E+01   -1.350E+01   -1.342E+01
    -1.334E+01   -1.326E+01   -1.318E+01   -1.310E+01   -1.302E+01   -1.295E+01   -1.287E+01   -1.279E+01   -1.271E+01   -1.263E+01
    -1.255E+01   -1.248E+01   -1.240E+01   -1.232E+01   -1.224E+01   -1.217E+01   -1.209E+01   -1.201E+01   -1.194E+01   -1.186E+01
    -1.178E+01   -1.171E+01   -1.163E+01   -1.156E+01   -1.148E+01   -1.140E+01   -1.133E+01   -1.125E+01   -1.118E+01   -1.110E+01
    -1.103E+01   -1.096E+01   -1.088E+01   -1.081E+01   -1.073E+01   -1.066E+01   -1.059E+01   -1.051E+01   -1.044E+01   -1.037E+01
    -1.030E+01   -1.022E+01   -1.015E+01   -1.008E+01   -1.001E+01   -9.936E+00   -9.865E+00   -9.794E+00   -9.723E+00   -9.653E+00
    -9.582E+00   -9.512E+00   -9.442E+00   -9.373E+00   -9.303E+00   -9.234E+00   -9.165E+00   -9.096E+00   -9.027E+00   -8.959E+00
    -8.891E+00   -8.823E+00   -8.755E+00   -8.687E+00   -8.620E+00   -8.553E+00   -8.486E+00   -8.420E+00   -8.353E+00   -8.287E+00
    -8.221E+00   -8.156E+00   -8.090E+00   -8.025E+00   -7.960E+00   -7.896E+00   -7.831E+00   -7.767E+00   -7.703E+00   -7.639E+00
    -7.576E+00   -7.513E+00   -7.450E+00   -7.387E+00   -7.324E+00   -7.262E+00   -7.200E+00   -7.138E+00   -7.077E+00   -7.016E+00
    -6.955E+00   -6.894E+00   -6.834E+00   -6.773E+00   -6.713E+00   -6.654E+00   -6.594E+00   -6.535E+00   -6.476E+00   -6.417E+00
    -6.359E+00   -6.301E+00   -6.243E+00   -6.185E+00   -6.127E+00   -6.070E+00   -6.013E+00   -5.956E+00   -5.900E+00   -5.844E+00
    -5.788E+00   -5.732E+00   -5.676E+00   -5.621E+00   -5.566E+00   -5.511E+00   -5.457E+00   -5.402E+00   -5.348E+00   -5.295E+00
    -5.241E+00   -5.188E+00   -5.135E+00   -5.082E+00   -5.029E+00   -4.977E+00   -4.925E+00   -4.873E+00   -4.821E+00   -4.769E+00
    -4.718E+00   -4.667E+00   -4.616E+00   -4.566E+00   -4.516E+00   -4.466E+00   -4.416E+00   -4.366E+00   -4.317E+00   -4.268E+00
    -4.219E+00   -4.170E+00   -4.122E+00   -4.073E+00   -4.025E+00   -3.977E+00   -3.930E+00   -3.882E+00   -3.835E+00   -3.788E+00
    -3.742E+00   -3.695E+00   -3.649E+00   -3.603E+00   -3.557E+00   -3.511E+00   -3.465E+00   -3.420E+00   -3.375E+00   -3.330E+00
    -3.285E+00   -3.241E+00   -3.197E+00   -3.153E+00   -3.109E+00   -3.065E+00   -3.021E+00   -2.978E+00   -2.935E+00   -2.892E+00
    -2.849E+00   -2.806E+00   -2.764E+00   -2.722E+00   -2.680E+00   -2.638E+00   -2.596E+00   -2.554E+00   -2.513E+00   -2.472E+00
    -2.431E+00   -2.390E+00   -2.349E+00   -2.309E+00   -2.268E+00   -2.228E+00   -2.188E+00   -2.148E+00   -2.108E+00   -2.069E+00
    -2.029E+00   -1.990E+00   -1.951E+00   -1.912E+00   -1.873E+00   -1.835E+00   -1.796E+00   -1.758E+00   -1.720E+00   -1.682E+00
    -1.644E+00   -1.607E+00   -1.569E+00   -1.532E+00   -1.495E+00   -1.458E+00   -1.421E+00   -1.384E+00   -1.348E+00   -1.311E+00
    -1.275E+00   -1.239E+00   -1.203E+00   -1.167E+00   -1.132E+00   -1.096E+00   -1.061E+00   -1.026E+00   -9.909E-01   -9.561E-01
    -9.214E-01   -8.868E-01   -8.524E-01   -8.182E-01   -7.841E-01   -7.501E-01   -7.163E-01   -6.826E-01   -6.491E-01   -6.157E-01
    -5.825E-01   -5.494E-01   -5.164E-01   -4.836E-01   -4.510E-01   -4.185E-01   -3.861E-01   -3.538E-01   -3.217E-01   -2.897E-01
    -2.579E-01   -2.262E-01   -1.946E-01   -1.632E-01   -1.319E-01   -1.007E-01   -6.971E-02   -3.881E-02   -8.031E-03    2.262E-02
     5.313E-02    8.352E-02    1.138E-01    1.439E-01    1.739E-01    2.038E-01    2.336E-01    2.632E-01    2.928E-01    3.222E-01
     3.515E-01    3.806E-01    4.097E-01    4.386E-01    4.674E-01    4.961E-01    5.247E-01    5.531E-01    5.815E-01    6.097E-01
     6.379E-01    6.659E-01    6.938E-01    7.216E-01    7.493E-01    7.769E-01    8.043E-01    8.317E-01    8.590E-01    8.861E-01
     9.132E-01    9.402E-01    9.670E-01    9.938E-01    1.020E+00    1.047E+00    1.074E+00    1.100E+00    1.126E+00    1.152E+00
     1.179E+00    1.205E+00    1.230E+00    1.256E+00    1.282E+00    1.308E+00    1.333E+00    1.359E+00    1.384E+00    1.410E+00
     1.435E+00    1.460E+00    1.485E+00    1.510E+00    1.535E+00    1.560E+00    1.585E+00    1.610E+00    1.634E+00    1.659E+00
     1.683E+00    1.708E+00    1.732E+00    1.757E+00    1.781E+00    1.805E+00    1.829E+00    1.853E+00    1.877E+00    1.901E+00
     1.925E+00    1.949E+00    1.973E+00    1.996E+00    2.020E+00    2.044E+00    2.067E+00    2.091E+00    2.114E+00    2.138E+00
     2.161E+00    2.184E+00    2.208E+00    2.231E+00    2.254E+00    2.277E+00    2.300E+00    2.323E+00    2.346E+00    2.369E+00
     2.392E+00    2.415E+00    2.438E+00    2.461E+00    2.483E+00    2.506E+00    2.529E+00    2.551E+00    2.574E+00    2.597E+00
     2.619E+00    2.642E+00    2.664E+00    2.687E+00    2.709E+00    2.731E+00    2.754E+00    2.776E+00    2.798E+00    2.821E+00
     2.843E+00    2.865E+00    2.887E+00    2.910E+00    2.932E+00    2.954E+00    2.976E+00    2.998E+00    3.020E+00    3.042E+00
     3.064E+00    3.086E+00    3.108E+00    3.130E+00    3.152E+00    3.174E+00    3.196E+00    3.218E+00    3.240E+00    3.262E+00
     3.284E+00    3.306E+00    3.328E+00    3.350E+00    3.371E+00    3.393E+00    3.415E+00    3.437E+00    3.459E+00    3.480E+00
     3.502E+00    3.524E+00    3.546E+00    3.567E+00    3.589E+00    3.611E+00    3.633E+00    3.654E+00    3.676E+00    3.698E+00
     3.720E+00    3.741E+00    3.763E+00    3.785E+00    3.806E+00    3.828E+00    3.850E+00    3.871E+00
 Asp      Conc. = 2.24E+01
