 LCModel (Version 6.3-1L) Copyright: S.W. Provencher.          Ref.: Magn. Reson. Med. 30:672-679 (1993).                
 Slice#2 Row#5 Col#6  PD_05_press_2_raw_act
 36 lines in following concentration table = NCONC+1
    Conc.  %SD /Cr+PCr  Metabolite                                         
  922.016  47%   0.368 Ala                                                 
  479.343  97%   0.191 Asp                                                 
    0.000 999%   0.000 Cr                                                  
 2.51E+03   8%   1.000 PCr                                                 
  124.233 239% 5.0E-02 GABA                                                
  143.256 200% 5.7E-02 Glc                                                 
 1.13E+03  79%   0.451 Gln                                                 
 2.63E+03  39%   1.051 Glu                                                 
    0.000 999%   0.000 GPC                                                 
  950.058   8%   0.379 PCh                                                 
    0.000 999%   0.000 GSH                                                 
 2.80E+03  31%   1.118 Ins                                                 
    0.000 999%   0.000 Lac                                                 
 3.49E+03  10%   1.393 NAA                                                 
  170.329 227% 6.8E-02 NAAG                                                
  151.461  48% 6.0E-02 Scyllo                                              
  450.001  99%   0.180 Tau                                                 
 1.71E+03  18%   0.684 -CrCH2                                              
  950.058   8%   0.379 GPC+PCh                                             
 3.66E+03   7%   1.461 NAA+NAAG                                            
 2.51E+03   8%   1.000 Cr+PCr                                              
 3.76E+03  40%   1.502 Glu+Gln                                             
 6.75E+03  25%   2.694 Lip13a                                              
  231.430 397% 9.2E-02 Lip13b                                              
  934.964  92%   0.373 Lip09                                               
 1.51E+03  54%   0.601 MM09                                                
 1.32E+03  53%   0.526 Lip20                                               
 2.96E+03  40%   1.183 MM20                                                
  469.416  82%   0.187 MM12                                                
  230.600 422% 9.2E-02 MM14                                                
 1.74E+03  31%   0.695 MM17                                                
 6.98E+03  20%   2.787 Lip13a+Lip13b                                       
 7.68E+03  14%   3.066 MM14+Lip13a+Lip13b+MM12                             
 2.44E+03  20%   0.974 MM09+Lip09                                          
 4.28E+03  27%   1.709 MM20+Lip20                                          
   6 lines in following misc. output table
  FWHM = 0.069 ppm    S/N =   5                                            
  Data shift = 0.015 ppm                                                   
  Ph: -42 deg      -8.2 deg/ppm                                            
  alphaB,S = 4.5E+00,   1.0E+02                                            
   14 spline knots.   Ns = 8(1)                                            
  (10) 4 infls.   (11) 1 extrs.                                            
  498 points on ppm-axis = NY
      4.000000     3.992357     3.984714     3.977070     3.969427     3.961784     3.954141     3.946497     3.938854     3.931211
      3.923568     3.915925     3.908281     3.900638     3.892995     3.885352     3.877708     3.870065     3.862422     3.854779
      3.847136     3.839492     3.831849     3.824206     3.816563     3.808919     3.801276     3.793633     3.785990     3.778347
      3.770703     3.763060     3.755417     3.747774     3.740130     3.732487     3.724844     3.717201     3.709558     3.701914
      3.694271     3.686628     3.678985     3.671341     3.663698     3.656055     3.648412     3.640769     3.633125     3.625482
      3.617839     3.610196     3.602552     3.594909     3.587266     3.579623     3.571980     3.564336     3.556693     3.549050
      3.541407     3.533763     3.526120     3.518477     3.510834     3.503191     3.495547     3.487904     3.480261     3.472618
      3.464974     3.457331     3.449688     3.442045     3.434402     3.426758     3.419115     3.411472     3.403829     3.396185
      3.388542     3.380899     3.373256     3.365613     3.357969     3.350326     3.342683     3.335040     3.327396     3.319753
      3.312110     3.304467     3.296824     3.289180     3.281537     3.273894     3.266251     3.258607     3.250964     3.243321
      3.235678     3.228034     3.220391     3.212748     3.205105     3.197462     3.189818     3.182175     3.174532     3.166889
      3.159245     3.151602     3.143959     3.136316     3.128673     3.121029     3.113386     3.105743     3.098100     3.090456
      3.082813     3.075170     3.067527     3.059884     3.052240     3.044597     3.036954     3.029311     3.021667     3.014024
      3.006381     2.998738     2.991095     2.983451     2.975808     2.968165     2.960522     2.952878     2.945235     2.937592
      2.929949     2.922306     2.914662     2.907019     2.899376     2.891733     2.884089     2.876446     2.868803     2.861160
      2.853517     2.845873     2.838230     2.830587     2.822944     2.815300     2.807657     2.800014     2.792371     2.784728
      2.777084     2.769441     2.761798     2.754155     2.746511     2.738868     2.731225     2.723582     2.715939     2.708295
      2.700652     2.693009     2.685366     2.677722     2.670079     2.662436     2.654793     2.647150     2.639506     2.631863
      2.624220     2.616577     2.608933     2.601290     2.593647     2.586004     2.578361     2.570717     2.563074     2.555431
      2.547788     2.540144     2.532501     2.524858     2.517215     2.509572     2.501928     2.494285     2.486642     2.478999
      2.471355     2.463712     2.456069     2.448426     2.440783     2.433139     2.425496     2.417853     2.410210     2.402566
      2.394923     2.387280     2.379637     2.371994     2.364350     2.356707     2.349064     2.341421     2.333777     2.326134
      2.318491     2.310848     2.303205     2.295561     2.287918     2.280275     2.272632     2.264988     2.257345     2.249702
      2.242059     2.234416     2.226772     2.219129     2.211486     2.203843     2.196199     2.188556     2.180913     2.173270
      2.165627     2.157983     2.150340     2.142697     2.135054     2.127410     2.119767     2.112124     2.104481     2.096838
      2.089194     2.081551     2.073908     2.066265     2.058621     2.050978     2.043335     2.035692     2.028049     2.020405
      2.012762     2.005119     1.997476     1.989833     1.982190     1.974546     1.966903     1.959260     1.951617     1.943974
      1.936331     1.928688     1.921045     1.913402     1.905759     1.898115     1.890472     1.882829     1.875186     1.867543
      1.859900     1.852257     1.844614     1.836971     1.829327     1.821684     1.814041     1.806398     1.798755     1.791112
      1.783469     1.775826     1.768183     1.760540     1.752896     1.745253     1.737610     1.729967     1.722324     1.714681
      1.707038     1.699395     1.691752     1.684108     1.676465     1.668822     1.661179     1.653536     1.645893     1.638250
      1.630607     1.622964     1.615321     1.607677     1.600034     1.592391     1.584748     1.577105     1.569462     1.561819
      1.554176     1.546533     1.538890     1.531246     1.523603     1.515960     1.508317     1.500674     1.493031     1.485388
      1.477745     1.470102     1.462458     1.454815     1.447172     1.439529     1.431886     1.424243     1.416600     1.408957
      1.401314     1.393671     1.386027     1.378384     1.370741     1.363098     1.355455     1.347812     1.340169     1.332526
      1.324883     1.317240     1.309596     1.301953     1.294310     1.286667     1.279024     1.271381     1.263738     1.256095
      1.248452     1.240808     1.233165     1.225522     1.217879     1.210236     1.202593     1.194950     1.187307     1.179664
      1.172021     1.164377     1.156734     1.149091     1.141448     1.133805     1.126162     1.118519     1.110876     1.103233
      1.095590     1.087946     1.080303     1.072660     1.065017     1.057374     1.049731     1.042088     1.034445     1.026802
      1.019158     1.011515     1.003872     0.996229     0.988586     0.980943     0.973300     0.965657     0.958014     0.950371
      0.942727     0.935084     0.927441     0.919798     0.912155     0.904512     0.896869     0.889226     0.881583     0.873940
      0.866296     0.858653     0.851010     0.843367     0.835724     0.828081     0.820438     0.812795     0.805152     0.797508
      0.789865     0.782222     0.774579     0.766936     0.759293     0.751650     0.744007     0.736364     0.728721     0.721077
      0.713434     0.705791     0.698148     0.690505     0.682862     0.675219     0.667576     0.659933     0.652290     0.644646
      0.637003     0.629360     0.621717     0.614074     0.606431     0.598788     0.591145     0.583502     0.575858     0.568215
      0.560572     0.552929     0.545286     0.537643     0.530000     0.522357     0.514714     0.507071     0.499427     0.491784
      0.484141     0.476498     0.468855     0.461212     0.453569     0.445925     0.438282     0.430639     0.422996     0.415353
      0.407710     0.400067     0.392424     0.384780     0.377137     0.369494     0.361851     0.354208     0.346565     0.338922
      0.331278     0.323635     0.315992     0.308349     0.300706     0.293063     0.285420     0.277777     0.270133     0.262490
      0.254847     0.247204     0.239561     0.231918     0.224275     0.216631     0.208988     0.201345
 NY phased data points follow
  -1.04898E+02 -9.65679E+01 -8.80517E+01 -1.09473E+02 -6.42992E+01 -4.15172E+01 -4.84408E+01 -6.19152E+01 -4.86922E+01 -3.24126E+01
  -3.39165E+01 -3.06859E+01 -5.26618E+01 -5.61732E+01 -6.25690E+01 -6.02427E+01 -7.00586E+01 -6.01039E+01 -7.76423E+01 -6.66251E+01
  -6.71310E+01 -6.00465E+01 -5.97723E+01 -4.52407E+01 -6.09875E+01 -5.37493E+01 -5.52885E+01 -5.90742E+01 -4.99375E+01 -5.75002E+01
  -5.79278E+01 -7.23722E+01 -5.81350E+01 -3.77071E+01 -4.17279E+01 -5.06454E+01 -5.38056E+01 -4.87375E+01 -4.72351E+01 -4.59363E+01
  -4.17769E+01 -4.22872E+01 -6.21153E+01 -2.30609E+01 -1.27602E+01 -2.25473E+01 -3.73680E+01 -4.74670E+01 -2.70657E+01 -2.31618E+01
  -4.02263E+01 -4.83177E+01 -4.08420E+01 -3.08102E+01 -3.20590E+01 -3.06231E+01 -3.90435E+01 -3.12094E+01 -3.21122E+01 -3.04640E+01
  -2.90565E+01 -2.50123E+01 -5.03025E+01 -4.43583E+01 -4.50128E+01 -5.59086E+01 -4.45898E+01 -4.16513E+01 -4.04576E+01 -4.67313E+01
  -7.10424E+01 -5.96059E+01 -2.54057E+01 -3.69083E+01 -3.70735E+01 -2.76107E+01 -2.68658E+01 -5.41233E+01 -3.82746E+01 -5.18304E+01
  -4.24844E+01 -3.98045E+01 -4.10883E+01 -2.40419E+01 -4.46889E+01 -4.00353E+01 -2.56636E+01 -4.14462E+01 -4.90438E+01 -4.00273E+01
  -1.39558E+01 -1.35194E+01 -3.31457E+01 -2.72542E+01 -2.72248E+01 -4.11907E+01 -2.98511E+01 -2.63759E+01 -4.21367E+00  9.08831E+00
   7.51138E+00  2.73191E+01  3.87681E+01  3.94089E+01  4.32791E+01  4.08251E+01  2.04328E+01 -1.95027E+01  3.95452E+00 -1.40500E+01
  -8.74193E+00 -3.31581E+01 -3.12785E+01 -3.42100E+01 -1.87202E+01 -1.03064E+01 -3.44226E+01 -1.67312E+01 -5.95267E+00 -2.40304E+01
   3.87326E+00 -7.33498E+00 -7.91012E+00  1.28432E+01  1.19866E+01  2.64065E+01  4.89504E+01  3.92777E+01  4.97569E+01  2.62257E+01
   1.54127E+01  6.72514E+00 -3.51052E+01  9.98482E+00 -7.21082E+00 -2.04544E+01 -2.30221E+01 -3.66151E+01 -1.96371E+01 -3.86648E+01
  -1.78222E+01 -2.02767E+01 -1.96958E+01 -2.99555E+01 -2.66078E+01 -3.22210E+01 -2.87589E+01 -3.45595E+01 -2.03137E+01 -3.36448E+01
  -2.32795E+01 -2.28514E+01 -2.26078E+01 -3.74001E+01 -1.54595E+01 -2.62729E+01 -2.98693E+01 -1.76501E+01 -2.15292E+01 -3.29366E+01
  -2.92605E+01 -2.44583E+01 -3.93607E+01 -3.76496E+01 -1.55151E+01 -4.68878E+01 -1.56821E+01 -8.81981E+00 -1.71834E+01 -1.75138E+01
  -2.49659E+01 -4.06686E+01 -2.58356E+01 -2.25850E+01 -2.14550E+01 -3.09546E+01 -4.41806E+01 -3.71778E+01 -3.87209E+01 -2.67343E+01
  -3.98966E+01 -2.17196E+01 -2.78567E+01 -4.36206E+01 -2.58186E+01 -1.87529E+01 -9.28880E+00 -3.06523E+01 -1.58940E+01 -2.54412E+00
  -2.13524E+01 -2.88482E+01 -9.11403E+00 -1.55438E+01 -1.01615E+00 -1.50681E+01 -1.59138E+01 -1.52749E+01 -3.54088E+01 -1.57285E+01
  -9.47069E+00 -7.41725E+00 -3.48687E+00 -8.24681E+00 -7.89188E+00 -4.08438E+00 -1.28656E+01  1.11277E+01 -2.83170E+01 -2.49322E+01
  -1.10911E+01 -1.62104E+01 -1.49330E+01 -9.09292E+00 -3.63202E+00  1.38247E+01  9.84462E+00 -1.11610E+01 -5.57701E+00 -5.33217E+00
  -1.58137E+01 -2.40594E+00 -2.16699E+01 -1.48472E+01 -8.72180E+00 -1.76334E+01 -3.20259E+00  1.11308E+00 -1.26033E+01 -1.36947E+01
   1.10268E+01  3.96718E+00  1.30509E+01  4.91191E+00 -1.97478E+00 -1.16360E+01  2.51475E+00 -9.52671E+00  1.00818E+01 -9.15710E+00
  -3.24424E+00  2.67752E+00  3.00770E+00  2.66613E+00 -7.24283E+00 -1.44685E+01 -2.93576E+00 -9.87882E+00  1.78454E+01  9.97815E+00
   1.70468E+01  1.71047E+01  2.23053E+01  1.64627E+01  3.48519E+01  6.04664E+01  7.40815E+01  7.46523E+01  8.24016E+01  1.01154E+02
   1.04666E+02  1.08450E+02  1.14336E+02  8.11401E+01  5.79569E+01  3.81833E+01  3.86637E+01  2.26185E+01  1.66398E+01  1.42118E+01
   4.16166E-01  1.07342E+00  1.63372E+01  1.43765E+01 -7.94108E+00 -4.05826E-01  1.30228E+01  4.74754E+00  2.58551E+01  7.27032E+00
   7.65752E+00 -4.66387E+00  1.23343E+01  1.27101E+01 -8.61523E+00 -8.28059E+00  3.03194E+00  1.23924E+01  1.89134E+00 -7.97412E+00
   1.73561E+00  6.18715E+00  6.84790E-02  4.24631E-01  1.89537E+01  1.42197E+01  1.16313E+01  1.13663E+01  2.13213E+01  1.86851E+01
   2.55670E+00  6.11135E+00  1.13851E+01  5.59833E+00  5.62534E+00 -1.78904E-01  2.63832E+01  1.62711E+01  8.48510E+00  1.31284E+01
   1.24860E+01  3.13577E+01  1.19019E+01  8.19060E+00  1.22327E+01  4.75886E+00  2.45381E+01  1.27817E+01  2.68340E+01  1.56164E+01
   3.54600E+00  1.07468E+01  1.24647E+01 -4.29548E+00  1.33217E+01 -1.24395E+00 -6.66900E+00  7.54674E+00 -2.71091E-01  6.13744E+00
  -7.83282E+00 -6.67157E+00 -7.59598E+00  1.02873E+01  3.14946E+01  1.99770E+01  2.04577E+01  2.08642E+01  1.66905E+01  8.93387E+00
   3.65808E+01  4.31570E+01  1.20278E+01  1.93440E+01  2.42925E+01  3.49677E+01  2.43135E+01  2.53350E+01  3.37331E+01  4.34971E+01
   2.75505E+01  3.94436E+01  4.19864E+01  4.35582E+01  5.13997E+01  5.79106E+01  4.57734E+01  4.15494E+01  4.06027E+01  3.64226E+01
   2.96571E+01  2.53511E+01  2.94092E+01  3.97797E+01  4.90161E+01  4.23263E+01  4.17337E+01  3.38530E+01  2.49898E+01  4.71689E+01
   2.91691E+01  1.08033E+01  3.36695E+01  1.37315E+01  1.10475E+01  1.32855E+01  3.85832E+01  1.70565E+01 -7.37113E+00  3.41814E+00
   1.43284E+01  1.36216E+01  3.72466E+01  1.49277E+01  2.03417E+01  2.27080E+01  8.97617E+00  1.42377E+01  3.50988E+01  1.42119E+01
   8.61795E+00  1.52987E+01  6.92263E+00 -5.91199E+00  1.77309E+01  9.74784E+00  9.49578E+00  2.67084E+01  2.11395E+01  3.37661E+01
   2.25128E+01  3.01677E+01  2.79488E+01  2.29470E+01  3.64373E+01  2.05283E+01  2.02458E+01  2.19288E+01  2.64828E+01  3.39237E+01
   3.18432E+01  2.85767E+01  2.01524E+01  2.33046E+01  2.24267E+01  2.77740E+01  2.55589E+01  2.45955E+01  3.64447E+01  1.15756E+01
   1.73615E+01  1.33437E+01  2.08722E+01 -2.73448E+00  1.29402E+01 -4.63090E+00  1.28264E+01  1.51239E+01  2.04360E+01  2.16535E+01
   1.87799E+01  2.61284E+01  5.93457E+00  1.99210E+01  9.59694E+00  1.24348E+01  1.57039E+01  2.80049E+01  2.90868E+01  1.28634E+01
   3.72543E+00  3.14266E+01  6.32611E+00  1.77160E+01 -1.85749E+00  1.58626E+01  1.12985E+01  2.10064E+01  5.93124E+00 -1.07596E+00
   1.08463E+01  1.35278E+01  4.49694E+01  1.83838E+01  1.78735E+01  1.90098E+01  2.08741E+01  9.98062E+00  8.54105E+00  1.67692E+00
   7.44785E+00  1.50426E+01  8.34024E-03  3.12863E+01  1.67496E+01 -6.41304E-01  3.05933E+00  2.42408E+01 -3.59989E+00 -4.13793E-01
   1.06837E+01  2.14978E+01  9.83974E+00  1.14950E+01  1.83550E+00  7.70800E+00  1.49671E+01  3.40002E+01  2.23555E+01  6.14926E+00
   1.41592E+01  2.29539E+01  2.07683E+01  9.11493E+00 -3.65703E+00  7.97547E+00 -1.15342E+01  1.46866E+01  1.37883E+01  1.49664E+01
   8.12391E+00  2.67922E+01 -4.98994E+00  1.85495E+01 -5.79122E+00  1.04818E+01  2.29553E+01  1.65489E+01
 NY points of the fit to the data follow
  -6.29456E+01 -6.52735E+01 -6.57965E+01 -6.45597E+01 -6.21077E+01 -5.96129E+01 -5.74089E+01 -5.43171E+01 -4.96153E+01 -4.42272E+01
  -4.01854E+01 -3.96384E+01 -4.29659E+01 -4.79256E+01 -5.17255E+01 -5.34806E+01 -5.43233E+01 -5.52935E+01 -5.61502E+01 -5.60590E+01
  -5.53166E+01 -5.46754E+01 -5.43985E+01 -5.45931E+01 -5.51565E+01 -5.57704E+01 -5.62143E+01 -5.62691E+01 -5.57560E+01 -5.44772E+01
  -5.23847E+01 -4.97987E+01 -4.73102E+01 -4.55598E+01 -4.50412E+01 -4.58826E+01 -4.77411E+01 -4.99213E+01 -5.15094E+01 -5.16222E+01
  -5.00495E+01 -4.73093E+01 -4.42129E+01 -4.14469E+01 -3.91472E+01 -3.70255E+01 -3.52244E+01 -3.44917E+01 -3.55983E+01 -3.85894E+01
  -4.24007E+01 -4.54495E+01 -4.68136E+01 -4.66371E+01 -4.57301E+01 -4.47429E+01 -4.37290E+01 -4.25533E+01 -4.13437E+01 -4.03792E+01
  -3.99426E+01 -4.01444E+01 -4.08899E+01 -4.17725E+01 -4.22899E+01 -4.21902E+01 -4.15659E+01 -4.06601E+01 -3.96623E+01 -3.86787E+01
  -3.77776E+01 -3.70554E+01 -3.66225E+01 -3.65070E+01 -3.66489E+01 -3.69478E+01 -3.73125E+01 -3.76914E+01 -3.79787E+01 -3.80050E+01
  -3.77862E+01 -3.73978E+01 -3.70266E+01 -3.67875E+01 -3.66148E+01 -3.65141E+01 -3.66618E+01 -3.71830E+01 -3.79550E+01 -3.86985E+01
  -3.90429E+01 -3.88386E+01 -3.83445E+01 -3.78592E+01 -3.71745E+01 -3.45068E+01 -2.78439E+01 -1.79153E+01 -6.39657E+00  4.92281E+00
   1.54039E+01  2.57489E+01  3.55169E+01  4.19519E+01  4.18672E+01  3.38629E+01  1.98945E+01  4.85447E+00 -6.92977E+00 -1.46604E+01
  -2.03099E+01 -2.54662E+01 -2.97095E+01 -3.20587E+01 -3.27585E+01 -3.28935E+01 -3.28052E+01 -3.24530E+01 -3.12405E+01 -2.70689E+01
  -1.92871E+01 -9.08629E+00  1.89410E+00  1.21979E+01  2.18629E+01  3.14345E+01  3.95498E+01  4.32246E+01  4.00144E+01  2.97956E+01
   1.57726E+01  2.74955E+00 -6.48246E+00 -1.25328E+01 -1.74686E+01 -2.19880E+01 -2.52408E+01 -2.66305E+01 -2.69384E+01 -2.69571E+01
  -2.68908E+01 -2.68028E+01 -2.67022E+01 -2.65597E+01 -2.63507E+01 -2.61083E+01 -2.59134E+01 -2.58225E+01 -2.58139E+01 -2.58070E+01
  -2.57325E+01 -2.55899E+01 -2.54512E+01 -2.54265E+01 -2.55696E+01 -2.58234E+01 -2.60991E+01 -2.62873E+01 -2.63866E+01 -2.64882E+01
  -2.66074E+01 -2.66552E+01 -2.64876E+01 -2.60348E+01 -2.54422E+01 -2.50060E+01 -2.49421E+01 -2.52519E+01 -2.57834E+01 -2.63694E+01
  -2.68549E+01 -2.72139E+01 -2.74670E+01 -2.76809E+01 -2.79383E+01 -2.81612E+01 -2.81737E+01 -2.78327E+01 -2.71995E+01 -2.65758E+01
  -2.62111E+01 -2.60047E+01 -2.56527E+01 -2.48991E+01 -2.38213E+01 -2.27793E+01 -2.19752E+01 -2.12569E+01 -2.03639E+01 -1.92369E+01
  -1.81267E+01 -1.73885E+01 -1.71000E+01 -1.70166E+01 -1.68074E+01 -1.63030E+01 -1.55257E+01 -1.45801E+01 -1.35172E+01 -1.23667E+01
  -1.12286E+01 -1.02057E+01 -9.65144E+00 -9.86573E+00 -1.09064E+01 -1.27389E+01 -1.50806E+01 -1.74563E+01 -1.92577E+01 -1.98041E+01
  -1.88672E+01 -1.66290E+01 -1.35514E+01 -1.02022E+01 -7.25838E+00 -5.50657E+00 -5.45422E+00 -7.07488E+00 -9.98073E+00 -1.34105E+01
  -1.64263E+01 -1.82633E+01 -1.85374E+01 -1.72430E+01 -1.45712E+01 -1.09425E+01 -7.18597E+00 -4.23747E+00 -2.55385E+00 -1.81788E+00
  -1.51686E+00 -1.36777E+00 -1.27166E+00 -1.13578E+00 -8.28007E-01 -4.33304E-01 -1.13579E-02  5.06347E-01  1.17108E+00  1.85614E+00
   2.29648E+00  2.31730E+00  2.05226E+00  1.85256E+00  1.97469E+00  2.50951E+00  3.40041E+00  4.52743E+00  5.88267E+00  7.47504E+00
   9.34494E+00  1.16966E+01  1.61799E+01  2.54068E+01  3.86919E+01  5.38476E+01  6.82724E+01  8.07124E+01  9.21430E+01  1.02805E+02
   1.09892E+02  1.09449E+02  9.92226E+01  8.08850E+01  6.02691E+01  4.33104E+01  3.17673E+01  2.34330E+01  1.60102E+01  9.72942E+00
   5.85166E+00  4.30374E+00  3.68263E+00  3.40692E+00  3.30292E+00  3.22429E+00  3.06261E+00  2.80813E+00  2.50406E+00  2.21014E+00
   1.97236E+00  1.80796E+00  1.72211E+00  1.72950E+00  1.83925E+00  2.03639E+00  2.29730E+00  2.61043E+00  2.97543E+00  3.39374E+00
   3.86468E+00  4.38444E+00  4.94898E+00  5.54955E+00  6.17546E+00  6.81838E+00  7.47048E+00  8.11995E+00  8.75252E+00  9.35287E+00
   9.90688E+00  1.04024E+01  1.08284E+01  1.11738E+01  1.14301E+01  1.15935E+01  1.16655E+01  1.16517E+01  1.15616E+01  1.14073E+01
   1.12034E+01  1.09668E+01  1.07167E+01  1.04753E+01  1.02675E+01  1.01223E+01  1.00785E+01  1.02005E+01  1.06271E+01  1.14963E+01
   1.24862E+01  1.32139E+01  1.34369E+01  1.31050E+01  1.23476E+01  1.10874E+01  8.99239E+00  6.24214E+00  3.43081E+00  1.31182E+00
   6.06599E-01  1.50534E+00  3.71054E+00  6.84389E+00  1.05742E+01  1.45583E+01  1.82466E+01  2.09370E+01  2.23345E+01  2.29621E+01
   2.35548E+01  2.44197E+01  2.54134E+01  2.63853E+01  2.74363E+01  2.87581E+01  3.03311E+01  3.20417E+01  3.38187E+01  3.56055E+01
   3.73460E+01  3.89820E+01  4.04533E+01  4.17006E+01  4.26697E+01  4.33168E+01  4.36132E+01  4.35485E+01  4.31315E+01  4.23882E+01
   4.13582E+01  4.00898E+01  3.86350E+01  3.70451E+01  3.53674E+01  3.36431E+01  3.19070E+01  3.01880E+01  2.85102E+01  2.68933E+01
   2.53537E+01  2.39044E+01  2.25557E+01  2.13154E+01  2.01891E+01  1.91799E+01  1.82890E+01  1.75158E+01  1.68585E+01  1.63143E+01
   1.58803E+01  1.55531E+01  1.53295E+01  1.52063E+01  1.51809E+01  1.52511E+01  1.54151E+01  1.56709E+01  1.60166E+01  1.64494E+01
   1.69663E+01  1.75628E+01  1.82330E+01  1.89691E+01  1.97608E+01  2.05957E+01  2.14593E+01  2.23346E+01  2.32029E+01  2.40439E+01
   2.48365E+01  2.55597E+01  2.61935E+01  2.67196E+01  2.71224E+01  2.73896E+01  2.75130E+01  2.74889E+01  2.73185E+01  2.70074E+01
   2.65654E+01  2.60059E+01  2.53454E+01  2.46026E+01  2.37975E+01  2.29501E+01  2.20799E+01  2.12050E+01  2.03420E+01  1.95049E+01
   1.87053E+01  1.79522E+01  1.72517E+01  1.66078E+01  1.60224E+01  1.54956E+01  1.50261E+01  1.46112E+01  1.42475E+01  1.39310E+01
   1.36580E+01  1.34241E+01  1.32254E+01  1.30577E+01  1.29174E+01  1.28012E+01  1.27063E+01  1.26300E+01  1.25699E+01  1.25238E+01
   1.24899E+01  1.24669E+01  1.24534E+01  1.24482E+01  1.24503E+01  1.24587E+01  1.24728E+01  1.24920E+01  1.25159E+01  1.25437E+01
   1.25751E+01  1.26097E+01  1.26473E+01  1.26875E+01  1.27303E+01  1.27751E+01  1.28220E+01  1.28705E+01  1.29209E+01  1.29728E+01
   1.30262E+01  1.30808E+01  1.31365E+01  1.31933E+01  1.32513E+01  1.33103E+01  1.33702E+01  1.34308E+01  1.34921E+01  1.35542E+01
   1.36171E+01  1.36807E+01  1.37449E+01  1.38095E+01  1.38747E+01  1.39405E+01  1.40068E+01  1.40736E+01  1.41408E+01  1.42084E+01
   1.42764E+01  1.43449E+01  1.44139E+01  1.44831E+01  1.45528E+01  1.46227E+01  1.46930E+01  1.47638E+01  1.48350E+01  1.49064E+01
   1.49782E+01  1.50504E+01  1.51230E+01  1.51960E+01  1.52695E+01  1.53433E+01  1.54175E+01  1.54922E+01
 NY background values follow
    -6.608E+01   -6.581E+01   -6.554E+01   -6.527E+01   -6.500E+01   -6.473E+01   -6.446E+01   -6.419E+01   -6.392E+01   -6.365E+01
    -6.338E+01   -6.311E+01   -6.284E+01   -6.257E+01   -6.230E+01   -6.203E+01   -6.177E+01   -6.150E+01   -6.123E+01   -6.096E+01
    -6.069E+01   -6.042E+01   -6.015E+01   -5.988E+01   -5.961E+01   -5.934E+01   -5.908E+01   -5.881E+01   -5.854E+01   -5.827E+01
    -5.800E+01   -5.774E+01   -5.747E+01   -5.720E+01   -5.693E+01   -5.667E+01   -5.640E+01   -5.613E+01   -5.587E+01   -5.560E+01
    -5.534E+01   -5.507E+01   -5.480E+01   -5.454E+01   -5.427E+01   -5.401E+01   -5.374E+01   -5.348E+01   -5.322E+01   -5.295E+01
    -5.269E+01   -5.243E+01   -5.216E+01   -5.190E+01   -5.164E+01   -5.137E+01   -5.111E+01   -5.085E+01   -5.059E+01   -5.033E+01
    -5.007E+01   -4.981E+01   -4.955E+01   -4.929E+01   -4.903E+01   -4.877E+01   -4.851E+01   -4.825E+01   -4.800E+01   -4.774E+01
    -4.748E+01   -4.722E+01   -4.697E+01   -4.671E+01   -4.646E+01   -4.620E+01   -4.595E+01   -4.569E+01   -4.544E+01   -4.518E+01
    -4.493E+01   -4.468E+01   -4.442E+01   -4.417E+01   -4.392E+01   -4.367E+01   -4.342E+01   -4.317E+01   -4.292E+01   -4.267E+01
    -4.242E+01   -4.217E+01   -4.192E+01   -4.168E+01   -4.143E+01   -4.118E+01   -4.094E+01   -4.069E+01   -4.045E+01   -4.020E+01
    -3.996E+01   -3.971E+01   -3.947E+01   -3.923E+01   -3.899E+01   -3.875E+01   -3.850E+01   -3.826E+01   -3.802E+01   -3.778E+01
    -3.755E+01   -3.731E+01   -3.707E+01   -3.683E+01   -3.659E+01   -3.636E+01   -3.612E+01   -3.589E+01   -3.565E+01   -3.542E+01
    -3.518E+01   -3.495E+01   -3.472E+01   -3.448E+01   -3.425E+01   -3.402E+01   -3.379E+01   -3.356E+01   -3.333E+01   -3.310E+01
    -3.288E+01   -3.265E+01   -3.242E+01   -3.219E+01   -3.197E+01   -3.174E+01   -3.152E+01   -3.129E+01   -3.107E+01   -3.085E+01
    -3.062E+01   -3.040E+01   -3.018E+01   -2.996E+01   -2.974E+01   -2.952E+01   -2.930E+01   -2.908E+01   -2.886E+01   -2.865E+01
    -2.843E+01   -2.821E+01   -2.800E+01   -2.778E+01   -2.757E+01   -2.736E+01   -2.714E+01   -2.693E+01   -2.672E+01   -2.651E+01
    -2.630E+01   -2.608E+01   -2.588E+01   -2.567E+01   -2.546E+01   -2.525E+01   -2.504E+01   -2.484E+01   -2.463E+01   -2.442E+01
    -2.422E+01   -2.402E+01   -2.381E+01   -2.361E+01   -2.341E+01   -2.320E+01   -2.300E+01   -2.280E+01   -2.260E+01   -2.240E+01
    -2.220E+01   -2.201E+01   -2.181E+01   -2.161E+01   -2.142E+01   -2.122E+01   -2.102E+01   -2.083E+01   -2.064E+01   -2.044E+01
    -2.025E+01   -2.006E+01   -1.987E+01   -1.968E+01   -1.948E+01   -1.930E+01   -1.911E+01   -1.892E+01   -1.873E+01   -1.854E+01
    -1.836E+01   -1.817E+01   -1.799E+01   -1.780E+01   -1.762E+01   -1.743E+01   -1.725E+01   -1.707E+01   -1.689E+01   -1.671E+01
    -1.653E+01   -1.635E+01   -1.617E+01   -1.599E+01   -1.581E+01   -1.563E+01   -1.546E+01   -1.528E+01   -1.511E+01   -1.493E+01
    -1.476E+01   -1.459E+01   -1.441E+01   -1.424E+01   -1.407E+01   -1.390E+01   -1.373E+01   -1.356E+01   -1.339E+01   -1.322E+01
    -1.306E+01   -1.289E+01   -1.272E+01   -1.256E+01   -1.239E+01   -1.223E+01   -1.207E+01   -1.190E+01   -1.174E+01   -1.158E+01
    -1.142E+01   -1.126E+01   -1.110E+01   -1.094E+01   -1.078E+01   -1.062E+01   -1.047E+01   -1.031E+01   -1.015E+01   -9.999E+00
    -9.844E+00   -9.690E+00   -9.536E+00   -9.384E+00   -9.232E+00   -9.080E+00   -8.929E+00   -8.779E+00   -8.629E+00   -8.480E+00
    -8.332E+00   -8.184E+00   -8.036E+00   -7.890E+00   -7.744E+00   -7.598E+00   -7.453E+00   -7.309E+00   -7.165E+00   -7.022E+00
    -6.880E+00   -6.738E+00   -6.597E+00   -6.456E+00   -6.316E+00   -6.177E+00   -6.038E+00   -5.899E+00   -5.762E+00   -5.624E+00
    -5.488E+00   -5.352E+00   -5.216E+00   -5.082E+00   -4.947E+00   -4.813E+00   -4.680E+00   -4.548E+00   -4.415E+00   -4.284E+00
    -4.153E+00   -4.022E+00   -3.893E+00   -3.763E+00   -3.634E+00   -3.506E+00   -3.378E+00   -3.251E+00   -3.124E+00   -2.998E+00
    -2.873E+00   -2.748E+00   -2.623E+00   -2.499E+00   -2.375E+00   -2.252E+00   -2.130E+00   -2.008E+00   -1.886E+00   -1.765E+00
    -1.644E+00   -1.524E+00   -1.405E+00   -1.286E+00   -1.167E+00   -1.049E+00   -9.315E-01   -8.144E-01   -6.977E-01   -5.816E-01
    -4.659E-01   -3.506E-01   -2.359E-01   -1.215E-01   -7.689E-03    1.057E-01    2.187E-01    3.312E-01    4.432E-01    5.548E-01
     6.660E-01    7.768E-01    8.871E-01    9.970E-01    1.106E+00    1.215E+00    1.324E+00    1.432E+00    1.540E+00    1.648E+00
     1.755E+00    1.861E+00    1.967E+00    2.073E+00    2.179E+00    2.284E+00    2.388E+00    2.493E+00    2.596E+00    2.700E+00
     2.803E+00    2.906E+00    3.008E+00    3.110E+00    3.212E+00    3.313E+00    3.414E+00    3.515E+00    3.615E+00    3.715E+00
     3.815E+00    3.914E+00    4.013E+00    4.112E+00    4.210E+00    4.309E+00    4.406E+00    4.504E+00    4.601E+00    4.697E+00
     4.794E+00    4.890E+00    4.986E+00    5.082E+00    5.177E+00    5.272E+00    5.366E+00    5.461E+00    5.555E+00    5.649E+00
     5.742E+00    5.836E+00    5.929E+00    6.021E+00    6.114E+00    6.206E+00    6.298E+00    6.390E+00    6.481E+00    6.572E+00
     6.663E+00    6.754E+00    6.844E+00    6.934E+00    7.024E+00    7.114E+00    7.203E+00    7.292E+00    7.381E+00    7.470E+00
     7.559E+00    7.647E+00    7.735E+00    7.823E+00    7.911E+00    7.998E+00    8.085E+00    8.172E+00    8.259E+00    8.346E+00
     8.432E+00    8.518E+00    8.604E+00    8.690E+00    8.776E+00    8.861E+00    8.946E+00    9.031E+00    9.116E+00    9.201E+00
     9.285E+00    9.370E+00    9.454E+00    9.538E+00    9.621E+00    9.705E+00    9.789E+00    9.872E+00    9.955E+00    1.004E+01
     1.012E+01    1.020E+01    1.029E+01    1.037E+01    1.045E+01    1.053E+01    1.061E+01    1.070E+01    1.078E+01    1.086E+01
     1.094E+01    1.102E+01    1.110E+01    1.118E+01    1.126E+01    1.135E+01    1.143E+01    1.151E+01    1.159E+01    1.167E+01
     1.175E+01    1.183E+01    1.191E+01    1.199E+01    1.207E+01    1.215E+01    1.222E+01    1.230E+01    1.238E+01    1.246E+01
     1.254E+01    1.262E+01    1.270E+01    1.278E+01    1.286E+01    1.294E+01    1.301E+01    1.309E+01    1.317E+01    1.325E+01
     1.333E+01    1.341E+01    1.348E+01    1.356E+01    1.364E+01    1.372E+01    1.380E+01    1.387E+01    1.395E+01    1.403E+01
     1.411E+01    1.419E+01    1.426E+01    1.434E+01    1.442E+01    1.450E+01    1.457E+01    1.465E+01    1.473E+01    1.481E+01
     1.488E+01    1.496E+01    1.504E+01    1.512E+01    1.520E+01    1.527E+01    1.535E+01    1.543E+01
 Ala      Conc. = 9.22E+02
